time,S1-D1,S1-D8,S1-D9,S1-D15,S2-D1,S2-D2,S2-D3,S2-D9,S3-D1,S3-D2,S3-D16,S4-D2,S4-D3,S4-D5,S5-D3,S5-D4,S5-D5,S6-D2,S6-D5,S6-D17,S7-D6,S7-D7,S8-D6,S8-D7,S8-D18,S9-D3,S9-D4,S9-D9,S9-D11,S9-D19,S10-D8,S10-D9,S10-D10,S10-D11,S11-D8,S11-D10,S11-D20,S12-D10,S12-D11,S12-D12,S13-D4,S13-D11,S13-D12,S14-D10,S14-D12,S14-D21,S15-D13,S15-D14,S16-D13,S16-D14,S16-D22,t_rel_s,eye_n,xp,yp,ps,xpl_i,xpr_i,ypl_i,ypr_i,psl_i,psr_i,blink_prop
1404.1088,0.405287394499924,-1.04990332472687,-0.135126910680474,-0.13062473652714,-1.54357587301499,-1.54357587301709,1.14168289927813,0.0905998427440942,1.20081431449961,0.632759552708382,-0.381927883109181,0.632759552708613,0.481011192465514,-1.14494020881081,,0.924854886923602,,0.737350626989561,-1.45595284470583,0.0909167759010405,-1.45595284470498,,-0.86041008266348,,-0.540099145935461,-0.787214612816455,,0.273098810311693,-0.273098810310451,-0.46596443878029,-0.463057774295502,-1.30052244660825,-0.903519966642559,0.0279533948756433,-0.480758383648344,-0.125917366121156,-0.600816125019474,0.425985396886147,0.425985396883806,-2.43714921443002,2.54059995748251,0.107816789792964,-1.3596975692711,0.814344342951834,-0.850535832525943,0.548650517452534,-2.18097644252928,,,,,0,103,961.691262135922,552.865533980583,769.995145631068,965.176699029126,958.205825242718,554.929126213592,550.801941747573,873.864077669903,666.126213592233,0
1404.2112,0.424847277843214,-1.03840298589182,-0.112536033634844,-0.141426995575025,-1.52134230443008,-1.52134230443218,1.13980518196563,0.107347538242868,1.20374226384481,0.636076565620483,-0.366226678206205,0.6360765656207,0.488384145082818,-1.14919217813678,,0.929441007333296,,0.735062854701992,-1.45381787985565,0.124675627277528,-1.4538178798548,,-0.83063742208684,,-0.558459302191753,-0.783352653803053,,0.283972260610856,-0.283972260609607,-0.484442528399193,-0.442103388882892,-1.28961465323275,-0.882081170592581,0.0248595295552453,-0.496121315208366,-0.133753590926561,-0.607773178743668,0.416476643671136,0.416476643668813,-2.43070648506454,2.56655552918248,0.14121092931028,-1.32935240070977,0.801169089626935,-0.822907773781773,0.526753245208684,-2.15578363927546,,,,,0.102399999999989,102,960.38137254902,555.186274509804,775.980392156863,966.492156862745,954.270588235294,558.492156862745,551.880392156863,878.950980392157,673.009803921569,0
1404.3136,0.444521914167287,-1.0263668414884,-0.0895933157408589,-0.150710416364936,-1.49867142784766,-1.49867142784977,1.13773804908676,0.123133809596196,1.20619637221855,0.638150577061072,-0.350049831777445,0.638150577061271,0.49601766299152,-1.15348432532304,,0.934272839148388,,0.733116929920854,-1.45046542143673,0.159303254277324,-1.45046542143588,,-0.80104621694567,,-0.57507170921919,-0.779178189920545,,0.294934971751874,-0.294934971750618,-0.50117056789565,-0.421211040917301,-1.27745103155134,-0.860183343497658,0.0220339635448179,-0.511343646265058,-0.141288628363879,-0.612979941286256,0.406253544803887,0.406253544801573,-2.42095291057262,2.58940475110244,0.174814271438391,-1.29591316408306,0.785522408294202,-0.794413753587147,0.505025670404669,-2.12946809392022,,,,,0.204799999999977,103,805.433009708738,539.866990291262,742.519417475728,814.444660194175,796.421359223301,539.292233009709,540.441747572816,833.359223300971,651.679611650485,0
1404.416,0.464288359499164,-1.01382405673022,-0.0663325965165354,-0.158481908233238,-1.47561670717352,-1.47561670717563,1.13547306071675,0.137940483641074,1.20816268360041,0.638984503776993,-0.333429964846554,0.638984503777177,0.503921472723159,-1.15782362830026,,0.939321846186803,,0.731472091887763,-1.44585076780136,0.194783581972051,-1.44585076780052,,-0.771727996931919,,-0.589917524590702,-0.774714737920101,,0.305971279582837,-0.305971279581574,-0.516129137488966,-0.400394765871218,-1.26404156212211,-0.837841930114619,0.0194695278298509,-0.526436104028195,-0.14853273938212,-0.616458069604094,0.395314363980109,0.3953143639778,-2.40793852633736,2.60914639047301,0.208573991406103,-1.25936592357377,0.767354613190604,-0.765116554993175,0.48350410726731,-2.10210868075306,,,,,0.307199999999966,102,696.886764705882,525.136764705882,603.392156862745,703.66862745098,690.104901960784,525.637254901961,524.636274509804,662.745098039216,544.039215686275,0
1404.5184,0.484122561559655,-1.00080576172079,-0.0427896104816722,-0.164752954515114,-1.4522323796743,-1.45223237967642,1.13300373659998,0.151752543161773,1.20963017377339,0.638585879901653,-0.31640131974309,0.638585879901822,0.512104960782364,-1.16221569069174,,0.944558540549714,,0.73008731269235,-1.439937936242,0.231096657229374,-1.43993793624116,,-0.742773160547991,,-0.602983027942304,-0.769985958548899,,0.317065034346454,-0.31706503434519,-0.529303263452865,-0.379669431922136,-1.24940182442322,-0.815075322426246,0.0171583408491867,-0.541409635128937,-0.155496935929082,-0.618233728539621,0.383658143969212,0.383658143966923,-2.39172657666238,2.62579146864718,0.242436286579831,-1.21970786654781,0.746625570654638,-0.735080920007069,0.462224623860102,-2.07378564630147,,,,,0.409599999999955,102,698.332352941177,510.954901960784,454.21568627451,700.198039215686,696.466666666667,512.559803921569,509.35,500.460784313726,407.970588235294,0
1404.6208,0.503999433883643,-0.987344915234553,-0.019001858171943,-0.1695395001093,-1.42857334212445,-1.42857334212656,1.13032556270216,0.164558120899682,1.21059075532644,0.636966769402704,-0.298999675936477,0.636966769402856,0.520577117351947,-1.16666475325059,,0.949952575037697,,0.728921443757775,-1.43269970630816,0.268218563896806,-1.43269970630734,,-0.714270780034604,,-0.614259631761153,-0.765015606865132,,0.328199663579449,-0.32819966357818,-0.540682426385135,-0.3590507125039,-1.23355292728151,-0.791904809133534,0.0150918253711741,-0.556275349117604,-0.162192946874445,-0.618337438541998,0.371284782274422,0.371284782272152,-2.37239315346719,2.63936297566427,0.276346454497156,-1.17694742391008,0.723304933742227,-0.704373343762892,0.441222863715562,-2.04458011650297,,,,,0.511999999999944,103,696.332524271845,504.063106796117,361,694.068932038835,698.596116504854,501.278640776699,506.847572815534,394.970873786408,327.029126213592,0
1404.7232,0.523892933075093,-0.9734761505692,0.00499153399981351,-0.172861822627217,-1.40469502967569,-1.4046950296778,1.12743597528543,0.176348481593003,1.21103925605992,0.634143669027826,-0.281262256767517,0.634143669027962,0.529346462845722,-1.17117370944949,,0.955472827988929,,0.727933349437433,-1.42411758366787,0.306121350887577,-1.42411758366705,,-0.686308388731379,,-0.623743878521064,-0.759827478502243,,0.339358230372226,-0.339358230370956,-0.55026056327387,-0.33855503043829,-1.21652140354968,-0.768354487570202,0.0132607246776275,-0.571044448739413,-0.168633180396612,-0.616803907924739,0.358195130834934,0.358195130832675,-2.35002675233452,2.64989550278026,0.310248971493696,-1.13110435231012,0.697372341463282,-0.673061866500683,0.420533860692171,-2.01457359768466,,,,,0.614399999999932,102,698.592647058824,500.85,309.406862745098,692.487254901961,704.698039215686,495.920588235294,505.779411764706,335,283.813725490196,0
1404.8256,0.54377613524447,-0.959235605955635,0.0291499603942803,-0.174744394351449,-1.38065328783617,-1.38065328783827,1.12433432140232,0.187118000094267,1.2109733719934,0.630137403358198,-0.263227628712892,0.630137403358318,0.538420953786146,-1.17574412405647,,0.961087480409592,,0.727082027474307,-1.414181705217,0.344772966829571,-1.41418170521619,,-0.658971748796754,,-0.631437429053196,-0.75444535065208,,0.350523487672178,-0.350523487670902,-0.558036065582413,-0.318199476294765,-1.19833907438062,-0.744451142358975,0.0116551199448223,-0.585728144182857,-0.174830680136079,-0.613671856455391,0.344391118115514,0.344391118113269,-2.32472775315572,2.65743479570169,0.344087567279137,-1.08220976774268,0.668817569482505,-0.641215868739737,0.40019184380048,-1.98384748241926,,,,,0.716799999999921,103,700.940291262136,498.485922330097,286.199029126214,692.336893203884,709.543689320388,494.266990291262,502.704854368932,307.291262135922,265.106796116505,0
1404.928,0.563621308881986,-0.944660741968336,0.0534314857483992,-0.175215739333537,-1.35650423781646,-1.35650423781855,1.12102179716392,0.196864141716905,1.21039359815528,0.624973012055929,-0.244935594406308,0.624973012056034,0.547807869940605,-1.18037625349368,,0.966764090841871,,0.726326722183063,-1.40289068926503,0.384137203786247,-1.40289068926424,,-0.632344598651099,,-0.637347039921501,-0.748892918011073,,0.361677930426949,-0.36167793042567,-0.564011768184835,-0.298001704730237,-1.17904289028086,-0.720224096769258,0.010264451483525,-0.600337550880007,-0.180799072436384,-0.608983831133734,0.329875887738348,0.329875887736116,-2.29660783007516,2.66203723015574,0.377805292301552,-1.03030612566561,0.637640626159153,-0.608905872136291,0.380230030023615,-1.95248256789404,,,,,0.819200000000137,102,1096.37941176471,490.065196078431,270.279411764706,1080.68431372549,1112.07450980392,489.432352941177,490.698039215686,288.823529411765,251.735294117647,0
1405.0304,0.58339998626538,-0.929790147765089,0.0777929987198628,-0.174308288018549,-1.33230413645124,-1.33230413645331,1.11750136659855,0.20558744387458,1.20930313977957,0.618679626463183,-0.226427079870634,0.61867962646327,0.557513692270958,-1.18506906890406,,0.972469676838522,,0.725627039475867,-1.39025141860887,0.424173652635974,-1.39025141860811,,-0.606508387576132,,-0.641484527330757,-0.743193726903079,,0.372803848225914,-0.372803848224627,-0.56819492424136,-0.277979812094453,-1.15867475506068,-0.695705041925511,0.00907754479662267,-0.614883575602327,-0.186552505262221,-0.602786012555762,0.314653943087768,0.314653943085556,-2.26578930318514,2.66376922381021,0.411344579516509,-0.975447145789869,0.603851796101708,-0.576203339196667,0.360680403976229,-1.9205585906246,,,,,0.921600000000126,103,1239.35097087379,503.13932038835,273.553398058252,1227.6145631068,1251.08737864078,500.209708737864,506.068932038835,292.058252427184,255.04854368932,0
1405.1328,0.603083041854784,-0.914663337253422,0.102190376294729,-0.172058228251075,-1.30810923350612,-1.30810923350818,1.11377766436505,0.213291491284752,1.20770780502536,0.611290330993907,-0.207744015216899,0.611290330993984,0.56754398709794,-1.18982028568355,,0.978170814167654,,0.724943074107621,-1.37627873985394,0.4648376683696,-1.3762787398532,,-0.581542010725071,,-0.64386671552384,-0.737371113082091,,0.383883381976937,-0.383883381975648,-0.570597162836359,-0.258152196878729,-1.13728133532724,-0.670927846220742,0.00808264106523129,-0.629376800517497,-0.192105582235676,-0.595128008947979,0.29873128616123,0.298731286159033,-2.23240444825557,2.66270660812344,0.444647308089527,-0.917697677339238,0.567471635933251,-0.543180456741928,0.341573485957701,-1.88815377632233,,,,,1.02400000000011,102,1237.64509803922,508.150980392157,290.81862745098,1230.97549019608,1244.31470588235,503.929411764706,512.372549019608,311.21568627451,270.421568627451,0
1405.2352,0.622640788141541,-0.899320536598168,0.12657866760285,-0.168505346616874,-1.28397563005302,-1.28397563005508,1.10985688677559,0.219982873689797,1.20561588059678,0.60284200634265,-0.188929206854583,0.602842006342714,0.57790330921203,-1.19462640423647,,0.98383376221876,,0.724235555455512,-1.36099507339732,0.506080347236194,-1.36099507339659,,-0.557521555399327,,-0.644515366542522,-0.731448147749236,,0.394898587302257,-0.394898587300961,-0.571234428173572,-0.238537402574809,-1.11491385415935,-0.645928344031262,0.00726743146722371,-0.643827374103146,-0.19747329518509,-0.586062635413188,0.282115545683384,0.282115545681203,-2.19659476891756,2.65893397501589,0.477654879829481,-0.857133496783885,0.528530922666852,-0.509909889149183,0.32293809142773,-1.85534439625849,,,,,1.1264000000001,102,1240.18676470588,510.000980392157,294.083333333333,1231.62941176471,1248.74411764706,509.760784313726,510.241176470588,320.480392156863,267.686274509804,0
1405.3376,0.642043093636313,-0.883802465957004,0.150912299910794,-0.16369285363084,-1.25995913998826,-1.25995913999032,1.10574667574829,0.22567111676448,1.2030379923087,0.593375155145997,-0.170026199161603,0.593375155146054,0.588595124502794,-1.19948276465124,,0.98942461480989,,0.723466008341593,-1.34442994816665,0.547848527737343,-1.34442994816594,,-0.534520061204694,,-0.643457089923357,-0.725447592151026,,0.405831504511703,-0.405831504510403,-0.570126903721032,-0.219153941109212,-1.09162786679229,-0.62074410136204,0.00661909456130544,-0.658244910749183,-0.202670956521398,-0.575645680184704,0.264816098731036,0.264816098728879,-2.15851022255323,2.65254399652932,0.510308315475574,-0.79384102916822,0.487070548016024,-0.476464498161659,0.304801081026311,-1.82220431607364,,,,,1.22880000000009,103,1377.94805825243,511.173786407767,295.247572815534,1361.07572815534,1394.82038834951,501.408737864078,520.938834951456,321.368932038835,269.126213592233,0
1405.44,0.661259519662591,-0.868150118461083,0.175145302446742,-0.157667191819189,-1.23611515396941,-1.23611515397146,1.10145599721569,0.230368583144445,1.1999869512789,0.582933713484354,-0.151079124968071,0.582933713484399,0.599621741450597,-1.20438361486155,,0.994909467334406,,0.722596918419787,-1.32661948724364,0.590084827454822,-1.32661948724295,,-0.512607289632234,,-0.640723234763442,-0.719391857732851,,0.416664232887404,-0.416664232886097,-0.567298927860144,-0.200020095078279,-1.06748301837613,-0.595414157007413,0.00612433585634022,-0.67263839483368,-0.207714130945365,-0.563935664096656,0.246844193387614,0.246844193385496,-2.11830838663257,2.64363670143384,0.542548367965115,-0.727916989648872,0.443141351599896,-0.442917035822156,0.287187094253499,-1.78880452598888,,,,,1.33120000000008,102,1401.55784313725,519.439705882353,306.039215686275,1380.02450980392,1423.09117647059,511.83137254902,527.048039215686,333.833333333333,278.245098039216,0
1405.5424,0.680259469444856,-0.852404538143666,0.199231541532915,-0.150477831175689,-1.21249850361525,-1.21249850361728,1.09699501160015,0.23409034733035,1.19647758437842,0.571564851469276,-0.132132545856994,0.571564851469309,0.610984239819147,-1.20932219014435,,1.00025459168808,,0.721591894478505,-1.30760586793611,0.632727715275247,-1.30760586793545,,-0.491849497337483,,-0.636349766887057,-0.713302968545642,,0.42737900774447,-0.427379007743157,-0.562778903909026,-0.181153700235809,-1.04254278465897,-0.569978740751423,0.00576942991453509,-0.687016085262327,-0.212618564879145,-0.550993598702449,0.228213074774387,0.228213074772304,-2.07615355656215,2.63231869000433,0.574315642531143,-0.659467950965156,0.396803894767133,-0.409339817054972,0.270118260126272,-1.75521265299468,,,,,1.43360000000007,103,1401.53834951456,521.733009708738,324.082524271845,1378.81941747573,1424.2572815534,515.121359223301,528.344660194175,353.252427184466,294.912621359223,0
1405.6448,0.699012343563993,-0.836606599676622,0.223124960472287,-0.142177057519517,-1.18916332378344,-1.18916332378547,1.09237493346262,0.236854051913563,1.19252654812395,0.559318763335604,-0.113231283969129,0.559318763335629,0.622682390902975,-1.21429080179878,,1.00542661624558,,0.720415827345335,-1.28743677379122,0.675711611066603,-1.28743677379059,,-0.472309210828583,,-0.630377130747124,-0.707202523594068,,0.43795828134182,-0.4379582813405,-0.556599201100148,-0.162571916227979,-1.01687419448459,-0.544478974648617,0.0055402679195683,-0.701385419757563,-0.217400110592851,-0.536882744012485,0.208938106774682,0.208938106772624,-2.03221578677474,2.61870229292766,0.605550717689797,-0.58860984714856,0.348128183868065,-0.375804373748739,0.253613888102102,-1.7214924723261,,,,,1.53600000000006,102,1397.10343137255,526.555882352941,343.460784313726,1374.40784313726,1419.79901960784,517.693137254902,535.41862745098,371.676470588235,315.245098039216,0
1405.7472,0.717487695854997,-0.820796796400103,0.246779815940991,-0.132819756918547,-1.16616291087123,-1.16616291087324,1.0876078804128,0.238679753015057,1.18815212839261,0.546248444533575,-0.0944202466400658,0.546248444533592,0.634714569115019,-1.2192809334742,,1.01039271250962,,0.71903504965427,-1.26616485335906,0.718967009970249,-1.26616485335846,,-0.454045002820136,,-0.622850092939215,-0.701111657448069,,0.448384810478131,-0.448384810476803,-0.548796040072094,-0.144290998686615,-0.990547532014537,-0.518956567183446,0.00542241570989629,-0.715752919980133,-0.222074640588715,-0.521668363108443,0.189036874624138,0.189036874622103,-1.98666991042913,2.60290471530263,0.636194272900014,-0.51546742153057,0.297193350528973,-0.342381090664391,0.237690154914046,-1.68770344899416,,,,,1.63840000000005,102,1394.71666666667,531.435784313725,362.151960784314,1368.21862745098,1421.21470588235,525.824509803922,537.047058823529,392.56862745098,331.735294117647,0
1405.8496,0.735655383699865,-0.805015044382185,0.270150901944157,-0.122463195122586,-1.14354957541543,-1.14354957541743,1.08270671515725,0.239589760053892,1.18337403143206,0.532409452922923,-0.075744244185523,0.532409452922934,0.647077657240186,-1.22428334396188,,1.01512079127312,,0.717417501523559,-1.24384719434233,0.762420636709443,-1.24384719434174,,-0.437111269138775,,-0.61381756315015,-0.6950509980019,,0.458641752503162,-0.458641752501829,-0.539409357290401,-0.12632608453777,-0.963636018549045,-0.493453509884669,0.00540118611082209,-0.730124098722183,-0.226657948970663,-0.505417470117387,0.168529255103388,0.168529255101375,-1.93969457063843,2.58504721193846,0.666187236608192,-0.440173625044623,0.244087294893394,-0.309138822813133,0.222359806680696,-1.65390033763706,,,,,1.74080000000004,103,1393.93300970874,533.518446601942,381.155339805825,1366.11165048544,1421.75436893204,529.935922330097,537.100970873787,413.388349514563,348.922330097087,0
1405.952,0.753485708023748,-0.789300507618294,0.293193754815336,-0.111166787886225,-1.12137448806399,-1.12137448806599,1.07768488656098,0.239608469848973,1.17821317221114,0.517859653568231,-0.0572478005848705,0.517859653568239,0.659766947170834,-1.22928817487363,,1.01957970822359,,0.715532903183036,-1.22054481388646,0.805995637855509,-1.22054481388588,,-0.421558003117077,,-0.60333239033306,-0.689040620768069,,0.468712768408594,-0.468712768407249,-0.528482647458983,-0.108690996363777,-0.936215476543117,-0.468011782188324,0.00546172510524369,-0.744503369861626,-0.231165640458206,-0.488198570973563,0.147437449053572,0.14743744905157,-1.89147127559421,2.56525431927389,0.695470968038314,-0.362868976316307,0.188906303887078,-0.276144492547833,0.20763188942602,-1.62013285176273,,,,,1.84320000000002,102,1240.87941176471,524.606862745098,406.151960784314,1214.32058823529,1267.43823529412,525.267647058824,523.946078431373,445.313725490196,366.990196078431,0
1406.0544,0.770949539962692,-0.773691445861923,0.315864835894229,-0.0989918600015975,-1.09968751846021,-1.09968751846219,1.07255627354335,0.23876219189279,1.17269146312502,0.502658949601936,-0.0389749575940787,0.502658949601938,0.672776034591399,-1.23428506095421,,1.02373947334012,,0.713352928533097,-1.19632216750041,0.849611815102462,-1.19632216749983,,-0.407430565102635,,-0.591451135685937,-0.683099999424979,,0.478582130567952,-0.478582130566599,-0.516062787995238,-0.0913980656551512,-0.908363980251612,-0.442673066214939,0.00558910901272947,-0.758893960708361,-0.235613009633712,-0.470081400349023,0.125785978470223,0.125785978468227,-1.84218348114869,2.5436531539464,0.723987479395784,-0.283700904935246,0.131754664260593,-0.24346266774475,0.193511513212347,-1.58644540078484,,,,,1.94560000000001,103,533.993689320388,492.068446601942,431.956310679612,512.38640776699,555.600970873786,491.422330097087,492.714563106796,466.611650485437,397.300970873786,0
1406.1568,0.788018433374943,-0.758225084057767,0.338121691636183,-0.0860013954676981,-1.07853706762686,-1.07853706762882,1.0673350318926,0.237078962613866,1.16683160250755,0.486869002329023,-0.0209690743337614,0.486869002329021,0.68609670568872,-1.23926324169843,,1.02757145683922,,0.710851371105253,-1.17124668562576,0.893185893927141,-1.17124668562517,,-0.394769449996627,,-0.578233825466948,-0.677247953574149,,0.488234834919894,-0.488234834918532,-0.502199849666439,-0.0744579719874638,-0.880161498241473,-0.41747847117833,0.00576845199853069,-0.773297827572312,-0.240014911335289,-0.451136659105842,0.103601652757378,0.103601652755395,-1.79201570885222,2.52037278204767,0.751679694405577,-0.20282310114643,0.0727442863060612,-0.21115513218873,0.179999653625056,-1.55287689591031,,,,,2.048,102,501.827450980392,493.171078431373,423.769607843137,489.406862745098,514.248039215686,491.31862745098,495.023529411765,447.666666666667,399.872549019608,0
1406.2592,0.804664725094544,-0.742937500382095,0.359923094226154,-0.0722597837884652,-1.05796989761112,-1.05796989761308,1.06203544419131,0.234588351108545,1.16065686386883,0.470552942808921,-0.00327262649597152,0.47055294280891,0.699718820944576,-1.24421167502064,,1.03104858790542,,0.708004297966237,-1.14538834532591,0.936631816257377,-1.14538834532531,,-0.383610064584355,,-0.563743685990287,-0.671502596681887,,0.497656718270188,-0.497656718268816,-0.486946894118855,-0.0578795970874395,-0.851689532367667,-0.392468268449524,0.00598502517910894,-0.787715579203311,-0.24438562246054,-0.431435755056231,0.0809135064336839,0.0809135064317116,-1.74115270693898,2.49554365293131,0.7784917291414,-0.120394883849117,0.0119943360087552,-0.179280471785933,0.167093000027556,-1.51946063329023,,,,,2.15039999999999,102,470.703921568627,498.66862745098,416.642156862745,455.786274509804,485.621568627451,494.957843137255,502.379411764706,438.764705882353,394.519607843137,0
1406.3616,0.820861624608455,-0.727863528449538,0.381229166255554,-0.0578325679372344,-1.03803096491489,-1.03803096491684,1.05667177680668,0.231321266552671,1.15419089288824,0.453775078627953,0.0140729882054027,0.453775078627932,0.713630207559448,-1.24911915314334,,1.03414554405664,,0.704790190992225,-1.11881927800671,0.979861046482085,-1.11881927800609,,-0.373982529361494,,-0.548046863868545,-0.665881287483718,,0.506834577739165,-0.506834577737785,-0.470359758310737,-0.0416698968165728,-0.823030757764146,-0.367681641580822,0.00622438543877979,-0.802146412812242,-0.248738698479394,-0.411050548186771,0.0577527091339987,0.0577527091320439,-1.68977865269037,2.46929708015567,0.804369178809582,-0.0365805855218846,-0.0503691429883974,-0.14789370651749,0.154783864608901,-1.48622426200928,,,,,2.25279999999998,103,411.342718446602,505.491747572816,402.922330097087,396.154368932039,426.531067961165,500.083495145631,510.9,425.572815533981,380.271844660194,0
1406.464,0.836583291655116,-0.713036670775199,0.402001489503802,-0.0427861981163784,-1.01876326356411,-1.01876326356605,1.05125815016686,0.22730978193037,1.1474575228104,0.436600603271688,0.031027631740722,0.43660060327166,0.727816569091106,-1.25397441808798,,1.03683892593378,,0.701190073335935,-1.09161340989002,1.02278288573271,-1.09161340988939,,-0.36591151198559,,-0.53121213732144,-0.66040058611459,,0.515756285482755,-0.515756285481358,-0.452496830384526,-0.0258337952137024,-0.794268670418955,-0.343156457317351,0.00647250576631633,-0.816588062379353,-0.253086832394826,-0.390053101250343,0.034152451826227,0.0341524518242883,-1.63807639044621,2.44176475373512,0.829259400077165,0.0484510512229694,-0.11421363466176,-0.117045988830973,0.143060162498484,-1.45318983628976,,,,,2.35519999999997,102,412.851470588235,506.920098039216,387.151960784314,399.663725490196,426.039215686275,499.758823529412,514.08137254902,412.607843137255,361.696078431373,0
1406.5664,0.85180489818844,-0.698489024342107,0.422203194298582,-0.0271877923625288,-1.00020768062036,-1.00020768062228,1.04580842622742,0.22258698236571,1.14048061466488,0.419095315960121,0.0475525917655139,0.419095315960084,0.742261411755718,-1.25876627373698,,1.0391074082229,,0.697187612952913,-1.06384613201752,1.06530479555023,-1.06384613201686,,-0.359416090706219,,-0.513310626716604,-0.655076213805567,,0.524410892304009,-0.524410892302599,-0.433418827329289,-0.0103741020104061,-0.765487247390944,-0.318929060795598,0.0067158962872353,-0.831036756105322,-0.257441725503236,-0.368515438326048,0.0101478177895169,0.0101478177876024,-1.58622670551301,2.41307828007828,0.853111784953971,0.134527467372597,-0.179400585208912,-0.0867843688885585,0.131905463771217,-1.4203739435155,,,,,2.45759999999996,102,413.747549019608,506.127941176471,376.122549019608,401.619607843137,425.875490196078,500.721568627451,511.53431372549,404.539215686275,347.705882352941,0
1406.6688,0.866502671025686,-0.684251220727367,0.441799025067504,-0.0111049034790463,-0.98240286433184,-0.98240286433376,1.04033611286612,0.217186833792258,1.13328392080257,0.401325355559593,0.0636107327584329,0.401325355559546,0.756945981044958,-1.26348369365183,,1.04093185680661,,0.69276919132835,-1.03559400351468,1.10733273411495,-1.03559400351399,,-0.35450964390352,,-0.494415511833686,-0.649923013947403,,0.532788717085328,-0.532788717083908,-0.413188584838804,0.0047085482191597,-0.736770618386096,-0.295034092916192,0.00694170934715752,-0.845487182115817,-0.261813976025593,-0.346509315853645,-0.0142243521408654,-0.014224352142747,-1.53440763877835,2.38336875176179,0.875878023488608,0.221472866170889,-0.245785853152835,-0.0571516116750918,0.121299111492998,-1.38778789733563,,,,,2.55999999999995,103,643.619417475728,495.242233009709,368.407766990291,622.352427184466,664.88640776699,493.54854368932,496.935922330097,400.932038834952,335.883495145631,0
1406.7712,0.880653912355626,-0.670352383817649,0.46075537817832,0.00539470901311857,-0.965385104851877,-0.96538510485379,1.03485428432943,0.211144059036775,1.12589096709689,0.383356946690792,0.0791666346580705,0.383356946690741,0.771849204598265,-1.26811592633334,,1.04229540878535,,0.687923930891006,-1.00693449864489,1.14877150534987,-1.00693449864418,,-0.351199764642974,,-0.474601758626927,-0.644954914138777,,0.540881422662582,-0.540881422661146,-0.391870862620878,0.0194157379815402,-0.708202745640685,-0.271504326454181,0.00713782951057434,-0.859932466584805,-0.266212986105412,-0.324106010293817,-0.038925595772624,-0.0389255957744743,-1.4827938427985,2.35276634532621,0.897512352618674,0.309108763236603,-0.313220152492675,-0.0281860494949871,0.111216400795679,-1.35543798839047,,,,,2.66239999999993,102,1120.09264705882,516.324509803922,360.774509803922,1105.66274509804,1134.52254901961,506.574509803922,526.074509803922,403.872549019608,317.676470588235,0
1406.8736,0.894236998252162,-0.656820110208913,0.479040309809569,0.0222433055576728,-0.94918822795316,-0.949188227955066,1.02937551832029,0.204494006508336,1.11832495011931,0.365256151329155,0.0941867227795332,0.365256151329097,0.786947643395157,-1.27265260180659,,1.04318352337612,,0.682643686158578,-0.977945802045696,1.18952511852822,-0.977945802044954,,-0.349488201880251,,-0.453945851703909,-0.640184892258542,,0.548682083101743,-0.54868208310029,-0.36953216028253,0.0337512918675901,-0.679867112581889,-0.248370519467926,0.00729295618883148,-0.874364173050744,-0.270646882583579,-0.301376123990041,-0.063915971127635,-0.0639159711294406,-1.43155597449087,2.32139994351803,0.917971792504919,0.39725449582647,-0.38154947155042,7.85396900443259e-05,0.101628817457231,-1.32332579002331,,,,,2.76479999999992,103,1123.83980582524,523.344174757282,366.932038834951,1107.5427184466,1140.13689320388,513.833980582524,532.854368932039,416.300970873786,317.563106796117,0
1406.976,0.907231360051233,-0.643680475759841,0.496623516500222,0.0393733953600371,-0.933843500105988,-0.933843500107888,1.02391184826998,0.197272501855652,1.1106086449937,0.347088616439399,0.108639394021576,0.34708861643934,0.802215456916756,-1.27708384373222,,1.04358401837595,,0.676923011084277,-0.948706642294786,1.22949715971729,-0.948706642294018,,-0.349370828397745,,-0.432525525902923,-0.635624950812785,,0.556185250346277,-0.55618525034481,-0.346240536576878,0.0477212871549256,-0.651846421266748,-0.225661283962023,0.00739668932763445,-0.888772330121574,-0.275122443861442,-0.278389407311755,-0.0891542108869536,-0.0891542108887159,-1.38086012111142,2.2893967836919,0.937216375537131,0.48572769101874,-0.450615464576834,0.0276130327884861,0.0925043335971969,-1.29144851742849,,,,,2.86720000000014,102,1121.67450980392,533.225980392157,383.936274509804,1107.26666666667,1136.08235294118,526.070588235294,540.38137254902,435.450980392157,332.421568627451,0
1407.0784,0.9196174555443,-0.630958064331063,0.513476296352706,0.0567179659083675,-0.919379540461766,-0.91937954046366,1.01847472598592,0.189515684300871,1.10276431947847,0.328919310224312,0.122495142487348,0.328919310224249,0.817624388585348,-1.28140038810021,,1.04348710300712,,0.670759113562977,-0.919296147136159,1.26859118541133,-0.919296147135364,,-0.350837632318075,,-0.410419493964818,-0.631286101592133,,0.563387025461473,-0.563387025459991,-0.322065428458091,0.0613340529894236,-0.624222294410528,-0.203402965685246,0.00743962382694042,-0.903145487366861,-0.279645027363822,-0.255214592475913,-0.114597895408903,-0.114597895410616,-1.33086726099377,2.25688213681345,0.955209371067396,0.574344705337363,-0.52025582684256,0.0543930432214895,0.0838077553858737,-1.25979943330227,,,,,2.96960000000013,103,1121.9286407767,537.711650485437,400.009708737864,1109.25922330097,1134.59805825243,529.36213592233,546.061165048544,451.126213592233,348.893203883495,0
1407.1808,0.931376733038571,-0.618676009779062,0.529571497754519,0.0742107087940304,-0.905822236539367,-0.905822236541257,1.01307499025569,0.181259838522453,1.09481365288498,0.310812246187635,0.135726683159488,0.310812246187572,0.833143775780866,-1.28559370543218,,1.04288540610863,,0.664151799106501,-0.889793710384837,1.30671115449986,-0.88979371038401,,-0.353872731156909,,-0.387707172748233,-0.627178358337254,,0.570285131247169,-0.570285131245674,-0.29707747074648,0.0746001582741565,-0.597074976090704,-0.18161953256048,0.00741344889943184,-0.917470795652738,-0.284218500040668,-0.231919235443667,-0.140203649787574,-0.140203649789253,-1.28173275452577,2.223979010794,0.971917504070194,0.662921055438281,-0.590304674421647,0.0803989795998838,0.0755011185129279,-1.22836828539169,,,,,3.07200000000012,102,1121.17843137255,538.952941176471,410.151960784314,1107.28529411765,1135.07156862745,529.23431372549,548.671568627451,462.088235294118,358.21568627451,0
1407.2832,0.942491584955077,-0.606856045165406,0.544883455518215,0.0917862400774264,-0.893194664961451,-0.893194664963349,1.00772283878909,0.172541233150032,1.08677766034841,0.292830200789582,0.148309069516637,0.292830200789519,0.848740582403762,-1.28965612257485,,1.0417739873994,,0.657103394837821,-0.860278872479903,1.34376191148201,-0.860278872479047,,-0.358454413421888,,-0.364468412619639,-0.623310731093868,,0.576878976109007,-0.576878976107498,-0.271348318868147,0.0875323835175418,-0.570483027614257,-0.160332474177297,0.00731104312018907,-0.931734111300263,-0.28884518055292,-0.208569566233322,-0.165927371612491,-0.165927371614138,-1.23360584820402,2.19080785837821,0.987311165021119,0.751271860116414,-0.660592954755462,0.105616069971936,0.0675441296867444,-1.19714176281173,,,,,3.17440000000011,102,1116.78913173784,542.813430650749,420.692670281941,1103.69540998217,1129.88285349351,539.635204991087,545.991656310412,473.663992869875,367.721347694007,0
1407.3856,0.952945286288637,-0.595518558581964,0.559387910607264,0.109380316394661,-0.881517021429429,-0.881517021431333,1.00242780084457,0.163395972213769,1.07867662156188,0.275034433444676,0.160219801647999,0.275034433444616,0.864379445749822,-1.29358094279414,,1.04015031927931,,0.649618642970161,-0.830831216961342,1.37964972061021,-0.830831216960453,,-0.364555214445587,,-0.340783233842235,-0.619691216631593,,0.583169700743279,-0.58316970074176,-0.244950476824469,0.100145668958021,-0.544523021535041,-0.13956071979682,0.00712655870463252,-0.945920124768129,-0.293525799544981,-0.185230348928174,-0.19172449216534,-0.191724492166959,-1.18662917963442,2.1574862760398,1.00136460953147,0.839212309826945,-0.730948910264715,0.13003434003206,0.0598946510071734,-1.16610396916048,,,,,3.27680000000009,103,1085.96175576184,546.684266965429,432.968149807939,1074.04886363636,1097.87464788732,547.943181818182,545.425352112676,488.795454545455,377.140845070423,0.456310679611651
1407.488,0.96272191905644,-0.58468265568912,0.573061914393501,0.126930046588327,-0.870806563584323,-0.870806563586228,0.997198708498728,0.153859861626108,1.07053001247639,0.257484418536618,0.171438922641487,0.257484418536562,0.880022729796108,-1.29736256449683,,1.03801423658955,,0.641704562318933,-0.801530271150549,1.41428282901214,-0.801530271149617,,-0.372142028526906,,-0.316731572574382,-0.616326785373676,,0.589160206315507,-0.589160206313978,-0.217957132157874,0.112457032996953,-0.519269243585339,-0.119320583675533,0.0068554935076213,-0.960012509061361,-0.298259477921286,-0.16196474921859,-0.217550263774431,-0.217550263776022,-1.14093829262275,2.12412869953957,1.01405614414611,0.926558173827934,-0.801198606487789,0.153648542229742,0.0525092149607496,-1.13523691197197,,,,,3.37920000000008,102,1048.18046574904,545.270954705506,445.758776141699,1035.02897727273,1061.33195422535,544.448863636364,546.093045774648,503.549242424243,387.968309859155,1
1407.5904,0.971806290474067,-0.574366225817918,0.585883725728028,0.144374096271343,-0.861077568872475,-0.861077568874382,0.992043667589449,0.143968288838832,1.06235644048818,0.240237599244552,0.18194910115688,0.240237599244501,0.895630582551397,-1.30099659770451,,1.03536785969056,,0.633370284911793,-0.772455388809393,1.44757202011057,-0.772455388808439,,-0.381176254584776,,-0.29239303856391,-0.613223370560113,,0.594855166891864,-0.594855166890323,-0.190442000076271,0.124485460870734,-0.494793412425727,-0.0996257417815231,0.00649475010471425,-0.973994077136186,-0.303043720331183,-0.13883420557266,-0.243360055508224,-0.243360055509778,-1.0966611772829,2.09084610608641,1.0253682931709,1.01312634737621,-0.871166522163952,0.176458044284141,0.0453435474992183,-1.1045209930718,,,,,3.48160000000007,103,1010.39917573624,543.857642445583,458.549402475459,996.009090909091,1024.78926056338,540.954545454546,546.76073943662,518.30303030303,398.795774647887,1
1407.6928,0.980183853680991,-0.564586007980403,0.597832710297839,0.161652884472809,-0.852341308829832,-0.852341308831739,0.986970032179879,0.133756109798361,1.05417358536597,0.223349169231335,0.191735699228778,0.223349169231292,0.911161001088267,-1.30447997713358,,1.03221549727332,,0.624626874880993,-0.74368559323276,1.47943112556846,-0.743685593231775,,-0.391613972413528,,-0.267846685580003,-0.610385865615151,,0.600261028519647,-0.600261028518091,-0.162479178700369,0.136251768782866,-0.471164420359554,-0.0804872369403102,0.00604268090747991,-0.987846939828336,-0.307874422174116,-0.115898302229747,-0.269109635830045,-0.269109635831561,-1.05391783321011,2.05774572194108,1.03528794734567,1.09873543589175,-0.940676188658036,0.198466693777901,0.0383530798003796,-1.07393547556785,,,,,3.58400000000006,102,972.617885723431,542.444330185659,471.340028809219,956.989204545455,988.246566901408,537.460227272727,547.428433098592,533.056818181818,409.62323943662,1
1407.7952,0.987840637423849,-0.555357656958215,0.608889247825308,0.178708776110074,-0.844606040662255,-0.844606040664156,0.981984387164013,0.123257533477197,1.04599814785058,0.206871880739629,0.200786827143789,0.206871880739591,0.926569912402416,-1.30781107324775,,1.02856353554391,,0.615487134780245,-0.715299361994532,1.50977748886349,-0.715299361993534,,-0.403406148913506,,-0.243170792754705,-0.607818133758767,,0.605385997356662,-0.605385997355091,-0.134143015026616,0.147778449569233,-0.448448090487962,-0.0619135056438717,0.00549912071806273,-1.00155266484872,-0.312745888954154,-0.093214643255606,-0.294755427588219,-0.294755427589694,-1.0128198414223,2.02493073033276,1.04380650380541,1.1832063768823,-1.00955086841568,0.219682677979291,0.0314934459455414,-1.0434589135272,,,,,3.68640000000005,102,935.077556896638,540.996022648816,484.102427025014,918.272983511586,951.88213028169,533.899175579323,548.09286971831,547.806966726084,420.397887323944,0.127450980392157
1407.8976,0.994763190391095,-0.546695812882085,0.619034650521028,0.195486276233192,-0.837877016157131,-0.837877016159033,0.977092543902722,0.112505991177439,1.03784580724123,0.190855872310582,0.209093388902268,0.190855872310553,0.941811281537768,-1.31098980476018,,1.02442032290038,,0.60596540625785,-0.6873743370122,1.53853238974875,-0.687374337011183,,-0.41649887363946,,-0.218442651942227,-0.605523033232907,,0.610240020741738,-0.610240020740152,-0.105507977875712,0.159089504425962,-0.426706942098402,-0.04391041951617,0.00486541145801463,-1.01509244457926,-0.317650865911574,-0.0708387247206056,-0.320254732566206,-0.320254732567631,-0.973469934935684,1.99249998095771,1.05092000907951,1.26636311087715,-1.07761427480261,0.240118393511334,0.0247209773208882,-1.01306954252659,,,,,3.78880000000004,103,914.237038493095,545.479466361275,516.291398878709,900.644660194175,927.829416792014,542.318446601942,548.640486120607,585.019417475728,447.56338028169,0
1408,1.00093854551505,-0.538614177402785,0.628251096014207,0.211932229594654,-0.83215650680689,-0.832156506808797,0.972299553854869,0.101533980589477,1.02973119016929,0.175348509845192,0.216649120505291,0.175348509845167,0.95683725839911,-1.31401775431221,,1.01979606114805,,0.596077376264743,-0.659986951964406,1.56562143670377,-0.659986951963372,,-0.430833620247993,,-0.193738355324681,-0.603502460768805,,0.61483476504716,-0.614834765045556,-0.0766485323608101,0.170210264004391,-0.405999960457431,-0.0264813371987202,0.00414442436797844,-1.02844727909263,-0.322580574906536,-0.0488238000425325,-0.345565931431416,-0.345565931432785,-0.93596156658101,1.96054770546952,1.05662931111045,1.34803331046549,-1.14469134146128,0.259790326911647,0.0179932045362037,-0.982745633600471,,,,,3.89120000000003,102,914.078431372549,553.517647058824,533.220588235294,893.966666666667,934.190196078431,555.644117647059,551.391176470588,602.166666666667,464.274509803922,0
1408.1024,1.0063542053789,-0.531125597621927,0.636521575214119,0.227996023591009,-0.82744384184538,-0.827443841847294,0.967609743365662,0.0903728865328905,1.02166785437164,0.160394238582104,0.223450620638085,0.160394238582087,0.971598367664048,-1.3168982835033,,1.01470271428158,,0.585839903594818,-0.633211985794316,1.59097492532836,-0.633211985793274,,-0.446347527408289,,-0.169132579665494,-0.601757412621732,,0.619183591927357,-0.619183591925736,-0.0476390120251007,0.181167200185422,-0.386382380354195,-0.00962716938191252,0.00334058217147646,-1.04159817029229,-0.327524754867917,-0.0272207353673734,-0.370648667401863,-0.37064866740317,-0.900378488460843,1.92916324722979,1.06094021397827,1.4280491466227,-1.21060902976059,0.278718931257654,0.011269366042858,-0.9524658220101,,,,,3.99360000000002,103,923.019417475728,555.317475728155,468.004854368932,897.581553398058,948.457281553398,559.804854368932,550.830097087379,527.941747572816,408.067961165049,0
1408.2048,1.01099814413341,-0.524242157483795,0.643829851200425,0.243629786487799,-0.823735453984165,-0.823735453986083,0.96302676902299,0.0790527931847645,1.01366829115377,0.146034446735043,0.229497371512259,0.146034446735037,0.986043734816492,-1.31963663859873,,1.00915394259573,,0.575270878940939,-0.607122068772127,1.61452815310619,-0.607122068771081,,-0.46297369262917,,-0.144698369875474,-0.600288058194722,,0.623301532015431,-0.623301532013791,-0.0185534906510193,0.191987727125259,-0.36790550346377,0.00665353373402129,0.00245987947691823,-1.05452631186546,-0.332471702597279,-0.0060778583875467,-0.395464020335995,-0.395464020337239,-0.866794384317948,1.89843082777965,1.06386361596112,1.5062480356072,-1.27519713042553,0.296928480577638,0.00451090762898597,-0.922209431098116,,,,,4.096,102,928.369117647059,557.437254901961,408.28431372549,903.990196078431,952.748039215686,564.421568627451,550.452941176471,460.43137254902,356.137254901961,0
1408.3072,1.01485881928398,-0.517975274563761,0.650160424268851,0.258788569724508,-0.821024928442938,-0.821024928444871,0.958553688724871,0.0676023067548636,1.00574394704708,0.132307343252516,0.234791747391826,0.132307343252523,1.00012133354263,-1.32224003876361,,1.00316506120151,,0.564389121344079,-0.581787172706343,1.63622168019571,-0.581787172705301,,-0.48064147583218,,-0.120506931614789,-0.599093819418878,,0.62720525317157,-0.627205253169911,0.0105343380645571,0.202699989503136,-0.350616564364603,0.0223644648508352,0.00150989700780943,-1.06721325832778,-0.33740831283564,0.0145591894239553,-0.41997467354158,-0.419974673542759,-0.835272604561078,1.86842937760373,1.06541560809748,1.58247330954216,-1.3382890088505,0.314446894875006,-0.00231805120522779,-0.891956801692005,,,,,4.19839999999999,102,933.140681400661,557.06664281624,388.462762318719,905.592790112154,960.688572689168,568.896063172351,545.237222460129,434.098764019226,342.826760618212,0
1408.4096,1.01792518856248,-0.512335798231265,0.655498500805946,0.273430505767208,-0.819303053601015,-0.819303053602958,0.954193041475537,0.0560484034077219,0.997905261772058,0.119247852745128,0.239339008960408,0.119247852745142,1.01377823987686,-1.32471774338177,,0.996753013868272,,0.553214303217431,-0.557274107709446,1.65600153590963,-0.557274107708423,,-0.499276812933195,,-0.096627441929812,-0.59817345016189,,0.630913019592253,-0.630913019590575,0.0395512663688002,0.213332636705488,-0.334558644045655,0.0375114113016687,0.000499806305065188,-1.07964106435121,-0.342320118005344,0.034647586856557,-0.444145071272312,-0.444145071273433,-0.805866026839048,1.83923243982324,1.06561751856738,1.65657478857387,-1.39972227131164,0.331305538443618,-0.0092503041246563,-0.861689618753423,,,,,4.30079999999998,103,956.456265381152,549.366272497148,403.25829949158,911.437613488975,1001.47491727333,562.178210116732,536.554334877565,441.368352788586,365.148246194573,0.29126213592233
1408.512,1.02018672913429,-0.50733410542451,0.65982996533632,0.287516938787367,-0.818557873865162,-0.818557873867114,0.949946931293157,0.0444163094165731,0.99016171978387,0.106887529361652,0.243147281978867,0.106887529361677,1.0269608845684,-1.32708109853986,,0.989936354378846,,0.541766896497302,-0.533646038818565,1.67381938152798,-0.533646038817562,,-0.518802539888818,,-0.0731268774996398,-0.597525111922796,,0.634444638829745,-0.634444638828047,0.0684246672375049,0.223914581380294,-0.319770620261508,0.0521020791428582,-0.000559634343600329,-1.09179239412416,-0.347191326825361,0.0541474480381106,-0.467941564560393,-0.467941564561449,-0.778617035478532,1.8109081370839,1.06449589974562,1.72840926071498,-1.45933935659202,0.347538993814416,-0.0163152074319627,-0.831391220787576,,,,,4.40319999999997,102,989.967097317467,542.904839864341,429.477171301506,923.349416342412,1056.58477829252,560.862062256809,524.947617471873,461.177042801556,397.777299801456,1
1408.6144,1.02163345751088,-0.502980192926001,0.663141354829064,0.301012529586011,-0.81877474692878,-0.818774746930763,0.945817114855348,0.0327294132174444,0.982521914919885,0.0952544895066538,0.246227518425738,0.0952544895066893,1.03961530267736,-1.32934356309988,,0.9827352358035,,0.530068140815555,-0.51096203061207,1.68963263609508,-0.510962030611089,,-0.539138725407118,,-0.0500698512062712,-0.597146444525995,,0.637821395882311,-0.637821395880595,0.0970825903663432,0.234474740940041,-0.306287147133722,0.0661458915374041,-0.00165608793909213,-1.10365060444274,-0.352004858377105,0.0730219184768011,-0.491332543274933,-0.491332543275919,-0.753557602350838,1.78351918950007,1.06208246337807,1.79784087771877,-1.51698806042003,0.363184812401185,-0.0235383923049786,-0.801046882881845,,,,,4.50559999999996,102,1023.31446178092,536.474926415109,455.568146175775,935.203112840467,1111.42581072138,559.55233463035,513.397518199868,480.889105058366,430.247187293183,1
1408.7168,1.0222559515585,-0.499283767217524,0.665419835981434,0.31388533846421,-0.819936408929009,-0.819936408931018,0.941805094472026,0.021009205210664,0.97499362857919,0.0843733620191858,0.248593438946897,0.0843733620192367,1.05168738665938,-1.33152071518217,,0.975171415259571,,0.518140041026792,-0.489276615858217,1.70340455920516,-0.489276615857263,,-0.560203010841975,,-0.0275184456206677,-0.597034634485951,,0.641065976351878,-0.641065976350141,0.125453872568388,0.245041762956504,-0.294138663394357,0.0796537624409853,-0.0027756449001672,-1.11519980669471,-0.356742367645711,0.0912372553627927,-0.514288550040139,-0.51428855004106,-0.730709445666228,1.75712297042498,1.05841397445764,1.86474146828285,-1.57252199043855,0.378283247949351,-0.0309415346177828,-0.770644070626782,,,,,4.60799999999995,103,1056.82529371724,530.013493782302,481.787017985701,947.114915693904,1166.53567174057,558.236186770428,501.790800794176,500.697795071336,462.876240900066,1
1408.8192,1.02204538000251,-0.496254332018959,0.666653190180644,0.326106891139657,-0.822023050403699,-0.822023050405735,0.93791221788875,0.00927524054858426,0.967583921599017,0.0742652532675683,0.250261457218978,0.0742652532676313,1.06312315524953,-1.33363024095576,,0.9672682849004,,0.506005403988748,-0.468639368756822,1.71510428523321,-0.468639368755892,,-0.581910959544656,,-0.00553203436156682,-0.597186486235499,,0.644202381825429,-0.644202381823675,0.153468272346785,0.255643737515723,-0.283351430510765,0.0926378475793059,-0.00390282374404909,-1.12642491454288,-0.361384261310851,0.108762898294931,-0.536782374277911,-0.536782374278763,-0.710084240063743,1.73177158453281,1.05353211524772,1.92899077188569,-1.6258009484834,0.392876983848847,-0.0385421744445741,-0.740172664400747,,,,,4.71039999999994,102,1090.33612565355,523.552061149495,508.005889795628,959.026718547341,1221.64553275976,556.920038910506,490.184083388485,520.506485084306,495.505294506949,1
1408.9216,1.02099354434181,-0.493901270306074,0.666829811967291,0.337652231669922,-0.825012402962504,-0.825012402964573,0.934139786037855,-0.00245487814687696,0.960299240090642,0.0649477245707614,0.251250587514602,0.0649477245708395,1.07386905146774,-1.33569190614322,,0.959050938956421,,0.493687925029701,-0.449094463426396,1.72470681549184,-0.449094463425486,,-0.604176419388892,,0.015832915058744,-0.597598498893643,,0.647255838431772,-0.647255838429997,0.181056636962575,0.266307899195508,-0.273947599585458,0.105111275327212,-0.00502056617141558,-1.13731168476872,-0.365909706015356,0.125571539252761,-0.558789136252242,-0.558789136253046,-0.691683862596162,1.70751195960388,1.04748332644657,1.99047660379081,-1.6766912464144,0.407010861014837,-0.0463535769062398,-0.709625152257071,,,,,4.81279999999993,103,1123.84695758987,517.090628516688,534.224761605554,970.938521400778,1276.75539377895,555.603891050584,478.577365982793,540.315175097276,528.134348113832,1
1409.024,1.01909293357995,-0.492233916574769,0.665938723340177,0.348499963795051,-0.828879834874923,-0.828879834877023,0.930489168929742,-0.0141654988339208,0.953145535230347,0.0564347806451437,0.251582336128533,0.0564347806452311,1.08387227621572,-1.33772750851062,,0.950546279932132,,0.481212328933348,-0.430680220323801,1.73219297955052,-0.430680220322911,,-0.626911899495711,,0.0365230596309965,-0.59826694733868,,0.650252697049891,-0.650252697048096,0.208151107571073,0.277060320391476,-0.265945304747874,0.117087859817176,-0.00611022904978086,-1.14784675738478,-0.370296633435922,0.141639198905392,-0.580286380388606,-0.580286380389362,-0.675500676839172,1.68438595734466,1.04031862869232,2.04909495898266,-1.72506596521311,0.42073160243416,-0.0543846269989696,-0.67899678971936,,,,,4.91519999999991,102,1157.35778952618,510.629195883881,560.443633415481,982.850324254215,1331.86525479815,554.287743190661,466.970648577101,560.123865110247,560.763401720715,1
1409.1264,1.01633678908192,-0.49126161787836,0.663969602225264,0.358632280943748,-0.83359845462424,-0.83359845462636,0.926961927087166,-0.0258429006757021,0.94612839380904,0.048736868069602,0.25128057822698,0.0487368680697013,1.09308115023224,-1.33976081143486,,0.941783152687359,,0.468604553043148,-0.413428672981383,1.7375493753552,-0.413428672980516,,-0.650028957607607,,0.0564884148092939,-0.599187965692856,,0.653220324463503,-0.653220324461686,0.234685356251404,0.287925600376768,-0.259358779137654,0.128581801419823,-0.00715157776262091,-1.15801769725784,-0.374521747139449,0.156945307028758,-0.601254191343534,-0.601254191344245,-0.661517860618608,1.66243051495016,1.03209343081606,2.10475005452259,-1.77080516057843,0.43408752793928,-0.0626397537614702,-0.648285725304532,,,,,5.01760000000013,103,1190.8686214625,504.167763251075,586.662505225407,994.762127107652,1386.97511581734,552.971595330739,455.36393117141,579.932555123217,593.392455327598,1
1409.2288,1.0127191767592,-0.490993784235982,0.660912822368,0.368034984174401,-0.839139221658147,-0.839139221660292,0.923559931781971,-0.0374752627708355,0.93925317100123,0.0418608820935578,0.250371424107932,0.0418608820936678,1.10144548348966,-1.34181746226177,,0.932792479592892,,0.455891940020525,-0.397365200471892,1.74076829952257,-0.39736520047106,,-0.673438590744011,,0.0756825880965151,-0.600357632018911,,0.656186987169786,-0.656186987167949,0.260594833739289,0.298926560299207,-0.254198485545388,0.139607386099966,-0.00812278654602192,-1.16781303367994,-0.378560535469164,0.171472774283484,-0.621675330297929,-0.62167533029859,-0.649709769853747,1.64167781884732,1.0228673340563,2.15735431405285,-1.8137960175735,0.447128260986437,-0.0711188848937925,-0.617493087653981,,,,,5.12000000000012,102,1224.37945339881,497.706330618268,612.881377035334,1006.67392996109,1442.08497683653,551.655447470817,443.757213765718,599.741245136187,626.021508934481,1
1409.3312,1.00823506548407,-0.49143992760723,0.656759504059219,0.376697485597886,-0.845471062642804,-0.845471062644974,0.92028547545801,-0.0490526262212654,0.932525114971182,0.0358101806571275,0.248883079248266,0.0358101806572488,1.10891692843339,-1.34392489973257,,0.923607366908407,,0.443103403652861,-0.382508253291375,1.74184767817779,-0.38250825329058,,-0.69705162349666,,0.0940629937269448,-0.601772052590559,,0.659181730031668,-0.659181730029813,0.285817003687797,0.310083956696199,-0.250471252161571,0.150178697736322,-0.0090004509264372,-1.17722229088539,-0.382387293126974,0.18520804025895,-0.641535378715177,-0.641535378715781,-0.640042324087591,1.62215549804869,1.01270393414288,2.2068283109059,-1.85393296556191,0.459904435343771,-0.0798174392762347,-0.586623027420482,,,,,5.22240000000011,102,1257.72681786227,491.276417169035,638.972351909602,1018.52762645914,1496.92600926539,550.345719844358,432.207114493713,619.453307392996,658.491396426208,1
1409.4336,1.00288041228269,-0.492609686729082,0.65150157744408,0.384612794087146,-0.852560991537539,-0.852560991539737,0.917141366254785,-0.0605668503351828,0.925949476824266,0.0305846061135079,0.246845700039537,0.0305846061136391,1.11544930330373,-1.34611225238054,,0.91426316456465,,0.430269545847552,-0.368869169157965,1.74079099902121,-0.368869169157205,,-0.720779093522327,,0.111591037074453,-0.603427443405851,,0.662234250657941,-0.662234250656065,0.310291550119048,0.32141622163884,-0.248180405898846,0.160309353047655,-0.00975961468274396,-1.18623600354746,-0.385975151874699,0.19814108853183,-0.660822875844898,-0.660822875845457,-0.632473408335948,1.60388682349309,1.00167061273853,2.25310068902515,-1.89111776802863,0.47246740835395,-0.0887263650986722,-0.555682711217017,,,,,5.3248000000001,103,1291.23764979858,484.814984536229,665.191223719529,1030.43942931258,1552.03587028458,549.029571984436,420.600397088021,639.261997405966,691.120450033091,1
1409.536,0.996652254396217,-0.49451283540673,0.645131859620455,0.391777480700853,-0.860374231965814,-0.860374231968044,0.914131004522526,-0.0720115614936265,0.919531604160477,0.0261805162479383,0.24429124483974,0.0261805162480845,1.12099888313861,-1.34841022731528,,0.904797476402828,,0.417422720894608,-0.356452061259337,1.73760723539108,-0.35645206125861,,-0.744532632941158,,0.128232266409378,-0.605320206437457,,0.665374769773342,-0.665374769771448,0.333960556993929,0.332939231595746,-0.247325897717721,0.170012263081953,-0.0103738099058102,-1.19484571351061,-0.389296117801058,0.210265427213044,-0.679529437783843,-0.679529437784351,-0.626953295037873,1.58689090730992,0.989838308090225,2.29610807504235,-1.92525959807759,0.48486898427819,-0.0978322244741233,-0.524682272696311,,,,,5.42720000000008,102,1324.7484817349,478.353551903422,691.410095529455,1042.35123216602,1607.14573130377,547.713424124514,408.99367968233,659.070687418937,723.749503639974,1
1409.6384,0.989548806033432,-0.497159272296598,0.637644144530662,0.398191622744952,-0.868874339481683,-0.868874339483936,0.911258440847303,-0.0833820933035976,0.913277018134509,0.0225908260922101,0.241253319484128,0.0225908260923708,1.125524661192,-1.35085098719632,,0.89525012536376,,0.404597052195606,-0.345253767710221,1.73231075501502,-0.345253767709533,,-0.768224838691297,,0.143956495989578,-0.607446998559843,,0.668633898348641,-0.668633898346729,0.356768665927784,0.344666105790733,-0.247904417031431,0.179299423083487,-0.0108151063765085,-1.20304394454738,-0.392321110521493,0.22157803952346,-0.697649848294601,-0.697649848295059,-0.623425090081307,1.57118290213055,0.97728126092325,2.33579499624988,-1.95627511249175,0.497161149920267,-0.107117320658785,-0.493634724150061,,,,,5.52960000000007,103,1358.25931367121,471.892119270615,717.628967339382,1054.26303501946,1662.25559232297,546.397276264592,397.386962276638,678.879377431907,756.378557246856,1
1409.7408,0.981569555700282,-0.500558989312278,0.629033303370876,0.403858728132407,-0.878023320791302,-0.878023320793587,0.908528414742092,-0.0946754155551628,0.907191473874341,0.0198050609560312,0.23776701670329,0.019805060956207,1.12898858415072,-1.35346801218701,,0.885663077986032,,0.391828407255251,-0.335263856121918,1.72492121922716,-0.33526385612125,,-0.791769624208306,,0.15873790928938,-0.609804792390051,,0.672042502481637,-0.672042502479708,0.378663221801463,0.35660703774979,-0.249909497285966,0.188181732888069,-0.0110541668306221,-1.21082415137443,-0.395019999833946,0.232079312576409,-0.715182115357121,-0.715182115357533,-0.621825203386229,1.55677420422289,0.964076738973322,2.37211382695875,-1.98408854452273,0.509395825016514,-0.116559866053172,-0.462555820315664,,,,,5.63200000000006,102,1391.77014560753,465.430686637808,743.847839149308,1066.17483787289,1717.36545334216,545.081128404669,385.780244870946,698.688067444877,789.007610853739,0.950980392156863
1409.8432,0.972715361091778,-0.504722016428523,0.619295393908271,0.408785645528663,-0.887781747889992,-0.887781747892311,0.905946373682872,-0.105890050060259,0.90128100448601,0.0178094203266916,0.233868750601332,0.0178094203268851,1.1313557632775,-1.35629594430156,,0.876080329796692,,0.379154333690885,-0.326464672771846,1.71546348586163,-0.326464672771203,,-0.81508254893649,,0.172555151807554,-0.61239092942015,,0.675631566749239,-0.675631566747291,0.399594414623277,0.368769166130187,-0.253331619307216,0.196668850119811,-0.0110603070700044,-1.21818064078936,-0.397361638156608,0.241772952376516,-0.732127492054477,-0.732127492054859,-0.62208383842339,1.54367266257436,0.950304748140395,2.40502478071538,-2.00863183052466,0.521624630279474,-0.126134192756765,-0.431463860889401,,,,,5.73440000000005,102,1291.62372545384,484.991994885855,709.999009223932,1078.10068665599,1505.1467642517,544.008358129244,425.975631642465,718.095635919738,701.902382528127,0
1409.9456,0.962988543010617,-0.509658343576116,0.608427779669604,0.412982467931201,-0.898108866535715,-0.898108866538068,0.90351847373621,-0.11702597664244,0.895551948978214,0.0165868527601474,0.229596090894359,0.0165868527603587,1.13259466064946,-1.35937041458055,,0.866547750717415,,0.366613954898278,-0.318831422065428,1.70396752255204,-0.318831422064812,,-0.838081126004092,,0.185391415117164,-0.615203165526511,,0.679432056617834,-0.679432056615872,0.419515416385471,0.381156490085709,-0.258158318341188,0.204769078051683,-0.010801564099789,-1.22510846799204,-0.399313892760939,0.250665887940101,-0.748490466788516,-0.74849046678887,-0.624125487842769,1.53188278757246,0.936047736932383,2.43449594127404,-2.0298447617005,0.53389867639636,-0.13581101040372,-0.40037942287524,,,,,5.83680000000004,103,1142.89077669903,522.385436893204,598.587378640777,1131.82038834951,1153.96116504854,542.997087378641,501.773786407767,665.68932038835,531.485436893204,0
1410.048,0.952392982074878,-0.515377821943001,0.596429261226486,0.416462433452961,-0.908962699350381,-0.908962699352764,0.901251562778424,-0.128084536442739,0.890010963056506,0.0161171422444587,0.224987602778685,0.0161171422446908,1.13267724713118,-1.36272785650867,,0.857112887997774,,0.354247820682816,-0.312332266834473,1.69046832976495,-0.312332266833882,,-0.86068511159436,,0.197234502107881,-0.618239707992046,,0.683474780104614,-0.683474780102636,0.438382500517201,0.393769830912418,-0.264374293342493,0.212489290132332,-0.01024477889803,-1.23160331567001,-0.400843686523423,0.258768160244235,-0.764278732685003,-0.764278732685335,-0.627869421076011,1.52140594687573,0.921390295973996,2.4605033005339,-2.04767512971713,0.546268375203123,-0.145557717031807,-0.369325018882409,,,,,5.93920000000003,102,1342.66274509804,497.204901960784,491.083333333333,1345.42254901961,1339.90294117647,515.946078431373,478.463725490196,532.205882352941,449.960784313725,0
1410.1504,0.940934218217085,-0.521890047210956,0.583300218395071,0.419241818483625,-0.920300143959176,-0.920300143961585,0.899153145182514,-0.139068336502687,0.884665010481571,0.0163770056886329,0.220082694372575,0.0163770056888807,1.13157912973431,-1.36640530915192,,0.847824726220507,,0.342097710342404,-0.30692845169505,1.67500587070928,-0.306928451694482,,-0.88281678008742,,0.208076858289341,-0.62149924326715,,0.68779024818589,-0.687790248183897,0.456155129982859,0.406606837533296,-0.271961509176678,0.219834892982952,-0.0093556984158255,-1.23766136321786,-0.401917053932801,0.26609278820242,-0.779503143022454,-0.779503143022756,-0.633230155953389,1.51224054068897,0.906418852755422,2.48303076746561,-2.06207883572578,0.558783265954155,-0.155338762271908,-0.338324688811028,,,,,6.04160000000002,103,1358.54805825243,479.448058252427,373.320388349515,1358.76310679612,1358.33300970874,490.003883495146,468.892233009709,406.21359223301,340.427184466019,0
1410.2528,0.928619548410086,-0.529204228187631,0.569042757714807,0.421339813196884,-0.932077066353281,-0.932077066355714,0.897231326065276,-0.149981152890863,0.879521333822306,0.0173402007627774,0.214921469161621,0.0173402007630408,1.12927964908383,-1.37044021143546,,0.838733409907793,,0.330206393281678,-0.30257446130353,1.65762500031284,-0.302574461302994,,-0.904401185179078,,0.217915558483792,-0.624980956008418,,0.692408533478642,-0.692408533476636,0.472796007692571,0.419662031191703,-0.280899282521303,0.226809827842691,-0.00809909574670591,-1.24327915003835,-0.402499212591424,0.272655605550853,-0.794177651037216,-0.794177651037477,-0.640117915404456,1.50438215822877,0.891221362360374,2.50207012769324,-2.07301995127139,0.571491842822584,-0.165116053012578,-0.307403550064872,,,,,6.14400000000001,102,1489.50343137255,465.337745098039,302.093137254902,1488.52647058824,1490.48039215686,469.357843137255,461.317647058824,324.529411764706,279.656862745098,0
1410.3552,0.915458118043038,-0.537329044381584,0.553660859519191,0.422778371355701,-0.944248389318145,-0.9442483893206,0.895494734217517,-0.160827825545225,0.874587405682642,0.018977644440315,0.209544580055669,0.0189776444405971,1.1257619488429,-1.37487018734852,,0.829889937909631,,0.318617357132451,-0.299218226370172,1.63837537989202,-0.299218226369668,,-0.925366404221081,,0.226752245779728,-0.628684541200181,,0.69735912755722,-0.697359127555202,0.488271090351776,0.43292688510588,-0.291164349489104,0.233416607815344,-0.00643890453982783,-1.24845343391362,-0.402554646771123,0.278475066041311,-0.808319228165858,-0.80831922816609,-0.648439076519255,1.49782372081701,0.875886992281101,2.51762095558327,-2.08047073797405,0.584441374802775,-0.174849391317294,-0.276587334093522,,,,,6.24639999999999,102,1492.41176470588,470.286274509804,265.328431372549,1490.2568627451,1494.56666666667,471.541176470588,469.03137254902,284.460784313725,246.196078431373,0
1410.4576,0.901461003573712,-0.546272495117149,0.537160521294431,0.4235820313556,-0.956768175671008,-0.956768175673479,0.893952423794496,-0.171614138431126,0.869870862338549,0.0212575436016985,0.203993083057954,0.0212575436019943,1.12101301844114,-1.37973282169292,,0.8213458375104,,0.307374512562858,-0.296801387761824,1.61731136378383,-0.296801387761351,,-0.945643764647518,,0.23459302546944,-0.63261021130131,,0.702670798202539,-0.702670798200509,0.50254957087158,0.446389935022007,-0.302730920299114,0.239656385458369,-0.00433836391553227,-1.25318104505587,-0.402047199639481,0.283572017912605,-0.821947756972209,-0.821947756972404,-0.658096618426905,1.49255561387737,0.860505797012803,2.52969049560365,-2.08441164157033,0.597677718904592,-0.1844969381553,-0.245901926124377,,,,,6.34879999999998,103,1538.0140776699,467.77572815534,245.635922330097,1532.98640776699,1543.04174757282,467.17572815534,468.37572815534,260.805825242718,230.466019417476,0
1410.56,0.886641284940608,-0.556041743066016,0.519549894644887,0.423777709536046,-0.969589706518478,-0.969589706520968,0.89261375542772,-0.182346682768256,0.865379421117315,0.0241455382974749,0.198308289672823,0.0241455382977842,1.11502371105959,-1.38506542662538,,0.813152824197191,,0.296521882194007,-0.295259625513967,1.59449184612159,-0.295259625513532,,-0.965168053069286,,0.241448321267089,-0.636758699229013,,0.708371448483106,-0.708371448481065,0.51560383799363,0.460036915307845,-0.31557073017102,0.245529042641989,-0.00176016961926112,-1.25745873800818,-0.400940170768602,0.287969452652702,-0.835085898244601,-0.835085898244777,-0.668990569561807,1.48856580764628,0.845168381645469,2.5382935298362,-2.08483127457472,0.611245130025256,-0.194015694427758,-0.215372920965442,,,,,6.45119999999997,102,1586.91715686275,468.075490196079,237.647058823529,1580.47647058824,1593.35784313725,456.533333333333,479.617647058824,250.950980392157,224.343137254902,0
1410.6624,0.871014105981701,-0.56664295471013,0.500839413145627,0.423394469854657,-0.982665554880311,-0.982665554882819,0.89148825745661,-0.193032704047684,0.861120782028446,0.0276048568067307,0.192531617806656,0.0276048568070523,1.10778874021519,-1.3909047992464,,0.805362451813015,,0.286103279857487,-0.294523049498723,1.56998006210637,-0.294523049498318,,-0.983877705262823,,0.247332705205752,-0.641131256478729,,0.714487979186754,-0.714487979184701,0.527409425760056,0.473850914475473,-0.32965309503024,0.251033294232663,0.00133337353697787,-1.26128304418851,-0.399196415079191,0.291692236877491,-0.847758933503855,-0.847758933503997,-0.681018449344648,1.48583996708929,0.829965560082982,2.54345224096901,-2.08172639665786,0.625186067260707,-0.203361988690039,-0.185025204223981,,,,,6.55359999999996,102,1581.24460784314,475.420588235294,241.955882352941,1570.40294117647,1592.0862745098,462.209803921569,488.63137254902,254.549019607843,229.362745098039,0
1410.7648,0.854596721018939,-0.578081137518988,0.481041909564362,0.422463276310702,-0.995947654262956,-0.995947654265473,0.890585467215741,-0.203679930107193,0.857102514372731,0.0315964814469237,0.186704441366708,0.0315964814472582,1.09930665869057,-1.39728696957521,,0.798025755789592,,0.276161984040523,-0.294516637587241,1.54384334972001,-0.294516637586868,,-1.0017149720484,,0.252264714820166,-0.645729645312743,,0.721046154868061,-0.721046154865998,0.537944967106817,0.487812544991988,-0.344944976006769,0.256166799810886,0.00498020169221081,-1.26465012656642,-0.39677844011051,0.294766838038724,-0.859994584949397,-0.859994584949518,-0.694075695459186,1.48436154948072,0.814988015386566,2.5451960754801,-2.07510189922199,0.639540993275015,-0.212491965175976,-0.1548825568394,,,,,6.65599999999995,103,1610.5432038835,463.927184466019,258.922330097087,1594.35825242718,1626.72815533981,458.008737864078,469.845631067961,272.223300970874,245.621359223301,0
1410.8672,0.837408526530812,-0.590359972299517,0.460172722226742,0.421016735030498,-1.00938736147793,-1.00938736148046,0.88991475275864,-0.214296373358137,0.853331930725547,0.0360793249978009,0.180867939103222,0.036079324998152,1.0895798229237,-1.40424693803466,,0.791192889856554,,0.266740406349353,-0.295160706871365,1.5161528846444,-0.295160706871035,,-1.01862605688742,,0.256266667857657,-0.650556124462737,,0.728070472522428,-0.728070472520358,0.547192160937086,0.501900123894193,-0.361411051434113,0.260926281119187,0.00921834524162838,-1.26755563710548,-0.393648501024922,0.297221052805794,-0.871822814644618,-0.871822814644715,-0.708056066115815,1.48411188275943,0.800325966073962,2.54356160848362,-2.0649707969651,0.654348164344692,-0.221362068449588,-0.12496727985846,,,,,6.75839999999994,102,1620.22009803922,460.635784313726,282.343137254902,1602.3931372549,1638.04705882353,458.143137254902,463.128431372549,296.303921568628,268.382352941176,0
1410.9696,0.819471078399621,-0.603481641363593,0.438249790651065,0.419088831004702,-1.02293551353309,-1.02293551353564,0.889485118431654,-0.224890105355478,0.849815952330858,0.0410104177492048,0.175062943739191,0.0410104177495672,1.0786143443927,-1.41181840267451,,0.784912755713687,,0.257879754261139,-0.296371412554053,1.48698340070539,-0.296371412553763,,-1.03456122377331,,0.259364475012285,-0.65561342671095,,0.735584030611627,-0.73558403060955,0.555135750662983,0.516089861275825,-0.379013791433933,0.265307644853515,0.014085782556251,-1.26999457778834,-0.38976869635363,0.299083741016438,-0.883275603153185,-0.883275603153254,-0.722852011001043,1.48507021918818,0.786068839225285,2.53859240616296,-2.05135422223044,0.669643411575893,-0.22992951803552,-0.0952998499831419,,,,,6.86079999999993,103,1617.3427184466,463.644660194175,301.354368932039,1598.58737864078,1636.09805825243,462.569902912621,464.719417475728,312.485436893204,290.223300970874,0
1411.072,0.800808096692166,-0.617446655600397,0.415293740729685,0.416714661629935,-1.0365424785149,-1.03654247851746,0.889305000954368,-0.23546901292045,0.846560970081535,0.0463451039165865,0.169329793085824,0.0463451039169597,1.06642002718958,-1.42003347758846,,0.779232626127542,,0.24961968823677,-0.29806127891015,1.4564129074226,-0.298061278909887,,-1.04947487408932,,0.261587442613237,-0.6609047243859,,0.743608395429251,-0.743608395427169,0.561763503281611,0.530356052126488,-0.397713528995901,0.269306109597753,0.0196202889542184,-1.27196116575911,-0.385101069590042,0.300384561721521,-0.894386705660826,-0.89438670566087,-0.738355016320641,1.48721377091912,0.772304951629615,2.53033887735449,-2.03428141396661,0.685459913418287,-0.238152765414497,-0.0658986225002927,,,,,6.96319999999992,102,1576.82633778594,461.880263786772,325.122632713572,1571.41382720235,1582.23884836954,466.021317172402,457.739210401142,336.26320845341,313.982056973733,0
1411.1744,0.781445461828258,-0.632253683627213,0.391327961361547,0.413930167624492,-1.05015820093507,-1.05015820093765,0.889382063509782,-0.246040551016744,0.843572704394225,0.0520372444240673,0.163708184949802,0.0520372444244545,1.05301029086384,-1.42892240513806,,0.774197764398105,,0.241997975438006,-0.300139768902488,1.42452241185448,-0.300139768902257,,-1.06332559195102,,0.262968056467277,-0.666433579558194,,0.752163463193837,-0.75216346319175,0.567066178283286,0.544671264829865,-0.417468524231504,0.272916332814537,0.0258592763605054,-1.2734487038397,-0.379607721393066,0.301153705425201,-0.905191384389421,-0.905191384389444,-0.754455940926954,1.49051774532743,0.759121199879121,2.51885810611763,-2.01378969423678,0.70182795812386,-0.245991930978844,-0.0367795901353432,,,,,7.06560000000013,103,1314.36273720842,454.226031754663,341.91599151759,1313.08962536023,1315.6358490566,466.825648414986,441.62641509434,356.152737752161,327.679245283019,0.611650485436893
1411.2768,0.761411208188847,-0.647899384513694,0.366378677159173,0.410771861345506,-1.06373224382489,-1.06373224382749,0.889722994031795,-0.256611506565185,0.840856066228238,0.0580394218498101,0.158237036739411,0.0580394218502069,1.03840208133473,-1.43851326560134,,0.769851045933403,,0.23505014434108,-0.302513890919713,1.3913956422324,-0.302513890919515,,-1.07607616270877,,0.263541742022074,-0.672203879915484,,0.761267318882111,-0.76126731888002,0.571037481033496,0.559006518958047,-0.438235022665921,0.276132531563228,0.0328396208128481,-1.2744494606382,-0.373250936457313,0.301421618655203,-0.915726122040526,-0.915726122040539,-0.771045361843751,1.49495539653905,0.746602757473787,2.50421366128395,-1.98992442787739,0.718774697103247,-0.253409224248999,-0.0079561962709329,,,,,7.16800000000012,102,1013.88236734583,443.850710362988,356.431855255288,1002.66527377522,1025.09946091644,461.242795389049,426.458625336927,373.580691642651,339.283018867925,1
1411.3792,0.740735520282285,-0.66437824364149,0.340475021937716,0.407276552511861,-1.07721383011684,-1.07721383011946,0.890333311409514,-0.267187782960512,0.83841502024186,0.0643031433437055,0.152954349529785,0.0643031433441153,1.0226157760136,-1.4488316871944,,0.766232589267548,,0.228809146213452,-0.305088830627972,1.35711876998344,-0.305088830627804,,-1.08769357276504,,0.26334660109431,-0.678219763458718,,0.770936093989763,-0.770936093987665,0.573674001368075,0.573331446026005,-0.459967309400177,0.278948591057238,0.0405974768080713,-1.27495456634765,-0.365993327948253,0.301218722294388,-0.926028327778136,-0.926028327778127,-0.788013938412937,1.500498098877,0.734832775333499,2.48647538264826,-1.96273896199405,0.736323894348019,-0.260369350341805,0.0205608069191828,,,,,7.27040000000011,102,714.937712157344,433.471719908669,370.945438465746,693.895100864553,735.980323450135,455.578615019495,411.364824797844,391.060688252246,350.830188679245,0.0490196078431373
1411.4816,0.719450732280942,-0.681682410895284,0.313649114076954,0.403481072840166,-1.09055188365604,-1.09055188365868,0.891217180750587,-0.277774208485584,0.836252450333983,0.070779038702048,0.147897076090687,0.0707790387024702,1.0056750898331,-1.45990055754172,,0.763379404688243,,0.223305031371184,-0.307768589404626,1.32178013571677,-0.307768589404491,,-1.09814899625432,,0.26242313169415,-0.684485534016304,,0.781183825260386,-0.781183825258283,0.574975144542851,0.587614429947743,-0.482617760924807,0.281358157692451,0.0491680803913597,-1.27495392931111,-0.357797999294794,0.300575131645128,-0.936136047872077,-0.936136047872052,-0.805252793187849,1.50711543952704,0.723892084867248,2.46571914318489,-1.93229453969623,0.75449568057726,-0.26683989886643,0.048763468096111,,,,,7.3728000000001,103,571.403432078089,412.556251799126,411.069518226782,551.282524271845,591.524339884333,429.393203883495,395.719299714757,446.368932038835,375.770104414728,0
1411.584,0.697591329165746,-0.699801542632418,0.285936131528345,0.399422004377422,-1.10369506894522,-1.1036950689479,0.892377238162435,-0.288374366219372,0.834370028740551,0.0774170524745136,0.143100993258029,0.0774170524749467,0.987606989921814,-1.4717397373857,,0.761325070343766,,0.218564650508436,-0.310456607388368,1.28546998605967,-0.310456607388251,,-1.10741776980014,,0.260813942785006,-0.691005569558531,,0.792022317010758,-0.792022317008651,0.57494306602244,0.601822728576385,-0.506136898312193,0.283354716157163,0.0585855460348794,-1.27443617716611,-0.348628719724658,0.299520390307786,-0.946087685497622,-0.94608768549758,-0.822653896644349,1.51477532278641,0.713858909048864,2.44202658605987,-1.89866017968791,0.773306324565324,-0.272791702952548,0.0766467176111572,,,,,7.47520000000009,102,578.217156862745,435.622549019608,434.387254901961,556.039215686275,600.395098039216,455.13137254902,416.113725490196,462.137254901961,406.637254901961,0
1411.6864,0.675193949067293,-0.718722651557837,0.257374384172801,0.39513542009514,-1.11659183022956,-1.11659183023225,0.893814426832408,-0.298990442112296,0.832768091483353,0.0841666296220875,0.138600580232917,0.0841666296225309,0.968441628061851,-1.4843657791105,,0.760099446099555,,0.21461139149158,-0.31305635307927,1.24828022188739,-0.313056353079191,,-1.11547935542529,,0.258563477185166,-0.697784226913914,,0.8034610103653,-0.803461010363187,0.573582621219522,0.615922580559847,-0.53047344577412,0.284931652442511,0.0688826628673047,-1.27338862593001,-0.338450109291914,0.298083229438276,-0.955921724893136,-0.955921724893079,-0.840110432653761,1.52344407361515,0.704808592595869,2.41548483853825,-1.86191251543392,0.792768036000144,-0.278199152624614,0.104208407207625,,,,,7.57760000000008,103,464.578155339806,468.428155339806,447.043689320388,446.233980582524,482.922330097087,482.647572815534,454.208737864078,478.368932038835,415.718446601942,0
1411.7888,0.652297387930019,-0.738429968124558,0.228005382824938,0.390656645775076,-1.12919043258297,-1.12919043258568,0.895527846317032,-0.309623089174547,0.831445522732365,0.0909768945075277,0.134428904363336,0.0909768945079811,0.948212295452021,-1.49779165350123,,0.75972842854511,,0.211464954794683,-0.31547187597518,1.2103041572131,-0.315471875975135,,-1.12231729391378,,0.255717750792466,-0.70482574565666,,0.815506860893514,-0.815506860891397,0.570901334762526,0.629879300896167,-0.555574395687293,0.286082305053779,0.0800906920462132,-1.27179727790278,-0.327227831961641,0.296291358571529,-0.965676453717607,-0.965676453717537,-0.857517124226703,1.53308653044171,0.696813362006205,2.38618620695446,-1.82213559360943,0.812888807303299,-0.283040453566004,0.131449293418608,,,,,7.68000000000006,102,435.567156862745,477.528921568628,421.598039215686,417.636274509804,453.498039215686,492.33137254902,462.726470588235,452.421568627451,390.774509803922,0
1411.8912,0.628942605642094,-0.758904813791845,0.197873903974048,0.386020045955599,-1.14143900736986,-1.14143900737259,0.897514614950216,-0.320271305994765,0.83039964850621,0.0977968243842303,0.130617514373403,0.0977968243846888,0.926955392714042,-1.51202648613118,,0.760233737892473,,0.209141158402768,-0.317608332847433,1.17163629103193,-0.317608332847422,,-1.12791915163079,,0.252324104827045,-0.712134150046087,,0.828164222530143,-0.828164222528022,0.566909382529142,0.643657366674708,-0.581385079335918,0.28680000593394,0.0922391620590388,-1.26964684368665,-0.314928798332586,0.294171285233513,-0.975389682812003,-0.975389682811922,-0.874770517700033,1.54366612895107,0.689942119117647,2.35422785099772,-1.77942063468253,0.833672286577987,-0.287297836465414,0.158372965133879,,,,,7.78240000000005,102,440.384803921569,480.013235294118,396.980392156863,423.761764705882,457.007843137255,492.714705882353,467.311764705882,426.539215686275,367.421568627451,0
1411.9936,0.605172729148964,-0.780125484983381,0.167028046861336,0.381258828460922,-1.15328560253868,-1.15328560254143,0.899769744588926,-0.330932328498862,0.82962613922307,0.104575419683036,0.127196339775018,0.104575419683502,0.904710400396085,-1.52707530283951,,0.761632721847168,,0.207651757977869,-0.319372502349395,1.13237209411535,-0.319372502349412,,-1.13227645941732,,0.248430958309644,-0.719713145692144,,0.841434734442163,-0.84143473444004,0.561619571906585,0.657220494288608,-0.607849243592275,0.287078112053524,0.105355658069051,-1.26692077995588,-0.301521379054791,0.291748153364621,-0.985098463865985,-0.985098463865892,-0.891769240232498,1.5551449876441,0.684260263994385,2.31971142809068,-1.73386575803786,0.85511766219932,-0.290957730354937,0.184985729024207,,,,,7.88480000000004,103,714.48932038835,477.983009708738,370.053398058252,689.122330097088,739.856310679612,486.923300970874,469.042718446602,401.73786407767,338.368932038835,0
1412.096,0.58103304776115,-0.802067148413904,0.135519278367452,0.376404859370026,-1.16467823855647,-1.16467823855925,0.902286028538513,-0.341601534695145,0.829118922042178,0.111261872004699,0.124193595157228,0.111261872005174,0.881519839715307,-1.5429387852895,,0.763938168245845,,0.207004274893262,-0.320673301761329,1.09260780551852,-0.320673301761364,,-1.13538463924539,,0.244087548577907,-0.727566010211176,,0.855317209835797,-0.855317209833669,0.555047307825414,0.670531709547521,-0.634909134762872,0.286910028329151,0.119465604974954,-1.26360133780582,-0.286975627617214,0.28904559013377,-0.994838801881508,-0.994838801881398,-0.908414246260749,1.56748400303418,0.679829539122749,2.28274270203086,-1.68557567614537,0.877219541569448,-0.294010909631554,0.211296462040814,,,,,7.98720000000003,102,1059.68725490196,509.936274509804,350.583333333333,1038.7137254902,1080.66078431373,520.692156862745,499.180392156863,391.921568627451,309.245098039216,0
1412.1984,0.556570999211938,-0.824701749802316,0.103402463494813,0.371488482385309,-1.17556497340589,-1.17556497340869,0.905053944312869,-0.352272360856875,0.828870105148045,0.117805727973842,0.121635687934776,0.117805727974323,0.857429223501928,-1.55961304045066,,0.767158126948536,,0.207201832903336,-0.321422315714498,1.0524402253866,-0.321422315714566,,-1.13724292010452,,0.239343653965221,-0.735695481173121,,0.869807527931126,-0.869807527928996,0.547210538797441,0.683553410691278,-0.662505588789236,0.286289222200229,0.134592046384001,-1.25966962344863,-0.271263510963033,0.286085555050164,-1.00464536028587,-1.00464536028574,-0.924609059958969,1.58064295386521,0.676707887024186,2.24343112225206,-1.63466136567585,0.899967820933169,-0.296452617983333,0.237316432625008,,,,,8.08960000000002,103,1127.13834951456,503.561650485437,338.334951456311,1106.02233009709,1148.25436893204,512.98640776699,494.136893203884,381.970873786408,294.699029126214,0
1412.3008,0.531836146338717,-0.847997937137738,0.0707358807874666,0.366538338698049,-1.18589398010564,-1.18589398010846,0.908061572154674,-0.362936225435301,0.828869916005006,0.124157046577903,0.11954712760427,0.124157046578391,0.832487002959257,-1.5770893875807,,0.771295745235865,,0.208243008117098,-0.32153433334656,1.01196649256504,-0.321534333346651,,-1.13785425120474,,0.234249298811187,-0.744103645164976,,0.884898530194178,-0.884898530192044,0.538129683288485,0.696247422879128,-0.690578124080508,0.285209230216569,0.15075542258252,-1.2551056761917,-0.254359146551027,0.282888190520839,-1.01455116189358,-1.01455116189345,-0.940260012619404,1.59458060849635,0.674949316365841,2.20188938730248,-1.58123972190837,0.92334755786905,-0.298282668563718,0.263059094612756,,,,,8.19200000000001,102,1189.55980392157,496.164705882353,329.862745098039,1169.09411764706,1210.02549019608,509.45,482.879411764706,372.901960784314,286.823529411765,0
1412.4032,0.506880141080629,-0.871920999313488,0.0375812193976024,0.361581185534496,-1.19561363682105,-1.1956136368239,0.911294530379116,-0.373582457122892,0.829106655714919,0.13026655018894,0.117950434557098,0.130266550189434,0.806744515587116,-1.59535416292695,,0.776349123305248,,0.210121700703356,-0.320927873194471,0.971283845754049,-0.320927873194587,,-1.13722521675258,,0.228854447667139,-0.752791828981251,,0.900579921244527,-0.900579921242389,0.527827543790319,0.708575043518539,-0.719065034488799,0.283663657130113,0.16797335264947,-1.24988856609663,-0.236239041704258,0.279471678574148,-1.02458729006315,-1.02458729006301,-0.955276465622654,1.60925482599447,0.674603776432424,2.1582330046839,-1.52543320026585,0.947338859997967,-0.29950551535866,0.288539860149176,,,,,8.2944,102,1188.88972301844,498.233981389166,323.967482967763,1169.94803921569,1207.8314068212,510.970588235294,485.497374543038,362.088235294118,285.846730641409,0
1412.5056,0.48175667070463,-0.896432821771831,0.00400355255387581,0.356641715453297,-1.204672627306,-1.20467262730889,0.914735929966977,-0.38419822713562,0.829566671953728,0.136085771662308,0.116866047636312,0.136085771662807,0.780255938598753,-1.61438854033691,,0.782311198796001,,0.212827039911063,-0.319525671647441,0.930489373663573,-0.319525671647582,,-1.13536594762418,,0.223208702031052,-0.761760492398815,,0.916838175768768,-0.916838175766624,0.516329222251111,0.720497080843589,-0.747903484015115,0.281646168803594,0.186260427252205,-1.24399651094085,-0.216882328873328,0.275852113463784,-1.03478259166269,-1.03478259166252,-0.969570997496502,1.62462263494092,0.67571704562663,2.11257985514824,-1.4673694505038,0.971916793804256,-0.300130288487377,0.313775856206074,,,,,8.39679999999999,103,1175.59483618821,499.271953173784,330.082365642576,1157.23638847811,1193.95328389831,507.401533466212,491.142372881356,368.971934674982,291.192796610169,0.0776699029126214
1412.608,0.456521384580087,-0.921491860681434,-0.0299287147587714,0.351742382678938,-1.21302005019031,-1.21302005019322,0.918366351736264,-0.394768490301408,0.830234352580768,0.141567199605473,0.116312231237063,0.141567199605977,0.753078253149767,-1.63416836720652,,0.789169669179939,,0.216343332629729,-0.317255123433506,0.889679757961696,-0.317255123433657,,-1.13229002299463,,0.217361014724712,-0.771009124159439,,0.933656454398187,-0.933656454396035,0.503662051215329,0.731973891874028,-0.777029607207512,0.27915048230736,0.205628016590313,-1.2374070127898,-0.196270992641773,0.272043401785399,-1.04516338221201,-1.04516338221181,-0.983059523429944,1.64064026883959,0.678330644827659,2.06504976377369,-1.40718094827669,0.997051309256014,-0.300170788973311,0.338785670713308,,,,,8.49919999999997,102,1155.17001516491,500.376330583305,344.057578712538,1134.81285871965,1175.52717161017,506.656898454746,494.095762711864,387.584437086093,300.530720338983,1
1412.7104,0.431231803854607,-0.947053136886994,-0.0641439224186984,0.346903244151254,-1.22060553786009,-1.22060553786303,0.922163849959282,-0.405275941390691,0.831092142031469,0.146664422933728,0.116304983559754,0.146664422934233,0.725271225009179,-1.65466401746386,,0.796906957576356,,0.220650060236288,-0.314048676235693,0.848951006610016,-0.314048676235854,,-1.1280143591812,,0.211359431458372,-0.780536145542196,,0.951014531462342,-0.951014531460184,0.489855547955821,0.742965427751316,-0.806378620016285,0.276170357764378,0.226084094293079,-1.23009701527748,-0.174390088051858,0.26805719798262,-1.05575315167166,-1.05575315167143,-0.995661319745801,1.65726314200235,0.682481787317687,2.01576407006856,-1.34500461842933,1.02270717712267,-0.299645439585574,0.363589093347914,,,,,8.60159999999996,102,1134.78302658594,501.671318797471,357.991844623415,1112.37511037528,1157.19094279661,506.30789183223,497.034745762712,406.16059602649,309.823093220339,1
1412.8128,0.405947216503244,-0.973068252745672,-0.098567255370442,0.342141820408025,-1.22737938761048,-1.22737938761345,0.926103986720274,-0.41570099266533,0.832120583177965,0.151332275237245,0.116857947458787,0.151332275237755,0.696897403303576,-1.67584026467529,,0.805500222014764,,0.225721921502711,-0.309844189827682,0.808398169760162,-0.30984418982784,,-1.12255908596704,,0.205250858033686,-0.7903388251293,,0.968888735709463,-0.9688887357073,0.47494138664824,0.753431293212807,-0.835884946198019,0.272699595367798,0.247633075729397,-1.22204308012675,-0.151227951258232,0.263902873865767,-1.06657226499608,-1.0665722649958,-1.00729894713325,1.6744457666699,0.688203372444694,1.96484517793372,-1.28098142890129,1.0488439436566,-0.29857718567172,0.388206847044704,,,,,8.70399999999995,103,1114.29610178845,502.972654993078,371.994415759345,1089.82737306843,1138.76483050847,505.957174392936,499.98813559322,424.827814569536,319.161016949153,0.766990291262136
1412.9152,0.38072855655648,-0.999485436940167,-0.133120870845069,0.337472976096721,-1.2332927071955,-1.23329270719851,0.930159898939119,-0.426021776367909,0.833298385558515,0.155526978151446,0.117982324835216,0.155526978151961,0.668022131531461,-1.69765617785813,,0.814921403249941,,0.231528914455532,-0.304585274213203,0.768115030544261,-0.304585274213361,,-1.11594741079265,,0.199080843087741,-0.800413204412937,,0.987251903937171,-0.987251903935004,0.458953375972787,0.763330823140467,-0.865482362955649,0.268732038459766,0.270275669031496,-1.21322157814115,-0.126776402619572,0.259587513111161,-1.07763765336043,-1.07763765336012,-1.01789809813183,1.69214163521501,0.695524021338613,1.91241606415501,-1.21525592969176,1.07541591139914,-0.296993341568783,0.412660301538586,,,,,8.80639999999994,102,1093.80917699096,504.273991188686,385.996986895275,1067.27963576159,1120.33871822034,505.606456953642,502.941525423729,443.495033112583,328.498940677966,1
1413.0176,0.35563826204833,-1.02624962089445,-0.167724059097624,0.332908815343689,-1.23829757323963,-1.23829757324267,0.934302394143314,-0.436214171128678,0.834602516241965,0.159206280174976,0.119686795119733,0.159206280175495,0.63871356002553,-1.72006504021285,,0.825137305239123,,0.23803645051697,-0.298221614709589,0.72819377272168,-0.29822161470975,,-1.10820547337871,,0.192893367309008,-0.810754030473043,,1.00607334813692,-1.00607334813475,0.44192743364131,0.772623173107776,-0.895104165673368,0.264261580230781,0.294008738328794,-1.20360889031663,-0.101030941328232,0.255115922863858,-1.08896250495402,-1.08896250495366,-1.02738742272805,1.71030310726944,0.704468140254688,1.8585997394268,-1.14797573075097,1.10237214675341,-0.294925384927969,0.436971165858219,,,,,8.90879999999993,103,1073.32225219347,505.575327384293,399.999558031204,1044.73189845475,1101.9126059322,505.255739514349,505.894915254237,462.162251655629,337.83686440678,1
1413.12,0.33074010530582,-1.05330254695389,-0.202293443348399,0.328458587092545,-1.24234719766995,-1.24234719767303,0.938500067019885,-0.446251847208818,0.836008306604206,0.162329584986258,0.121977438399492,0.162329584986777,0.609042650301298,-1.74301428939442,,0.836109704618123,,0.245205498273938,-0.29070927911362,0.688724639594449,-0.290709279113776,,-1.09936219773695,,0.18673063720266,-0.821354691736331,,1.02531883786967,-1.0253188378675,0.423901558609007,0.781267415444003,-0.924683347219603,0.259282168989746,0.31882517975123,-1.19318161804964,-0.0739909307180285,0.250490661061864,-1.10055597577577,-1.10055597577538,-1.03569839164343,1.72888133771592,0.715055987206397,1.80351867905907,-1.07929094349402,1.12965650010735,-0.292408704993703,0.461161160412832,,,,,9.01119999999992,102,1052.83532739599,506.876663579901,414.002129167134,1022.1841611479,1083.48649364407,504.905022075055,508.848305084746,480.829470198676,347.174788135593,1
1413.2224,0.306098992454336,-1.08058290681181,-0.236743220966527,0.32412859967891,-1.24539609718057,-1.24539609718368,0.942719430503688,-0.45610632649791,0.837489569777919,0.164858064150682,0.124857664391206,0.164858064151201,0.57908316616633,-1.76644547902615,,0.847795488345862,,0.252992757487614,-0.282010997407348,0.649795599766927,-0.282010997407505,,-1.08944914816595,,0.180632887455107,-0.832207155562521,,1.04495060038746,-1.04495060038529,0.40491580640108,0.789222632549524,-0.954152786055239,0.253787807630255,0.344713811390719,-1.18191680328503,-0.0456597733814191,0.245712082122852,-1.11242293796187,-1.11242293796144,-1.04276523491015,1.74782626254598,0.727303720675873,1.74729425385993,-1.00935362607499,1.15720761974448,-0.289482310387426,0.485251666135459,,,,,9.11360000000013,103,1032.3484025985,508.177999775508,428.004700303064,999.63642384106,1065.06038135593,504.554304635762,511.801694915254,499.496688741722,356.512711864407,1
1413.3248,0.281780734323187,-1.10802650921674,-0.270985443522275,0.31992215047252,-1.24740026219626,-1.24740026219941,0.946925059594406,-0.465747059116334,0.839018726378926,0.166754752221181,0.128328150228921,0.166754752221696,0.548911649604313,-1.79029426383075,,0.860146821711812,,0.261350865205625,-0.272096402603752,0.611492029351438,-0.272096402603904,,-1.07850039018775,,0.174638200264711,-0.843301909941715,,1.06492734230088,-1.0649273422987,0.385012273185495,0.796448004939533,-0.983445439886068,0.247772546567594,0.371659278887669,-1.16979215910336,-0.0160450746607696,0.240778405115522,-1.12456377152048,-1.12456377152,-1.04852495940178,1.7670866387078,0.741223422627616,1.69004619202429,-0.938317264204555,1.18495895579299,-0.286188501706329,0.509263345810354,,,,,9.21600000000012,102,1011.86147780101,509.479335971115,442.007271438994,977.088686534216,1046.6342690678,504.203587196468,514.755084745763,518.163907284768,365.85063559322,0.176470588235294
1413.4272,0.257851795430661,-1.13556647697352,-0.304930329838787,0.315839482745004,-1.24831732278727,-1.24831732279046,0.951079748659874,-0.475141524637612,0.840566936962865,0.167984623526507,0.132386792363536,0.167984623527018,0.518607381119976,-1.8144904133245,,0.873111351595324,,0.270228636008578,-0.260942211874578,0.573896422328237,-0.260942211874721,,-1.06655235469885,,0.168782353944889,-0.854627913752923,,1.08520429806562,-1.08520429806345,0.364235093825704,0.802902896925238,-1.01249454374457,0.241230472960796,0.39964197853226,-1.15678631096714,0.0148412072234906,0.235685810761235,-1.1369741979524,-1.13697419795189,-1.05291742280204,1.78661011868554,0.756823099173585,1.63189209611407,-0.866336300229515,1.21283877223095,-0.282572513227573,0.533215733058412,,,,,9.31840000000011,102,997.828272109719,521.439237915393,461.701244500494,972.55803142449,1023.09851279495,527.163952733411,515.714523097375,535.171016751071,388.231472249917,0
1413.5296,0.234379028286569,-1.16313347320928,-0.338486605662886,0.31187778124209,-1.24810670984966,-1.24810670985288,0.955144683382021,-0.484255366483673,0.842104239919878,0.168514649274198,0.137028677586559,0.168514649274703,0.488252325084392,-1.83895785953587,,0.886632449496401,,0.279571337651616,-0.248532321178079,0.537088144708183,-0.2485323211782,,-1.05364370644662,,0.163098711331155,-0.866172559718107,,1.10573330983832,-1.10573330983615,0.342630456786941,0.808546943801489,-1.0412338107851,0.234155700057229,0.428637999506308,-1.14287904779833,0.0469826262252094,0.23042857337717,-1.14964515401565,-1.1496451540151,-1.05588543453916,1.80634333628995,0.774106665011232,1.57294702666246,-0.793565707950529,1.24077019047335,-0.278682125742909,0.557126786617819,,,,,9.4208000000001,103,1169.46553398058,521.87572815534,474.432038834951,1156.1640776699,1182.76699029126,537.720388349515,506.031067961165,539.621359223301,409.242718446602,0
1413.632,0.211429397163522,-1.19065595507443,-0.371561865446526,0.308031208356972,-1.24672981144067,-1.24672981144391,0.959079628091823,-0.493052562123526,0.843599694811939,0.168313834583866,0.142246073942382,0.16831383458437,0.457931059057495,-1.86361478159518,,0.90064949349199,,0.289321000141165,-0.234857799725382,0.501143240236606,-0.234857799725493,,-1.03981522050983,,0.157618148155645,-0.877921651603753,,1.12646293936163,-1.12646293935947,0.320246632264894,0.813340142155706,-1.06959763224102,0.226542359411496,0.45861908531223,-1.12805157874643,0.0803581300645562,0.224999226748618,-1.16256270410212,-1.16256270410152,-1.05737486382181,1.82623198729531,0.793073915231845,1.51332314852967,-0.720160604606236,1.26867127293248,-0.274567255230905,0.581012415567931,,,,,9.52320000000009,102,1216.3362745098,511.687254901961,403.259803921569,1214.03137254902,1218.64117647059,526.587254901961,496.787254901961,455.911764705882,350.607843137255,0
1413.7344,0.18906969382317,-1.21806045058075,-0.404062952039272,0.304290973886653,-1.24415012617104,-1.24415012617432,0.962843128036171,-0.501495624820238,0.84502153191723,0.167353237791062,0.148028437737712,0.167353237791558,0.427730683963525,-1.88837372708419,,0.915098181316756,,0.299416750953158,-0.219916799032484,0.466134281488921,-0.219916799032576,,-1.02510966982415,,0.152369012023968,-0.889859394528716,,1.14733860845397,-1.14733860845181,0.297134004065794,0.817242943540798,-1.09752127100865,0.218384598420969,0.489552611732775,-1.11228679035884,0.11494195749889,0.219388753456901,-1.17570798703832,-1.1757079870377,-1.05733475435274,1.8462209054553,0.81372048548497,1.45312942735136,-0.646275891944848,1.29645513949354,-0.270279529501157,0.604885993320251,,,,,9.62560000000008,103,1330.51504854369,488.035436893204,323.800970873787,1323.42912621359,1337.60097087379,489.225242718447,486.845631067961,361.339805825243,286.26213592233,0
1413.8368,0.167366250097417,-1.24527185325256,-0.43589634748853,0.300645429457185,-1.24033341694896,-1.24033341695226,0.96639272470832,-0.509545829415673,0.846337308238877,0.165605974866135,0.154362431206502,0.165605974866625,0.397740714954796,-1.91314176998889,,0.929910865402483,,0.309795167169731,-0.20371441117462,0.432130250896615,-0.203714411174699,,-1.00957172534431,,0.147377102598938,-0.901968397205318,,1.16830276384748,-1.16830276384533,0.27334509645934,0.820216353675536,-1.12494104200134,0.209676587715861,0.521401577311651,-1.09556950340634,0.150703547675476,0.213586784442409,-1.18905719345133,-1.18905719345067,-1.05571746853008,1.86625415754727,0.836037801375308,1.39247136551437,-0.572065918927325,1.32403011224764,-0.265871867138922,0.62875788522556,,,,,9.72800000000007,102,1415.28235294118,475.604901960784,275.696078431373,1410.42941176471,1420.13529411765,462.373529411765,488.836274509804,304.666666666667,246.725490196078,0
1413.9392,0.146384653277185,-1.27221373053758,-0.466968567813339,0.297080180297212,-1.23524786800431,-1.23524786800764,0.969685181616648,-0.517163454787709,0.847514069414389,0.163047209609087,0.161231946437309,0.163047209609571,0.368052957804047,-1.93782070653245,,0.945016905506156,,0.320390639622639,-0.186262504926284,0.39919643249427,-0.186262504926364,,-0.99324786911374,,0.142665668298724,-0.914229686910415,,1.18929506401277,-1.18929506401062,0.248934591544695,0.822222043103708,-1.15179447521635,0.200412544865685,0.554124603945088,-1.07788673180677,0.187607458485999,0.207581802015539,-1.20258157451289,-1.2025815745122,-1.05247888797037,1.88627518789774,0.860013020835377,1.33145077436641,-0.497684158509717,1.35129989607304,-0.261398066837305,0.652635008974306,,,,,9.83040000000005,102,1459.42941176471,475.282843137255,244.289215686275,1453.14901960784,1465.70980392157,461.598039215686,488.967647058824,265.392156862745,223.186274509804,0
1414.0416,0.126189463930919,-1.29880864568796,-0.497186561948505,0.293578210149338,-1.22886424643062,-1.22886424643398,0.972676717543387,-0.524308037050595,0.848518516213197,0.159654130205046,0.168618133796591,0.159654130205523,0.338761372819456,-1.96230729007512,,0.960343037176269,,0.331135748062894,-0.167579550118522,0.367394297142548,-0.167579550118595,,-0.976186318655435,,0.138255416425271,-0.926622738072306,,1.21025258675782,-1.21025258675567,0.223959334073283,0.823222476440329,-1.17802046465693,0.190586778915341,0.587675948344641,-1.05922794139245,0.225613295365654,0.201361348400164,-1.21624748311287,-1.21624748311214,-1.04757866698165,1.90622701693133,0.885628977630188,1.27016558638052,-0.423282898005732,1.37816380210976,-0.256912407309739,0.676520429605536,,,,,9.93280000000004,103,1563.62378640777,471.509223300971,219.81067961165,1547.23980582524,1580.00776699029,458.425242718447,484.593203883495,234.184466019418,205.436893203884,0
1414.144,0.106843927768088,-1.32497849691634,-0.526458124016267,0.29012001955454,-1.22115606877648,-1.22115606877986,0.975323244762841,-0.530938628986413,0.849317174328281,0.155405916205307,0.176499435122686,0.155405916205776,0.309961919405935,-1.98649350539707,,0.975813750477737,,0.341961643555086,-0.147690430797279,0.336781373068793,-0.147690430797356,,-0.958436961155784,,0.134164531724536,-0.939125512775787,,1.23111005500473,-1.23111005500258,0.198478318087062,0.82318106331048,-1.20355940993116,0.180193755505421,0.62200552678139,-1.03958530070008,0.264675655324723,0.1949122436455,-1.23001644287612,-1.23001644287536,-1.04098050491676,1.92605246776339,0.912864134317106,1.20870971480805,-0.349012955124734,1.40451700572398,-0.252469254235939,0.700412976275289,,,,,10.0352,102,1562.61519607843,473.647549019608,210.333333333333,1545.89411764706,1579.3362745098,456.943137254902,490.351960784314,221.627450980392,199.039215686275,0
1414.2464,0.0884096747793017,-1.35064487558403,-0.55469232570211,0.286683778216727,-1.21209977373711,-1.2120997737405,0.977580610220758,-0.537014062552423,0.849876566321569,0.150283701765009,0.18485162116034,0.150283701765468,0.281752371126157,-2.01026688307855,,0.991351668103848,,0.352798427785332,-0.126626248305984,0.307411107382426,-0.126626248306065,,-0.940051299212682,,0.130408695657609,-0.951714509780545,,1.25180007595006,-1.25180007594791,0.172552646337162,0.822062328703619,-1.22835335158802,0.169228180297605,0.65705895341532,-1.01895391747221,0.304744088506903,0.188220810166509,-1.24384523961666,-1.24384523961587,-1.03265240879247,1.94569439318568,0.941692545640394,1.14717296512393,-0.275023434182985,1.43025082103773,-0.248122673647985,0.724306872945206,,,,,10.1376,103,1582.60485436893,469.483980582524,207.04854368932,1565.73883495146,1599.47087378641,452.302912621359,486.665048543689,218.184466019417,195.912621359223,0
1414.3488,0.0709464084106078,-1.37572943644804,-0.581799963043613,0.283245486894784,-1.20167490105945,-1.20167490106286,0.979404836566245,-0.542493212591399,0.850163383068597,0.144270538210656,0.193647830804175,0.144270538211107,0.254232094924559,-2.0335108553708,,1.00687791095318,,0.363575516314207,-0.104424117529384,0.279332735234992,-0.10442411752947,,-0.921082411611045,,0.127001097382851,-0.9643648194708,,1.27225338841487,-1.27225338841273,0.146245452580099,0.819832099025338,-1.25234609236656,0.157685100859909,0.692777588687171,-0.997332058553081,0.345763074641748,0.181273094987647,-1.25768603609083,-1.25768603609003,-1.02256694330674,1.96509589421074,0.97208382620865,1.08564099531158,-0.201461526381722,1.45525298038348,-0.243926059148043,0.748191394954542,,,,,10.24,102,1601.04901960784,465.38137254902,208.622549019608,1585.01960784314,1617.07843137255,443.611764705882,487.150980392157,220.205882352941,197.039215686275,0
1414.4512,0.0545115925019069,-1.40015426862469,-0.607694005521627,0.27977914153918,-1.18986427456879,-1.18986427457221,0.98075235905973,-0.547335260083497,0.850144651093603,0.137351355781415,0.202858610224204,0.137351355781857,0.227501791433508,-2.05610515425058,,1.02231244373335,,0.374221977419957,-0.0811269585398243,0.252591173476859,-0.0811269585399089,,-0.901584930081923,,0.123952430287282,-0.97705018404196,,1.29239911515115,-1.29239911514902,0.119621780434322,0.816457701872355,-1.27548329614579,0.145560028740076,0.729098593474542,-0.974721351832538,0.387672010708759,0.174055080811515,-1.27148651413488,-1.27148651413404,-1.01070148018808,1.98420053723401,1.00400311743544,1.02419532049899,-0.128472349748675,1.47940791884299,-0.239931784646746,0.772050574135265,,,,,10.3424,102,1588.64509803922,470.903921568627,211.789215686275,1573.86568627451,1603.42450980392,454.555882352941,487.251960784314,223.519607843137,200.058823529412,0
1414.5536,0.0391601403708269,-1.42384226159335,-0.632290040941727,0.276256897074044,-1.17665418671613,-1.17665418671957,0.981580256523113,-0.551499952225177,0.849787894696126,0.129512923842874,0.212451952324852,0.129512923843306,0.201663194686257,-2.07792625122912,,1.03757440092329,,0.384666847386265,-0.056783283144406,0.227226946805126,-0.0567832831444919,,-0.881615030546856,,0.121270874848646,-0.989743064369842,,1.31216501979149,-1.31216501978936,0.0927484194763174,0.811908178273236,-1.29771256547392,0.132849080349567,0.76595498812103,-0.951126969639252,0.430405209151089,0.166552881483739,-1.28519004628889,-1.28519004628801,-0.997038456562752,2.00295257887347,1.03741105310268,0.962913361450459,-0.0561988249072666,1.50259706968097,-0.236190890056692,0.795862967774469,,,,,10.4448,103,948.759708737864,462.259708737864,231.247572815534,930.142718446602,967.376699029126,468.059223300971,456.460194174757,253.077669902913,209.417475728155,0
1414.656,0.0249441059220742,-1.44671746844748,-0.65550671724493,0.272649234647559,-1.16203458280357,-1.16203458280703,0.981846477293433,-0.554947856232098,0.849061294758503,0.120743809159253,0.222393338858073,0.120743809159673,0.176818732248615,-2.0988478384257,,1.05258240136726,,0.394839432474272,-0.0314469717714392,0.203276145103563,-0.031446971771516,,-0.861230436174141,,0.118962075521342,-1.00241471651935,,1.33147777099602,-1.3314777709939,0.0656937061125377,0.806154504366326,-1.31898350569184,0.119549130948055,0.803275720756999,-0.926557795039765,0.47389191040138,0.158752923485429,-1.29873589793833,-1.29873589793743,-0.981565640463036,2.02129719600016,1.07226372291716,0.90186853490448,0.0152184175188704,1.52469917458642,-0.23275280189914,0.819601495371167,,,,,10.5472,102,749.55931372549,466.925490196079,238.647058823529,745.35,753.76862745098,464.116666666667,469.73431372549,260.245098039216,217.049019607843,0
1414.7584,0.0119123749711942,-1.46870547192076,-0.677266185429286,0.268925138223653,-1.14599924272361,-1.14599924272709,0.981510061196178,-0.557640604637324,0.847933845926312,0.11103433114174,0.232645788331242,0.11103433114215,0.153071149240665,-2.11874135080447,,1.06725486506998,,0.404669613443758,-0.00517703075488226,0.180770403796912,-0.00517703075495212,,-0.84049042728926,,0.117029122739607,-1.01503527993436,,1.3502632184439,-1.35026321844178,0.0385273008354962,0.799169817838935,-1.3392477818857,0.105657975402647,0.840985754384138,-0.901026572698851,0.518056318251326,0.150642120120834,-1.31205946079125,-1.31205946079031,-0.964276393743615,2.03918070961683,1.10851263239599,0.841130374525469,0.0856411102947642,1.54559061155661,-0.229665088788439,0.843233340845347,,,,,10.6496,102,707.873529411765,464.450980392157,237.735294117647,698.439215686275,717.307843137255,465.556862745098,463.345098039216,260.696078431373,214.774509803922,0
1414.8608,0.000110355979112786,-1.48973375661717,-0.697494545894922,0.265052284025156,-1.12854595723053,-1.12854595723403,0.980531356231806,-0.559541130116638,0.846375511388875,0.100376512815148,0.243169912299767,0.100376512815545,0.130523099031672,-2.13747652955969,,1.08151034430474,,0.414088165596731,0.0219626795076879,0.159736894820501,0.0219626795076261,,-0.819455852528735,,0.115472550377094,-1.02757387669012,,1.36844668487315,-1.36844668487104,0.0113199533515429,0.790929645687182,-1.35845916820188,0.0911744931174644,0.87900618327305,-0.874550043502481,0.562817668405604,0.14220804573302,-1.32509251619834,-1.32509251619737,-0.945169926587973,2.05655079662987,1.14610465893741,0.780764665235176,0.154933425397444,1.56514574922083,-0.226973250378079,0.866719912681239,,,,,10.752,103,535.893203883495,474.908252427185,238.106796116505,510.673786407767,561.112621359223,472.245631067961,477.570873786408,265.194174757282,211.019417475728,0
1414.9632,-0.0104203233585984,-1.50973208341072,-0.716122290654945,0.260997243449651,-1.10967669601341,-1.10967669601693,0.978872226604865,-0.560613888887453,0.84435737206891,0.088764028104759,0.253923980938786,0.0887640281051422,0.109276700776816,-2.1549220279297,,1.09526787177511,,0.423027095053541,0.0499037443510004,0.140198318417737,0.0499037443509617,,-0.798189139792753,,0.114290353920606,-1.0399987199756,,1.38595327530713,-1.38595327530503,-0.0158567395836223,0.781412133633613,-1.37657358216892,0.0760988203909693,0.91725438309513,-0.84714906046747,0.608090335233896,0.13343911167689,-1.33776352221337,-1.33776352221235,-0.924251544107798,2.07335668902339,1.18498200305211,0.720833577204797,0.222962074830727,1.58323734382556,-0.224720540284831,0.890016851646995,,,,,10.8543999999999,102,536.197549019608,476.518137254902,242.490196078431,508.214705882353,564.180392156863,472.907843137255,480.128431372549,272.058823529412,212.921568627451,0
1415.0656,-0.0196420972280441,-1.5286328545683,-0.733084721591282,0.256725699390929,-1.08939776581115,-1.08939776581468,0.976496249273555,-0.560825075676748,0.84185176644883,0.0761921484671974,0.264863997728277,0.0761921484675673,0.0894330626517433,-2.17094606332027,,1.10844731849996,,0.431419979417629,0.0785735089704508,0.122172897500677,0.0785735089704297,,-0.776754310777341,,0.113478026110095,-1.05227723099693,,1.40270820141315,-1.40270820141105,-0.0429305904974449,0.770598281508629,-1.39354909293443,0.0604325381965597,0.95564419016943,-0.818848684734529,0.653783972686104,0.124324736317615,-1.34999791395666,-1.34999791395561,-0.901532884820997,2.08954935581041,1.2250821302087,0.661395792997844,0.289596452557951,1.59973699595748,-0.222947829225829,0.91307408313781,,,,,10.9567999999999,103,538.698058252427,472.499029126214,244.655339805825,512.109708737864,565.28640776699,467.491262135922,477.506796116505,273.310679611651,216,0
1415.168,-0.0275217057519345,-1.54637145919227,-0.748322326894217,0.252202676063749,-1.06771995727863,-1.06771995728217,0.973368898129667,-0.560142835762174,0.838832418520843,0.062657692458869,0.275943783541768,0.0626576924592264,0.0710917694676289,-2.18541711989882,,1.12096975165372,,0.439202299284782,0.107895391724547,0.105674388742999,0.107895391724541,,-0.755217003757577,,0.113028600159567,-1.06437616438121,,1.41863711740911,-1.41863711740702,-0.0698291057215023,0.758472189673353,-1.40934589522557,0.0441788828320684,0.994086102515487,-0.789678260837501,0.699803682638261,0.114855496519241,-1.36171840764324,-1.36171840764214,-0.877032146406272,2.10508165947782,1.26633769949593,0.602506626992163,0.354708824354349,1.61451567732066,-0.221693515711911,0.935835926382614,,,,,11.0591999999999,102,542.010294117647,473.633333333333,242.862745098039,516.693137254902,567.327450980392,473.010784313726,474.255882352941,269.450980392157,216.274509803922,0
1415.2704,-0.03403040053648,-1.56288659684847,-0.761781113413666,0.247392783177799,-1.04465867910621,-1.04465867910976,0.969457715362957,-0.558537477925505,0.83527455228814,0.0481589808001255,0.28711507179251,0.0481589808004705,0.0543503317142867,-2.19820470311098,,1.13275778795665,,0.446311755750742,0.137789194611134,0.090712124563342,0.137789194611138,,-0.733644505433616,,0.11293269253888,-1.07626174207474,,1.43366646491036,-1.43366646490827,-0.0964798074040774,0.745021317621321,-1.42392624903409,0.0273429803612425,1.03248750128771,-0.759671467758067,0.746050210415467,0.105023253076751,-1.37284530447436,-1.37284530447322,-0.850774289473824,2.11990847806347,1.30867647950857,0.544218141177984,0.418174561356292,1.62744432707051,-0.220993487041912,0.958241278591851,,,,,11.1616000000001,103,546.061650485437,477.26213592233,238.422330097087,520.847572815534,571.27572815534,476.325242718447,478.199029126214,265.252427184466,211.592233009709,0
1415.3728,-0.0391441197031996,-1.57812058511003,-0.77341290463651,0.242260478503638,-1.0202340777243,-1.02023407772786,0.964732469615135,-0.555981690377366,0.831154991813453,0.0326957988085551,0.298327617679126,0.0326957988088872,0.039303590609029,-2.20918014545605,,1.14373594580385,,0.452688578941502,0.16817142507306,0.0772910871096936,0.168171425073068,,-0.712105787213137,,0.113178546697971,-1.08789979573646,,1.4477238273027,-1.44772382730062,-0.122810590882306,0.730236751109925,-1.43725439428522,0.00993209812840438,1.07075289851415,-0.728866341535774,0.792420174498296,0.0948212509058691,-1.38329679677063,-1.38329679676945,-0.822791206973079,2.13398678272426,1.35202125375783,0.486579264494663,0.479872405792277,1.63839450968849,-0.220881127596283,0.980223878720053,,,,,11.2640000000001,102,548.746078431373,479.938235294118,236.78431372549,523.132352941177,574.359803921569,481.256862745098,478.619607843137,263.656862745098,209.911764705882,0
1415.4752,-0.0428436421320686,-1.59201965956327,-0.783175616847635,0.236770353800748,-0.99447113981584,-0.994471139819415,0.959165301123926,-0.552450760509973,0.826452246772708,0.016269367537621,0.309529324567013,0.0162693675379404,0.0260430736570828,-2.21821746170415,,1.15383100402707,,0.458275838226217,0.198955647997359,0.0654120050614806,0.198955647997381,,-0.690671536697847,,0.113752085954107,-1.09925591753079,,1.46073829647176,-1.46073829646968,-0.148750107822004,0.714113473771697,-1.44929645638916,-0.00804409639106556,1.10878421991396,-0.69730526701123,0.838806339571723,0.0842441990758704,-1.39298928339392,-1.39298928339269,-0.793121850561406,2.1472756651255,1.3962897187011,0.429635922105716,0.539684759056258,1.64723912801149,-0.221387365639828,1.00171263868532,,,,,11.3664000000001,102,557.699509803922,482.783333333333,235.03431372549,532.000980392157,583.398039215686,489.470588235294,476.096078431373,260.941176470588,209.127450980392,0
1415.5776,-0.0451147294422251,-1.60453427046609,-0.791033522936858,0.230887441397277,-0.967399771661817,-0.967399771665398,0.952730851679172,-0.547922797952805,0.821146581425374,-0.00111767846065069,0.320666388518377,-0.00111767846034585,0.0146562991132928,-2.22519425038629,,1.16297237514884,,0.463019765708685,0.230052882401121,0.055071465875387,0.230052882401143,,-0.669414173244114,,0.114636980218773,-1.11029561918601,,1.47264085373797,-1.47264085373589,-0.174228167418365,0.696650643523925,-1.46002035660963,-0.0265732747981477,1.14648113021315,-0.665034935078959,0.885097941161492,0.0732883357801169,-1.4018377028523,-1.40183770285103,-0.761812313935084,2.15973632090999,1.44139438084122,0.373431180007276,0.597497986026666,1.65385318983498,-0.222540748033688,1.02263202804184,,,,,11.4688000000001,103,816.385922330097,478.33786407767,240.072815533981,806.595145631068,826.176699029126,471.371844660194,485.303883495146,263.466019417476,216.679611650485,0
1415.68,-0.0459482602819093,-1.61561937199127,-0.796957505968595,0.224577528582472,-0.939054846728382,-0.939054846731965,0.945406370607939,-0.542378962538302,0.815220057499535,-0.0194613158781405,0.331683459755378,-0.0194613158778501,0.005226032835828,-2.229992638588,,1.17109249758286,,0.466870101152308,0.261372053783001,0.0462620417060629,0.261372053783025,,-0.648407839043086,,0.115814722084694,-1.12098449993467,,1.48336476456878,-1.48336476456671,-0.199176155494882,0.677851877825215,-1.46939572914896,-0.0456401825185977,1.18374140557767,-0.632106257504219,0.931181068797552,0.061951482415216,-1.4097558889416,-1.40975588894029,-0.728915876553173,2.17133200371976,1.48724246427967,0.318005410626883,0.653202728775537,1.65811462563075,-0.224367535929584,1.04290250384131,,,,,11.5712000000001,102,841.767647058824,474.703921568627,256.240196078431,835.379411764706,848.155882352941,471.197058823529,478.210784313726,284.480392156863,228,0
1415.7824,-0.0453403567255994,-1.62523469539149,-0.800925298279717,0.217807466540846,-0.909476213687896,-0.909476213691478,0.9371717824767,-0.535803703083726,0.808656534554238,-0.0387561737129263,0.342523819420315,-0.0387561737126489,-0.00217049853548587,-2.2325002682533,,1.17812724648296,,0.469780460566628,0.292820510655208,0.038972428254577,0.292820510655232,,-0.627728361960877,,0.117264704548556,-1.131288423765,,1.49284598491786,-1.49284598491579,-0.223527475470779,0.657725549061458,-1.47739383726938,-0.065226364935679,1.22046135485657,-0.598574228933342,0.976939112615879,0.0502330914516573,-1.41665694896137,-1.41665694896001,-0.694493008209872,2.18202796232245,1.53373584119315,0.263396481755134,0.706694224716741,1.65990515270818,-0.226891817882114,1.06244097687978,,,,,11.6736000000001,103,1011.46844660194,230.200485436893,275.815533980583,999.853398058252,1023.08349514563,249.487378640777,210.91359223301,312.68932038835,238.941747572816,0
1415.8848,-0.0432924998594807,-1.63334499781774,-0.802921699666359,0.210545470448719,-0.878708659429553,-0.878708659433126,0.928009703252179,-0.528185011803648,0.801441612782316,-0.0589956006112375,0.353129571297543,-0.0589956006109749,-0.00746243896955569,-2.23261132064976,,1.18401635756647,,0.471708723798238,0.324304607368609,0.0331875943810856,0.324304607368632,,-0.607453188584608,,0.118964297909981,-1.14117370434663,,1.5010235755307,-1.50102357552863,-0.247218012769179,0.636285083965256,-1.48398748729637,-0.085309889388789,1.25653628776328,-0.564497728003358,1.02225327417865,0.038134292361797,-1.4224536610816,-1.42245366108021,-0.65861133494849,2.19179136661583,1.58077099067718,0.20963996385991,0.757872634505805,1.65911118678276,-0.230135638114674,1.081161304587,,,,,11.7760000000001,102,1018.48529411765,224.013725490196,295.588235294118,1010.72352941176,1026.24705882353,245.894117647059,202.133333333333,339.078431372549,252.098039215686,0
1415.9872,-0.0398116300622006,-1.63992027959032,-0.802938767335559,0.202761414672574,-0.846801822888117,-0.846801822891676,0.917905398621835,-0.519514691261501,0.793562512670519,-0.0801717594693307,0.363441849098568,-0.0801717594690839,-0.0105861803749489,-2.23022757004863,,1.18870385273479,,0.472617428592279,0.355730344937875,0.028888938698181,0.355730344937894,,-0.587661284566795,,0.120888927572527,-1.15060729491658,,1.50784011954858,-1.50784011954651,-0.270186622015108,0.613549257205945,-1.48915095618912,-0.105865077408569,1.29186102521625,-0.529939253618028,1.06700313819222,0.0256579346005816,-1.42705888446275,-1.42705888446135,-0.621345571889222,2.20059122525757,1.62823898304704,0.156769348302017,0.806643393872171,1.65562481304992,-0.234119136952316,1.09897481077622,,,,,11.8784000000001,102,1015.17058823529,226.164215686275,310.833333333333,1008.62941176471,1021.71176470588,245.337254901961,206.991176470588,357.235294117647,264.43137254902,0
1416.0896,-0.0349102275936462,-1.64493596565407,-0.80097597176366,0.19442712365821,-0.813810057764142,-0.813810057767678,0.906846688478694,-0.509788623195542,0.785007898731456,-0.10227574208612,0.373401038665949,-0.102275742085886,-0.0114862737719484,-2.22525944858113,,1.19213845420942,,0.472474154250126,0.387004053459832,0.0260544448447184,0.387004053459858,,-0.568432997519861,,0.12301215335818,-1.15955698223273,,1.51324213896965,-1.51324213896758,-0.292375635714382,0.589542470880804,-1.49285995771396,-0.126862264058379,1.32633044847146,-0.494964594921884,1.11106730236915,0.0128086201275283,-1.43038597607394,-1.43038597607251,-0.582777432324373,2.20839830208852,1.67602548734795,0.104816276382778,0.852917599518436,1.64934483417709,-0.238860692771235,1.11579085023714,,,,,11.9808,103,1103.48203883495,298.793203883495,323.854368932039,1091.87184466019,1115.09223300971,310.101941747573,287.484466019418,375.621359223301,272.087378640777,0
1416.192,-0.0286063710323968,-1.64837305624633,-0.797040318652938,0.18551665424456,-0.779792249210742,-0.779792249214266,0.89482381405025,-0.499007028860998,0.775767667266743,-0.125297686061791,0.382947013686244,-0.12529768606157,-0.0101163385636311,-2.21762709289934,,1.19427397816137,,0.471251881233148,0.418033098178396,0.0246588210881918,0.418033098178429,,-0.549849878346311,,0.125305753132167,-1.16799158634774,,1.51718050674955,-1.51718050674748,-0.313731385111018,0.564295011093746,-1.49509166685277,-0.148267599501878,1.35984008887107,-0.459642437857545,1.15432406626236,-0.000407281131878732,-1.43234921113034,-1.43234921112889,-0.54299552263282,2.21518504219855,1.72401080341614,0.0538107875208545,0.896612428390668,1.64017790779603,-0.244377041635027,1.13151744831324,,,,,12.0832,102,1702.27254901961,888.201470588235,329.147058823529,1687.58333333333,1716.96176470588,907.446078431373,868.956862745098,364.313725490196,293.980392156863,0
1416.2944,-0.020923768708048,-1.65021826047203,-0.791146439129405,0.176006565856632,-0.744811598406861,-0.744811598410362,0.881829291826076,-0.487174718270012,0.765832723770657,-0.149226862719663,0.392019387250714,-0.149226862719456,-0.00643991420134416,-2.20726133419643,,1.19506970256245,,0.468929314521419,0.448726591651583,0.0246736112199718,0.448726591651627,,-0.531994460710791,,0.127739820504515,-1.17588116857935,,1.51961085292985,-1.51961085292777,-0.334204709651137,0.537843268378799,-1.49582480677605,-0.170042905305621,1.39228676114982,-0.42404392228038,1.19665217744755,-0.0139816291594126,-1.43286419877553,-1.43286419877407,-0.502095229130765,2.22092551020946,1.77206991484232,0.00378159349612852,0.937651586168023,1.62803977784065,-0.25068334495948,1.14606204121611,,,,,12.1856,103,1734.74902912621,921.038349514563,329.990291262136,1729.43980582524,1740.05825242718,944.944660194175,897.132038834952,359.834951456311,300.145631067961,0
1416.3968,-0.0118917509010101,-1.65046412353874,-0.783316642461271,0.165876173727044,-0.708935391605962,-0.70893539160944,0.867857773385873,-0.474301330705786,0.755194768935917,-0.174051703067246,0.400557787109167,-0.174051703067057,-0.000431193377905499,-2.19410459200569,,1.19449070031846,,0.465491151238026,0.478996092061093,0.0260672754540691,0.47899609206115,,-0.514950002592919,,0.130282887647962,-1.18319724820009,,1.52049396439612,-1.52049396439404,-0.353751424788882,0.510229908557624,-1.49503978765731,-0.192145592016002,1.423569234927,-0.388242177279928,1.23793162113775,-0.0279045092572803,-1.43184827255171,-1.43184827255025,-0.46017859649516,2.22559533349866,1.82007255571118,-0.0452436202090513,0.975965782363679,1.61285659693174,-0.257793184552383,1.15933232539333,,,,,12.288,102,1789.45931372549,956.71862745098,331.828431372549,1781.51470588235,1797.40392156863,990.537254901961,922.9,359.06862745098,304.588235294118,0
1416.4992,-0.00154521140280997,-1.64910915084258,-0.773580922758257,0.155107775466336,-0.672234763642389,-0.672234763645836,0.852905919909133,-0.460401563493349,0.743846103170991,-0.199759746988527,0.408502164393391,-0.199759746988356,0.00792441023879603,-2.17811163911104,,1.19250812743565,,0.460928272574611,0.508756264123821,0.0288052500938887,0.508756264123893,,-0.498800192452423,,0.132902077466201,-1.1899130248498,,1.51979617758121,-1.51979617757913,-0.372332722327685,0.481503986359672,-1.49271888521332,-0.214528639325022,1.4535889279661,-0.352311869711606,1.27804442641753,-0.0421642072182768,-1.42922084038633,-1.42922084038487,-0.417354186353403,2.22917165325097,1.86788330584622,-0.0932378665793676,1.01149322641878,1.59456632908062,-0.265718478222785,1.17123720817336,,,,,12.3904,102,1802.93823529412,962.137745098039,315.495098039216,1799.26176470588,1806.61470588235,990.088235294118,934.187254901961,339.06862745098,291.921568627451,0
1416.6016,0.010075498061468,-1.64615793151143,-0.761976923952413,0.143686840251187,-0.634784453326958,-0.634784453330377,0.836972298859138,-0.445495375130726,0.731779461369469,-0.226337523318245,0.415793143824483,-0.226337523318092,0.0186298775098106,-2.15925021230289,,1.18909946571816,,0.455237857941445,0.537925472428472,0.0328499941097434,0.537925472428552,,-0.483628812104854,,0.135563280830153,-1.19600359759825,,1.51748975980444,-1.51748975980235,-0.389915484936991,0.451720997739062,-1.48884646043424,-0.237140642720231,1.48225059903491,-0.316328796976258,1.31687545804599,-0.0567471620310541,-1.42490371194518,-1.42490371194373,-0.373736874941629,2.23163310734856,1.91536178165499,-0.140174508153615,1.04418013544661,1.57312020756967,-0.274469316753111,1.18168784256626,,,,,12.4928,103,1807.42378640777,961.959223300971,302.606796116505,1807.18932038835,1807.65825242718,987.876699029126,936.041747572816,324.873786407767,280.339805825243,0
1416.704,0.0229247020209817,-1.64162126297149,-0.748549880091399,0.131602151231835,-0.596662534923496,-0.596662534926885,0.820057315331642,-0.429608139719845,0.718987897472651,-0.253770377807621,0.422372418798248,-0.253770377807486,0.0316763676244432,-2.13750144575828,,1.1842487270269,,0.448423436940838,0.566426265309401,0.0381610309866571,0.566426265309484,,-0.469519335529593,,0.138231348476677,-1.20144616235493,,1.51355326707508,-1.51355326707299,-0.406472503343644,0.420942865826538,-1.48340923259515,-0.259925935633277,1.50946301469288,-0.280369540773606,1.35431316396941,-0.0716379200510505,-1.41882145556716,-1.41882145556571,-0.329447503326774,2.23295987153398,1.96236303895531,-0.18602690626371,1.07398124248101,1.54848419677535,-0.284053728097811,1.19059872501538,,,,,12.5952,102,1806.8862745098,963.00637254902,301.764705882353,1809.09019607843,1804.68235294118,990.125490196078,935.887254901961,324.039215686275,279.490196078431,0
