time,S1-D1,S1-D8,S1-D9,S1-D15,S2-D1,S2-D2,S2-D3,S2-D9,S3-D1,S3-D2,S3-D16,S4-D2,S4-D3,S4-D5,S5-D3,S5-D4,S5-D5,S6-D2,S6-D5,S6-D17,S7-D6,S7-D7,S8-D6,S8-D7,S8-D18,S9-D3,S9-D4,S9-D9,S9-D11,S9-D19,S10-D8,S10-D9,S10-D10,S10-D11,S11-D8,S11-D10,S11-D20,S12-D10,S12-D11,S12-D12,S13-D4,S13-D11,S13-D12,S14-D10,S14-D12,S14-D21,S15-D13,S15-D14,S16-D13,S16-D14,S16-D22,t_rel_s,eye_n,xp,yp,ps,xpl_i,xpr_i,ypl_i,ypr_i,psl_i,psr_i,blink_prop
698.0608,-0.287511704815441,0.144482839178136,-0.187002009563154,1.44078765322523,-1.80803077816161,-1.80803077816206,,-0.0517914880889374,0.0466215748852905,0.552583724091349,,0.630101282085226,0.635093330623372,,,0.903318233136077,,0.362195352710632,,-0.910173516378416,0.806350040333784,-0.263846758720525,-0.0547070283973379,-0.200277282070399,1.31215257902722,0.0445030813406182,,,1.90011226834103,-0.990293602118501,-1.03584119468979,,,,-0.910851492632838,-0.553622965203405,2.53494012736484,0.263118815716973,0.263118815717405,,,,,-1.27224669627317,-1.20486432996066,1.06644645162198,-1.51869663003477,-1.51869663003814,-0.80848072675559,0.808480726755432,1.02546555130061,0,103,956.977669902913,557.504854368932,347.616504854369,955.397087378641,958.558252427184,546.533980582524,568.47572815534,389.941747572816,305.291262135922,0
698.1632,-0.301288415662649,0.14597000357019,-0.199832985747348,1.47173815036594,-1.8186869384866,-1.81868693848705,,-0.0347892436922756,0.0781819597566176,0.508865205561938,,0.584187051954504,0.605114499985519,,,0.873878078216949,,0.31868644600728,,-0.883975485711761,0.777165943995673,-0.322312597120643,-0.0781505470464771,-0.249362689437457,1.31893570220339,0.0207969389191501,,,1.94765420012866,-1.00757057479267,-1.07264790387095,,,,-0.944861894323269,-0.638687259106404,2.52435065371109,0.304962741452897,0.30496274145325,,,,,-1.28551735993259,-1.22108546787211,1.09448397663467,-1.5245503945835,-1.52455039458686,-0.772283275946045,0.772283275945879,1.06403583708168,0.102399999999989,102,955.370098039216,556.677941176471,345.642156862745,952.092156862745,958.648039215686,547.854901960784,565.500980392157,389.617647058824,301.666666666667,0
698.2656,-0.315324593837882,0.147599134596659,-0.212824480823333,1.50169687506722,-1.82764415342234,-1.82764415342277,,-0.0171190825338655,0.110248717075953,0.465109045419529,,0.538042020564529,0.575257821537276,,,0.844624808932944,,0.275445801006628,,-0.857440706025213,0.747856012639996,-0.382125276440095,-0.101633735274787,-0.299370845517894,1.32341679248182,-0.00168339794619418,,,1.9934422671357,-1.02409535112838,-1.10801721892285,,,,-0.978143825075017,-0.721865773496537,2.51040963220666,0.346511036133607,0.34651103613386,,,,,-1.2968317219925,-1.23640530938006,1.12147924220386,-1.5291029766069,-1.52910297661023,-0.735988849166703,0.735988849166528,1.10154295700369,0.204799999999977,103,955.102427184466,556.42572815534,353.26213592233,951.800970873786,958.403883495146,551.517475728155,561.333980582524,397.514563106796,309.009708737864,0
698.368,-0.329599112053181,0.149358171072312,-0.225963781477958,1.53067251842179,-1.83494570696815,-1.83494570696858,,0.00121792239546387,0.142757057889872,0.421427171110357,,0.491778814579627,0.545614229939729,,,0.815642067197233,,0.232581272727195,,-0.830591317084601,0.718523162384802,-0.443111380821183,-0.125133349804603,-0.350175400876695,1.32560326673602,-0.0228784863178136,,,2.0374463379424,-1.03989419158868,-1.14190263029423,,,,-1.0106146149683,-0.802942605994011,2.49315684221877,0.38770749735269,0.387707497352838,,,,,-1.30614755514274,-1.25077229579944,1.14745518243125,-1.53233928185225,-1.53233928185558,-0.699583872452644,0.699583872452461,1.13798287373023,0.30720000000008,102,954.367647058824,558.082843137255,363.25,950.506862745098,958.228431372549,552.252941176471,563.912745098039,406.519607843137,319.980392156863,0
698.4704,-0.344089938668023,0.151234457077485,-0.239237686065118,1.55867592410263,-1.84063576887596,-1.84063576887636,,0.0202183606444788,0.175640738007648,0.377930996310446,,0.445510055814249,0.51627246107899,,,0.78701144013301,,0.190198442765971,,-0.803449786845854,0.689268860506504,-0.505092756657012,-0.148626504118744,-0.401646966453913,1.32550951676681,-0.0427323969335875,,,2.07963978016404,-1.054994112673,-1.17426062755356,,,,-1.04219343727894,-0.88170807387712,2.47264139325999,0.428498166836995,0.428498166837044,,,,,-1.31342691177535,-1.26413617176126,1.17243933042823,-1.53424538069186,-1.53424538069516,-0.66305445258517,0.663054452584978,1.17335504545962,0.409600000000069,103,955.183980582524,554.791747572816,382.679611650485,951.036893203884,959.331067961165,548.747572815534,560.835922330097,425.504854368932,339.854368932039,0
698.5728,-0.358774188142233,0.153214799724786,-0.252632514343618,1.58571995635378,-1.84475909842375,-1.84475909842414,,0.0398765173400509,0.208832156351856,0.334731122068201,,0.399348039369595,0.487318757810626,,,0.758812142388644,,0.148400243453442,,-0.776038891822212,0.660192739586391,-0.567887096913655,-0.172090532804243,-0.453653450351874,1.32315692979652,-0.0611930524514324,,,2.11999916544811,-1.0694226554492,-1.20505066100734,,,,-1.07280156059128,-0.957959434291339,2.44892152392416,0.468831424714384,0.468831424714342,,,,,-1.31863628260833,-1.27644807957554,1.19646349169302,-1.53480849203508,-1.53480849203837,-0.626386554623514,0.626386554623311,1.20766227867168,0.512000000000057,102,956.086764705882,558.962254901961,408.808823529412,950.919607843137,961.253921568627,551.491176470588,566.433333333333,454.460784313726,363.156862745098,0
698.6752,-0.373628181549085,0.155285532767383,-0.266134123198678,1.61181937714799,-1.8473608089356,-1.84736080893597,,0.0601843987519272,0.242262474669597,0.291937038092573,,0.353404410726345,0.458836600139633,,,0.731120725274273,,0.107286604036496,,-0.748381698094529,0.631392243283043,-0.631308538974774,-0.195502840108286,-0.506060397158559,1.3185738713359,-0.0782125543565207,,,2.15850398626748,-1.08320768270972,-1.23423509860258,,,,-1.10236260108807,-1.03150158453731,2.42206436827217,0.508658026559065,0.508658026558931,,,,,-1.32174676728726,-1.28766066253146,1.21956340110682,-1.53401699962737,-1.53401699963064,-0.589566176933742,0.589566176933529,1.24091054496587,0.614400000000046,102,955.789705882353,561.710784313726,437.848039215686,949.782352941176,961.797058823529,554.307843137255,569.113725490196,488.941176470588,386.754901960784,0
698.7776,-0.388627522495128,0.157432588290786,-0.279727932141296,1.63699073208378,-1.84848618293349,-1.84848618293385,,0.0811317567467827,0.275861771630114,0.249656805937819,,0.307789823786389,0.430906441982205,,,0.70401080117794,,0.0669541099113306,,-0.720501537344211,0.602962292235215,-0.695168281845323,-0.2188407321963,-0.558731333522562,1.31179562199655,-0.0937474858259724,,,2.19513638074438,-1.09637720109059,-1.26177917792633,,,,-1.13080276400195,-1.10214774230574,2.39214568086263,0.547931077996208,0.547931077995992,,,,,-1.32273425551125,-1.29772819104235,1.24177836321954,-1.53186050842107,-1.53186050842433,-0.552579532295225,0.552579532295002,1.27310875890904,0.716800000000035,103,953.967961165049,556.460194174757,469.218446601942,946.381553398058,961.554368932039,549.405825242719,563.514563106796,525.194174757282,413.242718446602,0
698.88,-0.403747188636826,0.159641578300651,-0.293398957486618,1.66125224134922,-1.8481805253028,-1.84818052530313,,0.102706124947989,0.309559241890462,0.207996718856087,,0.262613576097347,0.403605447784613,,,0.677552780998531,,0.02749567593631,,-0.692421971444354,0.574994968947267,-0.759275221770924,-0.242081237603826,-0.611528121211871,1.30286426187302,-0.107759182512285,,,2.2298808671797,-1.10895919764106,-1.28765095320744,,,,-1.15805106279837,-1.16972009775928,2.35924951393924,0.586605939653837,0.586605939653539,,,,,-1.32157961957297,-1.30660672115189,1.26315087681711,-1.52832994360873,-1.52832994361197,-0.515413243917643,0.515413243917409,1.30426850840989,0.819200000000024,102,953.757843137255,554.544117647059,487.823529411765,947.392156862745,960.123529411765,547.500980392157,561.587254901961,547.068627450981,428.578431372549,0
698.9824,-0.418961634882499,0.161897885909819,-0.30713185147899,1.68462368668238,-1.84648903709294,-1.84648903709326,,0.124892875658864,0.343283441214086,0.167060937683372,,0.217983223529769,0.377007226588249,,,0.651813623802978,,-0.0109997635635547,,-0.664166743852303,0.547579220074501,-0.823436603005018,-0.26520092673866,-0.664311319970524,1.29182849862244,-0.120213959367102,,,2.26272409078446,-1.12098148058866,-1.31182123675476,,,,-1.18403950433801,-1.23405043039244,2.32346784530084,0.624640056983331,0.624640056982933,,,,,-1.31826892181466,-1.31425429169457,1.28372624951434,-1.52341768990872,-1.52341768991195,-0.478054561550783,0.478054561550539,1.33440372628416,0.921600000000012,103,954.485436893204,553.965533980583,503.038834951456,950.854368932039,958.116504854369,545.04854368932,562.882524271845,565.155339805825,440.922330097087,0
699.0848,-0.434244901930522,0.164186764354843,-0.320910941222569,1.70712628538603,-1.84345668949659,-1.8434566894969,,0.147675299244129,0.376962566304094,0.126951103008998,,0.174004177400904,0.351181560352454,,,0.626856594428674,,-0.0484475494971868,,-0.63575972433885,0.520800568291345,-0.887458678924608,-0.288175740344727,-0.716940561063766,1.278743443121,-0.13108327944215,,,2.29365457514273,-1.13247151768499,-1.33426352784388,,,,-1.20870322723769,-1.29498068826319,2.28490015905715,0.66199271482986,0.661992714829367,,,,,-1.31279363788556,-1.32063116393183,1.30355221055906,-1.51711776746112,-1.51711776746433,-0.44049160307912,0.440491603078864,1.36353030051996,1.024,102,956.086764705882,554.679901960784,519.887254901961,954.98137254902,957.192156862745,543.277450980392,566.082352941177,584.705882352941,455.06862745098,0
699.1872,-0.449570722775847,0.166493441769095,-0.334720261464961,1.72878254961754,-1.8391280843104,-1.83912808431071,,0.171034705036427,0.410524751918234,0.0877659300115416,,0.130779290997924,0.326194126750113,,,0.602741027745605,,-0.0847675787026019,,-0.607224859223591,0.494740828881145,-0.951147375134614,-0.310980830249208,-0.769274927267264,1.26367034694442,-0.14034386422863,,,2.32266246831684,-1.14345626909203,-1.35495392242028,,,,-1.2319805868611,-1.35236352864383,2.24365298490475,0.69862472827845,0.698624728277855,,,,,-1.30515089004548,-1.32570009977429,1.32267852599482,-1.50942604091493,-1.50942604091814,-0.402713621768344,0.402713621768077,1.39166563586945,1.12639999999999,102,955.485784313725,557.922549019608,538.225490196079,955.18431372549,955.787254901961,544.771568627451,571.073529411765,608.705882352941,467.745098039216,0
699.2896,-0.464912622283417,0.168803229269229,-0.34854357803174,1.74961613724786,-1.83354730211928,-1.83354730211958,,0.194950541547306,0.443898373231652,0.0496007994665308,,0.0884084467812475,0.302106223955873,,,0.579522105462959,,-0.119884568060702,,-0.578586135017881,0.469477836049835,-1.01430894610138,-0.33359041362808,-0.821173334121592,1.246676318345,-0.147977762413568,,,2.34973928424727,-1.15396201561589,-1.37387100792146,,,,-1.25381319510768,-1.40606281807907,2.19983940501987,0.734498096517765,0.734498096517074,,,,,-1.29534367967056,-1.32942666516542,1.3411566157544,-1.50034045522304,-1.50034045522625,-0.364711287114147,0.364711287113869,1.41882819069005,1.22879999999998,103,953.447572815534,560.027184466019,559.441747572816,955.007766990291,951.887378640777,546.692233009709,573.36213592233,637.446601941748,481.436893203884,0
699.392,-0.480244010531891,0.171101629170342,-0.362364404888517,1.76965170285,-1.82675775116175,-1.82675775116206,,0.219400530187813,0.477012350674218,0.0125473583007861,,0.0469881541681457,0.278974508929202,,,0.557250652889443,,-0.153728298066659,,-0.549867552181043,0.445085187399428,-1.0767506224785,-0.355977646313962,-0.872494912839355,1.22783402430295,-0.153972392743486,,,2.37487764950399,-1.16401418578858,-1.39099575342927,,,,-1.27414593219629,-1.45595408750125,2.15357853839995,0.769575653093914,0.769575653093123,,,,,-1.28338110644378,-1.33177954279265,1.3590391719357,-1.48986128637339,-1.48986128637659,-0.326476962924948,0.326476962924658,1.4450370139247,1.33120000000008,102,950.600490196078,561.304901960784,582.578431372549,951.93137254902,949.269607843137,546.803921568627,575.805882352941,666.745098039216,498.411764705882,0
699.4944,-0.495538274157321,0.173374440165511,-0.376166021347852,1.78891475319673,-1.81880203039689,-1.81880203039719,,0.244360805588404,0.509796457427209,-0.023306862112546,,0.00661116389528807,0.25685075927526,,,0.535972959385711,,-0.186233832995371,,-0.521093098428561,0.421632011169471,-1.13828125109272,-0.378114521655676,-0.923099398894915,1.20722137562319,-0.158320562350797,,,2.39807106722808,-1.17363718536548,-1.40631140114987,,,,-1.29292694448644,-1.50192493607177,2.10499501038305,0.803820738322526,0.80382073832163,,,,,-1.26927856174958,-1.33273083960319,1.37637977911857,-1.47799139029734,-1.47799139030053,-0.288004972034045,0.288004972033745,1.47031129913337,1.43360000000007,103,951.637378640777,565.060679611651,594.257281553398,951.293203883495,951.981553398058,547.923300970874,582.198058252427,679.009708737864,509.504854368932,0
699.5968,-0.510768867884175,0.175607857557199,-0.389931492988082,1.80743150681052,-1.80972181399382,-1.80972181399412,,0.269806056177818,0.542181624081708,-0.057878803397059,,-0.0326338944761816,0.23578166659968,,,0.515730623902482,,-0.217341714145112,,-0.492286712111053,0.399182758868334,-1.19871192784752,-0.399971795359083,-0.972847526648433,1.18492119080223,-0.161020456609788,,,2.41931370694978,-1.1828542320699,-1.41980336002728,,,,-1.31010763713335,-1.54387537832979,2.0542184132325,0.837196906744869,0.83719690674388,,,,,-1.25305788678645,-1.33225637389297,1.39323253894958,-1.46473643194018,-1.46473643194335,-0.249291843984559,0.249291843984248,1.49466996233164,1.53600000000006,102,957.134803921569,566.695098039216,527.926470588235,955.464705882353,958.804901960784,554.21568627451,579.174509803922,605.019607843137,450.833333333333,0
699.6992,-0.525909403723914,0.177788567731077,-0.403643694319881,1.82522875587969,-1.79955775982669,-1.79955775982699,,0.295709653963148,0.574100224761518,-0.0910902037232909,,-0.0706628414970939,0.215808669247597,,,0.496560426952906,,-0.246998120915369,,-0.463472232186189,0.377797027660221,-1.25785661896533,-0.421518933067965,-1.02160142557596,1.16102084129594,-0.162075604343898,,,2.43860022192506,-1.19168719840745,-1.43145910136181,,,,-1.32564266941749,-1.58171813234151,2.00138276357781,0.86966767737922,0.869667677378145,,,,,-1.23474749344031,-1.33033592866782,1.40965170160077,-1.45010508314745,-1.45010508315061,-0.21033654776987,0.210336547769549,1.51813124058548,1.63840000000005,102,964.324409499518,558.69836603893,403.408808324723,960.517798950566,968.131020048469,553.58956089478,563.80717118308,466.836233084783,339.981383564662,0
699.8016,-0.540933732770003,0.179903835679005,-0.417285328937405,1.84233372952587,-1.78834944306768,-1.78834944306798,,0.322043756499851,0.605486321586503,-0.122867877221389,,-0.10739623304013,0.196967831446719,,,0.478494230138541,,-0.275154995810988,,-0.434673339254894,0.357529416644973,-1.3155327646109,-0.44272408053432,-1.06922501403431,1.13561188662773,-0.161494828447591,,,2.45592559100332,-1.20015646622156,-1.44126805861302,,,,-1.33948995831487,-1.61537884899285,1.94662596315309,0.901196338464972,0.901196338463827,,,,,-1.21438245305092,-1.32695346489891,1.42569130630643,-1.43410918768737,-1.43410918769052,-0.171140715297256,0.171140715296923,1.54071230143983,1.74080000000004,103,939.101804082925,533.551120957957,323.507543387667,934.484507042253,943.719101123596,531.231455399061,535.870786516854,376.037558685446,270.977528089888,0.223300970873786
699.904,-0.555816015454455,0.18194158312018,-0.430838944730231,1.85877395761311,-1.77613531303642,-1.77613531303671,,0.348779369763749,0.636275846929731,-0.153143946495713,,-0.142759600446852,0.179289769811029,,,0.461558901418008,,-0.301770136196438,,-0.405913500394394,0.33842941451743,-1.37156186226931,-0.463554058032018,-1.11558438948066,1.10878970839851,-0.159292189545379,,,2.47128498445032,-1.20828079811611,-1.44922153528304,,,,-1.35161068967292,-1.64479628565297,1.89008927078541,0.931745821891924,0.93174582189071,,,,,-1.19200456115074,-1.32209729755712,1.4414048337752,-1.41676389751676,-1.41676389751991,-0.131708860121391,0.131708860121045,1.56242885751046,1.84320000000002,102,896.955301006302,497.485349997466,264.389038091367,887.890002761668,906.020599250936,491.884557672834,503.086142322097,311.929761575992,216.848314606742,0.42156862745098
700.0064,-0.570530779103297,0.183890454554137,-0.444286944882334,1.87457713431623,-1.76295266587137,-1.76295266587166,,0.375886378882209,0.666406718787943,-0.181856037767201,,-0.176683657494186,0.162799617869282,,,0.445776259540298,,-0.326807264191191,,-0.377215933530377,0.320541307418415,-1.42577003267302,-0.483974378126495,-1.16054821665866,1.08065315016257,-0.155486924784212,,,2.48467365573476,-1.21607723066423,-1.45531262391679,,,,-1.36196933205466,-1.66992243266166,1.83191679517261,0.961278660907411,0.96127866090613,,,,,-1.16766238768038,-1.31576024753047,1.45684487400125,-1.39808778900318,-1.39808778900631,-0.0920485911901548,0.0920485911897962,1.58329479468732,1.94560000000001,103,873.916832115196,475.52374277299,213.26546307407,873.196116504854,874.637547725537,477.33786407767,473.70962146831,257.543689320388,168.987236827752,0
700.1088,-0.585052965279225,0.185739870244115,-0.45761159787985,1.88977098184331,-1.74883762249066,-1.74883762249094,,0.403333568835616,0.695818906599632,-0.208947454832119,,-0.209104491781791,0.147517012849765,,,0.431163031723164,,-0.350236086706351,,-0.348603598773422,0.303904096900317,-1.47798857479047,-0.503949284371938,-1.20398811712345,1.05130416621753,-0.150103378848277,,,2.49608686006489,-1.22356099086346,-1.45953613882286,,,,-1.37053364799848,-1.69072260194198,1.77225501460972,0.989757040143709,0.989757040142354,,,,,-1.14141131923854,-1.30793978605858,1.47206281266909,-1.37810297068873,-1.37810297069185,-0.0521708154020215,0.0521708154016498,1.60332183078864,2.048,102,870.845098039216,472.960294117647,193.46568627451,878.288235294118,863.401960784314,479.956862745098,465.963725490196,239.235294117647,147.696078431373,0
700.2112,-0.599357973058528,0.187480067232896,-0.470795051940464,1.90438311756318,-1.73382510458441,-1.7338251045847,,0.431088655814792,0.724454475026192,-0.234367344246088,,-0.239963751704162,0.13345609246364,,,0.417730825437816,,-0.372032348429547,,-0.320099209498233,0.288551428720485,-1.52805451552613,-0.523441810680297,-1.24577906380103,1.02084747611507,-0.14317091793364,,,2.50551979843431,-1.23074543269782,-1.46188856474987,,,,-1.37727469886532,-1.70717547896124,1.71125232066962,1.01714294008282,1.01714294008139,,,,,-1.11331358860663,-1.29863817926289,1.4871085390481,-1.35683518965076,-1.35683518965386,-0.0120899187348349,0.0120899187344489,1.62251921525498,2.15039999999999,102,876.220588235294,473.653921568628,185.578431372549,883.93431372549,868.506862745098,479.432352941177,467.875490196079,229.735294117647,141.421568627451,0
700.3136,-0.613421706918492,0.189102130594783,-0.483819361042921,1.91844092988545,-1.7179488099821,-1.71794880998239,,0.45911833576822,0.752257623219969,-0.25807085711048,,-0.269208831371847,0.120625498269177,,,0.405486117947622,,-0.392177872781316,,-0.291725247437782,0.274511538821221,-1.57581115580681,-0.542413864737398,-1.28579978311205,0.989390215781616,-0.134723812162795,,,2.51296758414754,-1.23764198712378,-1.46236801945433,,,,-1.38216684419779,-1.71927313103865,1.64905857638683,1.04339836914095,1.04339836913945,,,,,-1.0834382756323,-1.28786262867373,1.50203017565503,-1.33431393392788,-1.33431393393096,0.0281760826964896,-0.028176082696888,1.64089346818563,2.25279999999998,103,884.005339805825,469.645631067961,181.970873786408,891.570873786408,876.439805825243,473.629126213592,465.66213592233,223.766990291262,140.174757281553,0
700.416,-0.627220637301703,0.190598017394646,-0.496666528929979,1.93197146694144,-1.70124119820607,-1.70124119820635,,0.48738834482306,0.779174720609368,-0.280019307538299,,-0.296793051516688,0.109028389069373,,,0.394430264313394,,-0.41066058513185,,-0.263503967165588,0.261807219829998,-1.62110860955309,-0.560826338255649,-1.3239331634636,0.957041574727985,-0.124801076896024,,,2.51842523124202,-1.24426011805683,-1.46097422423204,,,,-1.38518774388812,-1.72702096601697,1.58582468106884,1.06848566932186,1.06848566932029,,,,,-1.05186126225242,-1.27562539927419,1.51687382454703,-1.31057251989593,-1.31057251989901,0.068605424899499,-0.0686054248999083,1.65844815171306,2.35520000000008,102,883.740196078431,464.947549019608,176.563725490196,893.574509803922,873.905882352941,470.821568627451,459.073529411765,217.303921568627,135.823529411765,0
700.5184,-0.640731877216244,0.191960575331117,-0.509318573063766,1.94500133882485,-1.683733498444,-1.68373349844429,,0.515863524744297,0.80515433274717,-0.300180321849675,,-0.322675831249256,0.0986624715393076,,,0.384559523193884,,-0.42747451431457,,-0.235457381383266,0.250455809146766,-1.66380432617539,-0.578639240983039,-1.36006666253024,0.923912413576942,-0.113446278515178,,,2.52188767097601,-1.25060728084866,-1.45770847872818,,,,-1.38631837399497,-1.73043764221815,1.52170213919072,1.09236787903312,1.09236787903149,,,,,-1.01866513284795,-1.26194392782732,1.5316833242641,-1.28564815146551,-1.28564815146857,0.109172511366072,-0.109172511366492,1.67518367123289,2.45760000000007,103,866.660194174757,454.068932038835,170.592233009709,877.385436893204,855.934951456311,461.106796116505,447.031067961165,210.679611650485,130.504854368932,0
700.6208,-0.653933271310645,0.193183556759097,-0.521757604448184,1.95755663062256,-1.66545574170651,-1.6654557417068,,0.544507890011354,0.830147232369311,-0.318527967435225,,-0.346822842041943,0.0895200565040229,,,0.375865100521069,,-0.44261977008929,,-0.207607226637983,0.240469200062995,-1.70376358508186,-0.595811852758035,-1.39409270320378,0.890114864152404,-0.100707319341212,,,2.52334980084175,-1.25668888623685,-1.45257363807254,,,,-1.38554306113734,-1.7295549346867,1.45684263440845,1.11500913726334,1.11500913726164,,,,,-0.983939024076159,-1.24684090760477,1.54650001792704,-1.25958194606509,-1.25958194606815,0.149847860691166,-0.149847860691596,1.69109711055872,2.56000000000006,102,866.530882352941,451.887254901961,167.480392156863,874.471568627451,858.590196078431,456.074509803922,447.7,206.686274509804,128.274509803922,0
700.7232,-0.666803488397537,0.194261627719605,-0.533965914483048,1.96966282008443,-1.64643680838856,-1.64643680838886,,0.573284694702077,0.85410639367096,-0.335042850056816,,-0.369206133279239,0.081588147657382,,,0.368333211667765,,-0.456102495022628,,-0.17997491614775,0.231853877265389,-1.74085995529659,-0.61230289230376,-1.42590905302483,0.855761920138559,-0.0866362105463277,,,2.52280655935961,-1.26250827765101,-1.44557408741963,,,,-1.38284953175582,-1.72441756063317,1.39139760975826,1.1363751133264,1.13637511332465,,,,,-0.947778436305522,-1.23034434679798,1.56136253995283,-1.23241893229131,-1.23241893229435,0.19059808637069,-0.190598086371128,1.70618210719718,2.66240000000005,102,857.498529411765,445.069607843137,163.848039215686,863.547058823529,851.45,447.930392156863,442.208823529412,203.039215686275,124.656862745098,0
700.8256,-0.679322107029555,0.195190371230823,-0.545926058899401,1.98134469274337,-1.6267044831888,-1.62670448318909,,0.602156497416658,0.876986967940109,-0.349712171891182,,-0.389804219140672,0.0748485663890764,,,0.361945163596984,,-0.467934788887159,,-0.152581488902638,0.224610977360935,-1.77497571894495,-0.628070705324848,-1.45541918732507,0.820967027304299,-0.0712888331244654,,,2.52025301719246,-1.26806673140914,-1.43671571041756,,,,-1.37822896868086,-1.71508296270017,1.3255178539356,1.15643344644296,1.15643344644115,,,,,-0.910285014524228,-1.21248759400364,1.57630663065995,-1.20420802470613,-1.20420802470916,0.231385910650554,-0.231385910651,1.72042877278764,2.76480000000004,103,850.667475728155,436.841747572816,162.033980582524,857.58932038835,843.745631067961,440.671844660194,433.011650485437,200.184466019417,123.883495145631,0
700.928,-0.691469686576976,0.195966283888404,-0.557620931841265,1.99262624953071,-1.60628551621732,-1.60628551621761,,0.631085221684605,0.898746237525113,-0.362529748125486,,-0.408602121924949,0.0692781128615615,,,0.356677457360562,,-0.478134605672689,,-0.125447563580548,0.218736371702969,-1.80600225898397,-0.643073473036818,-1.48253263680438,0.785843680236737,-0.0547246867319957,,,2.51568448455267,-1.27336348807046,-1.42600585700937,,,,-1.3716760694849,-1.70162104880578,1.25935309508753,1.17515418213649,1.17515418213462,,,,,-0.8715662972971,-1.19330932288811,1.59136498390211,-1.17500197660897,-1.175001976612,0.27217021494161,-0.27217021494207,1.7338236608271,2.86720000000003,102,843.557929225987,431.875601687595,159.937765628778,853.159090163262,833.956768288711,437.192575272787,426.558628102404,197.403314463861,122.472216793694,0
701.0304,-0.703227821920216,0.196586765266414,-0.569033828553593,2.00353060611463,-1.58520569231532,-1.58520569231561,,0.660032209833171,0.919343548296005,-0.373495988453788,,-0.425591378116531,0.0648487572860732,,,0.352501906036078,,-0.486725629459,,-0.0985933032167447,0.214220762336132,-1.83384041186622,-0.657269439788984,-1.50716531944932,0.750505029900853,-0.0370066300452555,,,2.50909664154988,-1.27839581977194,-1.4134533232763,,,,-1.36318910417622,-1.68411389317961,1.19305160613897,1.19251019661935,1.19251019661743,,,,,-0.831735430956842,-1.17285347739232,1.60656712536266,-1.14485731200671,-1.14485731200971,0.312906127658338,-0.312906127658811,1.74634978030778,2.96960000000001,103,818.435520371426,417.073403856045,156.748133835611,827.948117154812,808.92292358804,419.206276150628,414.940531561462,193.167364016736,120.328903654485,0.825242718446602
701.1328,-0.71457918595149,0.197050101649055,-0.580148499815726,2.01407988895121,-1.56348990838859,-1.56348990838887,,0.688958276303531,0.938740232153709,-0.382617858191521,,-0.440770022806981,0.061527847099678,,,0.349385759450549,,-0.493737139189725,,-0.0720383903833425,0.211049779856428,-1.85840078624146,-0.670617159220806,-1.52923985730322,0.71506350431193,-0.0182006150494547,,,2.50048569593685,-1.28315913292446,-1.39906835549181,,,,-1.35276996867034,-1.66265540806976,1.12675982351349,1.20847760189459,1.20847760189262,,,,,-0.790910851347391,-1.15116918986506,1.62193931444798,-1.11383424128531,-1.1138342412883,0.35354515032616,-0.353545150326645,1.75798665297304,3.072,102,791.831384562193,400.290459489235,153.469442588751,800.041340552958,783.621428571429,397.695204692756,402.885714285714,188.653170891788,118.285714285714,0.147058823529412
701.2352,-0.725507567435017,0.197355447911574,-0.590949203013032,2.02429513716861,-1.54116225638551,-1.5411622563858,,0.717823776687697,0.956899540974984,-0.389908834016955,,-0.454142566110968,0.0592783136535299,,,0.34729183057576,,-0.499203867853337,,-0.045802004712709,0.209204078786848,-1.87960404695153,-0.683075760008348,-1.54868587802613,0.67963044174027,0.00162458921015963,,,2.4898485678449,-1.28764709942852,-1.38286268306153,,,,-1.34042422479119,-1.63735099188869,1.06062197452829,1.2230361219506,1.22303612194858,,,,,-0.749215935023927,-1.12831068292758,1.63750446351007,-1.08199656244388,-1.08199656244686,0.394035325421118,-0.394035325421614,1.76871041152677,3.17439999999999,102,777.333641130871,391.632364341085,153.704970360237,787.877450980392,766.78983128135,389.138235294118,394.126493388053,190.28431372549,117.125626994984,0
701.3376,-0.735997911411689,0.197502811438071,-0.601420754323666,2.03419621725011,-1.51824611251818,-1.51824611251848,,0.746588708649988,0.973786609228246,-0.395388861591019,,-0.465719965827931,0.0580588690530402,,,0.346178623909395,,-0.503165854433232,,-0.0199027905874563,0.20865943261571,-1.89738115996558,-0.694605229931357,-1.56544029778804,0.644315730256083,0.0223976937221413,,,2.47718310024753,-1.29185180613622,-1.36484957845678,,,,-1.32616111421751,-1.60831714919985,0.994779704019311,1.23616942696062,1.23616942695854,,,,,-0.706778613968547,-1.10433715439814,1.65328206949166,-1.04941154232513,-1.0494115423281,0.434321451163239,-0.434321451163747,1.77849393348133,3.27679999999998,103,640.399514563107,413.88786407767,160.990291262136,646.315533980583,634.483495145631,412.454368932039,415.321359223301,197.203883495146,124.776699029126,0
701.44,-0.746036367003961,0.197493040070847,-0.611548585495879,2.04380175196213,-1.4947642370583,-1.49476423705858,,0.775212853709265,0.989368449309467,-0.399084315500969,,-0.475519594840665,0.0578241910740891,,,0.346000466021609,,-0.505668285765422,,0.00564119368302231,0.209386828892104,-1.91167359056239,-0.705166711538933,-1.57944757752441,0.609227442735321,0.0440452179634576,,,2.46248829768114,-1.29576391286826,-1.34504394406374,,,,-1.30999353846786,-1.5756810710465,0.929371691024794,1.24786541049591,1.24786541049377,,,,,-0.663730941190272,-1.07931263703415,1.6692881530296,-1.01614976796495,-1.01614976796791,0.474345348198993,-0.474345348199513,1.78730700419595,3.37920000000008,102,77.0887254901961,547.184803921569,174.323529411765,88.9539215686275,65.2235294117647,539.678431372549,554.691176470588,211.941176470588,136.705882352941,0
701.5424,-0.755610343914264,0.197327814359053,-0.621318806329186,2.05312906247382,-1.47073888580613,-1.47073888580642,,0.803655962353677,1.00361397275852,-0.401027960383576,,-0.483565201350276,0.0585250956042938,,,0.34670763541406,,-0.506761328832656,,0.0308125443450855,0.211352559753703,-1.92243344617948,-0.714722798715619,-1.59065994233357,0.57447145997692,0.0664918558439524,,,2.44576459778365,-1.29937281136488,-1.32346242959759,,,,-1.2919380052118,-1.53958016753216,0.864533251475624,1.25811639731729,1.25811639731509,,,,,-0.620208594141219,-1.05330582568244,1.68553520375384,-0.982284960378091,-0.982284960381042,0.514046181108475,-0.514046181109005,1.795116505945,3.48160000000007,103,91.8087378640777,550.434466019418,183.456310679612,100.733980582524,82.8834951456311,541.28932038835,559.579611650485,221.796116504854,145.116504854369,0
701.6448,-0.764708573823538,0.197009643020681,-0.630718269808008,2.06219412280049,-1.44619192675607,-1.44619192675634,,0.831877973055041,1.01649402623557,-0.401258911561553,,-0.489886859776686,0.06010869611614,,,0.34824648901156,,-0.506499956106697,,0.0555945878011467,0.214518302716066,-1.92962356099799,-0.723237822898604,-1.5990375573675,0.540151086580183,0.0896608772197283,,,2.42701417605327,-1.30266677975876,-1.30012357947911,,,,-1.27201454611542,-1.50016155554812,0.800395932935585,1.26691927932417,1.2669192793219,,,,,-0.576350310828171,-1.02638986833022,1.70203213772614,-0.947893750291921,-0.947893750294858,0.553360832642262,-0.553360832642802,1.80188663545066,3.58400000000006,102,102.70637254902,553.836764705882,194.411764705882,112.899019607843,92.5137254901961,540.386274509804,567.287254901961,233.205882352941,155.617647058824,0
701.7472,-0.773321167762507,0.196541858500715,-0.639734633106529,2.07101152538016,-1.42114495125211,-1.42114495125239,,0.859839238896221,1.02798143549879,-0.399822587639384,,-0.494520905714368,0.0625185556072429,,,0.350559588155183,,-0.504943763742809,,0.0799714485366003,0.218841194216913,-1.93321753017044,-0.730678119612948,-1.60454866165708,0.506366676326279,0.113474551490168,,,2.40624127444782,-1.30563312941978,-1.27504800012428,,,,-1.25024661433321,-1.45758151291248,0.737087118859848,1.27427559071708,1.27427559071475,,,,,-0.532297269325574,-0.998642118633574,1.7187842756565,-0.913055421680371,-0.913055421683298,0.592224319952087,-0.592224319952633,1.80757915568869,3.68640000000005,102,85.9823529411765,539.111764705882,208.970588235294,93.8539215686275,78.1107843137255,526.547058823529,551.676470588235,248.794117647059,169.147058823529,0
701.8496,-0.781439657737855,0.195928607822698,-0.648356406070222,2.07959445655286,-1.39561937074445,-1.39561937074473,,0.887500733084239,1.03805106138451,-0.396770635410336,,-0.497509839089324,0.0656948491837808,,,0.353585836658962,,-0.502156774430053,,0.103928095172379,0.224273912910737,-1.93319970599261,-0.737012268621965,-1.60716966536263,0.473215288647812,0.13785457019462,,,2.38345253257464,-1.30825834234343,-1.24825852968713,,,,-1.22666097431661,-1.41200490778577,0.674729664541854,1.28019153938222,1.28019153937984,,,,,-0.48819243271173,-0.970143843681081,1.73579334723785,-0.877851626831198,-0.877851626834111,0.630570235212028,-0.630570235212584,1.81215368795332,3.78880000000004,103,102.263106796117,554.280582524272,223.038834951456,110.593203883495,93.9330097087379,538.425242718447,570.135922330097,264.699029126214,181.378640776699,0
701.952,-0.789057012595489,0.19517483478579,-0.656572979884864,2.08795468181462,-1.36963649745323,-1.36963649745351,,0.914824224819995,1.04667987888544,-0.392160800683502,,-0.498902174522083,0.0695745634044848,,,0.357260649896708,,-0.498207210683385,,0.127450353257075,0.230764798903482,-1.92956516010927,-0.742211304066236,-1.60688521169417,0.440790393285915,0.162722445036544,,,2.35865729753982,-1.31052819923533,-1.2197803923,,,,-1.20128759846394,-1.36360460334559,0.613441580556052,1.28467800592005,1.28467800591761,,,,,-0.444179876132774,-0.940979877420153,1.75305752309898,-0.84236606921539,-0.842366069218279,0.66833119698176,-0.668331196982325,1.81556805106954,3.89120000000003,102,115.019607843137,560.628431372549,226.916666666667,123.81862745098,106.220588235294,546.187254901961,575.069607843137,269.627450980392,184.205882352941,0
702.0544,-0.796167624721794,0.194286252641706,-0.664374633122326,2.09610254113208,-1.34321761500768,-1.34321761500796,,0.941772436516721,1.05384708624631,-0.386056729391406,,-0.498752227749216,0.0740917492190912,,,0.361516168327772,,-0.493167229253464,,0.150524880462593,0.238258027125237,-1.92231960692271,-0.746248895199411,-1.60368820050359,0.40918162898322,0.187999865372394,,,2.33186790132713,-1.31242790327914,-1.1896413284417,,,,-1.17415957780964,-1.31256083413988,0.55333576655837,1.28775051313695,1.28775051313448,,,,,-0.400404099710288,-0.911238215165177,1.77057147276384,-0.806684150735281,-0.806684150738153,0.705439311660727,-0.705439311661299,1.81777865244703,3.99360000000002,103,124.46213592233,564.259708737864,227.78640776699,134.338834951456,114.585436893204,550.867961165049,577.65145631068,271.398058252427,184.174757281553,0
702.1568,-0.8027672718782,0.193269309228702,-0.671752518086029,2.10404695411039,-1.31638404681319,-1.31638404681347,,0.968309191157887,1.05953424185399,-0.378527703395768,,-0.497119844432532,0.0791778261251787,,,0.366281515769353,,-0.487112618537719,,0.173139111170337,0.246693835961241,-1.91147928471564,-0.749101501865614,-1.59757977292413,0.378474611050175,0.21360900907198,,,2.30309990891353,-1.31394220732134,-1.15787170575551,,,,-1.14531304303184,-1.25906055499255,0.494519788229233,1.28942916267252,1.28942916266999,,,,,-0.357009324938268,-0.881009554091317,1.78832644387779,-0.77089258817835,-0.770892588181196,0.741826653231806,-0.741826653232387,1.81874092425986,4.096,102,134.166666666667,567.220588235294,233.720588235294,143.123529411765,125.209803921569,551.786274509804,582.654901960784,277.892156862745,189.549019607843,0
702.2592,-0.808853062114944,0.192131147841864,-0.678698633132367,2.11179543471275,-1.28915722590899,-1.28915722590926,,0.994399549044883,1.06372542406842,-0.369648325801833,,-0.494070085179806,0.0847619245594402,,,0.37148309477141,,-0.480122466156875,,0.195281186064618,0.256008802500137,-1.89707079614632,-0.750748508906011,-1.58856925991379,0.348750777943753,0.239472809736109,,,2.27237234225425,-1.31505554635145,-1.12450461720396,,,,-1.11478708991109,-1.20329676795348,0.43709568863334,1.28973852921645,1.28973852921387,,,,,-0.31413877228515,-0.850386787564627,1.80631035635356,-0.735079006644176,-0.735079006646997,0.777425769171747,-0.77742576917234,1.81840978878952,4.19839999999999,102,143.010294117647,567.966666666667,242.137254901961,152.287254901961,133.733333333333,552.614705882353,583.318627450981,287.480392156863,196.794117647059,0
702.3616,-0.814423367871587,0.190879566999067,-0.685205784876387,2.11935411434363,-1.261558763704,-1.26155876370428,,1.02000993585941,1.06640741194184,-0.359498168001234,,-0.489672876309316,0.0907712546031261,,,0.377044911416378,,-0.472278801885498,,0.216939881990271,0.266136154207824,-1.8791309102099,-0.751172341435266,-1.57667409691794,0.320087268840049,0.265515189589038,,,2.23970787972098,-1.3157521670827,-1.08957596610419,,,,-1.08262370898898,-1.14546783221411,0.38115982928951,1.28870750011144,1.2887075001088,,,,,-0.271933918958356,-0.819464457642852,1.82450790571958,-0.699331513797588,-0.699331513800379,0.812170217157893,-0.812170217158497,1.81674014279609,4.30079999999998,103,153.309223300971,569.265533980583,244.281553398058,164.361165048544,142.257281553398,555.550485436893,582.980582524272,291.572815533981,196.990291262136,0
702.464,-0.819477750514601,0.189522980596681,-0.691267540478511,2.12672777019468,-1.23361050754554,-1.2336105075458,,1.04510826882606,1.06756988602719,-0.348161384297894,,-0.484002629130017,0.0971314925815327,,,0.382888925040153,,-0.463666217629459,,0.238104548601534,0.277006107964733,-1.85770632418795,-0.750358562454302,-1.56191970426658,0.292556829001309,0.291661269823999,,,2.20513302966728,-1.31601624298364,-1.05312453417507,,,,-1.04886771873724,-1.08577675559338,0.326802759853332,1.28636905442429,1.2863690544216,,,,,-0.23053374010804,-0.788338167873833,1.84290067272208,-0.663738256002597,-0.663738256005361,0.845995133554665,-0.845995133555277,1.81368736140781,4.40320000000008,102,165.208333333333,565.644607843137,240.975490196078,174.826470588235,155.590196078431,555.38137254902,575.907843137255,283.852941176471,198.098039215686,0
702.5664,-0.824016873030576,0.188070377082329,-0.696878168689507,2.13391985703906,-1.20533457500823,-1.2053345750085,,1.06966408156067,1.06720564957766,-0.335726294227419,,-0.47713782469597,0.103767180932231,,,0.388935422798009,,-0.45437146271032,,0.258765047989671,0.288546232670478,-1.8328533791406,-0.748295955492251,-1.54433933008825,0.266227743687079,0.317837568607264,,,2.16867828573808,-1.3158319684217,-1.01519203611743,,,,-1.01356669254429,-1.02443045717597,0.274109117231091,1.28275998562822,1.2827599856255,,,,,-0.190073946436256,-0.757103959989969,1.86146724058513,-0.628386957370093,-0.628386957372836,0.878837827221564,-0.878837827222184,1.80920782249632,4.50560000000007,103,200.407281553398,537.783495145631,235.699029126214,207.953398058252,192.861165048544,528.240776699029,547.326213592233,267.796116504854,203.601941747573,0
702.6688,-0.828042398848002,0.18653127404362,-0.702032570173895,2.14093254582786,-1.17675336095561,-1.17675336095586,,1.09364864099056,1.06531087205538,-0.322284929220326,,-0.469160558554628,0.110602141676952,,,0.395103420590101,,-0.4444830118473,,0.278911689179871,0.300681836870937,-1.80463771990364,-0.744976593984874,-1.52397385036921,0.24116380259302,0.343972190433136,,,2.13037828156665,-1.31518363268774,-0.975823173194406,,,,-0.976770866603048,-0.961638989017203,0.223157556336329,1.27792057803069,1.27792057802792,,,,,-0.150686240533863,-0.725857662256751,1.88018332549102,-0.593364444517792,-0.593364444520515,0.91063838150401,-0.910638381504636,1.80325944773162,4.60800000000006,102,215.022549019608,534.756862745098,241.666666666667,222.343137254902,207.701960784314,525.224509803922,544.289215686275,273.558823529412,209.774509803922,0
702.7712,-0.831556877263441,0.184915664688216,-0.706726200101071,2.14776677510317,-1.14788952349657,-1.14788952349681,,1.11703505285086,1.06188535453511,-0.307932543111668,,-0.460156046369327,0.117559905210519,,,0.401311084566727,,-0.434090610132282,,0.298535152684179,0.313336377256863,-1.77313389538771,-0.740395896390021,-1.50087152291436,0.217424295781346,0.369995001916667,,,2.09027195817929,-1.31405567930215,-0.935065697127981,,,,-0.938533026586968,-0.897614717244645,0.174020715172747,1.27189424619547,1.27189424619267,,,,,-0.112497613672505,-0.694694223595367,1.89902192773757,-0.558756162509323,-0.558756162512017,0.941340241287548,-0.941340241288178,1.79580225810454,4.71040000000005,102,227.264705882353,539.752450980392,250.338235294118,235.817647058824,218.711764705882,528.422549019608,551.082352941177,283.950980392157,216.725490196078,0
702.8736,-0.834563618400919,0.183233954958166,-0.710954986852,2.15442231802605,-1.11876595785399,-1.11876595785423,,1.13979836187944,1.05693281444866,-0.292767094399461,,-0.45021210386942,0.124564151382185,,,0.407476156234851,,-0.423284810857631,,0.317626406194627,0.326431871132531,-1.73842490501124,-0.734552665968205,-1.47508769868837,0.195064039917296,0.395837785061962,,,2.04840273926728,-1.312432758242,-0.892970485510821,,,,-0.89890838547566,-0.832571480013837,0.126765215016898,1.26472714078349,1.26472714078066,,,,,-0.0756296944808011,-0.663707053262088,1.91795350806424,-0.524645689116956,-0.524645689119624,0.97089076687168,-0.970890766872313,1.78679894740294,4.81280000000004,103,238.054854368932,547.162621359223,266.266990291262,248.957281553398,227.152427184466,531.394174757282,562.931067961165,302.21359223301,230.320388349515,0
702.976,-0.837066562689772,0.181496893148376,-0.714715250536344,2.16089786288625,-1.0894057659942,-1.08940576599443,,1.1619156604537,1.05046119184507,-0.276888714757492,,-0.439418621937509,0.131539153392572,,,0.41351636286082,,-0.412156526257767,,0.336176617395131,0.339889293630176,-1.70060170470002,-0.727449116852554,-1.44668450025079,0.174133430841547,0.421434361562526,,,2.00481869640733,-1.31029977804595,-0.849591621830378,,,,-0.857954468748202,-0.76672374776988,0.081451692139387,1.25646772042912,1.25646772042625,,,,,-0.0401981497832135,-0.632987385674833,1.93694618629349,-0.491114255573657,-0.491114255576296,0.99924174717896,-0.999241747179594,1.77621547550088,4.91520000000003,102,249.856862745098,555.335784313726,286.313725490196,259.163725490196,240.55,536.551960784314,574.119607843137,322.774509803922,249.852941176471,0
703.0784,-0.839070151491462,0.179715496123416,-0.718003625089936,2.16719110266928,-1.05983223062938,-1.0598322306296,,1.18336621685173,1.04248298190401,-0.260399178641678,,-0.427867054374306,0.138410212080414,,,0.419349805776168,,-0.40079660309071,,0.354177074352488,0.353628952890925,-1.65976268832069,-0.719090887945547,-1.415730478601,0.154678514786133,0.446720686289089,,,1.95957269285691,-1.30764196163613,-0.804986475741922,,,,-0.815731015839475,-0.700285808188065,0.0381348541766196,1.24716629319048,1.24716629318759,,,,,-0.00631213284385324,-0.602623683641062,1.95596595372578,-0.458240283444161,-0.45824028344677,1.02634987193917,-1.0263498719398,1.7640216709124,5.01760000000002,103,260.886893203884,555.055339805825,302.432038834951,268.422330097087,253.35145631068,536.163106796117,573.947572815534,339.854368932039,265.009708737864,0
703.1808,-0.840579205119709,0.177900976409538,-0.720816987203129,2.17329882904149,-1.03006880298077,-1.03006880298098,,1.20413161849872,1.03301558653491,-0.243401384677533,,-0.415649927011773,0.145104069970715,,,0.424895329916495,,-0.389295423194517,,0.371619125661451,0.367570848892245,-1.61601315927469,-0.709487040995749,-1.38230025682633,0.136741067586532,0.471634911772263,,,1.9127225122055,-1.30444490594864,-0.75921578852159,,,,-0.772299898783438,-0.633470988578986,-0.00313644513752406,1.23687453903089,1.23687453902796,,,,,0.0259262223197849,-0.572701087353419,1.97497688932955,-0.426098949019663,-0.426098949022244,1.05217716258568,-1.05217716258631,1.75019181897221,5.12000000000001,102,270.645588235294,556.752450980392,304.132352941177,275.775490196078,265.51568627451,539.76568627451,573.739215686275,341.490196078431,266.774509803922,0
703.2832,-0.841598811495513,0.176064673089949,-0.723152393263483,2.17921702637579,-1.00013910953105,-1.00013910953125,,1.22419590738018,1.02208165899342,-0.225998854708504,,-0.402860369250704,0.151549298378695,,,0.430072879224338,,-0.377742524193456,,0.388494147200498,0.381635022870996,-1.56946480385079,-0.698650036958469,-1.34647416590641,0.120358673256263,0.496117429681041,,,1.86433098492316,-1.30069464230387,-0.71234377128607,,,,-0.727725057116128,-0.566490917492644,-0.0423191158142396,1.22564502911964,1.22564502911669,,,,,0.0564222561325694,-0.543300914096257,1.9939413695064,-0.394761787455757,-0.394761787458311,1.07669135720601,-1.07669135720663,1.73470520940964,5.22239999999999,102,349.84362745098,551.323039215686,299.950980392157,353.152941176471,346.53431372549,535.170588235294,567.475490196078,338.980392156863,260.921568627451,0
703.3856,-0.842134225314332,0.174217987431846,-0.725007023527938,2.18494096217223,-0.970066974946516,-0.970066974946701,,1.24354567944521,1.00970940758598,-0.208295253077864,,-0.38959166586872,0.157676654780735,,,0.434803837805677,,-0.366226238007564,,0.404793532535703,0.395741898726802,-1.520235174047,-0.686595691773752,-1.30833787833342,0.105564800174995,0.520110898587976,,,1.81446611517492,-1.29637769401377,-0.664438214068552,,,,-0.682072448432107,-0.499554821553587,-0.0793757243781575,1.21353075913463,1.21353075913165,,,,,0.0850891841836948,-0.514500210516073,2.01282026288894,-0.364296345971298,-0.364296345973831,1.09986624098297,-1.0998662409836,1.71754662390907,5.32479999999998,103,584.78640776699,546.830097087379,299.339805825243,584.152427184466,585.420388349515,538.712621359223,554.947572815534,339.504854368932,259.174757281553,0
703.488,-0.84219077486892,0.172372321569555,-0.726378131837599,2.19046527005711,-0.939876452389575,-0.939876452389752,,1.26217013014211,0.995932831684556,-0.190393924847469,,-0.37593682569687,0.16341941302477,,,0.439011354664878,,-0.354833347359017,,0.42050869674383,0.409812615072925,-1.46844718299181,-0.673343120929698,-1.26798204554842,0.0923888789289531,0.543560264067469,,,1.76320119629405,-1.29148113161079,-0.615570590619054,,,,-0.635410010014965,-0.432868853373015,-0.114274363575923,1.20058471780881,1.2005847178058,,,,,0.111848441909134,-0.486371355675515,2.03157310852778,-0.334765889547374,-0.334765889549891,1.12168191496524,-1.12168191496586,1.69870675425821,5.42720000000008,102,594.493137254902,550.394117647059,304.647058823529,597.063725490196,591.922549019608,543.325490196079,557.462745098039,348.647058823529,260.647058823529,0
703.5904,-0.841773772173181,0.170539016060098,-0.727262999463449,2.19578402118568,-0.909591854131927,-0.909591854132102,,1.28006104665183,0.980791875430835,-0.172397446857254,,-0.361988162642396,0.16871367482656,,,0.442620652580791,,-0.343648760250321,,0.435631082907957,0.423769348341082,-1.41422861148108,-0.658914681519777,-1.22550194181534,0.0808563864555904,0.566412767337083,,,1.71061490170119,-1.28599263266767,-0.56581614064601,,,,-0.587807622835784,-0.366635445982512,-0.146988492279761,1.1868595165698,1.18685951656676,,,,,0.136629968793201,-0.458981713646882,2.05015828366249,-0.306229158499517,-0.30622915850202,1.14212500362444,-1.14212500362505,1.67818255382544,5.52960000000007,103,927.558252427185,516.526213592233,305.310679611651,921.043689320388,934.072815533981,508.833009708738,524.219417475728,349.495145631068,261.126213592233,0
703.6928,-0.840888424633617,0.168729281954523,-0.727658894417093,2.20089078322218,-0.879237783026881,-0.879237783027057,,1.29721276366587,0.964332495641834,-0.154407186767311,,-0.347836887947067,0.173498670135741,,,0.445559323019647,,-0.332755204023634,,0.450152165862908,0.437535627326737,-1.35771162281868,-0.643335913005634,-1.18099711314444,0.0709889381980587,0.588617932371987,,,1.65679134861022,-1.27990055731971,-0.515253922773083,,,,-0.539337072830122,-0.301052690236986,-0.177496743060461,1.17240710331399,1.17240710331092,,,,,0.159372426029232,-0.432393337294264,2.06853316802157,-0.278740175195015,-0.278740175197503,1.1611888097178,-1.1611888097184,1.65597753471562,5.63200000000006,102,1090.64509803922,495.670588235294,312.245098039216,1080.64215686275,1100.64803921569,487.7,503.641176470588,361.607843137255,262.882352941177,0
703.7952,-0.839539751659473,0.166954126336392,-0.727563040392049,2.20577867010023,-0.84883916798389,-0.848839167984063,,1.31362210543059,0.9466066509134,-0.136522875252531,,-0.33357272139873,0.177717043109041,,,0.447757605854767,,-0.322232944419083,,0.464063455165904,0.45103663485755,-1.29903228675971,-0.626635472766657,-1.13457103017349,0.0628043869939959,0.610127527843029,,,1.60182013696792,-1.27319404619166,-0.463966842774848,,,,-0.49007201034544,-0.236313738337663,-0.205782702062112,1.15727857251474,1.15727857251165,,,,,0.180023348929393,-0.406662725842372,2.0866543065803,-0.252348094090282,-0.25234809409276,1.1788734262675,-1.1788734262681,1.63210202097699,5.73440000000005,102,1092.05490196078,503.704411764706,318.514705882353,1081.4637254902,1102.64607843137,493.616666666667,513.792156862745,370.892156862745,266.137254901961,0
703.8976,-0.837732511393176,0.165224274491533,-0.726972598306938,2.2104403845444,-0.818421300331244,-0.818421300331417,,1.32928833141239,0.927672226266361,-0.118842204809308,,-0.319283534403249,0.181315109939382,,,0.449148649708054,,-0.312159535350864,,0.477356505853395,0.464199487960402,-1.23833011741669,-0.608845064190887,-1.08633074734393,0.0563169256474195,0.630895512123696,,,1.54579635811187,-1.26586313643564,-0.412041658848515,,,,-0.440087907923714,-0.172606243835976,-0.231834672636747,1.14152407123698,1.14152407123387,,,,,0.198539245151833,-0.381840638483264,2.10447757111242,-0.227097086512552,-0.227097086515016,1.19518581110968,-1.19518581111027,1.60657335793845,5.83680000000004,103,1089.5067961165,509.5,315.995145631068,1078.64077669903,1100.37281553398,499.697087378641,519.302912621359,368.417475728155,263.572815533981,0
704,-0.835471141007869,0.163550093355119,-0.725884660617708,2.21486825236324,-0.788009863051657,-0.788009863051833,,1.3442130901633,0.907592908006208,-0.101460465994528,,-0.305055033531738,0.184243076341767,,,0.449668749269398,,-0.302609601046436,,0.490022947677099,0.476953489448658,-1.17574762912014,-0.589999358143956,-1.03638657140555,0.0515371888396764,0.650877972533533,,,1.48882056180104,-1.25789888483573,-0.359568958023955,,,,-0.389462013710638,-0.110111848999204,-0.255645436748777,1.1251927877047,1.12519278770158,,,,,0.21488565083212,-0.357971965448757,2.12195832368313,-0.203026252487403,-0.20302625248984,1.21013982531372,-1.2101398253143,1.57941607155993,5.93920000000003,102,1085.53676470588,511.274019607843,320.916666666667,1073.83137254902,1097.24215686275,500.090196078431,522.457843137255,373.754901960784,268.078431372549,0
704.1024,-0.832759712807974,0.161941519690681,-0.724296258193541,2.21905424764614,-0.757630946780865,-0.75763094678104,,1.35840037180853,0.886438016474353,-0.0844702234898367,,-0.290970485198789,0.186455212060353,,,0.449257558261116,,-0.293654648561907,,0.502054537604734,0.489230349434346,-1.11142990913577,-0.570135908075898,-0.984851738618883,0.0484723487209038,0.670033065317972,,,1.43099867319463,-1.24929348953835,-0.306643098101067,,,,-0.338273299193368,-0.0490057251306377,-0.277212026825873,1.10833299644169,1.10833299643856,,,,,0.229037149725683,-0.335095655552765,2.13905158450542,-0.180169556623999,-0.180169556626415,1.22375623387503,-1.22375623387561,1.55066197190209,6.04160000000002,103,1077.95194174757,507.794174757282,331.582524271845,1066.2,1089.70388349515,495.330097087379,520.258252427185,385.145631067961,278.019417475728,0
704.2048,-0.829601907528597,0.160407995259483,-0.722204379555769,2.22299000889713,-0.727311050444451,-0.727311050444626,,1.37185644338665,0.864282292916783,-0.0679610279782319,,-0.277110476624006,0.187909986829489,,,0.447858279126787,,-0.285362907114772,,0.513443230895406,0.500964379864937,-1.04552420070378,-0.549295057733792,-0.931842095829523,0.0471261978659136,0.688320961204331,,,1.37244185192705,-1.24004040841951,-0.253362113972644,,,,-0.28660240007326,0.0105438360398899,-0.296535521055596,1.09099212997311,1.09099212996997,,,,,0.240977355261887,-0.313244695574174,2.15571220223888,-0.15855578932784,-0.158555789330232,1.23606266475612,-1.23606266475669,1.52035019535571,6.14400000000001,102,1073.79460784314,510.04362745098,334.779411764706,1062.15294117647,1085.4362745098,497.706862745098,522.380392156863,389.43137254902,280.127450980392,0
704.3072,-0.826001003189361,0.158958410729886,-0.719605999576122,2.22666684606151,-0.697077065376763,-0.69707706537694,,1.38458975650525,0.841205629802251,-0.0520191550774255,,-0.263552703627239,0.188570175918742,,,0.445417833446864,,-0.277799188348985,,0.524181261663766,0.512092668217343,-0.978179486763785,-0.527519839682936,-0.877475778183038,0.0474992159534131,0.705703801501417,,,1.31326628340815,-1.23013447669982,-0.199827586885731,,,,-0.234531544880633,0.068375788423838,-0.313620875412331,1.07321685621409,1.07321685621095,,,,,0.250698853758806,-0.292446134940871,2.17189502496176,-0.138208554324154,-0.138208554326528,1.24709352249351,-1.24709352249407,1.48852718045799,6.24639999999999,102,1262.97598039216,502.548529411765,330.774509803922,1257.53725490196,1268.41470588235,484.391176470588,520.705882352941,386.058823529412,275.490196078431,0
704.4096,-0.821959873337133,0.157601058894079,-0.716498111014217,2.23007573896711,-0.666956238498796,-0.66695623849897,,1.39661082682308,0.817292741341263,-0.0367273579746909,,-0.250371770396227,0.188402946862901,,,0.441887020833276,,-0.27102475764857,,0.534261224553273,0.522555240094261,-0.909546064900641,-0.504855860847117,-0.821872875536703,0.049588623701961,0.722145664896299,,,1.25359289756777,-1.21957202808644,-0.146144471236167,,,,-0.182144465906206,0.124336666051221,-0.328476798070448,1.05505315365557,1.05505315365244,,,,,0.258203105754085,-0.27272114993628,2.18755507526917,-0.119146280441006,-0.119146280443362,1.25688985535062,-1.25688985535118,1.4552465743687,6.34879999999998,103,1373.30873786408,495.511165048544,335.5,1369.00388349515,1377.61359223301,477.574757281553,513.447572815534,397.330097087379,273.669902912621,0
704.512,-0.817480986329393,0.15634359556853,-0.712877751633511,2.23320732895415,-0.636976108183505,-0.636976108183676,,1.40793209330153,0.792632785697179,-0.0221646187003909,,-0.237638984459146,0.187379940412312,,,0.437220676211632,,-0.26509720495951,,0.543676150248505,0.532295222664666,-0.839775106178923,-0.481351171116011,-0.765155080991598,0.0533884335689554,0.737612537271302,,,1.19354701948854,-1.20835102398781,-0.0924208749336594,,,,-0.129526294515386,0.17828089455574,-0.341115659788154,1.03654638236995,1.03654638236682,,,,,0.263500304829653,-0.254085141107747,2.20264773677194,-0.101382252607227,-0.101382252609572,1.26549917756704,-1.26549917756758,1.42056906972633,6.45119999999997,102,1365.83774509804,495.922549019608,344.21568627451,1360.98431372549,1370.69117647059,475.7,516.145098039216,410.588235294118,277.843137254902,0
704.6144,-0.812566400087127,0.155193004906487,-0.708742023608238,2.23605190576058,-0.60716441078965,-0.607164410789818,,1.41856777029061,0.767318956395319,-0.00840588833524415,,-0.225422137562901,0.18547735441571,,,0.431377831420602,,-0.260070309361211,,0.552419570770063,0.54125901542312,-0.769018193891627,-0.457056115057077,-0.707445318886191,0.0588895050517003,0.752072272773383,,,1.13325795967919,-1.19647119626869,-0.0387677970133616,,,,-0.0767634502956634,0.230071081263746,-0.351553429834309,1.01774134958688,1.01774134958374,,,,,0.266609198828798,-0.236547856169719,2.21712895957907,-0.0849246546051311,-0.084924654607473,1.27297524987506,-1.2729752498756,1.3845621733882,6.55360000000007,103,1358.76747572816,499.833495145631,347.815533980583,1355.9427184466,1361.59223300971,480.571844660194,519.095145631068,413.378640776699,282.252427184466,0
704.7168,-0.807217752201768,0.154155566574811,-0.704088106918876,2.23859939023205,-0.577548959687677,-0.57754895968784,,1.42853370560218,0.741448056852101,0.00447818071530945,,-0.213785278247672,0.182676028347913,,,0.424321877302061,,-0.255993902827978,,0.560485576646986,0.549396461332124,-0.697426843316588,-0.432023171605011,-0.648867355012948,0.0660796060514234,0.765494538240598,,,1.07285854710475,-1.18393420856107,0.0147011708405398,,,,-0.0239435323733691,0.279578275177336,-0.359809634099626,0.998682371645913,0.998682371642768,,,,,0.267556878291218,-0.220113535885792,2.2309554897558,-0.0697766179582275,-0.0697766179605671,1.27937782273564,-1.27937782273618,1.34729990943513,6.65600000000006,102,1353.76176470588,504.686274509804,355.475490196078,1353.45196078431,1354.07156862745,485.246078431373,524.126470588235,421.264705882353,289.686274509804,0
704.8192,-0.801436248851546,0.153236825178681,-0.698913269946783,2.24083931118132,-0.548157494825459,-0.548157494825616,,1.43784724846967,0.715120065861501,0.0164214952007028,,-0.202788493032594,0.178961514061344,,,0.416020715299063,,-0.252913745086921,,0.567868870161564,0.556661001617125,-0.625152007211507,-0.406306788962872,-0.58954539524842,0.0749434770364423,0.777850743510298,,,1.01248459963662,-1.17074383523932,0.0678701777355149,,,,0.0288447902938047,0.32668218373352,-0.36590734268852,0.979413337183277,0.97941333718014,,,,,0.266378531447253,-0.204781089796987,2.24408512173483,-0.0559362778438544,-0.0559362778461963,1.2847723448908,-1.28477234489134,1.30886245421574,6.75840000000005,102,1348.80245098039,503.014215686275,359.416666666667,1349.02647058824,1348.57843137255,481.591176470588,524.437254901961,423.911764705882,294.921568627451,0
704.9216,-0.795222656687089,0.152441565030883,-0.693214879257171,2.24276077381593,-0.519017494946167,-0.519017494946319,,1.44652711331776,0.688437692731764,0.0273627583342853,,-0.192487711172225,0.17432411559574,,,0.40644688945757,,-0.250871417370144,,0.57456481490417,0.563009800991844,-0.552343570204079,-0.379963220525406,-0.529603677135878,0.0854628916712105,0.7891139697552,,,0.952274318592196,-1.15690614922081,0.120621488428231,,,,0.081511906507537,0.371271341643814,-0.369873202144455,0.959977773390325,0.959977773387193,,,,,0.263117164454968,-0.1905443097002,2.25647696656039,-0.0433968390033851,-0.0433968390057254,1.28922963340592,-1.28922963340645,1.2693356887871,6.86080000000004,103,1236.50485436893,492.156796116505,355.932038834952,1232.82718446602,1240.18252427184,472.150485436893,512.163106796117,419.52427184466,292.339805825243,0
705.024,-0.788577301705374,0.151773793669411,-0.686990410199101,2.24435241883016,-0.49015594378664,-0.490155943786782,,1.45459321399357,0.661505911482802,0.0372456762210213,,-0.18293453895249,0.168758889243009,,,0.39557769555362,,-0.249904235306729,,0.580569478471119,0.568403840283383,-0.479149832543253,-0.353050361814617,-0.469166054730222,0.0976167057444116,0.799258910330589,,,0.892367592815691,-1.14242970614132,0.172835910689156,,,,0.133967430625952,0.413243238759768,-0.371737526963407,0.94041891169078,0.940418911687647,,,,,0.257823290446111,-0.177392121377142,2.26809172718526,-0.0321466500295892,-0.0321466500319309,1.29282549591079,-1.29282549591133,1.2288106469753,6.96320000000003,102,1048.23333333333,480.744117647059,350.946078431373,1042.29019607843,1054.17647058824,469.36862745098,492.119607843137,412.254901960784,289.637254901961,0
705.1264,-0.781500080472385,0.1512367354542,-0.680237462779351,2.24560237680699,-0.461599048281154,-0.461599048281287,,1.46206645381062,0.634431464030689,0.0460191282491787,,-0.174176128299374,0.162265601564497,,,0.38339526330246,,-0.250045181635579,,0.585879664931116,0.572807976329161,-0.405716989027728,-0.325627581474484,-0.408355577728108,0.111380889477075,0.808261834775867,,,0.8329052125851,-1.12732571013715,0.224393282257468,,,,0.186120428647142,0.452504414358623,-0.371534449780815,0.920779747194539,0.920779747191397,,,,,0.250554590540295,-0.165308870679506,2.27889196986199,-0.0221692833680821,-0.0221692833704284,1.29564029639144,-1.29564029639196,1.18738285303892,7.06560000000002,103,1044,483.142718446602,350.101941747573,1037.06699029126,1050.93300970874,470.838834951456,495.446601941748,410.417475728155,289.78640776699,0
705.2288,-0.773990492533126,0.150832833872862,-0.672953792696855,2.24649823131778,-0.433371920300904,-0.433371920301021,,1.46896848023833,0.607322332903655,0.0536372873696902,,-0.166255094511171,0.154848639044625,,,0.36988659889511,,-0.251322868727994,,0.590492933980085,0.576190961921001,-0.332188622635546,-0.297755537253517,-0.347294074249874,0.126728546490017,0.816100581557932,,,0.77402802198615,-1.11160814037385,0.275173009274949,,,,0.237879710466974,0.488970515170745,-0.369302105047208,0.901103087339874,0.901103087336724,,,,,0.241375542950474,-0.154274640335464,2.28884237161541,-0.013443623459504,-0.0134436234618547,1.29775846135816,-1.29775846135867,1.14515157558397,7.16800000000001,102,882.536764705882,498.35931372549,357.495098039216,873.16568627451,891.907843137255,490.267647058824,506.450980392157,420.343137254902,294.647058823529,0
705.3312,-0.76604770305601,0.150563759794128,-0.665137368625061,2.24702700798554,-0.405498244285688,-0.405498244285789,,1.47532142768257,0.580287196302281,0.0600596704640955,,-0.159209503037014,0.146516858057856,,,0.355043570653347,,-0.253761545837149,,0.59440760430182,0.578525413746796,-0.258705241160381,-0.269495971648504,-0.286101754105249,0.143629929556926,0.822754581751196,,,0.71587605753864,-1.09529381450844,0.325054633897908,,,,0.289154184819721,0.522566308357915,-0.365082806629444,0.881431586967194,0.881431586964043,,,,,0.230357014400502,-0.144265592194949,2.29790991904286,-0.00594396791097051,-0.00594396791332143,1.29926793106751,-1.29926793106802,1.10221904664708,7.2704,102,507.558823529412,529.417156862745,361.225490196079,505.940196078431,509.177450980392,525.139215686275,533.695098039216,424.990196078431,297.460784313726,0
705.4336,-0.757670635454024,0.150430423818924,-0.656786456799707,2.2471751987068,-0.377999950705749,-0.377999950705837,,1.48114767119021,0.553434888194147,0.0652511117868064,,-0.153072930039804,0.1372833698295,,,0.338862831450782,,-0.257381154902336,,0.597622742192502,0.579787725502862,-0.185403878069449,-0.240911488311877,-0.224896847275992,0.16205246484387,0.828204914849511,,,0.65858771290722,-1.07840237547762,0.373918408575547,,,,0.33985326516526,0.553225648202691,-0.35892318657058,0.861807768549846,0.861807768546711,,,,,0.217575816227759,-0.135254324774954,2.30606404922513,0.000359857311470435,0.000359857309120193,1.3002595696093,-1.3002595696098,1.05868969194602,7.37279999999998,103,513.633608118971,539.122964551323,354.562051278777,510.089345605851,517.177870632092,531.972613793973,546.273315308672,417.971630311436,291.152472246119,0
705.536,-0.748858080329802,0.150432993303394,-0.647899718738145,2.24692881788253,-0.350896905425369,-0.350896905425443,,1.48646960882502,0.526873890071524,0.0691816770835854,,-0.147874574892036,0.127165270540972,,,0.32134569162986,,-0.262197419027659,,0.600138141634955,0.579957942621286,-0.112417760199408,-0.212065315397678,-0.163795281943013,0.181960794827126,0.832434395331894,,,0.602298944829333,-1.0609562067215,0.421645864877946,,,,0.389887309673561,0.580891408684963,-0.350874279599901,0.84227402596649,0.842274025963366,,,,,0.203114236494333,-0.127210230394634,2.31327674940341,0.00550237331562892,0.00550237331327533,1.30082655371749,-1.30082655371797,1.01466940138025,7.47519999999997,102,519.95238917201,551.689641898186,349.490451531591,514.805411255411,525.099367088608,542.940043290043,560.439240506329,414.329004329004,284.651898734177,0.352941176470588
705.6384,-0.739608801999194,0.150570916502789,-0.638476301447315,2.24627348369958,-0.324206621678586,-0.324206621678643,,1.49130948966225,0.500711872122862,0.0718265524244035,,-0.143639387801109,0.116183341091164,,,0.302497968835279,,-0.26822193741119,,0.601954304180486,0.579019629007566,-0.0398760278138729,-0.183021060777423,-0.102910394366818,0.203316848029735,0.835427679058552,,,0.547142517375614,-1.04298029403978,0.468120376008196,,,,0.439168074796122,0.605515398742554,-0.340991550208725,0.822872607781332,0.822872607778225,,,,,0.187059558343229,-0.120099833539546,2.31952264237517,0.00952232057647051,0.00952232057411058,1.30106375766206,-1.30106375766253,0.970264854184432,7.57760000000008,103,526.711113283505,566.057195899017,345.918278272463,520.576169461606,532.846057105403,556.37413945278,575.740252345254,412.586054721977,279.250501822949,0
705.7408,-0.729921629981671,0.150842956403385,-0.628515905577344,2.24519452083724,-0.297944005766964,-0.29794400576701,,1.49568929992322,0.475055282065572,0.0731659375191766,,-0.140388183601028,0.104361742499671,,,0.282329836617419,,-0.275462267210901,,0.603072427258158,0.576959751720069,0.0320965108775163,-0.153842458294121,-0.0423526582311236,0.226079939917954,0.837171369411835,,,0.493247278620965,-1.02450205440491,0.513227720152421,,,,0.487609160894044,0.627058269063386,-0.329334863192508,0.803645576346363,0.803645576343274,,,,,0.169503565190332,-0.11388709759812,2.32477907455006,0.0124625299176961,0.0124625299153332,1.30106714233845,-1.30106714233891,0.92558290327917,7.68000000000006,102,538.416666666667,567.045588235294,338.544117647059,531.342156862745,545.491176470588,570.714705882353,563.376470588235,402.029411764706,275.058823529412,0
705.8432,-0.719795533051008,0.151247235324815,-0.618018828323806,2.24367708155888,-0.272121149572768,-0.272121149572798,,1.499630701955,0.450008964054597,0.0731849517680057,,-0.138137736022789,0.0917277180354047,,,0.260855675849347,,-0.28392198983596,,0.603494409960749,0.573768587346668,0.103379596580193,-0.124593103291518,0.0177705712140667,0.250206902809485,0.837654107160626,,,0.440737465506423,-1.00555114737768,0.556856655971419,,,,0.535126431202526,0.645489405662626,-0.315968400566249,0.784634747007467,0.784634747004393,,,,,0.150542026254444,-0.108533699896463,2.32902620905006,0.0143697876182129,0.0143697876158369,1.30093314746525,-1.30093314746571,0.88073001382141,7.78240000000005,102,572.546568627451,567.095098039216,324.642156862745,568.135294117647,576.957843137255,570.762745098039,563.427450980392,383.372549019608,265.911764705882,0
705.9456,-0.709229681508806,0.151781288865627,-0.60698598780388,2.24170627837258,-0.2467471772567,-0.246747177256709,,1.50315500160619,0.425675787726026,0.0718735392630364,,-0.136900868649376,0.0783112949802749,,,0.238093916885146,,-0.293600773860311,,0.603222881951656,0.569439632035147,0.173857699097838,-0.0953361810704774,0.0773552912696359,0.275652235879415,0.836866641045094,,,0.389732030736088,-0.986159277438947,0.5988995221457,,,,0.581638391087875,0.660786795279583,-0.300960531608524,0.765881620683411,0.765881620680347,,,,,0.130274153779108,-0.103999286656597,2.33224711585072,0.0152946860873984,0.0152946860850141,1.30075808061497,-1.30075808061541,0.835811743679286,7.88480000000004,103,606.152427184466,565.241747572816,322.859223300971,602.957281553398,609.347572815534,572.060194174757,558.423300970874,379.834951456311,265.883495145631,0
706.048,-0.698223507402003,0.152442125354493,-0.59541894143963,2.23926731862718,-0.2218281449433,-0.221828144943292,,1.50628311750076,0.402156274475509,0.0692263508608938,,-0.136686566473278,0.0641449722007374,,,0.214066858196171,,-0.304494450945391,,0.602261253557503,0.563969492449908,0.243420149960853,-0.0661341953645032,0.136301053898156,0.30236826202687,0.83480188481538,,,0.340343986282373,-0.966359990399498,0.639252867633246,,,,0.62706652162712,0.672936846880392,-0.28438364700003,0.747427321099879,0.747427321096827,,,,,0.108802022490764,-0.100241724718715,2.33442784567504,0.0152914498029307,0.0152914498005407,1.300637497715,-1.30063749771542,0.790932253601148,7.98720000000003,102,627.760784313726,569.564215686274,313.264705882353,621.546078431373,633.975490196078,578.478431372549,560.65,365.941176470588,260.588235294118,0
706.1504,-0.686776772709005,0.153226286148028,-0.58331991177255,2.23634563289177,-0.197366988129784,-0.197366988129756,,1.50903553804118,0.379548216608716,0.0652425871500821,,-0.137500125111399,0.0492633840531496,,,0.188800457373032,,-0.316595115484178,,0.600613780147525,0.557357745447233,0.311961223564591,-0.0370487016150134,0.194511131192788,0.330305277456701,0.83145496813441,,,0.292679768768222,-0.946188469102596,0.677818103297422,,,,0.671335566679017,0.681934161260729,-0.266313969963499,0.729312535367725,0.729312535364684,,,,,0.0862299500217468,-0.0972173654108889,2.33555747741366,0.014417725625815,0.0144177256234206,1.30066557718882,-1.30066557718923,0.746193840992861,8.08960000000002,103,644.224757281553,571.683980582524,302.393203883495,637.128155339806,651.321359223301,581.669902912621,561.698058252427,351.757281553398,253.029126213592,0
706.2528,-0.674889652026143,0.154129903457159,-0.570691828657146,2.23292699297488,-0.173363513194223,-0.17336351319418,,1.51143226447587,0.357946292755386,0.0599258000065878,,-0.139343339011263,0.0337029413887565,,,0.162324104315893,,-0.32989124710609,,0.598285634429971,0.549606770504791,0.379380172752585,-0.00814004671860837,0.251892647503149,0.359411682991313,0.826823285827764,,,0.246838643828422,-0.925681339372058,0.714502146922228,,,,0.714373772364749,0.687781251239127,-0.246831356404266,0.711577445834075,0.711577445831041,,,,,0.0626638554233,-0.0948813284746485,2.3356281379461,0.0127343285121184,0.0127343285097113,1.30093449874011,-1.30093449874051,0.701696498985607,8.19200000000001,102,657.352450980392,574.687745098039,302.794117647059,653.807843137255,660.897058823529,587.712745098039,561.662745098039,351.696078431373,253.892156862745,0
706.3552,-0.662562828720595,0.155148754723128,-0.557538387488163,2.22899761754077,-0.149814431738452,-0.1498144317384,,1.51349274453116,0.337441689448519,0.0532836678026398,,-0.142214711990106,0.0175014642065759,,,0.134670396769331,,-0.344367842589455,,0.59528298279022,0.540721574238725,0.44558123205064,0.0205328815885134,0.30835668578794,0.389634093241348,0.820906544217547,,,0.202912166159936,-0.904876496570316,0.749218030706604,,,,0.756113074567737,0.690488224481237,-0.226019091839162,0.694261640729064,0.694261640726045,,,,,0.0382106216762361,-0.0931878024123789,2.33463499969214,0.0103049416327199,0.0103049416303014,1.30153384087961,-1.30153384087999,0.657537509156812,8.2944,102,667.291176470588,575.723039215686,311.578431372549,665.246078431373,669.336274509804,588.03431372549,563.411764705882,362.549019607843,260.607843137255,0
706.4576,-0.649797595721854,0.156278313920206,-0.543864114292586,2.22454426408008,-0.126713436176737,-0.126713436176677,,1.51523580106791,0.318121741501102,0.0453277715007708,,-0.146109662488739,0.000697831648131894,,,0.105874939738348,,-0.360006537495494,,0.591613063877267,0.530709633829,0.510473602614514,0.0489128891434831,0.363818374928105,0.420917428109084,0.813706798146419,,,0.160983703277202,-0.883812954400574,0.78188545347999,,,,0.796489228412316,0.690072447000944,-0.203963685396984,0.677403997394178,0.677403997391168,,,,,0.0129774792312577,-0.0920903459092696,2.33257626226084,0.00719578428357019,0.00719578428114271,1.30255000868436,-1.30255000868473,0.613811078607685,8.39679999999999,103,684.434951456311,579.528155339806,328.611650485437,678.023300970874,690.846601941748,591.884466019418,567.171844660194,382.135922330097,275.087378640777,0
706.56,-0.636595950596114,0.157513800113283,-0.529674427012137,2.21955431148029,-0.104051314034238,-0.104051314034174,,1.51667955785807,0.300069602145304,0.0360733980510939,,-0.151020698422827,-0.0166683238899089,,,0.07597618221635,,-0.376785701742477,,0.587284270179705,0.519580781865646,0.573971430000708,0.0769446891016631,0.418196963619345,0.453204997373835,0.805228470130974,,,0.121128026449845,-0.862530709588182,0.812431273958451,,,,0.835441874847804,0.686558205344732,-0.180754653405656,0.661042535957573,0.66104253595457,,,,,-0.0129285813465876,-0.0915421688953581,2.32945312276407,0.00347527190380186,0.00347527190136549,1.30406569964744,-1.30406569964779,0.570608027189854,8.49919999999997,102,701.242156862745,581.34705882353,342.220588235294,693.406862745098,709.077450980392,595.05,567.644117647059,394.843137254902,289.598039215686,0
706.6624,-0.622960680521417,0.158850223493404,-0.514975688399271,2.21401584673533,-0.0818160993880153,-0.0818160993879441,,1.51784136485274,0.283363949560594,0.0255393820837741,,-0.156937552351551,-0.0345568654301283,,,0.0450152903897924,,-0.394680505707717,,0.582306234636063,0.507347138948372,0.635993783760974,0.104575097108185,0.471415887771219,0.486438591005029,0.795478347285482,,,0.083410973823485,-0.841070614761661,0.840789948083954,,,,0.87291454570347,0.679976379847342,-0.156484281847747,0.64521424099896,0.645214240995972,,,,,-0.0394013594201568,-0.0914963783508191,2.32526973617054,-0.000786312021738229,-0.000786312024184478,1.30615941285953,-1.30615941285987,0.528015521632254,8.60160000000008,103,715.838834951456,581.763106796117,348.393203883495,707.900970873786,723.776699029126,596.61359223301,566.912621359223,399.980582524272,296.805825242718,0
706.7648,-0.608895440896023,0.160282429065789,-0.499775254165532,2.20791777007167,-0.0599932589299483,-0.0599932589298707,,1.51873772601068,0.268078729459159,0.0137479708387717,,-0.163847292373017,-0.0529273571649417,,,0.0130360397205413,,-0.413662971446948,,0.576689920637873,0.494023075220369,0.696464642171742,0.131753211260425,0.523402835039205,0.52055858250718,0.784465564022154,,,0.0478891919244347,-0.819474254726002,0.866903911524671,,,,0.908854622357169,0.670364131208447,-0.131247361497968,0.629954851586584,0.629954851583613,,,,,-0.0663359510311877,-0.0919061933422802,2.32003316543551,-0.0055171315504978,-0.00551713155295065,1.30890500434138,-1.3089050043417,0.486116848454913,8.70400000000007,102,726.664705882353,578.420588235294,348.5,720.926470588235,732.402941176471,592.53431372549,564.306862745098,400.950980392157,296.049019607843,0
706.8672,-0.594404835584402,0.16180513732509,-0.484081524926047,2.20124991949297,-0.0385659040770984,-0.038565904077018,,1.51938422822497,0.254282925228949,0.000724677153845444,,-0.171734442962226,-0.0717392644461852,,,-0.0199153019265769,,-0.43370203723449,,0.570447707885069,0.479625163683339,0.755312872840143,0.158430574002908,0.574089799071909,0.55550404142285,0.772201588477785,,,0.0146099554904696,-0.797783824604445,0.890723903584794,,,,0.943213274546994,0.657764591058689,-0.105140899588623,0.615298629799339,0.615298629796383,,,,,-0.0936292155854863,-0.09272515121093,2.31375332369332,-0.0106441195318075,-0.0106441195342623,1.31237128721101,-1.31237128721133,0.444991219887391,8.80640000000005,102,739.026470588235,581.345098039216,359.558823529412,731.895098039216,746.157843137255,593.205882352941,569.48431372549,410.627450980392,308.490196078431,0
706.9696,-0.579494505219165,0.163412980945392,-0.467904009103544,2.19400320187141,-0.0175150182430884,-0.017515018243009,,1.51979546450815,0.242040343318868,-0.0135019099812616,,-0.180581144959622,-0.0909521817759686,,,-0.0537901208138285,,-0.454763658858642,,0.563593465290916,0.464172095143209,0.812472191604262,0.184561308912525,0.623413108715203,0.591212843219779,0.758700227326883,,,-0.0163889456378256,-0.776042009525928,0.912209229848452,,,,0.975945400822965,0.642226543857601,-0.0782638200989835,0.601278123843895,0.601278123840948,,,,,-0.12118021045687,-0.093907326129758,2.30644291356219,-0.016093326096923,-0.0160933260993784,1.31662167016779,-1.3166216701681,0.404713609605145,8.90880000000004,103,743.577184466019,581.39854368932,383.354368932039,734.930097087379,752.22427184466,594.439805825243,568.357281553398,438.300970873786,328.407766990291,0
707.072,-0.564171223898136,0.165100537823483,-0.451253396892877,2.18616971275545,0.00318030491269905,0.00318030491277963,,1.51998494806293,0.231409404842218,-0.0289003629221192,,-0.190367358409157,-0.11052609751593,,,-0.0885376345433261,,-0.476810950893831,,0.55614260702418,0.44768455011571,0.867881086111635,0.210102226066946,0.671313420389805,0.627621765212856,0.743977651615887,,,-0.0450792668280565,-0.754291863362039,0.931327963235986,,,,1.00700957652777,0.623804096293863,-0.0507166669537322,0.58792393878672,0.58792393878378,,,,,-0.148890597638155,-0.0954075671552022,2.29811736577753,-0.0217903031698329,-0.021790303172286,1.32171382726558,-1.32171382726587,0.365354613501332,9.01120000000003,102,749.176960784314,581.495098039216,411.828431372549,739.33431372549,759.019607843137,590.805882352941,572.18431372549,472.686274509804,350.970588235294,0
707.1744,-0.548442996776863,0.166862361946643,-0.434141636677257,2.17774282422961,0.0235426128338995,0.0235426128339806,,1.51996502360486,0.222442940532481,-0.0454366814610801,,-0.201071086482663,-0.130421677757716,,,-0.124105084341079,,-0.49980435236938,,0.548112136175175,0.430185045692145,0.921482699478019,0.235012888292221,0.717735667345899,0.664666560788126,0.728052433033468,,,-0.07144232382383,-0.732576681258903,0.948057080213986,,,,1.0363680055581,0.60255634091382,-0.022601322318265,0.575264526602515,0.575264526599582,,,,,-0.176665022557758,-0.0971817499347104,2.288794771872,-0.0276605162007838,-0.0276605162032409,1.32769939832821,-1.32769939832848,0.32698033091996,9.11360000000002,103,751.746116504855,580.330582524272,428.165048543689,739.896116504854,763.596116504855,587.707766990291,572.953398058252,491.728155339806,364.601941747573,0
707.2768,-0.532319146024736,0.168693013342356,-0.416582000366225,2.16871721996713,0.043595841442006,0.0435958414420883,,1.51974678675429,0.215187990203395,-0.0630745554960493,,-0.21266858802963,-0.150600536986754,,,-0.160437920919356,,-0.523701794083582,,0.539520688206232,0.411697785071458,0.973224675665027,0.259255629590372,0.762628963281221,0.702282007813826,0.710945570389771,,,-0.0954689647725422,-0.710939859609782,0.962382527773319,,,,1.06398647080347,0.57854702431543,0.00597925308885563,0.563326010280472,0.563326010277549,,,,,-0.20441146304557,-0.099187026753288,2.27849580049879,-0.0336297631405306,-0.0336297631429944,1.33462372631048,-1.33462372631074,0.289652268266971,9.21600000000001,102,754.128431372549,578.359803921569,421.495098039216,742.206862745098,766.05,585.410784313726,571.308823529412,486.843137254902,356.147058823529,0
707.3792,-0.515810374977135,0.17058708739656,-0.398589127200216,2.15908887063084,0.0633650685645264,0.0633650685646114,,1.51934001808519,0.209685609206088,-0.0817755972876008,,-0.225134554645256,-0.171025466064231,,,-0.197479968374388,,-0.548458850944287,,0.530388586831004,0.392248531909768,1.0230589717684,0.282795525170701,0.805946463576705,0.740401933922653,0.692680487845958,,,-0.117159499363166,-0.689424737538155,0.974299222827766,,,,1.08983427857232,0.551844228891825,0.0349212602576702,0.552132053281275,0.552132053278367,,,,,-0.232041543086206,-0.101382053404873,2.26724359011651,-0.039624581189854,-0.0396245811923298,1.34252564001182,-1.34252564001206,0.253427273042156,9.3184,102,756.591176470588,577.342156862745,414.691176470588,748.212745098039,764.969607843137,586.170588235294,568.513725490196,479.460784313726,349.921568627451,0
707.4816,-0.498928808611069,0.172539242560191,-0.380179044831755,2.14885496859621,0.0828762778217553,0.082876277821841,,1.51875313281927,0.205970685149067,-0.10149953291266,,-0.238442246441986,-0.191660603896365,,,-0.23517356302752,,-0.574028875113864,,0.520737915040101,0.371864517930661,1.07094164881095,0.305600326219509,0.847645197410611,0.778959231418385,0.673282999221996,,,-0.136523584755994,-0.668074419061133,0.983810993514418,,,,1.11388419300738,0.522520075322499,0.0641202958459483,0.541703773112477,0.541703773109589,,,,,-0.259470804592911,-0.103727173782314,2.25506361984524,-0.0455726306527178,-0.0455726306552029,1.35143728840767,-1.3514372884079,0.218357502921766,9.42079999999999,103,760.076699029126,579.703883495146,398.592233009709,753.011650485437,767.141747572816,589.735922330097,569.671844660194,460.640776699029,336.543689320388,0
707.584,-0.48168801524704,0.174544224901715,-0.361369173724357,2.13801385966794,0.102156129774679,0.102156129774771,,1.51799314826635,0.204071769628058,-0.122204354199648,,-0.252563590895364,-0.212471551759645,,,-0.273459670720543,,-0.600363111240917,,0.510592589625223,0.350574385520241,1.11683266410567,0.327640382213947,0.887685895751583,0.817885881967846,0.652781244305086,,,-0.153580065751543,-0.646931585120804,0.990930475647359,,,,1.13611235836072,0.49065045293614,0.0934715974196787,0.532059684763297,0.532059684760427,,,,,-0.286618932526419,-0.106184553358752,2.24198356722927,-0.0514030521884715,-0.0514030521909681,1.36138402919685,-1.36138402919707,0.184490423916892,9.52319999999997,102,765.323529411765,579.623039215686,352.019607843137,762.906862745098,767.740196078431,590.389215686275,568.856862745098,412.892156862745,291.147058823529,0
707.6864,-0.464103015205964,0.176596888733036,-0.342178321195096,2.12656500573922,0.121231734292397,0.121231734292485,,1.51706567518847,0.204010929471386,-0.143846434456099,,-0.267469248456695,-0.233425433275265,,,-0.312277984889569,,-0.627410793170401,,0.49997841961534,0.328408167183113,1.16069569352771,0.348888574458316,0.926032844141682,0.857113009486232,0.631205606161304,,,-0.168356763150744,-0.626038312988847,0.995678975957163,,,,1.15649821001035,0.456314783828341,0.122870312643036,0.523215654803661,0.523215654800802,,,,,-0.31340993197672,-0.108718264693335,2.22803316192719,-0.057046795990203,-0.0570467959927171,1.37238437099286,-1.37238437099306,0.151868825138339,9.62560000000008,103,485.405339805825,562.547087378641,316.815533980583,482.196116504854,488.614563106796,564.305825242719,560.788349514563,373.339805825243,260.291262135922,0
707.7888,-0.446190279310798,0.178692213340624,-0.32262666799154,2.11450898662107,0.140130420677104,0.140130420677192,,1.51597493432564,0.205803617287031,-0.16638061342775,,-0.28312864948857,-0.254490906890497,,,-0.351567008014056,,-0.655119223089557,,0.488923132032492,0.305397298973217,1.20249799922621,0.36932027275496,0.962653775671508,0.896570966969027,0.60858861474055,,,-0.180890207106227,-0.605435920886173,0.998086307485947,,,,1.17502437927682,0.419595819257156,0.152211793454846,0.515184854222916,0.51518485422006,,,,,-0.3397722613191,-0.111294337301287,2.21324403910537,-0.0624369243275604,-0.0624369243300904,1.38444996571441,-1.3844499657146,0.12053083897824,9.72800000000007,102,270.115196078431,555.893137254902,299.740196078431,275.299019607843,264.93137254902,545.507843137255,566.278431372549,349.558823529412,249.921568627451,0
707.8912,-0.427967716884332,0.180825316096016,-0.302735746856471,2.10184751903116,0.158879507167719,0.158879507167809,,1.51472378906845,0.209458556986701,-0.189760261559174,,-0.299510011786536,-0.275638142964842,,,-0.391264121540251,,-0.68343383986381,,0.477456357879528,0.281574656791559,1.24221033564561,0.388913305300478,0.997519795230411,0.936189446589482,0.584964835669904,,,-0.191225321721492,-0.585164843351733,0.998190593745106,,,,1.19167660078914,0.380579457384187,0.181391904317645,0.507977713967191,0.507977713964346,,,,,-0.365638930708548,-0.113880786137689,2.19764958860634,-0.0675088913578276,-0.067508891360377,1.39758564505508,-1.39758564505527,0.0905099611206375,9.83040000000005,102,303.966666666667,560.749509803922,295.151960784314,307.783333333333,300.15,551.793137254902,569.705882352941,342.78431372549,247.519607843137,0
707.9936,-0.409454651424526,0.182991462778623,-0.282528410653777,2.0885834598554,0.177506073365155,0.177506073365246,,1.5133137864703,0.214977642510948,-0.213937335750915,,-0.316580350024871,-0.296838779165112,,,-0.43130564966856,,-0.712298286848581,,0.46560958171462,0.256974600948649,1.27980687240781,0.407647916954649,1.03060531026879,0.975897593912145,0.560370741269524,,,-0.199415069494771,-0.565264522087662,0.996038030765907,,,,1.20644363174734,0.339354570649078,0.210307329132714,0.501601899230675,0.501601899227842,,,,,-0.390947573277769,-0.116447626580481,2.18128479051099,-0.0722008008246565,-0.0722008008272264,1.41178949622008,-1.41178949622026,0.0618350738157866,9.93280000000004,103,329.39854368932,564.874757281553,292.063106796117,338.411650485437,320.385436893204,561.134951456311,568.614563106796,340.883495145631,243.242718446602,0
708.096,-0.390671784547644,0.18518607606078,-0.262028789974287,2.07472077615507,0.196036737821077,0.196036737821171,,1.51174520988654,0.22235585262459,-0.238862439155045,,-0.334305488631081,-0.318065866390078,,,-0.471626923361297,,-0.741654490490133,,0.453416064716,0.231633015007407,1.3152651127471,0.425506694938296,1.06188794502866,1.0156241107502,0.534844568019374,,,-0.205520056512336,-0.545773285686668,0.991682594654327,,,,1.2193171909576,0.296012840497171,0.23885586717869,0.496062317479499,0.496062317476683,,,,,-0.415640490422408,-0.118966876316166,2.1641860285235,-0.0764536374606566,-0.0764536374632464,1.42705297841318,-1.42705297841336,0.0345304820690074,10.0352,102,352.511764705882,565.385294117647,299.539215686275,366.224509803922,338.799019607843,563.346078431373,567.424509803922,352.441176470588,246.637254901961,0
708.1984,-0.371641152688049,0.187404741607874,-0.241262245136832,2.06026448816166,0.214497443870273,0.214497443870369,,1.51001714970897,0.23158118639926,-0.264484895584937,,-0.352650088313981,-0.339293813200147,,,-0.512162352849509,,-0.771442758701457,,0.440910748972089,0.205587328898206,1.34856579646264,0.442474456065901,1.09134842836707,1.05529734147596,0.508426172474095,,,-0.209608096813816,-0.526728200506825,0.985185690439844,,,,1.23029192445487,0.250648606517278,0.266936718227594,0.49136116507561,0.491361165072808,,,,,-0.439664670112587,-0.121412541149639,2.14639087942482,-0.0802114690493319,-0.0802114690519413,1.44336108588962,-1.44336108588979,0.00861596765807338,10.1376,103,377.616019417476,570.730097087379,326.917475728155,390.21359223301,365.018446601942,570.52427184466,570.935922330097,383.864077669903,269.970873786408,0
708.3008,-0.352386080896459,0.189643209755466,-0.220255318413075,2.04522060424066,0.232913257964081,0.232913257964181,,1.50812759220126,0.242634627632287,-0.290752840941017,,-0.371577689137771,-0.360498328576948,,,-0.552845513646773,,-0.801601899020802,,0.428130141913763,0.178876525417827,1.37969279135804,0.458538105013459,1.11897046179271,1.09484534769299,0.481156895939192,,,-0.211753740237714,-0.508164893456806,0.976615750538454,,,,1.2393654025203,0.203358738244679,0.294450763071662,0.487498007084292,0.487498007081513,,,,,-0.462971777138425,-0.123760579118659,2.12793788548277,-0.0834216193497439,-0.0834216193523654,1.46069256240473,-1.4606925624049,-0.015893142551148,10.24,102,404.641176470588,580.715196078432,363.5,415.872549019608,393.409803921569,577.694117647059,583.736274509804,423.294117647059,303.705882352941,0
708.4032,-0.332931133993999,0.191897390832869,-0.199035688110095,2.02959606724965,0.251308182078822,0.25130818207893,,1.50607352595783,0.255490155260892,-0.317613324179672,,-0.391050762353315,-0.381656355708045,,,-0.593609243673892,,-0.832069346414214,,0.415112172847762,0.151541138387285,1.40863298977619,0.473686483766742,1.1447405872647,1.13419598285427,0.453079440908631,,,-0.212037768806323,-0.490117360607321,0.96604779522284,,,,1.24653814720546,0.154242533782783,0.32130084762256,0.484469877981791,0.484469877979036,,,,,-0.48551811376208,-0.125988832914658,2.10886632203598,-0.0860348095263774,-0.0860348095290185,1.47902017089711,-1.47902017089729,-0.0389858993108569,10.3424,102,424.727941176471,588.05637254902,393.31862745098,433.893137254902,415.562745098039,576.862745098039,599.25,455.225490196079,331.411764705882,0
708.5056,-0.313302060901361,0.194163342829233,-0.177632121224082,2.01339872621139,0.26970497931943,0.269704979319543,,1.50385107423369,0.270114823510458,-0.345012405011292,,-0.411030756216604,-0.402745986469525,,,-0.634385744005626,,-0.862781286940353,,0.40189601186866,0.123623254359832,1.43537623074129,0.487910233266521,1.16864807729202,1.17327698141336,0.424237755182691,,,-0.210546660406671,-0.472617778926643,0.953562961354558,,,,1.25181368138531,0.103401645839223,0.347392079814366,0.482271389780483,0.482271389777757,,,,,-0.507264549782028,-0.12807691854676,2.08921597145474,-0.0880052611519915,-0.0880052611546511,1.49831102321507,-1.49831102321524,-0.0606556489390547,10.4448,103,445.623786407767,594.023786407767,412.621359223301,453.780582524272,437.466990291262,581.987378640777,606.060194174757,476.271844660194,348.970873786408,0
708.608,-0.293525724369905,0.196437250554009,-0.156074417432046,1.99663733582419,0.288125013460945,0.28812501346106,,1.50145566383223,0.286468930721078,-0.372895235225217,,-0.43147812045387,-0.423746346536823,,,-0.675106675786818,,-0.893672765854109,,0.388521842581032,0.0951665274257473,1.45991526295557,0.501201680220847,1.19068486298471,1.21201607570217,0.394676911292795,,,-0.207372013829824,-0.455696335575549,0.939247998211129,,,,1.25519858679021,0.0509400318690233,0.372632147499673,0.480894840671029,0.48089484066834,,,,,-0.528176421907108,-0.130006062530689,2.06902690723515,-0.0892907550996526,-0.0892907551023249,1.51852697381269,-1.51852697381287,-0.080899952071199,10.5472,102,463.983823529412,600.450490196079,421.161764705882,471.257843137255,456.709803921569,588.592156862745,612.308823529412,485.186274509804,357.137254901961,0
708.7104,-0.273630008230323,0.198715396656401,-0.134393336212806,1.97932157220782,0.306588104676212,0.306588104676329,,1.49888222961968,0.30450627963332,-0.401206117036976,,-0.452352301870242,-0.44463744785576,,,-0.715703251407147,,-0.92467777531306,,0.37503058529094,0.0662162082754972,1.48224575275176,0.513554753331839,1.21084550458172,1.25034114595155,0.364442964386687,,,-0.202609929332866,-0.439381084473973,0.923194726797737,,,,1.25670256309895,-0.00303608148834591,0.396931659043209,0.480330325916055,0.480330325913398,,,,,-0.548223401440404,-0.131758889085524,2.04833928355779,-0.0898526444692114,-0.0898526444719,1.53962507645726,-1.53962507645743,-0.0997205090699964,10.6496000000001,103,481.73786407767,600.348058252427,425.23786407767,485.840776699029,477.634951456311,587.418446601942,613.277669902913,487.68932038835,362.78640776699,0
708.8128,-0.253643701164356,0.200994126659015,-0.112620504560108,1.96146204905695,0.325112400161945,0.325112400162066,,1.49612543989361,0.324174513518019,-0.429888543076049,,-0.473611717382768,-0.465400017141317,,,-0.756106324689358,,-0.955729326078461,,0.361463580215056,0.0368191792875636,1.50236632829696,0.524964927703101,1.22912719808587,1.28818039701477,0.333582781403902,,,-0.196360347521593,-0.423697834790261,0.905499467366931,,,,1.25633848554482,-0.0584182336255549,0.420204498428513,0.480565853793921,0.480565853791297,,,,,-0.567379328191628,-0.133319168594664,2.02719312604108,-0.0896558218620001,-0.0896558218646997,1.56155809350902,-1.5615580935092,-0.117123093844849,10.7520000000001,102,348.601470588235,591.387254901961,432.269607843137,352.011764705882,345.191176470588,576.386274509804,606.388235294118,492.558823529412,371.980392156863,0
708.9152,-0.233596366629232,0.203269810851695,-0.0907883129702972,1.94307032834787,0.343714251708286,0.343714251708419,,1.49317992484017,0.345415500803914,-0.458885230075228,,-0.495213720866414,-0.486015316750897,,,-0.796246485929683,,-0.986759514153224,,0.347862255397494,0.00702398515100849,1.52027864303606,0.535429190879396,1.24552980383677,1.3254625462993,0.302143853364425,,,-0.18872636697523,-0.408670070422504,0.886262455593127,,,,1.25412245940363,-0.115095774913703,0.442368179104861,0.48158746427873,0.481587464276135,,,,,-0.585622012281822,-0.134671546949193,2.00562812890373,-0.0886686480635189,-0.0886686480662277,1.58427503588896,-1.58427503588913,-0.133117494095952,10.8544000000001,102,144.625,580.714215686275,437.632352941176,150.794117647059,138.455882352941,555.885294117647,605.543137254902,496.490196078431,378.774509803922,0
709.0176,-0.213518214386326,0.205538804753722,-0.0689298140666851,1.92415893086406,0.362408090290316,0.362408090290456,,1.49004049657832,0.368165739048921,-0.488138159812644,,-0.51711458200022,-0.506464974659726,,,-0.836054165434791,,-1.0176995949278,,0.334267808107086,-0.023119149204253,1.53598744157832,0.544946018057912,1.26005588054013,1.36211700530008,0.270174113669704,,,-0.179813572606718,-0.394318893781411,0.865587271459159,,,,1.25007387134404,-0.17295592329916,0.463344179207181,0.483379345829331,0.483379345826771,,,,,-0.602933015782407,-0.135801281059185,1.98368347048926,-0.0868628623566789,-0.0868628623593973,1.60772170538448,-1.60772170538466,-0.147717456551659,10.9568,103,168.174757281553,584.02718446602,440.708737864078,173.798058252427,162.55145631068,557.23786407767,610.816504854369,502.980582524272,378.436893203883,0
709.12,-0.193439986432731,0.2077974082863,-0.0470786366633395,1.90474135414877,0.381206294185693,0.381206294185846,,1.48670235338815,0.392356755025723,-0.517588639478301,,-0.539269491725126,-0.526730836963633,,,-0.875459748975834,,-1.0484800761894,,0.320720917927892,-0.0535583208595922,1.54950061685077,0.553515342760551,1.27271071153397,1.39807404141267,0.237721782058848,,,-0.169729399725386,-0.38066298324946,0.843580290667977,,,,1.24421544063629,-0.231883829541457,0.483058245411729,0.485923946643135,0.485923946640608,,,,,-0.61929743505293,-0.136694005293288,1.9613976579329,-0.0842135017786276,-0.0842135017813467,1.63184121127349,-1.63184121127367,-0.160940634197212,11.0592,102,193.625980392157,586.895588235294,438.254901960784,198.773529411765,188.478431372549,558.647058823529,615.144117647059,503.56862745098,372.941176470588,0
709.2224,-0.17339286293113,0.210041823552313,-0.0252689209829803,1.88483210378143,0.400119053839181,0.400119053839346,,1.48316125936891,0.417915487236255,-0.547177387555234,,-0.561632600632715,-0.546794849525397,,,-0.91439370600718,,-1.07903083647329,,0.307261495284097,-0.0842399750887777,1.56082925401591,0.561138516181944,1.28350231744151,1.43326491520042,0.204835243604521,,,-0.158582543275031,-0.367718555415384,0.820350156091686,,,,1.23657327226849,-0.291762646749048,0.501440660238172,0.489202075899366,0.489202075896874,,,,,-0.634703701322761,-0.137335544450552,1.93880840767893,-0.0806988481707174,-0.0806988481734362,1.65657443836837,-1.65657443836855,-0.172808527010711,11.1616,103,215.83932038835,587.704368932039,445.252427184466,222.234951456311,209.443689320388,561.53786407767,613.870873786408,509.990291262136,380.514563106796,0
709.3248,-0.153408385920563,0.212268112051864,-0.00353527220347309,1.864446741308,0.419154237348943,0.419154237349123,,1.4794136952373,0.444764650456153,-0.57684463964603,,-0.584157084049668,-0.566638965316067,,,-0.952786724242939,,-1.10928126629331,,0.293928460048571,-0.115108950101497,1.5699876645642,0.567818259242628,1.29244145918056,1.46762199794761,0.171562961817601,,,-0.146482414553848,-0.355499331673771,0.796007269264009,,,,1.22717690953874,-0.35247359918204,0.51842647401232,0.493192988200815,0.493192988198354,,,,,-0.649143403354347,-0.13771177483514,1.91595256341854,-0.0763004052247379,-0.0763004052274527,1.68186045488615,-1.68186045488634,-0.183346406662713,11.264,102,239.286274509804,589.426960784314,456.612745098039,244.408823529412,234.163725490196,566.300980392157,612.552941176471,522.882352941176,390.343137254902,0
709.4272,-0.133518391757854,0.214472152822424,0.0180872778516431,1.84360194704074,0.438317261324688,0.438317261324873,,1.47545698891375,0.472823097508304,-0.606530258776365,,-0.606795218024099,-0.586245065621411,,,-0.990569841068169,,-1.13916042269501,,0.280759542188285,-0.146108529523856,1.57699342170049,0.573558618235044,1.29954164333708,1.5010788816345,0.137953416927045,,,-0.133538647671294,-0.344016517562756,0.770663309111662,,,,1.2160593793038,-0.413896046706154,0.533955707466165,0.49787444435494,0.497874444352512,,,,,-0.662611125141867,-0.137808524175309,1.89286604722454,-0.0710028957331984,-0.0710028957359059,1.70763686416249,-1.70763686416268,-0.192583217675552,11.3664,102,278.502941176471,593.150490196079,463,279.528431372549,277.477450980392,572.13431372549,614.166666666667,528.794117647059,397.205882352941,0
709.5296,-0.113754941179801,0.216649602773975,0.0395633129842314,1.8223155934137,0.457610974828046,0.457610974828236,,1.4712894380533,0.502006198388909,-0.636173834589037,,-0.629498451616959,-0.605594880561139,,,-1.02767456802206,,-1.16859718861913,,0.267791098567402,-0.177180495330153,1.58186740954489,0.578364933825472,1.30481914238591,1.53357049545523,0.104055054948363,,,-0.119860652204947,-0.333278803629935,0.744430783506155,,,,1.20325722023562,-0.47590754619575,0.547973534603926,0.503222746056097,0.503222746053688,,,,,-0.675104290198209,-0.137611498477425,1.86958383654237,-0.0647942659164125,-0.0647942659191024,1.73384011792771,-1.73384011792791,-0.20055144764642,11.4688,103,353.471743301063,589.583333187487,465.709276726663,351.828098966489,355.115387635637,571.341102411525,607.825563963449,530.449107422487,400.969446030839,0
709.632,-0.0941502413542348,0.218795860067232,0.0608570851361529,1.80060682764507,0.477035560487478,0.477035560487672,,1.46691042346258,0.532226241970679,-0.665714766094678,,-0.652217472257913,-0.624669899466027,,,-1.06403301312074,,-1.19752043669061,,0.255057945858882,-0.208265182240228,1.58463389039596,0.582243826229614,1.30829303378843,1.56503323770387,0.0699162315198109,,,-0.105557197078723,-0.323292388554139,0.71742261004772,,,,1.18881048486374,-0.538383917229499,0.56043045509504,0.509212750271843,0.509212750269451,,,,,-0.68662300893348,-0.137106228362295,1.84613995942713,-0.0576656866237917,-0.0576656866264691,1.76040581454455,-1.76040581454476,-0.207286963184238,11.5712,102,448.68738436907,569.995582305503,459.684060721063,446.541129032258,450.833639705882,548.404032258065,591.587132352941,528.588709677419,390.779411764706,0.372549019607843
709.7344,-0.0747365632571034,0.220906031238318,0.0819325742836619,1.77849616391458,0.496588447807274,0.496588447807471,,1.46232050100757,0.563392844438971,-0.695092337027745,,-0.674902274379175,-0.643451275201682,,,-1.09957801003377,,-1.22585920494978,,0.242593216025066,-0.239301541849944,1.58532058084937,0.58520319112417,1.30998524951159,1.59540512078702,0.0355851414824437,,,-0.0907360075414462,-0.314061016999334,0.689751715567279,,,,1.17276271213758,-0.601199322650199,0.571282458457843,0.515817876725619,0.515817876723229,,,,,-0.697169931144752,-0.136278033843026,1.82256750189365,-0.0496115473491336,-0.0496115473517955,1.78726899809826,-1.78726899809848,-0.212828817167319,11.6736000000001,103,571.38190227704,542.371394686907,451.320683111955,561.506451612903,581.257352941177,517.951612903226,566.791176470588,526.935483870968,375.705882352941,0.689320388349515
709.8368,-0.0555461632084777,0.222974902541042,0.102753547141615,1.75600558175404,0.51626423140666,0.51626423140686,,1.45752146256,0.595413342445615,-0.724245802622644,,-0.697502248524537,-0.661919740891,,,-1.13424326178182,,-1.25354289375597,,0.230428241668802,-0.270227227898986,1.58395871913599,0.587252195452091,1.30992061959449,1.62462591742692,0.00110974098015081,,,-0.0755033677985942,-0.30558602275956,0.661530644182846,,,,1.15516087794563,-0.664226371361065,0.580491172439729,0.523010122919427,0.523010122917049,,,,,-0.706750106484565,-0.135112011200674,1.79889862524815,-0.0406294454480992,-0.0406294454507445,1.81436445634854,-1.81436445634877,-0.217219038011736,11.7760000000001,102,684.77609117461,512.199398370354,442.165587677196,671.112707147375,698.439475201846,493.301853257432,531.096943483276,521.596457938014,362.734717416378,0
709.9392,-0.0366112161155436,0.224996915651632,0.123283607170607,1.73315862353558,0.536054593656246,0.536054593656447,,1.45251636414795,0.628193159435605,-0.753114505784942,,-0.719966305561074,-0.680055560744282,,,-1.16796350346447,,-1.28050148892,,0.218592471711209,-0.300978713513164,1.58058310950886,0.588401263586487,1.30812689626396,1.65263729513151,-0.0334623186730845,,,-0.0599637367210518,-0.297866372308689,0.632871172478089,,,,1.13605533842697,-0.727336243824687,0.588023982838877,0.530760093766042,0.530760093763664,,,,,-0.715370852481545,-0.133593049053342,1.77516459524264,-0.0307201776743033,-0.0307201776769356,1.84162700038807,-1.84162700038831,-0.22050241095882,11.8784000000001,102,723.355882352941,491.017156862745,426.387254901961,712.33431372549,734.377450980392,494.963725490196,487.070588235294,495.078431372549,357.696078431373,0
710.0416,-0.0179637621430147,0.226966148052139,0.143486234377592,1.70998048307031,0.555948236528341,0.555948236528552,,1.44730952375332,0.661636146481215,-0.781638029723049,,-0.742243040676911,-0.697838526190553,,,-1.20067468503417,,-1.30666580900263,,0.207113410242619,-0.331491446559831,1.57523214081781,0.588662053351983,1.30463475646547,1.67938293321956,-0.0680837283883237,,,-0.0442193929155604,-0.290898711625274,0.603883943992617,,,,1.11549977682908,-0.790398837293953,0.593854114665397,0.539037041493851,0.539037041491464,,,,,-0.723041625081804,-0.131705879792169,1.75139582454544,-0.0198877404709221,-0.0198877404735383,1.86899171024618,-1.86899171024642,-0.222726261002994,11.9808,103,738.016504854369,489.876213592233,423,724.333980582524,751.699029126214,490.791262135922,488.961165048544,486.097087378641,359.902912621359,0
710.144,0.000364336810090965,0.228876299326191,0.163324819439173,1.68649808043885,0.575930825201767,0.575930825201988,,1.44190649597896,0.695644907166628,-0.809756379735974,,-0.764280928955363,-0.715247992254878,,,-1.23231416874965,,-1.33196776644487,,0.19601656876681,-0.361700038310313,1.5679477869875,0.588047433887896,1.29947779298288,1.70480862548853,-0.102707526049884,,,-0.0283701227059802,-0.284677424208464,0.57467813981209,,,,1.09355115379457,-0.853282927826334,0.59796067193482,0.547808903515908,0.54780890351352,,,,,-0.729773880977425,-0.129435162312385,1.72762192502086,-0.00813933560313823,-0.00813933560573545,1.89639414816028,-1.89639414816054,-0.223940246843519,12.0832,102,373.768137254902,536.471078431373,416.632352941176,361.43431372549,386.101960784314,526.98431372549,545.957843137255,474.088235294118,359.176470588235,0
710.2464,0.0183414371414655,0.230720685815466,0.182762700256746,1.6627401247439,0.595984940537101,0.595984940537334,,1.43631403581496,0.730121121967216,-0.837410176532297,,-0.786028533682962,-0.732262935899322,,,-1.26282092831547,,-1.35634062525428,,0.185325425175305,-0.391538467396027,1.55877560235012,0.586571483862259,1.29269251055556,1.72886237756284,-0.137287077780964,,,-0.0125129468530608,-0.279194704264412,0.545361188160521,,,,1.07026965339641,-0.915856345499358,0.600328641798546,0.557042327668437,0.557042327666037,,,,,-0.7355809189139,-0.126765578270119,1.70387176089268,0.0045146352584004,0.00451463525582497,1.92377055344999,-1.92377055345026,-0.224196166392617,12.1856,103,311.815533980583,553.471359223301,381.514563106796,303.320388349515,320.31067961165,542.000970873786,564.941747572816,432.747572815534,330.281553398058,0
710.3488,0.0359361572735991,0.232492246067037,0.201763209922056,1.63873717260713,0.61609003597697,0.616090035977213,,1.43054006147012,0.764965887482153,-0.864540841256879,,-0.807434705538858,-0.748862012735062,,,-1.29213573454195,,-1.37971923775497,,0.175061390611098,-0.420940276254164,1.54776472323013,0.584249521941468,1.28431833961044,1.75149451056816,-0.171776052206166,,,0.00325813962613124,-0.274440639899303,0.516038495842663,,,,1.04571861415502,-0.977986159216685,0.600948875500825,0.566702683857405,0.566702683855006,,,,,-0.740477696262314,-0.123681921340637,1.68017349530113,0.0180606050503178,0.01806060504777,1.95105802226422,-1.9510580222645,-0.223547757553752,12.288,102,334.812745098039,551.848039215686,362.553921568627,324.617647058824,345.007843137255,540.487254901961,563.208823529412,410.764705882353,314.343137254902,0
710.4512,0.0531174305636723,0.234183557080525,0.2202897416293,1.61452169116965,0.63622239906017,0.636222399060425,,1.42459361630297,0.800080074702416,-0.891090760353634,,-0.828448759949793,-0.765023595459493,,,-1.32020132053512,,-1.4020402543637,,0.165243791172849,-0.44983874901601,1.53496787994899,0.581098167756547,1.27439766968228,1.7726577813828,-0.206128403082132,,,0.0188524406080768,-0.270403299901862,0.486813178487204,,,,1.01996443365325,-1.0395388711148,0.599818060090571,0.576754067238426,0.576754067236029,,,,,-0.744480634024808,-0.120169174628051,1.65655463211484,0.0324819082663422,0.0324819082638222,1.97819465665751,-1.9781946566578,-0.222050471256258,12.3904,102,352.821568627451,554.589705882353,364.186274509804,341.898039215686,363.745098039216,545.309803921569,563.869607843137,412.43137254902,315.941176470588,0
710.5536,0.0698545681590655,0.235786858350181,0.238305829164403,1.59012812684126,0.656355125340946,0.656355125341208,,1.41848482076927,0.83536469709396,-0.917003435382372,,-0.849020639304476,-0.780725797062912,,,-1.34696253560735,,-1.42324231863067,,0.155889868677602,-0.478167083931687,1.52044141376302,0.57713542285004,1.26297589445909,1.79230752298321,-0.240298366209953,,,0.034182846507827,-0.26706882650248,0.457785780240981,,,,0.993076440622639,-1.10038062749353,0.596938688682903,0.587159295778739,0.587159295776348,,,,,-0.747607432284395,-0.116212594618703,1.63304206141055,0.0477588658239749,0.0477588658214805,2.0051196702568,-2.0051196702571,-0.219761209025335,12.4928,103,372.124757281553,563.954368932039,380.888349514563,359.588349514563,384.661165048544,553.98640776699,573.922330097087,428.912621359223,332.864077669903,0
710.656,0.0861173272240474,0.237294079886797,0.25577523564316,1.56559296888846,0.676458116218079,0.676458116218349,,1.41222480276128,0.870721275055269,-0.942223639164135,,-0.869101083707463,-0.795946502078472,,,-1.37236650963242,,-1.44326627054191,,0.147014798786552,-0.505858591464544,1.50424528491999,0.572380759698002,1.25010145420809,1.81040179763641,-0.274240464487942,,,0.0491661151684173,-0.26442154190241,0.429053993454655,,,,0.965126739532989,-1.16037745873368,0.592319026353575,0.597879903973329,0.597879903970941,,,,,-0.749876910857204,-0.111797829804568,1.6096621135835,0.0638688680052091,0.0638688680027439,2.03177346469167,-2.03177346469197,-0.216738040299921,12.5952,102,395.242156862745,577.257352941177,405.710784313725,380.870588235294,409.613725490196,572.733333333333,581.78137254902,457.411764705882,354.009803921569,0
710.7584,0.101875976968355,0.238696872081437,0.272662041344606,1.54095479114349,0.696498108590486,0.696498108590758,,1.40582559878699,0.906052186351798,-0.966697602394671,,-0.888641835116234,-0.810663433360202,,,-1.39636284736331,,-1.46205537609281,,0.138631722602257,-0.532846945197038,1.48644305626572,0.566855209721121,1.23582586132972,1.8269015468896,-0.307909507657581,,,0.0637231243108283,-0.262444071416387,0.400712396961448,,,,0.936190040569102,-1.21939555861664,0.585973060468617,0.608876138904237,0.608876138901856,,,,,-0.751308876846418,-0.106911090574366,1.58644061903651,0.0807864453323896,0.0807864453299486,2.05809770985603,-2.05809770985634,-0.213039921806145,12.6976000000001,103,412.398058252427,578.858737864078,427.354368932039,401.554368932039,423.241747572816,577.97572815534,579.741747572816,481.47572815534,373.233009708738,0
710.8608,0.117101357340747,0.23998663788686,0.288930725799268,1.51625425795748,0.716438739395707,0.716438739395985,,1.3993000265613,0.941260997995868,-0.990373242896274,,-0.907595885687522,-0.82485426875698,,,-1.41890385894272,,-1.47955558635465,,0.130751787949589,-0.559066492725804,1.46710184289803,0.560581444993087,1.22020370044566,1.841770722391,-0.341260575132948,,,0.0777790889923482,-0.261117478292896,0.372852223756174,,,,0.906343485749631,-1.27730160591118,0.577920424598611,0.620106968065407,0.620106968063042,,,,,-0.751924012075348,-0.101539365063942,1.56340296470993,0.0984833353156975,0.0984833353132805,2.08403545164384,-2.08403545164416,-0.208726429673147,12.8000000000001,102,429.789705882353,578.514215686275,450.553921568628,419.003921568627,440.575490196078,580.013725490196,577.014705882353,504.803921568627,396.303921568628,0
710.9632,0.131764932119329,0.241154569414992,0.304546247372407,1.49153408543769,0.736240647818163,0.736240647818447,,1.39266153492178,0.976252782456034,-1.01320043326518,,-0.92591776416436,-0.838496803850292,,,-1.43994482093879,,-1.49571581621705,,0.123384200341196,-0.584452615624832,1.44629222494865,0.553583848649838,1.20329259897967,1.85497638986687,-0.374248980888376,,,0.0912637516866555,-0.260421402137095,0.34556115588733,,,,0.875666471842587,-1.33396312696995,0.568186292895509,0.631530108451515,0.631530108449168,,,,,-0.751743771228625,-0.0956706586347089,1.54057413912272,0.116928568781196,0.116928568778813,2.10953125505125,-2.10953125505159,-0.203857500968097,12.9024000000001,102,566.919607843137,588.88137254902,463.044117647059,550.548039215686,583.291176470588,594.813725490196,582.949019607843,521.598039215686,404.490196078431,0
711.0656,0.145838841118728,0.242191690664354,0.31947412632129,1.4668389574447,0.755861616936902,0.755861616937188,,1.38592403490836,1.01093442361702,-1.03513129174347,,-0.943563844365673,-0.851569144410259,,,-1.45944425698632,,-1.51048822878371,,0.116536292338227,-0.608942119578124,1.42408812476851,0.545888568563134,1.18515316682958,1.86648880689956,-0.406830229545372,,,0.104111557515308,-0.260334195735658,0.318923136346748,,,,0.844240459324039,-1.38924889681706,0.556801248261039,0.643102083037882,0.643102083035535,,,,,-0.750790287422102,-0.0892942329806152,1.51797876397152,0.136088599897197,0.136088599894848,2.13453138723277,-2.13453138723311,-0.198493175082138,13.0048,103,605.99854368932,596.94854368932,471.310679611651,590.370873786408,621.626213592233,595.014563106796,598.882524271845,531.21359223301,411.407766990291,0
711.168,0.159295952183044,0.243088906743035,0.333680532261254,1.44221540833742,0.775256750171172,0.775256750171466,,1.37910171420177,1.04521491339091,-1.05612047924304,,-0.960492659281891,-0.86404991028122,,,-1.47736422645906,,-1.52382851514433,,0.11021362252118,-0.632473637061518,1.40056665778055,0.537523553969088,1.16584891123531,1.87628147927698,-0.438959972753721,,,0.116261821581065,-0.260833061746655,0.293018188537953,,,,0.812148752883062,-1.44302937106698,0.543801128010633,0.654778301112267,0.654778301109931,,,,,-0.749086291453284,-0.0824008341727975,1.4956411145843,0.155927485655811,0.155927485653498,2.15898404105456,-2.1589840410549,-0.192693325015022,13.1072,102,629.030392156863,602.086274509804,458.558823529412,618.58137254902,639.479411764706,595.960784313726,608.211764705882,519.911764705882,397.205882352941,0
711.2704,0.172109911411699,0.243837058697247,0.347132373841277,1.41771168845901,0.794378674555712,0.794378674556012,,1.37220884234845,1.07900563748865,-1.0761254892111,,-0.976665208117583,-0.875918438473551,,,-1.49367061107878,,-1.53569616434006,,0.104420104981416,-0.654988031666992,1.37580797463634,0.528518579641026,1.14544614061791,1.88433120351853,-0.470593969509501,,,0.127658883905303,-0.261894196296561,0.267922241045801,,,,0.779476246498017,-1.49517713562088,0.529226849698697,0.666513149835188,0.666513149832863,,,,,-0.746655055249641,-0.0749829138025574,1.47358512941929,0.176407098305979,0.176407098303702,2.1828395892975,-2.18283958929785,-0.186517373269198,13.2096,103,659.733009708738,597.395145631068,432.800970873786,648.815533980583,670.650485436893,589.474757281553,605.315533980583,495.281553398058,370.320388349515,0
711.3728,0.184255194212346,0.244426981739437,0.359797391673832,1.39337761752288,0.813177768639212,0.81317776863952,,1.36525957611397,1.1122206502885,-1.09510692110316,,-0.992045246442545,-0.887154979932073,,,-1.50833339044023,,-1.54605471939319,,0.0991581586876603,-0.676428797983711,1.34989510723371,0.518905258121385,1.12401386605291,1.89061810442685,-0.501688052506387,,,0.138252243792031,-0.263492946256123,0.243706958187323,,,,0.746309139422253,-1.54556736186455,0.513124220911361,0.678260086415271,0.678260086412956,,,,,-0.743520364808041,-0.0670348497379527,1.45183440738794,0.197487346552441,0.197487346550205,2.20605085302538,-2.20605085302574,-0.180023996615544,13.312,102,676.286764705882,593.100490196079,422.299019607843,665.027450980392,687.546078431373,581.823529411765,604.377450980392,486.06862745098,358.529411764706,0
711.4752,0.195707163291631,0.244849563860625,0.371644258533139,1.36926441466127,0.831602420082726,0.831602420083039,,1.35826776660008,1.1447769353554,-1.11302873165036,,-1.00659955142153,-0.897740889434331,,,-1.52132689659904,,-1.55487201359974,,0.0944288636083797,-0.696742450192859,1.322913813433,0.508717031594103,1.1016236934049,1.89512567055813,-0.532198102794356,,,0.147996674512039,-0.265603979868961,0.220439570017933,,,,0.712734640729054,-1.59407825971067,0.495543735394038,0.689971730751908,0.689971730749603,,,,,-0.73970651604102,-0.0585531640834252,1.4304121930784,0.219126389570197,0.21912638956801,2.22857336619587,-2.22857336619623,-0.17327083186222,13.4144,102,714.237254901961,422.40931372549,415.642156862745,705.780392156863,722.694117647059,421.806862745098,423.011764705882,479.588235294118,351.696078431373,0
711.5776,0.206442138744571,0.245095802636085,0.382642690465031,1.34542448193588,0.84959932064495,0.849599320645271,,1.35124676447455,1.17659464217576,-1.12985845978957,,-1.02029815538858,-0.907658810718303,,,-1.53263003676118,,-1.56212038061465,,0.0902321154941985,-0.715878890306854,1.29495240285802,0.497989132269649,1.07834968964569,1.89784077911704,-0.562080033934617,,,0.156852326337217,-0.268201462724689,0.198182689590607,,,,0.678840680913747,-1.6405915258843,0.476540350949172,0.701599966348018,0.70159996634572,,,,,-0.735238318170626,-0.0495367283654217,1.40934134858999,0.241280839943546,0.241280839941405,2.25036562103325,-2.25036562103362,-0.166314193295043,13.5168,103,713.506796116505,400.721359223301,419.708737864078,709.707766990291,717.305825242719,399.492233009709,401.950485436893,486.31067961165,353.106796116505,0
711.68,0.216437483923035,0.245156860195391,0.392763572498531,1.32191111645666,0.867113804480229,0.867113804480556,,1.34420922327079,1.20759729052822,-1.14556741719003,,-1.03311453827032,-0.91689285386935,,,-1.54222647370159,,-1.56777683103126,,0.0865667805877351,-0.733791745294584,1.26610152864923,0.486758506361141,1.05426821112784,1.89875369577529,-0.591289787896523,,,0.16478482249869,-0.271259229708723,0.17699410847576,,,,0.64471563600817,-1.6849927879983,0.456173238919319,0.713096057574611,0.713096057572311,,,,,-0.730141090032787,-0.0399869440782057,1.38864430783092,0.263905960744246,0.263905960742153,2.27138928566214,-2.27138928566251,-0.159208802862944,13.6192,102,689.486764705882,370.730392156863,427.990196078431,690.125490196078,688.848039215686,367.744117647059,373.716666666667,496.392156862745,359.588235294118,0
711.7824,0.225671711012253,0.245024118015994,0.401979104101615,1.2987781353384,0.884090230708791,0.884090230709119,,1.33716690603294,1.23771194148484,-1.16013083034433,,-1.04502576420002,-0.925428751974572,,,-1.55010475630509,,-1.57182318578653,,0.0834308607228204,-0.750438660644469,1.23645394052141,0.475063700400421,1.02945769016635,1.89785803890386,-0.619783346802901,,,0.171765347222935,-0.274750945253233,0.156926568522108,,,,0.610448055108563,-1.72717204238747,0.434505497256303,0.72441078724843,0.724410787246128,,,,,-0.724440639504226,-0.0299078843800458,1.36834300926769,0.286955869409376,0.286955869407327,2.29160939344364,-2.29160939344402,-0.152007526415492,13.7216000000001,103,689.178640776699,373.019902912621,428.708737864078,690.427184466019,687.930097087379,371.603883495146,374.435922330097,500.194174757282,357.223300970874,0
711.8848,0.234124610661824,0.244689232613191,0.410262969527194,1.27607941000822,0.900472409221258,0.900472409221594,,1.33013050478401,1.26686934261782,-1.17352792172832,,-1.05601254893643,-0.933253982225259,,,-1.55625839763152,,-1.57424615776215,,0.0808216803937119,-0.765781540693933,1.20610420324463,0.462944703246589,1.00399837993659,1.89515070624782,-0.647516763486623,,,0.177770723913545,-0.278650244704134,0.138027510819464,,,,0.576126380233758,-1.76702407882898,0.411603826642518,0.735494615780231,0.735494615777924,,,,,-0.718163220357027,-0.0193063801201838,1.34845880643092,0.310383764813269,0.310383764811271,2.31099450957229,-2.31099450957267,-0.144761109294055,13.8240000000001,102,700.434803921569,371.405392156863,424.009803921569,699.504901960784,701.364705882353,371.402941176471,371.407843137255,495.460784313725,352.558823529412,0
711.9872,0.241777407378914,0.244144190711657,0.417590533763671,1.25386832037072,0.916204070354754,0.916204070355096,,1.32310948477483,1.29500405928603,-1.18574192761005,,-1.06605925580451,-0.940357845842057,,,-1.56068590450554,,-1.57503738118662,,0.0787360994116211,-0.779786735513452,1.17514838774668,0.450442737398039,0.97797205987601,1.89063177079681,-0.674446212537016,,,0.182783481989318,-0.282930853071522,0.120338802612668,,,,0.541838653262531,-1.8044488871989,0.387538176952382,0.746297863473158,0.746297863470848,,,,,-0.711335468115823,-0.0081920400055511,1.32901236154953,0.334142185573434,0.334142185571487,2.32951688232897,-2.32951688232935,-0.137517908690597,13.9264000000001,102,1201.14117647059,430.836764705882,419.225490196078,1193.79509803922,1208.48725490196,419.480392156863,442.193137254902,486.186274509804,352.264705882353,0
712.0896,0.248612933707189,0.243381360677508,0.423939054763021,1.23219716353049,0.931229369184866,0.931229369185211,,1.3161119618115,1.32205460087176,-1.19676006236112,,-1.0751538333397,-0.946731511556766,,,-1.56339076887101,,-1.57419339932516,,0.0771707440756103,-0.792425183750949,1.1436837426663,0.437600010361338,0.951461711328123,1.88430436159181,-0.700528064373339,,,0.186791909871515,-0.28756668422048,0.103896449482064,,,,0.50767220754799,-1.83935204932752,0.362381378393188,0.756770914805644,0.756770914803323,,,,,-0.703984328413561,0.00342278588661282,1.31002353657921,0.358183285518342,0.358183285516447,2.34715258043746,-2.34715258043784,-0.130323625070485,14.0288,103,1261.44223300971,443.729611650485,433.883495145631,1254.67087378641,1268.21359223301,434.064077669903,453.395145631068,506.300970873786,361.466019417476,0
712.192,0.254615806791495,0.242393536958512,0.429287893096069,1.21111657554187,0.945493394257881,0.945493394258228,,1.3091446123083,1.34796354402303,-1.20657344647457,,-1.0832877176813,-0.952368031279987,,,-1.56438143256375,,-1.57171562624528,,0.076122239932428,-0.803672522844665,1.11180835805247,0.42445945417722,0.924551182978761,1.87617455143196,-0.725718985333123,,,0.189790088852645,-0.292531928866664,0.0887303149592216,,,,0.473713342240703,-1.87164512456275,0.336208776033674,0.76686443451251,0.766864434510175,,,,,-0.69613700158065,0.0155230709198882,1.29151130272293,0.38245909210549,0.382459092103652,2.36388160977456,-2.36388160977496,-0.12322104010464,14.1312,102,1259.63774509804,446.901960784314,453.990196078431,1250.24803921569,1269.02745098039,436.960784313725,456.843137254902,529.813725490196,378.166666666667,0
712.2944,0.259772591692,0.241173974762055,0.433618701297825,1.19067501775315,0.958942646154635,0.95894264615499,,1.30221260824047,1.37267764853945,-1.21517701246636,,-1.09045571906517,-0.957262333786269,,,-1.56367123079331,,-1.56761029451099,,0.0755874226639641,-0.813509172253064,1.0796208368393,0.411064478721077,0.897324867250237,1.8662512699243,-0.749976065846752,,,0.191777899244157,-0.297801144123586,0.074863876710038,,,,0.440046980030755,-1.90124603556586,0.309097883085728,0.776529579576216,0.776529579573877,,,,,-0.687820928295721,0.0280911745333899,1.27349368583553,0.406921714022981,0.406921714021196,2.37968800270993,-2.37968800271032,-0.116249772032077,14.2336,103,1259.3640776699,446.522815533981,457.490291262136,1248.14660194175,1270.58155339806,434.535922330097,458.509708737864,530.864077669903,384.116504854369,0
712.3968,0.264071945412808,0.239716413486607,0.436915585761573,1.17091834274571,0.971525468466388,0.971525468466753,,1.29531956688958,1.39614795574308,-1.22256939443435,,-1.09665590000147,-0.961411199335117,,,-1.56127831238249,,-1.56188839259575,,0.0755635063030485,-0.82192039039289,1.04721998475953,0.397458748581415,0.869867398903334,1.8545462472863,-0.773256975917227,,,0.192760989161926,-0.303349357528536,0.0623140400278911,,,,0.406756315070196,-1.92807945428618,0.281128057147962,0.785718195882612,0.785718195880282,,,,,-0.679063826624688,0.0411068867112521,1.2559877505197,0.431523484675594,0.431523484673872,2.39455987981932,-2.39455987981971,-0.109446060294341,14.336,102,958.989705882353,387.773529411765,464.289215686275,944.313725490196,973.66568627451,385.18137254902,390.36568627451,536.176470588235,392.401960784314,0
