time,S1-D1,S1-D8,S1-D9,S1-D15,S2-D1,S2-D2,S2-D3,S2-D9,S3-D1,S3-D2,S3-D16,S4-D2,S4-D3,S4-D5,S5-D3,S5-D4,S5-D5,S6-D2,S6-D5,S6-D17,S7-D6,S7-D7,S8-D6,S8-D7,S8-D18,S9-D3,S9-D4,S9-D9,S9-D11,S9-D19,S10-D8,S10-D9,S10-D10,S10-D11,S11-D8,S11-D10,S11-D20,S12-D10,S12-D11,S12-D12,S13-D4,S13-D11,S13-D12,S14-D10,S14-D12,S14-D21,S15-D13,S15-D14,S16-D13,S16-D14,S16-D22,t_rel_s,eye_n,xp,yp,ps,xpl_i,xpr_i,ypl_i,ypr_i,psl_i,psr_i,blink_prop
1017.1392,0.15158925640064,1.10152557899341,1.33783791293988,-1.12019728429495,-0.608375464694944,-0.608375464695302,0.121034573526481,0.106646509396819,0.124235385104653,2.09287091721845,-1.01916872974345,2.09287091721782,1.46347283189255,-0.363579948881622,1.33742371337074,1.99244922316625,-0.985649157718503,1.95720534400654,0.938650283106535,-1.3548078202016,0.938650283105379,-0.312598147995697,-0.581963172975165,-0.558427896775082,-0.541702574958456,-0.344961986454636,-0.344961986454967,-0.572063616274924,0.572063616273397,-0.328228474731465,0.512455296817904,-0.179318132993213,0.575496816312849,-0.63902445092237,-0.260620086036534,-0.923215636468676,-1.0203754870316,0.991146017010768,0.991146017008443,0.702745422024954,-1.20799213510293,0.331347508442217,0.276661189806897,-1.74423049063174,-0.552557875236054,0.0286973160158028,0.333865429607592,0.333865429609112,0.697253815485325,-0.697253815485678,-0.0226714514452374,0,103,659.955339805825,218.982524271845,1717.19417475728,670.194174757282,649.716504854369,251.450485436893,186.514563106796,1700.44660194175,1733.94174757282,0
1017.2416,0.165758542366878,1.10440999024347,1.35988672406476,-1.14774436854299,-0.62519878231019,-0.625198782310537,0.115576629358648,0.138453847328559,0.13910502368323,2.11647510752559,-1.00518762805852,2.11647510752497,1.45962497858288,-0.339513277676948,1.34981106376917,1.99150647350337,-0.943073700537492,1.97590214733464,0.937084127498896,-1.32982426330985,0.937084127497715,-0.332413848420043,-0.558566764829387,-0.555309294586063,-0.542546141264807,-0.307929041478599,-0.307929041478865,-0.594801598704235,0.594801598702715,-0.358156000486714,0.482310375157522,-0.14354076414329,0.575274943781816,-0.654385275513107,-0.244726534267207,-0.928033559457075,-1.04411608014175,1.02308201978848,1.02308201978617,0.662184648196123,-1.21822705638938,0.280989874035721,0.222927039133043,-1.73897475801289,-0.605254632856957,0.0290119068388628,0.331634480096616,0.33163448009814,0.683171879651451,-0.683171879651805,-0.00137803432081073,0.102399999999989,102,634.263725490196,179.19362745098,1681.65196078431,649.628431372549,618.899019607843,217.253921568627,141.133333333333,1655.20588235294,1708.09803921569,0
1017.344,0.179633261161356,1.10692598800506,1.38115969805942,-1.17346028321339,-0.640458171722174,-0.640458171722545,0.109414139601342,0.16957297164425,0.153213790022081,2.13806327826979,-0.992183007433935,2.1380632782692,1.45308563629151,-0.314938859643948,1.35962800744187,1.98855057304493,-0.899445234174655,1.99264802749722,0.934206882773427,-1.30470823464676,0.934206882772217,-0.350337590240745,-0.533719735406749,-0.550134448827334,-0.542668727926398,-0.270591076169581,-0.270591076169768,-0.617583462745893,0.617583462744379,-0.38783201665234,0.450847075603893,-0.106986519551479,0.573993149450624,-0.67013275045437,-0.228219648247205,-0.932805527447465,-1.06648579289647,1.0540851347187,1.05408513471642,0.621144768938353,-1.22757004912855,0.230433044146602,0.168309400243272,-1.73206738608432,-0.658066845551129,0.0295571763559619,0.328493585345598,0.32849358534713,0.668339849396113,-0.668339849396469,0.0194535944421155,0.204800000000091,103,654.302510443594,225.589763078914,1628.77202923323,684.37834011901,624.226680768177,283.107541497025,168.071984660803,1596.82430316317,1660.71975530328,0
1017.4464,0.193180531057848,1.10904017049072,1.40157817921103,-1.19733375410373,-0.654105665869167,-0.654105665869547,0.102602884682043,0.200004381605257,0.166591739800749,2.1576034227848,-0.980101226802064,2.15760342278423,1.44389995557295,-0.28992529227882,1.36687631940618,1.98366972657841,-0.854916747563549,2.00747866964585,0.930083267306386,-1.27946218952378,0.930083267305154,-0.366333434365204,-0.507373553748364,-0.542850898522621,-0.542074070651489,-0.232968714193049,-0.232968714193122,-0.640350975834735,0.64035097583322,-0.417220385760328,0.418097947929828,-0.0696874858932158,0.571660397498591,-0.686237438385926,-0.211102554152683,-0.937500876397652,-1.08740584434518,1.08411967253159,1.08411967252932,0.579661891514887,-1.23600580457172,0.179724268137108,0.112878040455163,-1.72348869839181,-0.710913378359788,0.0303721435300437,0.324455521029438,0.324455521030976,0.652764524936206,-0.652764524936562,0.0398104137774429,0.30720000000008,102,717.764452674689,419.319411214481,1500.8571013247,795.06064516129,640.468260188088,540.720483870968,297.918338557994,1436.81451612903,1564.89968652038,0.725490196078431
1017.5488,0.206367618026391,1.11071806613912,1.4210626096612,-1.2193576505948,-0.666094834210354,-0.666094834210763,0.0952056308646937,0.229752711176213,0.179274969531483,2.17506794910244,-0.968887127176896,2.17506794910189,1.43212011347478,-0.264541397138846,1.37156524306136,1.97695559986967,-0.80964422957917,2.0204325585637,0.924780763776123,-1.25408877383292,0.92478076377486,-0.380371369498963,-0.479486718012362,-0.533414212313797,-0.540768832852987,-0.195082054582188,-0.195082054582135,-0.663044089262261,0.663044089260757,-0.446287550713027,0.38410028463525,-0.0316783712172285,0.568289696154545,-0.702665199910843,-0.193379827881573,-0.942084789478182,-1.10680269713507,1.11314828350794,1.11314828350567,0.537774083967987,-1.24352083160669,0.12891232646847,0.0567095145775742,-1.71322233054216,-0.763707710436162,0.0314951924946286,0.319537721828339,0.319537721829883,0.636454670988697,-0.636454670989055,0.0596805953977652,0.409600000000069,103,783.123206087572,623.733215694206,1367.56512286379,909.728387096774,656.51802507837,811.221290322581,436.245141065831,1269.83870967742,1465.29153605016,1
1017.6512,0.21916202159535,1.11192430005261,1.4395328163269,-1.23952870077256,-0.676380931354181,-0.676380931354604,0.0872915459377772,0.258826360538835,0.191305098626385,2.19043362142686,-0.958484269873733,2.19043362142633,1.41780499380084,-0.238856193385586,1.373711161534,1.96850254865704,-0.763785907854083,2.03155039827244,0.918369256991086,-1.22859094633707,0.918369256989796,-0.392427318326186,-0.450024992068462,-0.521788143310738,-0.538762531661284,-0.156950926082204,-0.156950926082048,-0.685601154626034,0.685601154624532,-0.475002561497531,0.348896227547462,0.00700328884972961,0.563897992255785,-0.71937725815692,-0.17505779239323,-0.946518602843088,-1.12460840002001,1.1411319969836,1.14113199698132,0.495521537427758,-1.25010354388254,0.0780476821818361,-0.000112971293834826,-1.70125549620754,-0.81635820263796,0.0329637238916214,0.313762295277951,0.313762295279501,0.619421158322751,-0.619421158323108,0.0790536143642465,0.512000000000057,102,827.129244446692,767.998819667922,1292.29183510496,981.690698924731,672.567789968652,961.425695762176,574.571943573668,1218.90028462998,1365.68338557994,1
1017.7536,0.231531592346361,1.11262276117545,1.45690834118006,-1.25784721077757,-0.684921108868857,-0.684921108869303,0.0789355662036551,0.287237123076111,0.202728722935855,2.20368148120828,-0.948835169509922,2.20368148120778,1.40101985310739,-0.21293888570332,1.3733372436537,1.95840686026479,-0.717501497339433,2.04087454240327,0.910920653564795,-1.20297210243721,0.910920653563478,-0.402483152612012,-0.418961575413971,-0.507944746666326,-0.536067439033294,-0.118595134954031,-0.11859513495378,-0.707959136360451,0.70795913635895,-0.503337073822891,0.312532863311616,0.0463169180241414,0.558506038984712,-0.736330300722907,-0.156144803328426,-0.950760144267071,-1.14076090458841,1.16803033245769,1.1680303324554,0.452946695925699,-1.25574434008147,0.0271825979150645,-0.0574997706097636,-1.68757924676673,-0.868768438756896,0.0348137884969758,0.307156002624517,0.307156002626074,0.601677092284182,-0.601677092284541,0.0979203753117964,0.614400000000046,102,816.012464994775,797.638157262278,1281.43556426332,943.485666666667,688.539263322884,883.052333333333,712.223981191223,1296.31,1266.56112852665,1
1017.856,0.243444677617527,1.1127767689976,1.47310880902372,-1.2743167869401,-0.691674686952931,-0.691674686953379,0.0702176968610393,0.314999808770498,0.213596830726257,2.21479674198538,-0.939881517594969,2.21479674198489,1.38183596270354,-0.18685885262029,1.37047306362011,1.94676600450081,-0.67095145841541,2.04844843137826,0.902508473671692,-1.17723620058152,0.902508473670348,-0.410526714227748,-0.386277208733903,-0.491864459570216,-0.532698458461336,-0.0800347031787192,-0.0800347031783782,-0.730053828181819,0.730053828180317,-0.531265333020218,0.275062301790968,0.0862186837240624,0.55213823302468,-0.753476623865775,-0.136651519518922,-0.954764107453229,-1.15520436466793,1.19380147797241,1.1938014779701,0.410094337668787,-1.26043567412867,-0.023628798629131,-0.115355091885101,-1.67218871937441,-0.920837648220052,0.0370797031818167,0.299750202925374,0.299750202926938,0.583237935348342,-0.583237935348702,0.116273363952493,0.716800000000035,103,803.09318077325,832.190725182863,1253.15648902821,901.597333333333,704.589028213166,813.830666666667,850.55078369906,1339.36,1166.95297805643,0.572815533980583
1017.9584,0.254870288866996,1.11234923658636,1.48805432065611,-1.28894405994293,-0.696603483749405,-0.696603483749845,0.0612222275378553,0.342131863996267,0.223964171347422,2.22376865322231,-0.931564389979242,2.22376865322183,1.36033022239576,-0.160685636197047,1.36515418907635,1.93367789469831,-0.624296265665327,2.05431603692528,0.893207406862109,-1.15138788685322,0.893207406860742,-0.416551845678451,-0.351960226647004,-0.47353615317232,-0.528672974998409,-0.041290098739368,-0.0412900987389326,-0.751820085964429,0.751820085962927,-0.55876415433796,0.236541724817238,0.126661285973915,0.544822410648521,-0.770764324322637,-0.116591163509153,-0.958482472095562,-1.16788942437486,1.21840253291043,1.2184025329081,0.367011601704917,-1.26417211333885,-0.0743305069187349,-0.173577387180196,-1.65508337106104,-0.972461217620058,0.0397936593984468,0.291580754783576,0.291580754785145,0.564121619884406,-0.564121619884766,0.134106827102816,0.819200000000024,102,792.995921039964,812.950553669863,1289.81196683071,857.851158873806,728.140683206121,685.538806846748,940.362300492978,1462.11945015769,1117.50448350373,0
1018.0608,0.26577828245591,1.11130282402772,1.50166585423461,-1.30173841178254,-0.699672199945884,-0.699672199946309,0.0520368499625586,0.368652982068447,0.233888566492077,2.23059032662137,-0.923824429834604,2.2305903266209,1.33658474225389,-0.134488943098283,1.35742172665732,1.91924016207082,-0.577695691975388,2.0585213155982,0.883092824492512,-1.12543260918221,0.883092824491118,-0.420558428479385,-0.316006580800427,-0.452957170247588,-0.524010673990196,-0.00238246323148719,-0.00238246323095163,-0.773192093600185,0.773192093598683,-0.585812909506552,0.197033385352664,0.16759376260341,0.536589586708457,-0.788137543104914,-0.0959797847617709,-0.961864984511333,-1.17877349476546,1.24178980937317,1.24178980937083,0.323747957769813,-1.2669503816573,-0.124864704947312,-0.232059842002906,-1.63626719668517,-1.02353129872018,0.0429853516598608,0.282687862886435,0.282687862888004,0.544348639852349,-0.54434863985271,0.151416976109082,0.921600000000012,103,802.59870764284,747.872623277045,1370.62455309963,849.603846153846,755.593569131833,594.482867132867,901.262379421222,1566.61888111888,1174.63022508039,0.0970873786407767
1018.1632,0.276139548320341,1.1096000758043,1.51386566073007,-1.31271170840373,-0.700848855396281,-0.700848855396699,0.0427516778238911,0.394584700136313,0.243430161607152,2.23525852239416,-0.916601998787427,2.2352585223937,1.31068639218755,-0.108338667278708,1.3473218177441,1.90354944992134,-0.531308113739086,2.06110767654215,0.872240249410688,-1.09937671300837,0.872240249409267,-0.422552417172339,-0.278419855385617,-0.430133355415765,-0.518733326002925,0.0366661603057658,0.0366661603063709,-0.794103670684766,0.794103670683257,-0.612393527789326,0.156604544310749,0.208961318478801,0.527473626572128,-0.805536760318179,-0.0748365362699353,-0.964859706186658,-1.18782101622885,1.26391918673313,1.2639191867308,0.280355121829189,-1.26876938542415,-0.175171855830682,-0.290690969179027,-1.61574892661859,-1.0739375135756,0.0466816540932176,0.27311585911166,0.273115859113232,0.523942111586523,-0.523942111586884,0.168202201930324,1.024,102,833.747375092753,804.435750061835,1291.63031783329,888.632692307692,778.862057877814,685.263461538462,923.608038585209,1454.44230769231,1128.81832797428,0.980392156862745
1018.2656,0.285926207615019,1.10720353902605,1.52457765175579,-1.32187804602644,-0.700105268736741,-0.700105268737134,0.0334581967120181,0.419949987967715,0.25265063544758,2.23777340804715,-0.90983729498308,2.2377734080467,1.28272633126002,-0.0823049351326461,1.33490509677799,1.88670074252556,-0.485289840441322,2.06211747995177,0.860724803287611,-1.07322751354935,0.860724803286166,-0.422545853880505,-0.239211284213675,-0.405079074739703,-0.512864545618819,0.0758326017169429,0.0758326017176344,-0.814488613272041,0.814488613270534,-0.638490511240956,0.115327352515698,0.250705179142027,0.51751086339457,-0.822899132252221,-0.0531839611113356,-0.967413617668741,-1.19500370447435,1.28474651535818,1.28474651535583,0.236886930957744,-1.26963022380425,-0.225190854890306,-0.349355289474052,-1.5935421995039,-1.12356773684234,0.050906353646856,0.262912926409196,0.262912926410771,0.502927801050518,-0.502927801050879,0.184463285051332,1.12639999999999,102,862.29845048086,850.743173760859,1226.3685675336,922.769683257918,801.827217703802,756.342712189771,945.143635331946,1369.1672151378,1083.56991992939,0
1018.368,0.295111824701052,1.10407586657668,1.53372779118676,-1.32925352409382,-0.697417560892634,-0.697417560892999,0.0242482003660379,0.444772837434667,0.261612402712268,2.23813831705608,-0.903470446836757,2.23813831705563,1.25279953753741,-0.0564581566432207,1.32022614602696,1.86878675063261,-0.439794469183921,2.06159159257476,0.848620669674035,-1.04699334479742,0.84862066967257,-0.420556851192903,-0.198399770250702,-0.377817217989003,-0.50642954278597,0.11509234293142,0.115092342932182,-0.834281045977754,0.834281045976243,-0.664090951592746,0.0732786997735546,0.292762470114714,0.506739697327429,-0.840158857553924,-0.0310482678849517,-0.969473246457544,-1.20030077539055,1.30422805768253,1.30422805768016,0.193399202396879,-1.26953619261204,-0.274859192239835,-0.407934058100746,-1.56966570850063,-1.17230891251954,0.0556799309847477,0.252130789019607,0.252130789021183,0.481334122550363,-0.481334122550724,0.200203579160532,1.22880000000009,103,860.969417475728,619.010679611651,1510.63106796117,889.230097087379,832.708737864078,483.738834951456,754.282524271845,1685.76699029126,1335.49514563107,0
1018.4704,0.303671635997449,1.10017991573632,1.54124450483157,-1.33485605594345,-0.69276665873899,-0.692766658739318,0.0152127723999113,0.469077854274462,0.270377842229449,2.23635953381032,-0.897441597260247,2.23635953380987,1.22100435108471,-0.0308690509085345,1.3033429822466,1.84989737209151,-0.394972264906647,2.05956902235653,0.836000608428254,-1.0206835903311,0.836000608426773,-0.416609532410044,-0.156011907838734,-0.348379177165471,-0.499454885598965,0.154419300599852,0.154419300600664,-0.853415764195626,0.853415764194111,-0.689184532469283,0.030540047556269,0.335066131608095,0.495200215878925,-0.857247563256847,-0.00845956708423689,-0.970985286605419,-1.20369913708194,1.32232094501517,1.32232094501279,0.149949600204156,-1.26849279327892,-0.324113108703334,-0.466305991298328,-1.54414332479093,-1.22004785985485,0.0610193793473558,0.240824386573678,0.240824386575258,0.459192117179819,-0.459192117180177,0.215429150468532,1.33120000000008,102,886.888725490196,450.925,1703.98039215686,874.540196078431,899.237254901961,371.721568627451,530.128431372549,1825.56862745098,1582.39215686275,0
1018.5728,0.311582790815726,1.09547885253937,1.54705911214326,-1.33870522046207,-0.686138780022631,-0.686138780022912,0.00644134424214118,0.492889847116407,0.279008564297483,2.23244611472192,-0.891690989319178,2.23244611472147,1.18744202188138,-0.00560861001077221,1.28431659110782,1.83011923242699,-0.350969569560601,2.0560866365588,0.822935534794595,-0.994308701506971,0.822935534793096,-0.410733919164548,-0.112082000900881,-0.316804791047314,-0.491968283431452,0.193785609538299,0.193785609539148,-0.871828558826665,0.871828558825149,-0.713763509749187,-0.0128027596788578,0.377544886147325,0.482933850852339,-0.874094710454402,0.0145479511144096,-0.971897194478547,-1.20519353538453,1.33898363114199,1.3389836311396,0.106597515847543,-1.26650775564923,-0.372887741196781,-0.52434796792527,-1.5170042052952,-1.26667204599722,0.0669380617751305,0.229051531795693,0.229051531797273,0.436535414536364,-0.436535414536721,0.230148866611297,1.43360000000007,103,900.042718446602,411.846601941748,1764.35922330097,880.561165048544,919.52427184466,380.271844660194,443.421359223301,1837.46601941748,1691.25242718447,0
1018.6752,0.318824595294863,1.08993626607728,1.55110627234053,-1.34082215204091,-0.677525887845556,-0.677525887845809,-0.00197917391089779,0.516233409201437,0.287564712916253,2.22640974084931,-0.88615905472742,2.22640974084885,1.15221624281841,0.0192520273489397,1.26321050753568,1.80953529904247,-0.307928244763006,2.05117895357354,0.809494155368686,-0.967880204560989,0.809494155367173,-0.40296576483107,-0.0666520578268022,-0.283142242472312,-0.483998390946239,0.233161408482256,0.233161408483156,-0.889456533404669,0.889456533403143,-0.737822673526419,-0.0566597245870653,0.420123276995405,0.469983063831647,-0.890628023066628,0.0379359032738576,-0.972157760149835,-1.20478664730782,1.35417633601605,1.35417633601363,0.0634039529132636,-1.26359107682493,-0.421117269676848,-0.581935705515702,-1.48828288930397,-1.31207032709019,0.0734456139633593,0.216872544091903,0.216872544093487,0.413400174257414,-0.413400174257769,0.244374438495851,1.53600000000006,102,895.358823529412,391.246568627451,1817.63235294118,881.235294117647,909.482352941177,387.985294117647,394.507843137255,1851.66666666667,1783.59803921569,0
1018.7776,0.325378753968371,1.08351629197298,1.55332443677999,-1.34122946647887,-0.666926108709562,-0.666926108709736,-0.00996520516593282,0.539132493524669,0.296104294755969,2.21826459732229,-0.880786499535037,2.21826459732182,1.11543265663745,0.0436418057607338,1.24009043903474,1.78822456422633,-0.265985150331174,2.04487800146455,0.795742651151746,-0.941410695464286,0.795742651150217,-0.393346343558786,-0.0197717414590389,-0.247447900442925,-0.475574632878494,0.272514634473754,0.272514634474686,-0.906238431263327,0.906238431261794,-0.761359297378651,-0.100936982349442,0.462721787892264,0.456391052141106,-0.906773938853463,0.0616616618560113,-0.971717654625484,-1.2024891275707,1.3678614832403,1.36786148323788,0.0204314057953853,-1.25975507276926,-0.468735075952283,-0.638944417732598,-1.45801938246588,-1.35613366418172,0.0805478969578442,0.204349859914401,0.204349859915986,0.389825003680864,-0.38982500368122,0.258120416921392,1.63840000000005,102,895.072549019608,390.61862745098,1771.94607843137,879.746078431373,910.399019607843,404.977450980392,376.259803921569,1809.72549019608,1734.16666666667,0
1018.88,0.331229608864412,1.07618374235566,1.5536563046969,-1.33995122344776,-0.654344115128008,-0.654344115128103,-0.0174372713504683,0.561609988579378,0.304682533366581,2.20802728213626,-0.875514379515509,2.20802728213578,1.07719834148373,0.0674900838363017,1.21502393519415,1.76626180011886,-0.225271657743565,2.03721324750962,0.7817444086628,-0.91491382089133,0.781744408661256,-0.381922205313559,0.0285017368489102,-0.209786106207629,-0.466727052282144,0.311810833750855,0.311810833751825,-0.922114985956271,0.92211498595473,-0.784373077647175,-0.145537140459112,0.505257045675524,0.442201478865337,-0.922458078257655,0.0856783666749072,-0.970529948284934,-1.19831961740347,1.38000413844125,1.38000413843883,-0.0222562702607378,-1.25501443675419,-0.515673915050891,-0.695249456845685,-1.42625922055118,-1.3987558140415,0.0882469966317753,0.19154763319324,0.191547633194829,0.365850850641478,-0.365850850641833,0.271404141088841,1.74080000000004,103,947.482524271845,558.433495145631,1587.79611650485,939.297087378641,955.667961165049,579.384466019418,537.482524271845,1626.7572815534,1548.83495145631,0
1018.9824,0.336364377160323,1.06790423915443,1.55204928041498,-1.33701292710598,-0.639791479566084,-0.639791479566094,-0.0243207132631596,0.583687305103598,0.313351253649716,2.19571674930604,-0.87028416049427,2.19571674930554,1.03762128777282,0.0907270524198315,1.18808010796988,1.74371739195497,-0.185913196479095,2.02821160735721,0.767559806899786,-0.888404242620708,0.767559806898231,-0.368744900133847,0.0781037802703506,-0.170228904485301,-0.457486185804586,0.351012994539387,0.351012994540393,-0.937029298327815,0.937029298326268,-0.806866062838869,-0.190359664761305,0.547642101755047,0.427458234465407,-0.937605729426435,0.109935000558325,-0.968550597175084,-1.19230472041038,1.39057245166274,1.39057245166035,-0.0645939984802768,-1.24938629944588,-0.561866097930524,-0.750726943863541,-1.39305350434885,-1.43983399344191,0.0965412640292085,0.178531340247689,0.178531340249281,0.341520870606929,-0.341520870607284,0.284245638043766,1.84320000000002,102,944.882843137255,552.724509803922,1354.45588235294,934.818627450981,954.947058823529,581.4,524.049019607843,1398.1862745098,1310.72549019608,0
1019.0848,0.340773386700912,1.05864434833453,1.54845592864971,-1.3324415651226,-0.623287003399087,-0.623287003399013,-0.0305463623254146,0.605383981142161,0.322158302513458,2.18135428751113,-0.865037764430666,2.18135428751062,0.99680987438381,0.113284227595832,1.15932940270822,1.72065725265816,-0.148028833209809,2.01789753753941,0.753246064783285,-0.861897582754027,0.753246064781722,-0.353870675461252,0.128962630523204,-0.128855719655792,-0.447882967792698,0.390081401952508,0.390081401953547,-0.950927235405763,0.950927235404207,-0.828842572362795,-0.235301307174282,0.589786788856214,0.412205232480614,-0.952142353456876,0.13437653111288,-0.965738900223545,-1.18447894279322,1.39953810181331,1.39953810181096,-0.106515632539264,-1.24289028884964,-0.607243688603509,-0.805254390018629,-1.35845890263895,-1.47926951923568,0.105425394066077,0.165367390979023,0.16536739098062,0.316880268574715,-0.316880268575067,0.296667478373721,1.94560000000001,103,940.140291262136,544.790291262136,1160.8640776699,927.319417475728,952.961165048544,580.101941747573,509.478640776699,1204.29126213592,1117.43689320388,0
1019.1872,0.344450306749156,1.04837171442297,1.54283442368967,-1.32626568381123,-0.604857013502631,-0.604857013502463,-0.0360511610187473,0.626717306304692,0.331147007598464,2.16496352983166,-0.859717605448751,2.16496352983113,0.954872339151926,0.135095015840414,1.12884341263105,1.69714281564953,-0.111730886622295,2.00629320624405,0.73885714543034,-0.835410348523161,0.73885714542877,-0.337360158545687,0.180999667104117,-0.0857529749848073,-0.437948662172246,0.428973511732256,0.428973511733339,-0.963757845745199,0.963757845743641,-0.850309105294088,-0.280256580475039,0.631598155378225,0.396486233886092,-0.965994115196378,0.158944118387078,-0.962057933529413,-1.17488459267941,1.40687674076738,1.40687674076504,-0.147954125193131,-1.23554859099845,-0.651738720579852,-0.858711311488648,-1.3225376267135,-1.51696842783259,0.114890544933881,0.152122738159606,0.152122738161207,0.29197611936172,-0.291976119362069,0.308694593763851,2.048,102,835.291176470588,407.886274509804,995.764705882353,819.596078431373,850.986274509804,442.629411764706,373.143137254902,1030.55882352941,960.970588235294,0
1019.2896,0.347392368308682,1.03705519701517,1.53514898657422,-1.31851549388918,-0.584535610834253,-0.584535610833966,-0.0407787341553522,0.647701962076836,0.340355671225348,2.14657048723217,-0.854266618842775,2.14657048723162,0.911916234563214,0.15609535028613,1.09669472620516,1.67323109610546,-0.0771245807570614,1.9934187291545,0.724443707845756,-0.808959835110343,0.724443707844188,-0.319278038040822,0.234129793459564,-0.0410136558213333,-0.427714819385508,0.467643841756293,0.46764384175739,-0.975473787897319,0.975473787895758,-0.87127424280496,-0.325118288537323,0.672980980223752,0.38034469058203,-0.979088437391167,0.18357538374714,-0.957474962922367,-1.16357163786476,1.41256843107374,1.4125684310714,-0.18884171447581,-1.22738601141649,-0.695283433695756,-0.910979833160087,-1.2853573804086,-1.55284207166614,0.124924500476354,0.138864482962197,0.138864482963801,0.266857171885359,-0.266857171885706,0.320354053654615,2.15039999999999,102,759.549019607843,276.11862745098,878.151960784314,747.873529411765,771.224509803922,320.360784313726,231.876470588235,890.735294117647,865.56862745098,0
1019.392,0.349600565223829,1.02466501424584,1.52537030355428,-1.30922299939322,-0.562364856319555,-0.562364856319165,-0.0446799153537355,0.668349675881477,0.349817095941859,2.12620360012681,-0.848628283886632,2.12620360012623,0.868047871574312,0.17622438388687,1.06295680078527,1.64897480769199,-0.0443077372448833,1.97929245444788,0.710053096892272,-0.782564004477345,0.710053096890701,-0.29969275136364,0.288261900650428,0.00526317327448156,-0.417213256566747,0.506043885305145,0.506043885306257,-0.986031763238487,0.986031763236921,-0.891748548927296,-0.369778109520258,0.71383836088811,0.363823602377269,-0.991354566216103,0.208204729863756,-0.951961829249358,-1.15059752636906,1.41659806135302,1.4165980613507,-0.229110123896724,-1.21843003459557,-0.73781052616512,-0.961945271475641,-1.24699128589118,-1.58680768253377,0.135511872799569,0.125659486512156,0.125659486513758,0.24157364171706,-0.241573641717405,0.331674792485123,2.25280000000009,103,741.833577820173,270.939077592266,796.910560706612,732.13335051694,751.533805123406,311.822476157746,230.055679026787,798.508921155884,795.31220025734,0
1019.4944,0.35107982720597,1.0111728996944,1.51347592057667,-1.29842214288406,-0.538394885013226,-0.538394885012748,-0.047713229133389,0.688668891410711,0.359558142858218,2.10389380582272,-0.842746640275351,2.10389380582212,0.823371765649031,0.195425216000743,1.02770386165884,1.62442252439724,-0.013370505744194,1.96393128468799,0.695729365202848,-0.756241340971324,0.695729365201273,-0.278676176921426,0.343299380321568,0.0529728799987829,-0.40647606034747,0.544122052610156,0.544122052611284,-0.995392937024223,0.995392937022657,-0.911744471875542,-0.414127218903924,0.754072360247788,0.346965388885788,-1.00272413461817,0.232763699396176,-0.945495300859093,-1.13602697438253,1.41895572178711,1.41895572178482,-0.268690771545845,-1.2087108761864,-0.779253413966862,-1.01149668833054,-1.20751778309078,-1.61878889254148,0.146634339248744,0.112573997008325,0.112573997009927,0.216176991621336,-0.216176991621678,0.342687284499989,2.35520000000008,102,683.177648203433,240.361591054483,745.319010555496,683.384513274336,682.97078313253,274.393362831858,206.329819277108,745.66814159292,744.969879518072,0.735294117647059
1019.5968,0.351839159263547,0.99655227587907,1.4994506096015,-1.28614896164747,-0.512683944326849,-0.512683944326282,-0.0498453198589818,0.708664464489568,0.369599332629629,2.0796746205237,-0.836566297829113,2.07967462052308,0.77799010010726,0.213645630763221,0.991010827985273,1.59961888172742,0.0156048660400752,1.94735102801505,0.681513322128392,-0.730010688325905,0.681513322126819,-0.256303330706779,0.399140660190939,0.10200578755154,-0.395535609792238,0.581823647358457,0.58182364735959,-1.00352333122814,1.00352333122657,-0.931276244335134,-0.458056938096735,0.793584698182786,0.329811780542916,-1.01313171399439,0.257181362379297,-0.938057390457688,-1.11993172266522,1.4196370313536,1.41963703135131,-0.307514985972649,-1.19826152100394,-0.819546492433323,-1.05952741497517,-1.1670204995239,-1.64871621002094,0.158270906753173,0.0996732934369372,0.0996732934385335,0.190719697464296,-0.190719697464637,0.353423173825854,2.45760000000007,103,622.19612254327,207.663828766393,695.990635106799,632.739233038348,611.653012048193,235.116814159292,180.210843373494,695.174041297935,696.807228915663,0.611650485436893
1019.6992,0.351891745468546,0.980778442138499,1.48328670170362,-1.27244174933752,-0.48529835570635,-0.485298355705733,-0.0510513103812664,0.728337400357628,0.379954507124256,2.0535822316039,-0.830032439622334,2.05358223160326,0.732002218869114,0.230838828720886,0.952953265986361,1.57460481146044,0.0425442194066301,1.92956677002942,0.667442603955818,-0.703891074241962,0.667442603954249,-0.232652069609034,0.455679752482136,0.152247702144248,-0.384424612071414,0.619090886448439,0.619090886449557,-1.01039417815269,1.01039417815112,-0.950359780302643,-0.501459395692945,0.832277472940961,0.312403729161731,-1.02251534529057,0.28138472759933,-0.929635630004556,-1.10239025934471,1.41864341622215,1.41864341621986,-0.345514231649382,-1.18711774042333,-0.858625400742696,-1.10593554746611,-1.12558808529703,-1.67652744950235,0.170398190311979,0.0870213445488016,0.0870213445503938,0.165254998964726,-0.165254998965064,0.36391487394583,2.56000000000006,102,568.922752409952,172.484983897067,660.324879946648,586.279446468853,551.566058351051,199.398334200937,145.571633593196,652.701023772341,667.948736120955,0
1019.8016,0.351255015067824,0.963828772445505,1.46498437969052,-1.25734121551731,-0.456312401844778,-0.456312401844078,-0.0513150736528351,0.747684652379208,0.390630571890849,2.02565559064994,-0.823090818547688,2.02565559064927,0.685504154659155,0.246964136338866,0.913607365378633,1.54941779826278,0.0673816267906721,1.91059325126045,0.653551756136469,-0.677901527742789,0.653551756134905,-0.207802801696637,0.512806823556141,0.203580449890266,-0.3731761398355,0.655862974149223,0.655862974150342,-1.01598223071319,1.01598223071162,-0.96901257110236,-0.544228190411936,0.870053893879233,0.294781330982247,-1.03081703813656,0.305299177400048,-0.920223291279414,-1.08348750792237,1.4159823441108,1.4159823441085,-0.382620350863099,-1.17531808556141,-0.896427295730387,-1.15062441365568,-1.08331400720221,-1.70216811281259,0.182990685527753,0.0746804870485065,0.0746804870500923,0.139836632281306,-0.139836632281642,0.374195150523734,2.66240000000005,102,565.689215686275,166.73431372549,701.254901960784,580.119607843137,551.258823529412,212.371568627451,121.097058823529,672.411764705882,730.098039215686,0
1019.904,0.349950666222097,0.945682919822866,1.44455192045741,-1.24089063503331,-0.425808142543158,-0.425808142542403,-0.0506294088665201,0.766699002406368,0.40162733524513,1.9959364945441,-0.815687745191188,1.99593649454341,0.638588191795295,0.261987681285609,0.873049929773754,1.52409214241523,0.0900594904791093,1.89044523181172,0.639872315041139,-0.652060892042059,0.639872315039581,-0.18183820129499,0.570408798596828,0.255882433228294,-0.361823660540729,0.692076242430588,0.692076242431673,-1.02027002707604,1.02027002707447,-0.987253589556663,-0.586259049977787,0.906819009326856,0.276983749670857,-1.03798322776432,0.328848924940819,-0.909819541353197,-1.0633144831198,1.41166752601432,1.411667526012,-0.41876583052283,-1.16290385546284,-0.932891144413764,-1.19350301287917,-1.04029629815464,-1.72559172069074,0.196021018400809,0.0627111300742999,0.0627111300758781,0.11451853278448,-0.114518532784812,0.384296698924203,2.76480000000004,103,607.160194174757,183.181553398058,765.461165048544,619.890291262136,594.430097087379,219.48932038835,146.873786407767,722.194174757282,808.728155339806,0
1020.0064,0.348004641792175,0.926323024303564,1.42200587641777,-1.22313598186775,-0.393875162447187,-0.393875162446355,-0.0489961187733291,0.785369042008483,0.41293745650179,1.96446964362356,-0.807770061994698,1.96446964362285,0.591342460911123,0.275883022109331,0.831358370335668,1.49865921720741,0.11052860075072,1.86913783063235,0.626432878123066,-0.626387633004306,0.626432878121515,-0.154842929329096,0.628370006446604,0.309029209854871,-0.350401052127003,0.727664367907519,0.727664367908555,-1.02324610182407,1.0232461018225,-1.00510321115037,-0.62745048644041,0.942480420370613,0.259049126209183,-1.04396518511879,0.351957490546929,-0.898429530433339,-1.04196791849089,1.40571910031072,1.40571910030838,-0.453884103036466,-1.14991904069628,-0.967958045852186,-1.23448643455593,-0.996637261659222,-1.74676010115828,0.209460164521822,0.0511714898118586,0.0511714898134287,0.0893544937715247,-0.0893544937718549,0.394251728292101,2.86720000000003,102,907.803921568627,293.594117647059,862.044117647059,897.617647058824,917.990196078431,325.570588235294,261.617647058824,816.529411764706,907.558823529412,0
1020.1088,0.345447053776056,0.905733919577199,1.39737118643603,-1.20412604585056,-0.360610254453524,-0.360610254452643,-0.0464259819403909,0.803679272981868,0.424546516977657,1.93130266902472,-0.799285097179548,1.93130266902399,0.543850565128276,0.28863172102317,0.788610694405755,1.47314771722543,0.128748154204165,1.84668683519072,0.613259154273884,-0.600899641144103,0.613259154272336,-0.12690336419309,0.686572856121221,0.362894085612456,-0.338942601544613,0.762558675197595,0.762558675198585,-1.02490512986849,1.02490512986691,-1.02258315426992,-0.667704450454644,0.976948977061442,0.241014467006224,-1.04871938111008,0.374548195073254,-0.886064414780839,-1.01954986593757,1.39816381183176,1.3981638118294,-0.487909893149669,-1.13641024305789,-1.0015715962071,-1.27349626674159,-0.952443132072043,-1.76564364635386,0.223277635730527,0.0401173504105842,0.0401173504121426,0.0643977731969968,-0.0643977731973259,0.404091566498202,2.96960000000001,103,905.58640776699,300.230582524272,908.703883495146,892.7,918.472815533981,336.079611650485,264.381553398058,869.456310679612,947.95145631068,0
1020.2112,0.342312055754061,0.883903333491094,1.37068121042363,-1.18391253197222,-0.326117043955568,-0.326117043954629,-0.0429386125818224,0.821610336766014,0.436433223080829,1.89648612355087,-0.790180595351108,1.89648612355011,0.496191241422229,0.300223847436369,0.744885484649368,1.44758389643661,0.144685731894005,1.82310898004405,0.60037398782346,-0.575614024347106,0.60037398782192,-0.0981073484169682,0.744898528257056,0.417348707487404,-0.327482982902068,0.796688532524551,0.796688532525488,-1.02524798836259,1.02524798836101,-1.03971643447976,-0.706926979458752,1.0101394516741,0.222915511117993,-1.05220780799939,0.396544671639551,-0.872741317000015,-0.996167262642665,1.38903518804066,1.38903518803823,-0.520779622454785,-1.12242657173155,-1.03367831052062,-1.31046100345836,-0.907823690853724,-1.78222154699781,0.237441637168501,0.0296018394111825,0.0296018394127334,0.0397006488520272,-0.0397006488523541,0.41384629679001,3.072,102,691.982843137255,331.789215686274,905.127450980392,684.941176470588,699.024509803922,372.251960784314,291.326470588235,864.441176470588,945.813725490196,0
1020.3136,0.338637667940291,0.860822080457347,1.34197769178524,-1.16255014079298,-0.290505561576605,-0.290505561575621,-0.0385622127258071,0.839139357099429,0.44856973018378,1.86007343795994,-0.780404633136724,1.86007343795917,0.448438066833954,0.310658399680372,0.700261870557994,1.42199179528517,0.158317239630334,1.79842219444835,0.58779735824419,-0.550546892087606,0.587797358242664,-0.0685439450007562,0.803227663804314,0.472263649077212,-0.316057215460163,0.829981830193485,0.82998183019438,-1.02428173206667,1.02428173206509,-1.05652732464347,-0.745028822362314,1.04197117688112,0.204786588034109,-1.05439826013548,0.417871394537656,-0.858483227135745,-0.971931462507239,1.37837369634667,1.37837369634421,-0.552431867321945,-1.1080195152938,-1.0642280961183,-1.3453164456197,-0.862891841085079,-1.79648200024885,0.251919200696054,0.0196752082035908,0.0196752082051332,0.0153139336286215,-0.0153139336289476,0.42354442714991,3.17439999999999,102,123.729411764706,433.125,861.132352941177,120.110784313726,127.348039215686,488.499019607843,377.750980392157,795.254901960784,927.009803921569,0
1020.416,0.334465566659477,0.836484246587915,1.31131066447615,-1.14009662737005,-0.253891773452173,-0.253891773451124,-0.0333332408209864,0.856240351313311,0.460922049477358,1.82212085586711,-0.76990554190339,1.82212085586632,0.400659220844727,0.319943638244142,0.654819499983528,1.39639345911282,0.169626816386531,1.77264582458525,0.575546372876989,-0.525713140838328,0.575546372875465,-0.038303182116097,0.861441034441916,0.527508991324079,-0.304700608363592,0.86236551185887,0.862365511859771,-1.02201949817086,1.02201949816927,-1.07304131394318,-0.781926019721991,1.07236863500912,0.186660481006129,-1.05526457521542,0.438454213791873,-0.843318854930291,-0.946957737361337,1.36622685333664,1.36622685333409,-0.582807839050999,-1.09324278833542,-1.09317474149441,-1.37800607340871,-0.817763147452549,-1.8084223716588,0.26667629899521,0.0103846232092774,0.0103846232108157,-0.00871352607782463,0.00871352607750044,0.433212587447083,3.27680000000009,103,91.7233009708738,456.207281553398,811.655339805825,86.4378640776699,97.0087378640777,509.415533980583,402.999029126214,739.368932038835,883.941747572816,0
1020.5184,0.329840850322079,0.810887370740411,1.27873832420407,-1.11661283619755,-0.216397074051766,-0.216397074050691,-0.027296025005609,0.872884662000548,0.473450495756398,1.78268736354003,-0.758631862058256,1.78268736353921,0.352917311177592,0.328097329509869,0.608638517890269,1.37080915266402,0.178606718205358,1.74580083962231,0.563635275864577,-0.501126257221497,0.563635275863057,-0.00747576402843912,0.919420182652042,0.58295490402921,-0.293448702037387,0.893766122867113,0.893766122868018,-1.01848036621994,1.01848036621835,-1.08928506201429,-0.817540424804971,1.1012619892967,0.16856830701904,-1.05478683681528,0.45822087695512,-0.827282448519415,-0.921364759194627,1.35264926330543,1.35264926330279,-0.61185184335011,-1.07815215093952,-1.1204763709653,-1.4084813644362,-0.772555350609978,-1.81804928911536,0.281677941715833,0.00177398497607692,0.0017739849776084,-0.0323353434709376,0.0323353434706169,0.442875250488544,3.37920000000008,102,46.2911764705882,484.26862745098,770.161764705882,39.1088235294118,53.4735294117647,531.473529411765,437.063725490196,696.009803921569,844.313725490196,0
1020.6208,0.324811785850093,0.784032626609507,1.24432687438206,-1.09216270963986,-0.17814773860747,-0.178147738606359,-0.0205023284799502,0.889041387474038,0.486110160096551,1.74183462591754,-0.746532340710683,1.7418346259167,0.305269268137632,0.335146896987433,0.561799555804638,1.34525757544191,0.185257184464449,1.7179100305845,0.552075490813862,-0.476798151492332,0.552075490812343,0.0238472586903352,0.977048028705607,0.6384722305289,-0.282337212765752,0.924110355961959,0.924110355962897,-1.01368918481007,1.01368918480847,-1.10528634599788,-0.851800157063905,1.12858755166786,0.150539419565665,-1.05295153814846,0.477101524781016,-0.810413589995736,-0.895274072121826,1.33770258464885,1.33770258464611,-0.639511688629494,-1.06280519854216,-1.14609582925102,-1.4367020425161,-0.727387860928468,-1.82537865559645,0.296888251335659,-0.00611621081303558,-0.00611621081150843,-0.0555080530973064,0.0555080530969878,0.452554472880811,3.48160000000007,103,57.4873786407767,478.818932038835,737.266990291262,51.5184466019418,63.4563106796117,534.571844660194,423.066019417476,666.330097087379,808.203883495146,0
1020.7232,0.319429533320479,0.755925009917834,1.20815034799841,-1.06681326787343,-0.139274328425322,-0.139274328424177,-0.0130108509931291,0.904677815053772,0.498851418215883,1.69962693519798,-0.733555970861453,1.69962693519713,0.257766312896362,0.341129472618693,0.514383732714434,1.31975608236543,0.189586290749261,1.68899820941429,0.540875708474363,-0.452739023457035,0.540875708472846,0.0555748495358299,1.03420945296615,0.693933074860815,-0.271401982524578,0.953325592172844,0.953325592173822,-1.00767635801181,1.00767635801021,-1.121073997746,-0.884639981188819,1.15428818062728,0.132601336564001,-1.04975170651089,0.495029155481512,-0.792756971379076,-0.868809554873761,1.32145543364609,1.32145543364325,-0.66573903099542,-1.04726112109244,-1.17000098171502,-1.46263625273301,-0.682381233805526,-1.83043557733303,0.312270513254012,-0.0132489677181624,-0.0132489677166378,-0.078191517864656,0.0781915178643411,0.462269651201201,3.58400000000006,102,67.4122549019608,485.708333333333,717.892156862745,66.8333333333333,67.9911764705882,532.547058823529,438.869607843137,646.529411764706,789.254901960784,0
1020.8256,0.313747847522479,0.726573529873079,1.17029040278993,-1.04063456039324,-0.0999110460613869,-0.0999110460602104,-0.00488665318049087,0.919759859874077,0.511620483106422,1.65613117163055,-0.719652069375297,1.65613117162968,0.210454000306442,0.34609184215512,0.46647266392691,1.29432091105905,0.191609787563139,1.65909240947613,0.530042022883653,-0.428957258265598,0.530042022882138,0.0876163618872015,1.09079185883198,0.749211385778511,-0.260678934632084,0.981340435472317,0.98134043547334,-1.00047758202502,1.00047758202342,-1.13667782847814,-0.916001606343653,1.17831360243325,0.114779692865232,-1.04518698826601,0.511940052412863,-0.774362154872411,-0.842096868994549,1.30398322504713,1.30398322504418,-0.690489656006557,-1.03158043476603,-1.19216493160407,-1.48626066318104,-0.637656630993848,-1.83325420991016,0.327787199827123,-0.0195908469826154,-0.0195908469810939,-0.100349259325731,0.100349259325421,0.472037295978328,3.68640000000005,102,78.9411764705882,480.539705882353,710.774509803922,80.678431372549,77.2039215686275,532.417647058824,428.661764705882,639.274509803922,782.274509803922,0
1020.928,0.307822758130127,0.695991398599766,1.13083608553424,-1.01369959031511,-0.0601950434312795,-0.0601950434300598,0.00379948435242572,0.934252495279624,0.524359987796462,1.61141676769796,-0.70477039718838,1.61141676769707,0.163372328974925,0.350090285720369,0.418148470762011,1.26896741055865,0.191350919824297,1.62822207882503,0.519578107635968,-0.405459352335058,0.519578107634453,0.119881924558826,1.14668570529217,0.804183527164059,-0.25020403505682,1.00808523112152,1.00808523112259,-0.992133533699137,0.992133533697531,-1.15212854018522,-0.945833905563146,1.20062065377018,0.0970982150203206,-1.03926369304539,0.527774167171048,-0.755283322200836,-0.815262890575648,1.28536793772364,1.28536793772056,-0.713723704717254,-1.01582469251072,-1.21256616534126,-1.50756049578318,-0.593335274151499,-1.83387752775751,0.34339998013665,-0.0251120041486652,-0.0251120041471482,-0.121948696310686,0.121948696310377,0.481870833227948,3.78880000000004,103,48.8577669902913,479.297572815534,705.781553398058,49.9864077669903,47.7291262135922,524.694174757282,433.900970873786,635.349514563107,776.21359223301,0
1021.0304,0.301712229843406,0.664196211001031,1.08988355951862,-0.986084211260232,-0.0202656878008709,-0.0202656877996152,0.0129717391344596,0.94812015637532,0.537009572955327,1.56555566468194,-0.688861325911633,1.56555566468102,0.116555908915825,0.35319032070781,0.369493785500766,1.24371026225382,0.188840223173027,1.59641925325289,0.509485417013489,-0.382249871176102,0.509485417011974,0.152282838393054,1.2017849915981,0.858728824438566,-0.24001325781632,1.03349255664106,1.03349255664221,-0.982689523027098,0.982689523025492,-1.16745762426136,-0.974093063767093,1.22117345198906,0.079578712952743,-1.03199479422267,0.542475452850363,-0.735579013837739,-0.788435130875648,1.26569779930657,1.26569779930338,-0.735405854534912,-1.0000561782759,-1.23118863979957,-1.52652949104612,-0.549537894045353,-1.83235702366508,0.359069732271968,-0.0297862132709051,-0.0297862132693929,-0.142961289570858,0.142961289570552,0.491780440837331,3.89120000000003,102,63.2774509803922,474.470098039216,700.813725490196,68.0019607843137,58.5529411764706,521.010784313726,427.929411764706,636.754901960784,764.872549019608,0
1021.1328,0.295475802142345,0.631210110828762,1.04753579036145,-0.957866994852266,0.0197362123938244,0.0197362123951163,0.0225499441025853,0.961327113248135,0.54950646777485,1.51862225677908,-0.671876049338146,1.51862225677814,0.0700341806413428,0.355466355066139,0.320591750468971,1.21856368673705,0.184115298171699,1.56371870194006,0.499763400418036,-0.35933143730801,0.499763400416524,0.184731978100368,1.2559876873622,0.912730079238569,-0.23014255218068,1.0574976832981,1.05749768329934,-0.972195124219641,0.972195124218037,-1.18269724546038,-1.00074266912651,1.23994350372423,0.0622410795249463,-1.02339988578812,0.5559921491721,-0.715311856922784,-0.761741153363126,1.24506689686728,1.24506689686399,-0.755505462759464,-0.984337587423894,-1.24802182152463,-1.54316981389417,-0.506384176090465,-1.82875234599239,0.374756565122621,-0.0335908784451924,-0.0335908784436842,-0.163362606432586,0.163362606432283,0.5017729211096,3.99360000000002,103,72.3427184466019,481.532038834951,691.902912621359,75.3932038834952,69.2922330097087,524.753398058252,438.310679611651,631.543689320388,752.26213592233,0
1021.2352,0.289174209937363,0.597059941674698,1.00390219058908,-0.929129066898489,0.0596692221252999,0.0596692221266079,0.0324503087612048,0.973837829260564,0.561786075255037,1.47069332559701,-0.653766833566295,1.47069332559604,0.0238316848644515,0.357001256176029,0.271526013939289,1.19354163687239,0.177220566165759,1.53015804784744,0.490409727785769,-0.33670474235246,0.490409727784254,0.217144186060357,1.30919611310894,0.966074047637296,-0.220627808951747,1.08003901486841,1.08003901486972,-0.960703795659394,0.960703795657792,-1.19788010569977,-1.02575376079222,1.25690976192265,0.0451032906973026,-1.01350510137664,0.568277027498073,-0.69454828205884,-0.7353079889957,1.2235747264364,1.22357472643296,-0.77399667577993,-0.968731696279645,-1.26306068246187,-1.55749190746723,-0.463992203761653,-1.82313088138364,0.390419841266096,-0.0365070279903797,-0.0365070279888807,-0.183132327482573,0.183132327482272,0.511851608867826,4.096,102,84.0058823529412,475.549509803922,677.382352941176,86.4245098039216,81.5872549019608,521.802941176471,429.296078431373,622.480392156863,732.28431372549,0
1021.3376,0.282868989226921,0.561777380973273,0.959098226539278,-0.899953912215502,0.0993921306423421,0.0993921306436543,0.0425861779966343,0.985617321921339,0.573782579031652,1.42184796865396,-0.634487300922233,1.42184796865297,-0.022031616387545,0.357885838241675,0.222380725731088,1.16865798076144,0.168207008517267,1.49577786810711,0.481420529205878,-0.314368577942491,0.481420529204367,0.249436648035087,1.3613172794722,1.01865188114728,-0.211504822874561,1.10105851006956,1.10105851007094,-0.948272493112555,0.948272493110959,-1.21303928347391,-1.04910483662245,1.27205863551661,0.0281814061395053,-1.00234300272608,0.579287605054965,-0.673358229861692,-0.709261545775541,1.20132568855815,1.20132568855459,-0.790858504699145,-0.953301025945871,-1.27630565507198,-1.56951429932258,-0.422477903456613,-1.81556728926828,0.406018190023947,-0.0385192915191394,-0.038519291517647,-0.202254208317366,0.202254208317072,0.522016316209125,4.19839999999999,102,93.4274509803921,473.328921568627,661.808823529412,94.1921568627451,92.6627450980392,515.450980392157,431.206862745098,614.068627450981,709.549019607843,0
1021.44,0.276622071433492,0.525399051626686,0.913244986987468,-0.870427151344135,0.13876482546968,0.138764825471,0.0528688224818943,0.996631522841146,0.585429566555666,1.37216751814758,-0.613992749850267,1.37216751814657,-0.0675399725309131,0.358218272196622,0.173240529529851,1.14392667563458,0.157131887326344,1.46062177478036,0.472790649172565,-0.292319884631897,0.472790649171052,0.281529249281408,1.41226319024357,1.07035953292612,-0.202809250581579,1.12050208395365,1.12050208395509,-0.934961277414933,0.934961277413338,-1.22820805191137,-1.07078181629059,1.28538394924522,0.0114895743101338,-0.989952441454214,0.588986330712592,-0.651814849799233,-0.683726010521291,1.17842852372649,1.17842852372281,-0.806074869165229,-0.938107507067754,-1.28776255147884,-1.57926336358684,-0.381954494715392,-1.80614299366504,0.421509516745682,-0.0396158689494144,-0.039615868947933,-0.220715995984259,0.22071599598397,0.532263318628409,4.3008000000001,103,103.472330097087,478.526213592233,658.961165048544,105.333980582524,101.61067961165,515.110679611651,441.941747572816,613.427184466019,704.495145631068,0
1021.5424,0.270495369107833,0.487966602288535,0.866468707892443,-0.840636294963095,0.177649170685337,0.177649170686677,0.0632082248000162,1.00684761079368,0.596660634950639,1.32173544030782,-0.59224051663405,1.3217354403068,-0.112681442214873,0.358103422217238,0.124190542636131,1.11936192989032,0.144058444125855,1.42473647097647,0.464513909370591,-0.270553820585961,0.464513909369076,0.313344916768941,1.46195110765259,1.12109813155774,-0.194576566827835,1.13831997350981,1.13831997351131,-0.920832915985796,0.920832915984206,-1.2434196850342,-1.09077795582458,1.29688684984654,-0.00495995675553671,-0.97637839232324,0.597340736334403,-0.629994193950514,-0.658823249090774,1.15499567426424,1.15499567426043,-0.819634612513558,-0.923212151492522,-1.29744245251937,-1.58677304422359,-0.342531948418856,-1.79494563885569,0.436851032343434,-0.0397885042696303,-0.0397885042681582,-0.238509294770976,0.238509294770692,0.542585387656587,4.40320000000008,102,108.549509803922,478.350980392157,668.529411764706,110.064705882353,107.03431372549,519.71568627451,436.986274509804,620.460784313726,716.598039215686,0
1021.6448,0.264550358962962,0.449526746892196,0.81890025160026,-0.810670481970545,0.215909870101353,0.215909870102737,0.0735138201446003,1.01623429364741,0.607409944036742,1.27063720948412,-0.569190378764968,1.27063720948308,-0.157447462997339,0.357652108486409,0.0753163154617502,1.09497835117946,0.129055573930528,1.38817177856158,0.456583371316687,-0.249063849456089,0.45658337131517,0.344809953786089,1.51030377439359,1.17077432265494,-0.186842021832206,1.15446705647812,1.15446705647967,-0.905952475875578,0.905952475873988,-1.25870726166721,-1.10909371619728,1.30657565937009,-0.0211568261138882,-0.961671751578151,0.604323548902718,-0.607974902231528,-0.634672216806462,1.13114256824317,1.13114256823923,-0.831531491656745,-0.908674733470788,-1.30536157165849,-1.59208454643804,-0.304316454524994,-1.78206851689194,0.451999325876627,-0.0390324707108106,-0.0390324707093513,-0.255629374925539,0.255629374925264,0.552971869270324,4.50560000000007,103,154.708252427185,468.079611650486,680.917475728155,154.804854368932,154.611650485437,516.632038834952,419.527184466019,633.52427184466,728.310679611651,0
1021.7472,0.258847672538801,0.410131256950041,0.770674547714384,-0.780620205846731,0.253415294414296,0.253415294415698,0.0836951722165485,1.02476203601987,0.617612704415381,1.21896016058492,-0.544804989566094,1.21896016058387,-0.201832392151286,0.35698029490571,0.0267037706972836,1.07079108314916,0.112197474356036,1.35098064049615,0.448991593392247,-0.227841843517022,0.448991593390733,0.37585436628281,1.55724959187041,1.21930057755661,-0.179640599757694,1.16890312494643,1.16890312494804,-0.890386909440026,0.890386909438433,-1.27410347076615,-1.12573659339486,1.31446568164821,-0.0370925477924981,-0.945889094649301,0.609912767030336,-0.585837869832505,-0.611388388455386,1.10698683693346,1.10698683692941,-0.841764145044599,-0.894553479059234,-1.3115410970424,-1.5952460035686,-0.267409900907017,-1.76760997523858,0.466910486551038,-0.0373465613771693,-0.0373465613757186,-0.272074920367275,0.272074920367008,0.563408801504087,4.60800000000006,102,187.306862745098,468.850490196078,679.5,189.71568627451,184.898039215686,518.526470588235,419.174509803922,635.254901960784,723.745098039216,0
1021.8496,0.253446703471507,0.369836904874131,0.721930005915755,-0.750577030863065,0.290038249832782,0.290038249834214,0.0936625926947082,1.03240324910401,0.627205614283342,1.16679333050773,-0.519050326713686,1.16679333050665,-0.245833017964393,0.356208210549095,-0.0215608711067641,1.04681593660641,0.0935632733972657,1.3132191064594,0.44173088246481,-0.20687819665857,0.4417308824633,0.406412174936345,1.60272276138326,1.26659546982572,-0.173006975646925,1.18159312656742,1.18159312656906,-0.874204642156434,0.874204642154836,-1.28964041434143,-1.14072091873249,1.32057897247273,-0.0527604997611242,-0.929092391995004,0.614091713251384,-0.563665886556806,-0.589083210919375,1.08264748833041,1.08264748832624,-0.85033604171387,-0.880904759120248,-1.31600701334308,-1.59631212399091,-0.231909364341961,-1.75167280970674,0.481540262916662,-0.034733068540542,-0.0347330685391054,-0.287847725903302,0.287847725903043,0.57387906173533,4.71040000000005,102,196.424019607843,469.882843137255,665.843137254902,200.209803921569,192.638235294118,517.886274509804,421.879411764706,625.843137254902,705.843137254902,0
1021.952,0.248405233907377,0.328705361669976,0.672807907602605,-0.720633295005246,0.325656671854626,0.325656671856088,0.103327733396454,1.03913246683471,0.636127274031295,1.11422730004665,-0.491896135872768,1.11422730004556,-0.289448045724709,0.355459425210515,-0.0693911700879014,1.02306951811184,0.0732366436552836,1.27494630904223,0.434793543824885,-0.186161940762733,0.434793543823381,0.436421708690512,1.64666339645247,1.31258392224701,-0.166975466187607,1.19250739346849,1.19250739347014,-0.857475176176142,0.857475176174532,-1.30534939873762,-1.15406763684876,1.32494408702945,-0.0681559077397629,-0.911348684251946,0.616849077771958,-0.541543237079845,-0.567863575459471,1.05824406213386,1.05824406212957,-0.857255414540262,-0.867782780151185,-1.31878990469878,-1.59534381733016,-0.197906613016381,-1.73436364164958,0.495844233935399,-0.0311977331112507,-0.0311977331098309,-0.302952370693845,0.302952370693595,0.58436253140101,4.81280000000004,103,207.529611650485,473.595145631068,652.723300970874,214.445631067961,200.61359223301,515.322330097087,431.867961165049,616.097087378641,689.349514563107,0
1022.0544,0.243779075819645,0.286803054838762,0.623451776644044,-0.690881793959113,0.360154239341701,0.360154239343182,0.112604180242911,1.04492652241883,0.644318602008892,1.06135403955467,-0.46331635800644,1.06135403955358,-0.332677567806925,0.354859899215001,-0.11670054608218,0.999569351312599,0.0513054103416417,1.2362244282339,0.428172129978395,-0.165680861234343,0.428172129976896,0.465825877623995,1.6890176078858,1.35719742407046,-0.161579968946992,1.20162187340206,1.20162187340369,-0.840268718551493,0.840268718549871,-1.32126070713541,-1.16580406519924,1.32759581566286,-0.0832758151562123,-0.892729716866963,0.618178962798812,-0.51955525517374,-0.547831303669179,1.03389578167719,1.03389578167278,-0.862535180132504,-0.855239270339841,-1.31992474052198,-1.59240779560068,-0.165487621030683,-1.71579227514952,0.509777971243823,-0.0267496567882949,-0.0267496567868945,-0.31739589274224,0.317395892741999,0.594836268915642,4.91520000000003,102,219.866666666667,466.078921568627,651.279411764706,224.122549019608,215.610784313726,517.967647058824,414.190196078431,612.294117647059,690.264705882353,0
1022.1568,0.239621718217167,0.244200990209102,0.574006720943169,-0.661415442565849,0.393420911861958,0.393420911863455,0.121408048296922,1.04976471323709,0.651723244361291,1.00826674751899,-0.433289543224822,1.00826674751788,-0.375522535679151,0.354537019960007,-0.163402368849751,0.976333978936963,0.0278611541146525,1.19711863004638,0.421859680200689,-0.145421616387292,0.421859680199196,0.494572422526312,1.72973754870433,1.4003742087037,-0.15685388614623,1.20891835385701,1.20891835385861,-0.822655836765643,0.822655836764001,-1.33740335649792,-1.17596363731674,1.32857491125061,-0.098119038485978,-0.873311533277271,0.618080915653704,-0.49778784009456,-0.529082645591812,1.00972069950233,1.00972069949781,-0.866192843544905,-0.843323164178799,-1.31945064339253,-1.58757614457799,-0.134732102030087,-1.69607103279244,0.523297197324434,-0.0214011852070655,-0.0214011852056795,-0.331187475115468,0.331187475115237,0.605274694695955,5.01760000000002,103,230.290291262136,464.898058252427,651.587378640777,234.62427184466,225.956310679612,523.45145631068,406.344660194175,611.932038834951,691.242718446602,0
1022.2592,0.235983970730602,0.200974538440812,0.524618732761991,-0.63232691346968,0.425353397275412,0.425353397276926,0.129658542174372,1.05362892438103,0.658287943254665,0.955059664187646,-0.401799262028427,0.955059664186519,-0.417984258008947,0.354618632474854,-0.209410080730291,0.953383031668853,0.00299880543055349,1.15769696101523,0.41584993726088,-0.125369873142975,0.415849937259394,0.522614141321615,1.76878139479588,1.44205937651955,-0.152830031844918,1.21438464930967,1.21438464931121,-0.804707141392696,0.804707141391038,-1.35380485206283,-1.18458563417308,1.32792780355448,-0.112686121040472,-0.853174027384761,0.616559922999402,-0.4763269576701,-0.511707798057264,0.985834823734574,0.985834823729964,-0.868250380936942,-0.832080292918059,-1.31741063402542,-1.58092586298795,-0.105713076226038,-1.67531407439033,0.536357964047086,-0.0151677753470964,-0.0151677753457279,-0.344338148378806,0.344338148378585,0.615649804922044,5.12000000000001,102,239.278921568627,467.022549019608,652.754901960784,248.122549019608,230.435294117647,516.103921568628,417.941176470588,609.980392156863,695.529411764706,0
1022.3616,0.23291359837065,0.157203187630958,0.475433942270605,-0.603708253428347,0.455855559695247,0.455855559696766,0.137278442374503,1.05650369015559,0.663962830873187,0.901827848499748,-0.368834518800209,0.901827848498609,-0.460063943530176,0.355232067694962,-0.254637369429038,0.930737254109622,-0.0231837696372803,1.11803018667835,0.410137530133778,-0.105510468063293,0.410137530132297,0.549909094887561,1.80611324518486,1.482204954006,-0.149540523085596,1.21801472686361,1.21801472686509,-0.786492994206581,0.786492994204911,-1.37049095348408,-1.19171490829699,1.32570629171698,-0.126979304374255,-0.832400460912954,0.613626345481712,-0.455258148602302,-0.495790455204333,0.962351220665708,0.962351220661004,-0.868734092758444,-0.821553088721563,-1.31385134790339,-1.57253837091747,-0.0784964860586237,-1.65363670741272,0.548916869253641,-0.00806785201884418,-0.00806785201749104,-0.356860516861181,0.356860516860967,0.625931430743317,5.22239999999999,102,253.663235294118,468.478921568627,663.81862745098,261.549019607843,245.777450980392,514.805882352941,422.151960784314,617.460784313726,710.176470588235,0
1022.464,0.23045494767236,0.112970266359583,0.426597829072963,-0.575650476234534,0.484838777494926,0.484838777496486,0.144194504663507,1.05837619544925,0.668701643382829,0.848666918463209,-0.334390160609959,0.848666918462062,-0.501762292521487,0.356503168527258,-0.29899839505822,0.908418485040923,-0.0505861861319622,1.07819157343979,0.404718119367688,-0.085827591742404,0.404718119366207,0.576420788165746,1.84170295068442,1.52076989240939,-0.14701665417767,1.21980876571146,1.21980876571289,-0.768083239023906,0.768083239022222,-1.38748545984714,-1.19740160147955,1.32196720759733,-0.141002528371985,-0.811076955743962,0.60929579098567,-0.434666056756272,-0.481407397434055,0.939379104389831,0.939379104385013,-0.867674422701391,-0.811780308980558,-1.30882272065551,-1.5624989924908,-0.0531408693118394,-1.63115469853809,0.560931311038295,-0.000122648975058267,-0.000122648973722464,-0.368768519208619,0.368768519208414,0.636087548691517,5.3248000000001,103,305.73786407767,466.880582524272,692.271844660194,314.504854368932,296.970873786408,517.332038834952,416.429126213592,641.097087378641,743.446601941748,0
1022.5664,0.228648568302466,0.0683626438698904,0.378254404089637,-0.548243128714508,0.512222257808941,0.5122222578105,0.150337789469586,1.05923623708002,0.672461875157027,0.795672765524649,-0.298467266328739,0.795672765523495,-0.543079127004338,0.358555315299962,-0.342408059606534,0.886449598003976,-0.0791059518410941,1.03825662468288,0.399588510943911,-0.066304987385455,0.399588510942434,0.602118312632204,1.87552590338546,1.55772001828947,-0.145288748065096,1.21977316133307,1.21977316133445,-0.749546951921524,0.749546951919832,-1.40481000983265,-1.20170085074339,1.31677204927837,-0.154761452444545,-0.789291970821209,0.60358893939598,-0.414633978111819,-0.468628115273323,0.917022937266102,0.917022937261178,-0.86510574084798,-0.802796784090947,-1.30237764167884,-1.55089641978632,-0.0296970874783566,-1.60798359243557,0.572359768834695,0.00864397131657842,0.00864397131789905,-0.380077229390617,0.380077229390421,0.646084636232434,5.42720000000008,102,319.925490196078,471.733333333333,736.764705882353,329.783333333333,310.067647058824,522.200980392157,421.26568627451,680.323529411765,793.205882352941,0
1022.6688,0.227530836017302,0.0234704160981082,0.330545378695468,-0.521573824750945,0.537933313650716,0.537933313652292,0.155643953852433,1.05907617225096,0.675204905816922,0.742941256207576,-0.261073500582648,0.742941256206416,-0.584013046512096,0.36150845870097,-0.384782298995476,0.864854412649413,-0.108638869429392,0.998302785857725,0.394746747359638,-0.0469261558892548,0.394746747358161,0.626976437738561,1.90756282373942,1.59302795207411,-0.14438597376277,1.21792049112055,1.21792049112188,-0.730952204962734,0.730952204961041,-1.42248388380286,-1.2046724711581,1.31018659085058,-0.16826347154613,-0.767135767441471,0.596531339038541,-0.395243418858751,-0.457514457478965,0.8953815687231,0.895381568718065,-0.86106609430739,-0.794633187509259,-1.29457157930321,-1.53782216382015,-0.00820809765068595,-1.58423803813976,0.583162095613977,0.0182057205158059,0.0182057205171142,-0.390802690886219,0.390802690886032,0.655888057895731,5.52960000000007,103,331.002427184466,477.8,789.427184466019,340.460194174757,321.544660194175,527.570873786408,428.029126213592,729.058252427185,849.796116504854,0
1022.7712,0.227133581886025,-0.02161341406898,0.283609336352954,-0.495727748819169,0.5619076101485,0.561907610150095,0.160053533155435,1.0578908710836,0.676896124044041,0.690567925564934,-0.2222234247758,0.690567925563769,-0.624561106852964,0.365478172572998,-0.42603838641574,0.843657581176573,-0.139079429075254,0.958409123781436,0.390192176154516,-0.0276745652316406,0.390192176153038,0.650975653468305,1.93779955917607,1.62667300480093,-0.144336126174069,1.21426945366234,1.21426945366365,-0.712365835549722,0.712365835548019,-1.44052379741447,-1.20638060386372,1.3022804767434,-0.181517697489835,-0.744699861866482,0.588153192870933,-0.376573647264971,-0.448120296797657,0.874547428478255,0.874547428473137,-0.855596934630484,-0.787315823375091,-1.28546218627575,-1.52336999504713,0.01129124487634,-1.56003111938825,0.593299802162687,0.0285341058458649,0.0285341058471646,-0.400961763687789,0.400961763687611,0.665462458039534,5.63200000000006,102,340.564215686275,487.192647058824,844.955882352941,350.202941176471,330.925490196078,531.329411764706,443.055882352941,780.774509803922,909.137254901961,0
1022.8736,0.227483731475957,-0.0667932602714357,0.237580913816446,-0.470787147264824,0.584089378466192,0.584089378467784,0.163512216577023,1.05567767105162,0.67750504920928,0.638647657513403,-0.181938766088752,0.638647657512236,-0.66471853249865,0.370574740276405,-0.466095249041959,0.822884446826243,-0.170321193655233,0.918655975516276,0.385925486473106,-0.00853386420718353,0.385925486471624,0.674102175333537,1.96622687831319,1.65864104962083,-0.145165386098762,1.208844781648,1.20884478164925,-0.693853216737762,0.693853216736054,-1.45894369250165,-1.20689332681256,1.29312680734072,-0.194534892623186,-0.722076467003971,0.578489142343498,-0.358701235074999,-0.440491225049452,0.854605776588122,0.854605776582944,-0.848742833716024,-0.78086642827568,-1.2751088976159,-1.50763537555263,0.0287743577204551,-1.5354736890305,0.602736313824845,0.0395986639520554,0.0395986639533455,-0.410571963990971,0.410571963990803,0.674772129579605,5.73440000000005,102,507.342156862745,449.991666666667,905.81862745098,508.982352941177,505.701960784314,491.702941176471,408.280392156863,845.656862745098,965.980392156863,0
1022.976,0.228602960920117,-0.111971286546183,0.192589994373238,-0.446830837326203,0.604431578080078,0.604431578081659,0.165971100275529,1.05243632413076,0.677005436936636,0.587274349597968,-0.140248645738415,0.587274349596797,-0.70447847489971,0.376902290835912,-0.504873800311261,0.802560875123088,-0.202257178192187,0.879124566870819,0.381948706168785,0.0105119016113963,0.381948706167303,0.696347913457766,1.99284024096446,1.68892435639928,-0.146898091999831,1.20167712040982,1.20167712041105,-0.675478030228349,0.675478030226632,-1.47775454342528,-1.20628223768858,1.2828017219491,-0.20732736280966,-0.699357932240927,0.567578048513379,-0.341699598983735,-0.434664304778084,0.835634015231257,0.835634015226031,-0.840551196418818,-0.775301990495439,-1.26357253153073,-1.49071489002256,0.0442230702182316,-1.51067371768255,0.611437183035573,0.0513672011431745,0.0513672011444543,-0.419651288847589,0.419651288847429,0.683781336491171,5.83680000000004,103,1234.6640776699,194.290291262136,940.466019417476,1228.7,1240.62815533981,204.500970873786,184.079611650485,929.621359223301,951.31067961165,0
1023.0784,0.230507382897989,-0.157047761146545,0.148760920833088,-0.423933756983188,0.622895971708323,0.62289597170989,0.167386899022534,1.04816893577105,0.675375357967331,0.536540568583119,-0.0971897613332408,0.536540568581943,-0.743831820179665,0.384558001136451,-0.542297280317333,0.782713068369028,-0.234780225487848,0.839896612365228,0.378265160941209,0.0294780756668934,0.378265160939718,0.717710393028671,2.01763954593766,1.71752138309732,-0.149556543827914,1.19280286886848,1.19280286886967,-0.657302047990752,0.657302047989028,-1.49696419363879,-1.20462202370686,1.27138398623453,-0.21990882359961,-0.676636192375391,0.55546276955522,-0.325638555170881,-0.430667899046273,0.817701078827381,0.817701078822099,-0.831071973054442,-0.770634595930703,-1.25091490062812,-1.47270568736948,0.0576277202552281,-1.48573567347178,0.619370249241562,0.063806034274704,0.0638060342759752,-0.42821803081786,0.428218030817709,0.692454589042918,5.93920000000003,102,1315.76029411765,177.829901960784,991.088235294118,1309.6,1321.92058823529,192.23137254902,163.428431372549,983.686274509804,998.490196078431,0
1023.1808,0.23320727739295,-0.201921436017973,0.106211742407209,-0.402166559789568,0.639453078284324,0.63945307828589,0.167722108971385,1.04287990390848,0.672597250950433,0.486537207064141,-0.0528065131661173,0.486537207062962,-0.78276703836426,0.393631371583255,-0.578291590708344,0.763367378621998,-0.267783381572395,0.80105391344485,0.37487940273345,0.0483791820997746,0.374879402731961,0.738192614038421,2.04062887538478,1.74443652870607,-0.153160833741946,1.18226398918649,1.18226398918767,-0.639384928566076,0.639384928564337,-1.51657722403518,-1.20199002819456,1.2589545896954,-0.232294247906713,-0.654002231880737,0.542189937344856,-0.310583891810435,-0.428521579136569,0.800866922701453,0.800866922696138,-0.820357373130802,-0.766871309223277,-1.23719843828942,-1.45370494494831,0.0689872034693113,-1.46075994784599,0.626505752497266,0.0768802272860003,0.0768802272872615,-0.43629059193044,0.436290591930298,0.700756887781527,6.04160000000002,103,1481.46601941748,126.48640776699,1022.46601941748,1478.39708737864,1484.53495145631,131.360194174757,121.612621359223,1024.18446601942,1020.74757281553,0
1023.2832,0.236706876684323,-0.246489951868704,0.0650535082760985,-0.38159524299377,0.654081993758918,0.654081993760496,0.166945128561183,1.03657586768004,0.668657958310544,0.437353148145739,-0.00715106561096149,0.437353148144557,-0.821270059100757,0.404203569005911,-0.612785612047797,0.744550130193172,-0.301160275228021,0.762677966339656,0.371797114204039,0.0672287287271998,0.371797114202547,0.757802850334294,2.06181625233448,1.76967985837352,-0.157728680315884,1.17010779534459,1.17010779534573,-0.621784031658896,0.621784031657142,-1.5365948429704,-1.19846581359068,1.24559635378049,-0.244499693802034,-0.631545565716836,0.527809737703855,-0.296596957323845,-0.428236090542325,0.785182120829482,0.785182120824124,-0.808461583038778,-0.764014094176574,-1.22248584491175,-1.43380936235126,0.0783089747944708,-1.43584233464524,0.63281641819317,0.0905538195731736,0.0905538195744261,-0.443887301465703,0.443887301465571,0.708653955340348,6.14400000000001,102,1477.1431372549,126.361274509804,1057.02941176471,1477.21078431373,1477.07549019608,136.285294117647,116.437254901961,1054.79411764706,1059.26470588235,0
1023.3856,0.241004204844937,-0.290650263768862,0.0253896134252008,-0.362280796567647,0.666770102745457,0.66677010274702,0.165030350769245,1.02926566894683,0.663548753981678,0.389074937877024,0.0397166580438859,0.389074937875841,-0.859324164539459,0.41634682586069,-0.645711501051482,0.726287451497483,-0.334805503385773,0.724849578530795,0.369024990458706,0.0860390274992572,0.369024990457207,0.77655439421793,2.08121341849996,1.79326680897953,-0.163275247633763,1.15638672783789,1.15638672783896,-0.604554253404777,0.604554253403007,-1.55701478683454,-1.19413071576923,1.2313935483172,-0.256542107438791,-0.609353736063933,0.512375697053264,-0.283734261519951,-0.429813356519196,0.770687566104461,0.770687566099066,-0.795440493290655,-0.76205977335964,-1.20683976037085,-1.41311468491718,0.0856090047405102,-1.41107356142606,0.638277524751833,0.104790042192515,0.104790042193762,-0.451026237508978,0.451026237508855,0.716112462421483,6.24639999999999,102,1473.40539215686,120.45,1077.12745098039,1475.54607843137,1471.26470588235,136.858823529412,104.041176470588,1072.95098039216,1081.30392156863,0
1023.488,0.246090962815957,-0.334299078829648,-0.0126848065788804,-0.344278876406533,0.677512721714946,0.677512721716503,0.161958230310503,1.02096031924977,0.657265360804676,0.341786459078921,0.0877290418592575,0.341786459077742,-0.896909906693023,0.430123893597743,-0.677004977104868,0.708605105800255,-0.368615018956429,0.687648482744031,0.366570593823909,0.104821035427101,0.366570593822412,0.794465249513859,2.09883563108144,1.81521787608422,-0.169812957818606,1.14115811365034,1.1411581136514,-0.587747884257214,0.587747884255419,-1.57783123303638,-1.18906739080681,1.2164315145343,-0.268439105176985,-0.587511826267479,0.495944471531824,-0.272047094163772,-0.433246519199981,0.75741425704889,0.757414257043454,-0.781351441368227,-0.761000024334153,-1.19032246863095,-1.39171525369912,0.0909116908544108,-1.38653886947801,0.642866949785354,0.119551517522848,0.119551517524089,-0.45772505779397,0.457725057793857,0.723100234147768,6.3488000000001,103,1204.10533980583,203.714077669903,1106.80097087379,1208.12912621359,1200.08155339806,228.701941747573,178.726213592233,1092,1121.60194174757,0
1023.5904,0.251952444322136,-0.377333295950909,-0.0490834414117273,-0.327639518071208,0.686312710826472,0.686312710828038,0.157715314944094,1.01167296108064,0.649807945586253,0.295568601643223,0.136810899061611,0.295568601642047,-0.934005065883074,0.445587558566439,-0.706605610317379,0.691528308838782,-0.402486511667177,0.651152938283924,0.364442178354993,0.123584215385179,0.364442178353501,0.811557775475167,2.11470146841045,1.83555827717661,-0.177351327302417,1.12448390353314,1.12448390353417,-0.5714144894679,0.571414489466084,-1.59903474072182,-1.18335936368043,1.20079629431668,-0.280208750468654,-0.566101996164776,0.478575626938389,-0.261581174793272,-0.438520040503125,0.74538316343952,0.745383163434034,-0.766252972222889,-0.760821410635368,-1.17299563610592,-1.36970358026691,0.0942497210218005,-1.36231764246773,0.646565182012275,0.134800440673023,0.134800440674259,-0.464000853327994,0.464000853327891,0.729586415187134,6.45120000000009,102,473.875490196078,452.833823529412,1130.54411764706,479.736274509804,468.014705882353,512.227450980392,393.440196078431,1080.76470588235,1180.32352941176,0
1023.6928,0.258567469800963,-0.419650437474368,-0.0837293392264457,-0.312406901478371,0.693180080774357,0.693180080775902,0.152294229227973,1.00141882042088,0.641181083891767,0.25049893120269,0.186879649998772,0.250498931201521,-0.970584661100607,0.462780232214144,-0.734457114768931,0.675081527687466,-0.436319770250912,0.615439318309159,0.362648485303557,0.142336416111262,0.362648485302062,0.827858287962983,2.12883263046589,1.8543175861407,-0.185896849073003,1.10643038070345,1.10643038070439,-0.555600813013538,0.555600813011695,-1.62061223155191,-1.17709059018831,1.18457426823451,-0.291869340063935,-0.545203043433656,0.460331398892311,-0.252376347320405,-0.445609883885655,0.734605179368745,0.734605179363217,-0.750204614731707,-0.761505449197167,-1.15492008249351,-1.34716994841799,0.0956638847495841,-1.33848308769264,0.649355292737458,0.150498745233398,0.150498745234631,-0.469870033282986,0.469870033282894,0.735541585104118,6.55360000000007,103,478.904368932039,459.241747572816,1127.50485436893,485.974757281553,471.833980582524,519.104854368932,399.378640776699,1066.21359223301,1188.79611650485,0
1023.7952,0.265908335106995,-0.461149065113272,-0.116555403810042,-0.298619160577784,0.698131607699022,0.698131607700548,0.145693610525442,0.990215157972554,0.631393698618136,0.20665136397012,0.237845562006816,0.206651363968955,-1.0066210111981,0.48173362358955,-0.760507640261999,0.659288264940156,-0.470017019028344,0.580581691233016,0.361198515857291,0.161083771937414,0.361198515855797,0.843396625263782,2.14125373154396,1.87152934159841,-0.195452916070809,1.08706784441923,1.08706784442008,-0.540350707388042,0.540350707386176,-1.64254700870112,-1.17034503816716,1.16785180666029,-0.303439203441767,-0.52488999470301,0.441276432415838,-0.244466324247562,-0.454483775951891,0.725081178232137,0.725081178226608,-0.733266671800964,-0.763028719005092,-1.13615558331266,-1.32420204794407,0.0952028322102336,-1.31510197533911,0.651222873943885,0.166608257911263,0.166608257912494,-0.475348237043057,0.475348237042976,0.740937836979797,6.65600000000006,102,462.870588235294,492.871078431373,1129.01960784314,466.609803921569,459.13137254902,549.558823529412,436.183333333333,1078.44117647059,1179.59803921569,0
1023.8976,0.273940783400606,-0.501729178882281,-0.147504843023466,-0.286308221850145,0.701190449032397,0.701190449033936,0.137918008430306,0.97808122999317,0.620458984408372,0.16409585848835,0.289612056905009,0.164095858487192,-1.04208383374588,0.502468491147459,-0.784710050361296,0.64417084154383,-0.503483230786275,0.546651411534129,0.360101294723504,0.179830623875146,0.360101294722011,0.85820568867203,2.15199209882775,1.88723064395762,-0.206019759918017,1.06647027855047,1.06647027855121,-0.525705085502886,0.525705085501,-1.66481880306303,-1.16320628358185,1.1507149325043,-0.314936510392184,-0.505233728858678,0.421477506954641,-0.237878478519857,-0.465101525102755,0.716802176762101,0.716802176756569,-0.715500021047377,-0.76536301621719,-1.11676070268215,-1.30088464564323,0.0929227845729522,-1.292234439387,0.652155958925003,0.183090844550804,0.183090844552035,-0.480450266645464,0.480450266645391,0.745748846247016,6.75840000000005,102,472.846568627451,497.138235294118,1088.5637254902,475.071568627451,470.621568627451,549.980392156863,444.296078431373,1056.3137254902,1120.8137254902,0
1024,0.282624015775964,-0.541292604810335,-0.176531553531429,-0.275499660270379,0.702385738305711,0.702385738307248,0.128977762663275,0.965038264730684,0.608394329295622,0.12289813228884,0.342076086317416,0.122898132287684,-1.07694036400992,0.524994462101609,-0.807022175778335,0.629750194168619,-0.536626424847301,0.51371673509828,0.359365640725296,0.198579464848674,0.359365640723808,0.872320974429641,2.16107759085364,1.90146176001247,-0.217594380265702,1.04471501335167,1.0447150133523,-0.511701885747698,0.511701885745794,-1.68740383728808,-1.15575711033603,1.13324898733873,-0.326379079995492,-0.486300633462957,0.401003251605406,-0.232633680306777,-0.477415370132204,0.709749602766351,0.709749602760818,-0.696965923288256,-0.768475558323488,-1.09679265418012,-1.27729929572884,0.0888872005322944,-1.26993384001499,0.652144938281801,0.199908544271305,0.199908544272537,-0.485190038921707,0.485190038921644,0.749949951108741,6.86080000000004,103,483.426213592233,496.367475728155,1039.36893203884,485.490291262136,481.36213592233,549.066990291262,443.667961165049,1013.65048543689,1065.08737864078,0
1024.1024,0.291910753697533,-0.57974337931641,-0.20360043233298,-0.266212579789246,0.701752141358874,0.701752141360426,0.118888866300624,0.951109449781343,0.595221234624175,0.0831194017049969,0.395128566781129,0.0831194017038473,-1.11115548845421,0.549309913248369,-0.827407041211066,0.616045694477859,-0.56935795930322,0.481842463841161,0.35899995023779,0.217330910867359,0.358999950236308,0.885780109910926,2.16854243625472,1.9142657430331,-0.230170464612162,1.02188237999586,1.02188237999639,-0.498376046365075,0.498376046363156,-1.71027490816599,-1.14807910853794,1.11553829528204,-0.33778419013186,-0.468152296181261,0.379923851631316,-0.228746179995957,-0.491370349051488,0.703895651231896,0.70389565122637,-0.677725840445348,-0.772329235053735,-1.07630719072405,-1.25352408883109,0.0831664028924132,-1.24824668482951,0.651182470465455,0.217023682671514,0.217023682672746,-0.48958055548249,0.489580555482436,0.753518241576874,6.96320000000003,102,495.691176470588,491.622549019608,1000.89705882353,500.133333333333,491.249019607843,544.373529411765,438.871568627451,982.970588235294,1018.82352941176,0
1024.2048,0.301747356438984,-0.61698813370895,-0.228687614354191,-0.258459539411215,0.699329370399984,0.699329370401541,0.107672806513913,0.93631991891307,0.580965222666673,0.0448161359834181,0.4486548625148,0.0448161359822703,-1.14469190169747,0.575401917817944,-0.84583307219036,0.603074985937831,-0.60159281982175,0.451089613200695,0.359011986310202,0.236083697036693,0.359011986308722,0.898622393348487,2.17442108570789,1.92568806340511,-0.243738322528273,0.99805535133829,0.998055351338742,-0.485759489059312,0.485759489057375,-1.73340149730321,-1.14025227547175,1.09766582531515,-0.349168393381792,-0.450845235841633,0.358310746750292,-0.226223542222502,-0.506904699850027,0.699203710870883,0.699203710865357,-0.657841267957815,-0.776882900772817,-1.05535852724017,-1.22963343774748,0.0758371668391841,-1.22721260623936,0.649263374893825,0.234398956058607,0.234398956059839,-0.493633880238381,0.493633880238339,0.756432634415208,7.06560000000002,103,509.418932038835,489.411650485437,983.417475728155,512.436893203884,506.400970873786,545.278640776699,433.544660194175,966.427184466019,1000.40776699029,0
1024.3072,0.312073990186892,-0.652936476448048,-0.251780638167174,-0.252246539781742,0.695161660384541,0.695161660386102,0.0953563696315598,0.920696731398102,0.565655721007722,0.0080398213959175,0.502535308041938,0.00803982139477213,-1.17751029466653,0.603246265190365,-0.862274285627332,0.590853831628876,-0.633249901456509,0.421515096232817,0.359408666165828,0.254834696383527,0.359408666164351,0.910888332163193,2.1787500715556,1.93577624333892,-0.258284855614426,0.973319165875726,0.973319165876089,-0.473881109635041,0.473881109633091,-1.75674991939834,-1.1323546266263,1.07971285591161,-0.360547345827829,-0.434430677834381,0.336236323700012,-0.225066634265844,-0.523950307629872,0.695628849987439,0.695628849981944,-0.637373584931847,-0.782091704867431,-1.03399929844542,-1.20569789948899,0.0669822707623368,-1.20686439409662,0.646384499925032,0.251997487108321,0.251997487109553,-0.497361114026131,0.497361114026099,0.758673917589873,7.16800000000001,102,517.533823529412,488.565196078431,990.828431372549,523.125490196078,511.942156862745,545.661764705882,431.46862745098,970.529411764706,1011.12745098039,0
1024.4096,0.322824847216585,-0.687501368333024,-0.272878537001557,-0.247573067174691,0.689297215230969,0.689297215232529,0.0819714068284376,0.904268845521254,0.549325922653697,-0.027163257844572,0.556645770826018,-0.0271632578457166,-1.20956957094459,0.632807558845758,-0.876710457109921,0.579395974460324,-0.664252279700468,0.39317142776356,0.36019585052804,0.273578960847451,0.360195850526567,0.922619183815899,2.1815678708776,1.94457949528887,-0.273793562301097,0.947760940124812,0.947760940125064,-0.462766776762372,0.462766776760403,-1.78028350747122,-1.12446182515483,1.06175865016488,-0.371935651158751,-0.418954375864616,0.313773606951594,-0.225269668042456,-0.542433197231988,0.693118360743656,0.693118360738207,-0.616383920497483,-0.787907459769764,-1.0122805498557,-1.18178403579984,0.0566900117859739,-1.18722808480635,0.642544573346342,0.269782860806324,0.269782860807557,-0.500772366361389,0.50077236636137,0.760224770729654,7.2704,102,528.519607843137,492.158333333333,1021.90196078431,536.656862745098,520.382352941177,545.025490196078,439.291176470588,994.960784313726,1048.8431372549,0
1024.512,0.333928416871501,-0.720599485232608,-0.291991847176808,-0.244432177571534,0.681787637835722,0.681787637837282,0.067554571574946,0.887067092027672,0.532012631033463,-0.0607522070419547,0.6108582580952,-0.0607522070431011,-1.24082707953238,0.664039394961796,-0.889127250506961,0.568713019089942,-0.694527469207731,0.366106460611849,0.361378148308226,0.292309784555686,0.361378148306753,0.93385650872632,2.18291477091992,1.95214836908202,-0.290244557764623,0.921469279690787,0.92146927969092,-0.452439345999339,0.452439345997357,-1.80396282248633,-1.11664683746086,1.04388015361211,-0.383346716045475,-0.404456479080944,0.290995952694831,-0.226820290578869,-0.562274053184812,0.691612363800871,0.691612363795473,-0.594933029616245,-0.794279045237505,-0.99025175375843,-1.15795431338237,0.0450536904273665,-1.16832310605007,0.63774405363542,0.287719152578199,0.287719152579435,-0.503876733643748,0.50387673364374,0.761069782490119,7.37279999999998,103,598.126699029126,482.438349514563,1067.72330097087,607.083495145631,589.169902912621,532.611650485437,432.265048543689,1038.60194174757,1096.84466019417,0
1024.6144,0.345307808507085,-0.752151561678201,-0.309142526863928,-0.242810601369623,0.672687366912235,0.672687366913793,0.0521470471367369,0.869124150577093,0.513756101368851,-0.0926916639876317,0.6650415685448,-0.0926916639887734,-1.27123885089176,0.696884616282516,-0.899516299334653,0.558814343012518,-0.724007668754194,0.34036316360239,0.362958750920137,0.311018788337598,0.362958750918663,0.944641742486364,2.18283274249201,1.95853441565598,-0.30761458758969,0.894533898079632,0.894533898079625,-0.44291869312553,0.442918693123533,-1.82774587066748,-1.10897961669416,1.026151724095,-0.394792607172337,-0.390971441085541,0.267976752062352,-0.229699714354361,-0.583388742824732,0.691044466445539,0.691044466440178,-0.573081168774613,-0.801152841406315,-0.96796083629387,-1.13426703913214,0.0321710713414552,-1.15016246896029,0.631984997343658,0.305770959197999,0.305770959199238,-0.506682294134085,0.506682294134089,0.761195478208711,7.47519999999997,102,645.314705882353,474.293137254902,1105.19117647059,654.216666666667,636.412745098039,529.717647058824,418.86862745098,1074.94117647059,1135.44117647059,0
1024.7168,0.356881121166004,-0.782082708306602,-0.324363785004862,-0.242688862425945,0.662053146425138,0.662053146426698,0.0357942740706509,0.850474523124772,0.494599880324857,-0.122951898166985,0.719061980918003,-0.122951898168122,-1.3007598353162,0.731275632496175,-0.907875244878708,0.54970703201531,-0.752629989875193,0.315979436738203,0.364939299249036,0.329696021795388,0.364939299247561,0.955015794809911,2.18136532706465,1.96378987551105,-0.325877032842514,0.867045244960783,0.867045244960646,-0.434221764877413,0.434221764875407,-1.85158832348424,-1.10152681272762,1.00864489701357,-0.406283903179045,-0.378527966304785,0.244789144866834,-0.233882881429013,-0.605688830410021,0.691342455012889,0.691342455007561,-0.550887966210818,-0.808473177704744,-0.945454204484406,-1.11077632219483,0.0181438273357732,-1.13275299588433,0.625270944845915,0.323903439308219,0.32390343930946,-0.50919612297478,0.509196122974794,0.760590350260316,7.57759999999996,102,654.430392156863,474.875980392157,1123.85294117647,663.375490196079,645.485294117647,532.678431372549,417.073529411765,1101.51960784314,1146.1862745098,0
1024.8192,0.368561851267361,-0.810322698832744,-0.337699827682748,-0.244041422559421,0.64994354705258,0.649943547054141,0.0185456712531527,0.831154492448598,0.474590633902741,-0.151508879209301,0.772783965767784,-0.151508879210435,-1.32934415697455,0.767134804887466,-0.914207747088541,0.541395825816243,-0.780336665864316,0.292987947874866,0.367319773132968,0.348330076827919,0.367319773131491,0.965018684382926,2.17855753412376,1.96796739514625,-0.345001926680408,0.839094138426317,0.839094138426046,-0.426362646187465,0.426362646185454,-1.87544375157183,-1.09435151095848,0.991428186074657,-0.417829545102211,-0.36714899002053,0.221505737852348,-0.239338661898287,-0.629082089827535,0.692429001771067,0.692429001765781,-0.528412289447873,-0.816182786323797,-0.922776771964069,-1.08753205941742,0.00307697057450364,-1.11609557833519,0.617606815359302,0.342082363634277,0.342082363635522,-0.511424324068172,0.511424324068195,0.759244872702695,7.67999999999995,103,616.733009708738,490.848058252427,1099.47572815534,623.68932038835,609.776699029126,545.126213592233,436.569902912621,1083.69902912621,1115.25242718447,0
1024.9216,0.380259331570459,-0.836806225380333,-0.349205529811637,-0.246836865356588,0.636418548509617,0.636418548511189,0.000454337960053108,0.811202060488865,0.453777953931435,-0.178344324343766,0.826070909491861,-0.1783443243449,-1.35694539294138,0.804374897054384,-0.918523477115063,0.533883064977403,-0.807075237444504,0.271415981812249,0.370098392037819,0.366908206753348,0.370098392036336,0.974689213319428,2.17445573718221,1.97111976628142,-0.364956003365371,0.810771396499169,0.810771396498773,-0.419352643259651,0.419352643257639,-1.89926388392085,-1.0875130035241,0.974566916433034,-0.429436695158196,-0.356851690099971,0.198198322906733,-0.246030088037187,-0.653473030122626,0.694222380117639,0.694222380112399,-0.505712115978886,-0.824223255778207,-0.899971988346852,-1.06457994843262,-0.0129217276968762,-1.10018546884656,0.608998804671901,0.360274167237919,0.360274167239166,-0.513372077808672,0.513372077808705,0.75715149159783,7.78239999999994,102,606.791666666667,491.985784313726,1043.89705882353,613.085294117647,600.498039215686,542.98431372549,440.987254901961,1027.07843137255,1060.71568627451,0
1025.024,0.39187920028612,-0.861473122887061,-0.358946034401096,-0.251038120713811,0.621539177950839,0.621539177952416,-0.0184232654838938,0.790656871027818,0.432214144363688,-0.203445721870891,0.878785846695582,-0.203445721872029,-1.3835168697937,0.842899588491885,-0.920838085642752,0.527168643905481,-0.83279871273853,0.251285308745253,0.373271525631313,0.385416448824065,0.373271525629829,0.984064676235558,2.169107558123,1.97329967829016,-0.385702781048764,0.782167469175902,0.782167469175382,-0.413200376709727,0.413200376707714,-1.92299888893784,-1.08106659151345,0.958123083037059,-0.441110611194349,-0.347647531018021,0.174937600360869,-0.25391462078306,-0.678763436812066,0.696637195976828,0.696637195971634,-0.482844409161658,-0.832535485594571,-0.877081874989243,-1.04196153533464,-0.0297423267219651,-1.08501261283434,0.599454293673959,0.378445994882961,0.378445994884214,-0.515043707825813,0.515043707825856,0.754304599489878,7.88479999999993,103,620.040291262136,481.770388349515,985.97572815534,623.931067961165,616.149514563107,534.990291262136,428.550485436893,965.864077669903,1006.08737864078,0
1025.1264,0.403323905611778,-0.88426856557977,-0.366996275373548,-0.256602718327059,0.605367187301184,0.605367187302776,-0.0380276462775162,0.76956012590438,0.409953999034877,-0.226806319046949,0.930792200911511,-0.226806319048093,-1.40901195998502,0.882604042168653,-0.921173133824519,0.521249984802007,-0.857465702960418,0.232612089437296,0.376833623739488,0.403839751924731,0.376833623737997,0.993180595529814,2.16256174214798,1.97455948027498,-0.40720265985784,0.753372077661302,0.753372077660673,-0.40791187777894,0.407911877776922,-1.94659766108901,-1.075063411873,0.942155226884929,-0.452854536515758,-0.339542341388901,0.151792918148778,-0.262944441477639,-0.704852914991795,0.699585145621193,0.699585145616041,-0.459864995802633,-0.841060144812552,-0.854147064173101,-1.01971430047226,-0.0472733103440396,-1.07056202180668,0.588981785571074,0.396565738461518,0.396565738462774,-0.516442768367679,0.51644276836773,0.750700513305915,7.98720000000014,102,1289.37598039216,274.647549019608,909.622549019608,1283.58333333333,1295.16862745098,301.889215686275,247.405882352941,924.843137254902,894.401960784314,0
1025.2288,0.41449325405361,-0.905143239142142,-0.373440416401093,-0.263483054566516,0.587964754426418,0.587964754427994,-0.0582965982190421,0.747954503220596,0.387054585604863,-0.248425064772223,0.981954530936773,-0.248425064773371,-1.43338436381405,0.923375516271612,-0.919555978194909,0.516122045765425,-0.881040537480265,0.21540683142652,0.380777176986699,0.422162111031556,0.380777176985196,1.00207047901592,2.15486803865116,1.97495096027144,-0.429413011778516,0.724473870739361,0.724473870738643,-0.40349068452115,0.403490684519137,-1.97000809498614,-1.06955028158638,0.926718326042706,-0.464669597490066,-0.332536422360336,0.128832033977928,-0.273066760285686,-0.731639410827586,0.702975798198202,0.702975798193127,-0.436828440789107,-0.849738134704725,-0.831206836562675,-0.997871779489311,-0.0654021787339828,-1.05681418165184,0.577590881630293,0.414602072504765,0.41460207250603,-0.517572149719228,0.517572149719285,0.74633747304158,8.08960000000013,103,1388.28980582524,228.560679611651,887.902912621359,1380.86796116505,1395.71165048544,258.482524271845,198.638834951456,903.165048543689,872.640776699029,0
1025.3312,0.425285005407681,-0.924053489319957,-0.378371202661173,-0.27162666759555,0.56939420896884,0.569394208970394,-0.0791655016370377,0.725884076618579,0.363575040318221,-0.26830651050275,1.03213927152006,-0.268306510503903,-1.45658837948132,0.965094014920364,-0.916019615843244,0.511777361067729,-0.903493359109645,0.199674393471727,0.385092707660166,0.440366705680254,0.385092707658649,1.01076560543333,2.14607709880163,1.97452515177022,-0.452288256123467,0.695560105503343,0.695560105502508,-0.399937937787491,0.399937937785485,-1.99317734048511,-1.06456955549404,0.911863702154662,-0.476554702180957,-0.326624681525017,0.106120899298296,-0.284224136226447,-0.759019696304438,0.706717381762251,0.706717381757254,-0.413787921149894,-0.858511050981856,-0.808299157807376,-0.976463712850176,-0.0840160314777015,-1.04374548605227,0.565292287230514,0.432524491290753,0.432524491292023,-0.518434194935068,0.518434194935132,0.741215661488309,8.19200000000012,102,1383.61519607843,233.442156862745,876.78431372549,1379.50784313726,1387.72254901961,264.23137254902,202.652941176471,887.774509803922,865.794117647059,0
1025.4336,0.435595506540906,-0.940961446102906,-0.38188923520797,-0.280976533509131,0.549717793449792,0.549717793451301,-0.100567613385239,0.70339422242132,0.339576361283341,-0.286460684681262,1.08121545111082,-0.286460684682414,-1.4785791795161,1.00763298182614,-0.910602506944926,0.508206097322201,-0.924800195699601,0.185414020310035,0.389768776690372,0.458436036537545,0.389768776688839,1.0192948463896,2.13624038355113,1.9733321686482,-0.4757799416349,0.666716349129313,0.666716349128338,-0.397252478894909,0.397252478892909,-2.01605205055065,-1.06015900153362,0.897638944599111,-0.488506443149186,-0.321796789900086,0.0837234567496178,-0.296354812587181,-0.786889824668382,0.710717543500467,0.710717543495561,-0.390795110651854,-0.86732163830546,-0.785460724181749,-0.955516219468397,-0.103002140034184,-1.03132868956777,0.552097830157839,0.450303344548801,0.450303344550077,-0.51903081905339,0.519030819053461,0.73533722641413,8.29440000000011,102,1381.67009803922,239.334803921569,892.911764705882,1382.48039215686,1380.85980392157,272.051960784314,206.617647058824,897.676470588235,888.147058823529,0
1025.536,0.445320350112266,-0.955835124325401,-0.384102187489715,-0.291471402700317,0.528997465652601,0.528997465654066,-0.122434366297005,0.680531501281792,0.31512118244964,-0.302902953142549,1.12905537311499,-0.302902953143696,-1.49931310856479,1.05086004321928,-0.903348386561998,0.505396111071549,-0.944943001759717,0.172619393107446,0.394791993021998,0.476352056019311,0.394791993020448,1.02768452490842,2.12541006845079,1.97142105991329,-0.499836865284941,0.638026190323048,0.638026190321959,-0.395430950910546,0.395430950908555,-2.03857864119117,-1.05635170060993,0.884087851845978,-0.500519016471199,-0.318037363043699,0.061701441722919,-0.309393076263457,-0.815145579237658,0.714884068686933,0.714884068682116,-0.367900086455961,-0.876114233585196,-0.762727029057902,-0.935051995367793,-0.12224851160514,-1.01953338232193,0.53802047941044,0.467909865710022,0.467909865711305,-0.519363624113486,0.519363624113566,0.728706285332751,8.3968000000001,103,1376.55533980583,247.397572815534,933.825242718447,1381.99126213592,1371.11941747573,276.623300970874,218.171844660194,930.106796116505,937.543689320388,0
1025.6384,0.45435504667265,-0.968648502537832,-0.385123981486132,-0.303046183460711,0.507294740589121,0.507294740590515,-0.144695689645247,0.657343512106343,0.290273520870512,-0.317653866213545,1.1755352563065,-0.31765386621469,-1.51874800002526,1.09463779420966,-0.894306066999724,0.503333005253651,-0.963909664746856,0.161278695012122,0.400147022872881,0.494096293524427,0.400147022871311,1.03595830412124,2.11363893761309,1.96883967550912,-0.524405240824381,0.609570953057312,0.60957095305612,-0.394467900400516,0.394467900398542,-2.06070357354056,-1.05317597296584,0.871250382946702,-0.512584169373322,-0.315326167555089,0.0401141854428025,-0.32326964446191,-0.84368293173307,0.719125563237287,0.719125563232565,-0.345151262338196,-0.884835199599529,-0.740132455960733,-0.915090540335114,-0.141644446500569,-1.00832649033274,0.523074367092267,0.485316187445901,0.485316187447191,-0.519434005715613,0.519434005715699,0.721328907454675,8.49920000000009,102,1374.03284313726,253.713725490196,978.754901960784,1381.94803921569,1366.11764705882,278.814705882353,228.612745098039,966.93137254902,990.578431372549,0
1025.7408,0.462595705921283,-0.97938158156002,-0.385073930604255,-0.315632361284867,0.484670567531294,0.484670567532627,-0.16728034373272,0.633878727012314,0.265098505819671,-0.3307389836072,1.22053583691672,-0.330738983608342,-1.53684349316739,1.13882460841324,-0.883529224679822,0.502000192855155,-0.981693974518371,0.151374702590739,0.405816607546017,0.511649978244847,0.405816607544424,1.04413710347159,2.10098026747969,1.96563454203076,-0.549428904230578,0.581429416375819,0.581429416374495,-0.394355870486683,0.394355870484719,-2.08237365100795,-1.05065532350744,0.859162607558307,-0.524691179947634,-0.313638351904561,0.0190184278225341,-0.337912071109915,-0.872398505811485,0.723352113530112,0.723352113525493,-0.3225953455924,-0.893433352169539,-0.717710396172591,-0.895648412716146,-0.161081087608146,-0.997672800975564,0.507274824852225,0.502495343797494,0.502495343798791,-0.519243248049822,0.519243248049916,0.713213082427503,8.60160000000008,103,1041.64708737864,351.883980582524,1044.77669902913,1047.29805825243,1035.99611650485,382.338834951456,321.429126213592,1019.22330097087,1070.33009708738,0
1025.8432,0.469939729316431,-0.988020424106785,-0.384075847803878,-0.329158430582492,0.461185239663549,0.461185239664822,-0.190116245821177,0.610186322013165,0.239662110142228,-0.342188664414463,1.26394293686533,-0.342188664415607,-1.55356132471683,1.18327544825119,-0.871076158847821,0.501378981351658,-0.998295559326485,0.14288491806746,0.411781603804794,0.528994161703582,0.411781603803177,1.0522390444488,2.0874877064825,1.96185075344484,-0.574849525527329,0.553677551421623,0.553677551420169,-0.395085476522204,0.395085476520252,-2.10353630975819,-1.04880839397999,0.847856647343012,-0.536826859253432,-0.312944696860505,-0.00153184536014417,-0.353245156240894,-0.901190023046537,0.727475932384957,0.727475932380412,-0.300277311302567,-0.901860381616529,-0.695493383957774,-0.876739508066449,-0.180451956229042,-0.987535506418384,0.490638446148837,0.519421261506825,0.519421261508125,-0.51879260863192,0.518792608632024,0.704368691878631,8.70400000000007,102,976.893130648052,386.350226244344,1077.31603627644,987.792538126362,965.993723169741,413.445098039216,359.255354449472,1057.28594771242,1097.34612484047,0
1025.9456,0.476286514988664,-0.994557176452134,-0.382257118670387,-0.343550319760761,0.436898338099182,0.436898338100393,-0.213130765733335,0.586316013156475,0.214030900843606,-0.352037816440524,1.30564799830913,-0.352037816441672,-1.56886557823676,1.22784266425593,-0.8570095120632,0.501448685442285,-1.01371979369963,0.135781748980134,0.418021054722592,0.546109839881155,0.418021054720956,1.06027942742141,2.07321515607785,1.95753188125259,-0.600606801712864,0.526388284405276,0.526388284403693,-0.396645464838058,0.39664546483612,-2.12413988143598,-1.04764891714676,0.837360613895607,-0.548975561231195,-0.313211878734169,-0.021485532291365,-0.369191343926963,-0.929956707239464,0.731411984555956,0.731411984551485,-0.278240388351009,-0.910071259370231,-0.673513239400251,-0.858375352707412,-0.199653464707863,-0.977876751240193,0.473183178691144,0.536068739153892,0.536068739155195,-0.518083396942026,0.518083396942138,0.694807491137238,8.80640000000005,102,922.578992713127,424.272115384615,1092.64468277449,932.660648148148,912.497337278107,447.075,401.469230769231,1079.48611111111,1105.80325443787,0.598039215686275
1026.048,0.481538167895335,-0.998990071912561,-0.379747748717778,-0.358731812840909,0.411868712378873,0.411868712380023,-0.23625099167464,0.562317891757106,0.188271805069749,-0.360325614424666,1.34554857554489,-0.360325614425819,-1.58272290083428,1.27237678729098,-0.8413959601187,0.502186761083292,-1.02797768027508,0.130032725807534,0.424512284298413,0.562978071476074,0.424512284296757,1.06827074000424,2.05821665107429,1.95271990302606,-0.626638637150416,0.499631283723174,0.499631283721474,-0.399022764375339,0.39902276437342,-2.14413382801464,-1.04718568221077,0.827698556309949,-0.56111919763724,-0.314402741487636,-0.0407945171772522,-0.385671108405957,-0.958599644489753,0.73507856760285,0.735078567598467,-0.2565260521917,-0.918024604436088,-0.651801203293856,-0.840565395939211,-0.218585392516436,-0.968658161134811,0.454928436198664,0.55241340966465,0.552413409665958,-0.517117047413173,0.517117047413294,0.684543086671087,8.90880000000004,103,861.394321170283,464.286538461538,1105.7941321499,869.547222222222,853.241420118343,482.95,445.623076923077,1099.41666666667,1112.17159763314,0.747572815533981
1026.1504,0.485600202549752,-1.00132341502665,-0.376679400822731,-0.37462499105758,0.386154494442864,0.386154494443961,-0.259403990494645,0.538242243569883,0.162451870076288,-0.367095205526364,1.38354876995906,-0.367095205527529,-1.59510271388738,1.31672732366625,-0.824305893480301,0.503568946019066,-1.04108570177641,0.125600741389371,0.43123099949794,0.579580086962602,0.43123099949626,1.07622269407379,2.04254622955728,1.94745514140007,-0.652881346511602,0.473472760782793,0.473472760780947,-0.402202538672621,0.40220253867071,-2.16346896889067,-1.04742252697211,0.818890424754628,-0.573237274133263,-0.316476578445059,-0.0594137572124867,-0.402603339181533,-0.987022121794716,0.738397822963311,0.738397822959014,-0.235174020092463,-0.925682978279716,-0.630388046892494,-0.823317279270913,-0.23715131119694,-0.959841323460294,0.43589520388423,0.568431687640531,0.56843168764184,-0.515895184743669,0.515895184743798,0.673590881830148,9.01120000000003,102,805.989248398242,498.795663650075,1126.81089260162,814.849618736383,797.1288780601,513.510784313726,484.080542986425,1126.76307189543,1126.85871330781,0
1026.2528,0.488382227401271,-1.00156754450764,-0.373184435520013,-0.391150713962603,0.359813135697171,0.359813135698245,-0.282517090009263,0.514139347030023,0.136637999718228,-0.372393414815034,1.41955959899746,-0.372393414816215,-1.60597743580404,1.3607435573135,-0.805813106921643,0.505569397290745,-1.05306563622102,0.122444303815517,0.438151385488698,0.595897385153893,0.438151385486997,1.08414228097717,2.02625778255392,1.94177620098103,-0.679269910147761,0.447975276199919,0.447975276197953,-0.406168235567486,0.406168235565592,-2.18209771718263,-1.04835836623067,0.810952044714753,-0.585306969768595,-0.319389424449178,-0.0773013623218526,-0.419905732206769,-1.01512996992996,0.741296171450446,0.741296171446229,-0.214222248538981,-0.933013091051851,-0.609304149498925,-0.806637068684371,-0.255258949314428,-0.951388201018295,0.416106114915608,0.584100709910399,0.58410070991171,-0.514419683477555,0.514419683477691,0.661967976097211,9.11360000000002,103,812.131067961165,468.233495145631,1221.44174757282,821.461165048544,802.800970873786,506.704854368932,429.76213592233,1201.94174757282,1240.94174757282,0
1026.3552,0.489798606333807,-0.999738773269879,-0.36939495851377,-0.408229138734524,0.33290144870066,0.33290144870172,-0.305518195896474,0.490059260790239,0.110896666499576,-0.376270450254445,1.45349930143139,-0.376270450255636,-1.61532271386032,1.40427535563833,-0.785994496477624,0.508160827728035,-1.06394433127558,0.120517807119109,0.445246190144048,0.611911817649958,0.445246190142327,1.09203383197805,2.00940488106055,1.9357198939192,-0.705738282875074,0.423197552602906,0.423197552600867,-0.410901626272402,0.410901626270514,-2.19997432387609,-1.04998725570418,0.803895094815234,-0.597303268138843,-0.323094355014055,-0.0944186666250455,-0.43749518244847,-1.04283191808384,0.743704688323385,0.743704688319286,-0.193706933183185,-0.939985920764924,-0.588579544958717,-0.790529452775851,-0.272820498495098,-0.943261482502278,0.395585493163856,0.599398278850518,0.59939827885183,-0.512692726805104,0.512692726805246,0.649693027360235,9.21600000000001,102,811.024509803922,486.086764705882,1281.36764705882,818.694117647059,803.354901960784,532.310784313726,439.862745098039,1263.50980392157,1299.22549019608,0
1026.4576,0.489769099030107,-0.995859306144115,-0.365441873684909,-0.425780258217974,0.305475632712047,0.305475632713066,-0.328336135664598,0.466051615936373,0.0852936117869168,-0.378779596778241,1.48529358930641,-0.378779596779444,-1.62311764552794,1.44717396968728,-0.764929748907926,0.511314652819301,-1.07375344088878,0.119771832135642,0.452486806325045,0.627605664658669,0.452486806323304,1.09989908043029,1.99204058802388,1.92932115689925,-0.732219731191886,0.399194303471827,0.39919430346974,-0.416382824384673,0.416382824382798,-2.21705511485726,-1.05229848263904,0.797727086155389,-0.609199128957673,-0.327541786817408,-0.110730284026886,-0.455288165511189,-1.07003994620216,0.74555944038613,0.745559440382103,-0.173662504387662,-0.946576754211221,-0.568243932551156,-0.77499791800607,-0.289752867556432,-0.935424884516931,0.374359374371103,0.614302814779304,0.614302814780617,-0.510716867784234,0.510716867784384,0.636786103340111,9.3184,102,832.569607843137,488.189215686275,1320.17156862745,839.488235294118,825.650980392157,535.487254901961,440.891176470588,1303.50980392157,1336.83333333333,0
1026.56,0.488219482991181,-0.989957137594223,-0.361453940218358,-0.443724429129307,0.277591274244859,0.277591274245821,-0.350901006448623,0.442165424762852,0.0598935532379428,-0.379976889495081,1.51487585720346,-0.379976889496298,-1.62934496486606,1.48929281478019,-0.742701006703945,0.515001159243606,-1.08252913313824,0.120153487048712,0.459843366529614,0.642961708259636,0.459843366527847,1.10773723447569,1.97421726926327,1.92261297373667,-0.758647161546741,0.376016090135366,0.37601609013319,-0.422590277189077,0.422590277187212,-2.23329870203381,-1.05527667096446,0.792451343526648,-0.620965680234325,-0.332679775399289,-0.126204137769875,-0.473201095702404,-1.09666960712962,0.746801800376408,0.746801800372466,-0.154121608293067,-0.952765159908722,-0.548326644781978,-0.760044907841053,-0.305977891366228,-0.92784341532287,0.352455524683844,0.628793317186573,0.628793317187885,-0.508495095753943,0.508495095754103,0.623268551441815,9.42079999999999,103,1120.75388349515,426.670873786408,1282.02912621359,1121.26699029126,1120.24077669903,466.063106796117,387.278640776699,1288.33980582524,1275.71844660194,0
1026.6624,0.48508215362794,-0.98206593123169,-0.357556840523868,-0.461982867555631,0.249303330657653,0.249303330658579,-0.373144501981468,0.418448908944602,0.0347599141911219,-0.379920767378105,1.54218735194586,-0.379920767379342,-1.63399118276815,1.5304882212085,-0.719392503635554,0.519189694395173,-1.09031177798138,0.121606782760972,0.467284857111962,0.657963308752211,0.467284857110173,1.11554507052394,1.9559864150653,1.91562631719928,-0.784953412314672,0.353709214072168,0.353709214069943,-0.42950073011591,0.429500730114058,-2.24866615618296,-1.05890189251503,0.788066989089197,-0.632572416818973,-0.338454308465083,-0.140811459426762,-0.491150655190954,-1.12264029416951,0.747378737032227,0.747378737028367,-0.135115073757669,-0.958534904943507,-0.528856577113191,-0.745671966842341,-0.321422499029864,-0.920483603601168,0.329903467719304,0.642849327981069,0.64284932798238,-0.506030912119787,0.506030912119957,0.60916290258894,9.52319999999997,102,1004.88333333333,429.213725490196,1159.66666666667,1008.39509803922,1001.37156862745,468.046078431373,390.38137254902,1167.79411764706,1151.53921568627,0
1026.7648,0.480296689460242,-0.972224882649146,-0.353872277974182,-0.480478112697968,0.220666109128891,0.220666109129764,-0.395000213610526,0.394949337959337,0.00995457264135393,-0.378671723569565,1.5671772961144,-0.378671723570815,-1.63704669679879,1.57062015817841,-0.695090185719706,0.523848861525164,-1.09714561877987,0.124073022639524,0.474779243003783,0.67259448465757,0.474779243001976,1.1233170467993,1.93739847374302,1.90839011045205,-0.811071516827525,0.332315639911211,0.332315639908957,-0.437089177051566,0.437089177049726,-2.26312114707456,-1.0631497864314,0.784568930875441,-0.6439874055128,-0.344809597553711,-0.154526764806263,-0.509054103223995,-1.14787545541503,0.747243065666891,0.747243065663091,-0.116671879765233,-0.963873826631374,-0.509862100579588,-0.731879872107663,-0.336018847037711,-0.913313697407213,0.30673451185407,0.656450889824912,0.656450889826226,-0.503328414002253,0.503328414002433,0.594492800042921,9.62559999999996,102,552.273529411765,510.371078431373,1023.39215686274,556.210784313726,548.336274509804,553.461764705882,467.280392156863,1001.50980392157,1045.27450980392,0
1026.8672,0.473810364058146,-0.960478567075367,-0.350517130737344,-0.499134481007662,0.191733247377393,0.191733247378194,-0.416403925131516,0.371712864265284,-0.0144623882979796,-0.376291974491908,1.58980295600683,-0.37629197449317,-1.63850590430781,1.60955294614966,-0.669881343730129,0.528946699724886,-1.10307842645499,0.127491181970375,0.482293583425966,0.686839992375883,0.482293583424139,1.13104542371471,1.91850268955262,1.90093119536174,-0.836934974469955,0.311872935705562,0.311872935703264,-0.44532881458021,0.445328814578384,-2.27663007272946,-1.06799170023506,0.781947862157253,-0.65517751014634,-0.351688375559045,-0.167327820344815,-0.526829584468678,-1.17230278347123,0.746353646823903,0.746353646820148,-0.0988191423896067,-0.968773668311572,-0.491370982747185,-0.718668759592911,-0.349704426250202,-0.906303845312118,0.282981756089235,0.669578501163226,0.669578501164545,-0.50039237443527,0.50039237443546,0.579282930574845,9.72799999999995,103,563.785436893204,504.233980582524,903.208737864078,565.769902912621,561.800970873786,544.414563106796,464.053398058252,871.427184466019,934.990291262136,0
1026.9696,0.46557858920006,-0.946876771588109,-0.34760268233772,-0.517878528352056,0.162557699948779,0.162557699949499,-0.437293925834966,0.348784351210341,-0.0384329437189485,-0.372845160411898,1.61002965192293,-0.372845160413175,-1.63836734256994,1.64715596970473,-0.643854274659954,0.534450835226752,-1.10816113270759,0.131798262381956,0.489794124296885,0.700685402326004,0.489794124295041,1.13872037306185,1.89934693972357,1.8932742935585,-0.862478060711215,0.292414220116229,0.292414220113899,-0.454191012873083,0.454191012871263,-2.28916219659791,-1.07339486857796,0.780190280467493,-0.6661086503414,-0.359032205927486,-0.179195608078311,-0.544396449375418,-1.19585441078548,0.744675533240397,0.744675533236673,-0.0815821329595244,-0.97322988856027,-0.473410333949672,-0.706038253554656,-0.362422151268805,-0.899426272299817,0.258680056540339,0.682213081701092,0.682213081702413,-0.497228308772095,0.497228308772295,0.563558942711993,9.83039999999994,102,229.508823529412,470.15637254902,817.102941176471,235.672549019608,223.345098039216,513.087254901961,427.225490196078,769.852941176471,864.352941176471,0
1027.072,0.455565283381272,-0.931474310073069,-0.345233934981008,-0.536639516751885,0.133191735218087,0.133191735218714,-0.457611348535662,0.32620720270841,-0.061901402591335,-0.368396071894005,1.62783071885419,-0.368396071895293,-1.63663385127042,1.68330438891571,-0.617097968460099,0.540328605541554,-1.11244744044454,0.136929623945198,0.497246369415937,0.714117171567789,0.497246369414082,1.14633006172492,1.8799775751158,1.88544195460634,-0.887636176365846,0.273968116935242,0.273968116932898,-0.463645305763214,0.463645305761404,-2.30068979251897,-1.0793226365867,0.779278534450209,-0.676746094057992,-0.366781801450584,-0.190114287993386,-0.561675583280142,-1.21846711949584,0.742180073949945,0.742180073946257,-0.064984326474106,-0.977241451951283,-0.456006580892379,-0.69398760237053,-0.374120434759634,-0.892655454998667,0.233865949226628,0.69433596707302,0.694335967074342,-0.493842528644361,0.493842528644569,0.547347351517642,9.93279999999993,103,202.219417475728,457.949029126214,771.121359223301,208.918446601942,195.520388349515,506.42427184466,409.473786407767,707.601941747573,834.640776699029,0
1027.1744,0.443743169300037,-0.914330820050467,-0.343508999854634,-0.555349864949117,0.103686946824881,0.103686946825444,-0.477300518024021,0.304023209079734,-0.0848146799611597,-0.363010384539967,1.64318743176967,-0.363010384541271,-1.63331272958434,1.71787983453718,-0.58970180004273,0.546547171504168,-1.11599341484351,0.14281931163113,0.504615147624793,0.727122714455606,0.50461514762293,1.15386070742614,1.86043927420412,1.87745449599206,-0.912346208868659,0.256558726352546,0.256558726350169,-0.473659396666134,0.473659396664334,-2.31118828075925,-1.08573472182616,0.779190902827876,-0.687054768712604,-0.37487734428985,-0.200071150881842,-0.578589729446426,-1.24008255095885,0.738844987556657,0.738844987552997,-0.049047469248006,-0.980810606973258,-0.439185457218167,-0.682515818995989,-0.384753242839322,-0.885968292591386,0.208577541554551,0.70592894206217,0.705928942063494,-0.490242194674602,0.490242194674821,0.530675440205594,10.0352000000001,102,222.225980392157,459.218137254902,758.803921568627,228.106862745098,216.345098039216,507.909803921569,410.526470588235,688.617647058824,828.990196078432,0
1027.2768,0.43009400791847,-0.895510542308892,-0.342518555140434,-0.573945554318985,0.0740942795101803,0.0740942795106872,-0.496309282759137,0.282272420475268,-0.107122544781348,-0.356754385683111,1.65608890907626,-0.356754385684426,-1.62841585253021,1.7507710636879,-0.561755204294103,0.553073635233056,-1.11885706329873,0.149400394122371,0.511864698510724,0.739690473892875,0.511864698508853,1.16129662148401,1.84077491713699,1.86932994818676,-0.936546865079325,0.240205625891205,0.24020562588886,-0.48419917570691,0.48419917570512,-2.32063633354373,-1.09258749950907,0.77990170317566,-0.696999569511354,-0.383258797643478,-0.209056553627183,-0.595063788930196,-1.2606473849216,0.734654413330577,0.734654413326944,-0.0337916516091813,-0.983942654894602,-0.422971996312273,-0.67162182098357,-0.394280125302249,-0.879344265204592,0.182854396840234,0.716974306341939,0.716974306343263,-0.486435380248366,0.486435380248595,0.513571174676017,10.1376000000001,103,245.663106796117,467.92572815534,769.76213592233,254.623300970874,236.702912621359,508.374757281553,427.476699029126,695.291262135922,844.233009708738,0
1027.3792,0.414608775804945,-0.875082086194813,-0.342345365639933,-0.592366468811577,0.0444640653703027,0.0444640653707823,-0.514589304533219,0.260993049622198,-0.128777828913633,-0.349694688213093,1.66653199982076,-0.349694688214422,-1.62195972048318,1.78187455081777,-0.533347323110524,0.55987517248288,-1.12109791358316,0.156605320912305,0.518958791660411,0.751809996506929,0.518958791658536,1.16862026347603,1.82102547965914,1.86108401950499,-0.960178945031992,0.224923910241941,0.224923910239596,-0.495228742628783,0.495228742627002,-2.32901593585941,-1.09983429337147,0.781381421851081,-0.706545648587752,-0.391866203083333,-0.217063832668873,-0.611025087213701,-1.28011346005838,0.729598934554344,0.729598934550713,-0.0192353767069802,-0.98664571139044,-0.40739051683408,-0.661304563011163,-0.402666216231106,-0.872765570390708,0.156737429198944,0.727454960151557,0.727454960152883,-0.482431149139597,0.482431149139837,0.49606314240539,10.2400000000001,102,265.060784313726,472.213725490196,802.921568627451,274.164705882353,255.956862745098,509.806862745098,434.620588235294,724.71568627451,881.127450980392,0
1027.4816,0.39728778864473,-0.853118185878848,-0.343063865601881,-0.610556672474328,0.0148460631521774,0.0148460631526154,-0.532096300285023,0.240221393344937,-0.149736600089571,-0.341897941921552,1.67452114967566,-0.341897941922887,-1.61396544278046,1.81109500289048,-0.5045666330869,0.566919173227713,-1.12277659761161,0.164366286776629,0.525860876111733,0.763472013000251,0.525860876109847,1.17581232234022,1.80122993941721,1.85273008465849,-0.983185560689206,0.210724267585032,0.210724267582695,-0.506710433147059,0.50671043314529,-2.33631240440815,-1.10742566442366,0.78359685772272,-0.715658682369094,-0.400639966215472,-0.224089199246964,-0.626403613418035,-1.29843783145937,0.723675555685746,0.723675555682137,-0.00539562688079365,-0.988930459913847,-0.392464602235822,-0.651563157691604,-0.409882205449595,-0.866217233577903,0.130268803127274,0.737354500840895,0.73735450084222,-0.478239635924173,0.478239635924424,0.47818051123214,10.3424000000001,102,292.19068627451,477.108823529412,849.039215686275,302.717647058824,281.663725490196,510.779411764706,443.438235294118,770.058823529412,928.019607843137,0
1027.584,0.37814076942839,-0.829695453151946,-0.344739812474106,-0.628464649639777,-0.0147105050309307,-0.0147105050305187,-0.548790252253119,0.219991757920828,-0.169958315826878,-0.333430560490535,1.68006823732734,-0.333430560491878,-1.60445868200415,1.83834580828118,-0.475500576161152,0.574173376053,-1.12395444453504,0.172615584387513,0.532534241383682,0.774668520958271,0.53253424138178,1.18285181794602,1.78142518333319,1.84427918621179,-1.00551233343613,0.197613079642768,0.197613079640415,-0.518604854572554,0.518604854570797,-2.34251438191409,-1.11530970516438,0.786511280931501,-0.724305127587273,-0.409521139344111,-0.230131625180116,-0.641132248722157,-1.31558278773092,0.716887618501655,0.71688761849806,0.00771206517794776,-0.990809894004025,-0.37821708143846,-0.642396985956708,-0.415904286100132,-0.859687196351556,0.103491817916843,0.746657326285286,0.746657326286611,-0.473872115102914,0.473872115103179,0.459952990134466,10.4448000000001,103,315.008737864078,481.617475728155,887.970873786408,326.259223300971,303.758252427184,515.190291262136,448.044660194175,814.058252427185,961.883495145631,0
1027.6864,0.357186859827797,-0.804894128615202,-0.347430015504763,-0.646043528916804,-0.0441569179676637,-0.044156917967274,-0.56463560499758,0.200336380044257,-0.189405972791196,-0.324358473881851,1.6831923793077,-0.324358473883205,-1.59346958273441,1.86354943393109,-0.446235209019006,0.581605986389893,-1.12469308315815,0.18128593298657,0.538942174642527,0.785392865878571,0.53894217464061,1.18971621005104,1.76164590732647,1.8357400355585,-1.02710759928956,0.1855925347543,0.185592534751957,-0.53087094182428,0.530870941822542,-2.347613822656,-1.12343235048816,0.790084613041729,-0.732452475309607,-0.41845170427416,-0.235192725900425,-0.655146992786719,-1.33151585398543,0.709244654736313,0.709244654732735,0.0200735383019481,-0.992299046768859,-0.36467001245474,-0.633805798705388,-0.420714083013603,-0.853166386542775,0.0764507639793857,0.755348745970133,0.755348745971453,-0.469341055556549,0.469341055556826,0.441410774470139,10.5472000000001,102,383.899019607843,476.095588235294,923.593137254902,389.904901960784,377.893137254902,513.775490196078,438.41568627451,860.990196078431,986.196078431373,0
1027.7888,0.334454578039454,-0.778797829805492,-0.351182133276093,-0.663251291280652,-0.0734449167834588,-0.0734449167830757,-0.579601452851792,0.181285344831746,-0.208046252703663,-0.314746899728721,1.68391971064026,-0.314746899730082,-1.58103268708349,1.88663777826798,-0.41685486859804,0.589185780643634,-1.12505405275676,0.190310786035239,0.545048115916182,0.795639818437556,0.545048115914256,1.19638151089045,1.74192450906999,1.82711901161558,-1.04792262322196,0.174660753292159,0.174660753289832,-0.543466045486314,0.543466045484591,-2.35160597278329,-1.13173770918855,0.794273634844809,-0.740069500844131,-0.427374848925213,-0.239276642025813,-0.66838718206955,-1.34620978870445,0.700762181066642,0.700762181063078,0.0316759252948371,-0.993414709750189,-0.351844661212708,-0.625789807795752,-0.42429856204098,-0.846648768232254,0.0491907537392403,0.763415105690875,0.763415105692189,-0.464660165955045,0.464660165955335,0.422584471828247,10.6496000000001,103,898.905825242719,424.627669902913,957.087378640777,891.622330097087,906.18932038835,457.726213592233,391.529126213592,928.728155339806,985.446601941748,0
1027.8912,0.309981729287906,-0.751493294897364,-0.356034530432314,-0.680050944366187,-0.102526665613539,-0.102526665613148,-0.593661705958316,0.16286651007726,-0.225849653321848,-0.304660119928644,1.68228315366589,-0.30466011993001,-1.56718682866357,1.90755248512119,-0.38744184103795,0.596882206840566,-1.12509842374222,0.199624630054128,0.550815826075753,0.805405649113586,0.550815826073816,1.20282240599878,1.72229098720592,1.81842016855913,-1.06791179960053,0.164811931455735,0.164811931453406,-0.556346062006574,0.556346062004865,-2.35448933694498,-1.14016841603369,0.799032228916732,-0.747126500015823,-0.436235229878767,-0.242389916575447,-0.680795688900502,-1.35964256157027,0.691461447932315,0.691461447928758,0.0425075877524868,-0.994175147825004,-0.339761464687103,-0.618349763807555,-0.42664991834757,-0.840131368065598,0.021757540808473,0.770843930014436,0.770843930015744,-0.459844436032135,0.45984443603244,0.403505024456943,10.7520000000001,102,917.493137254902,420.397549019608,975.019607843137,907.678431372549,927.307843137255,450.878431372549,389.916666666667,958.578431372549,991.460784313726,0
1027.9936,0.283815273417081,-0.723070121605038,-0.362016187252002,-0.69641063843464,-0.131354715126147,-0.131354715125763,-0.606795213892312,0.145105448780667,-0.24279058656383,-0.294161256476678,1.67832218470879,-0.294161256478054,-1.55197500099504,1.9262452214556,-0.358076027801254,0.604665490005067,-1.1248864326861,0.209163282507034,0.556209578090943,0.814688202069357,0.556209578088999,1.20901238756842,1.70277286739429,1.80964526818785,-1.08703280584865,0.156036510623819,0.156036510621483,-0.569465607133517,0.569465607131827,-2.35626561602143,-1.14866600160242,0.804311661624136,-0.753595501086215,-0.444979215750738,-0.244541363724593,-0.692319092352104,-1.37179728775642,0.681369154919516,0.681369154915953,0.0525580697152228,-0.994599817455798,-0.328439973815882,-0.611487019137692,-0.427765441518244,-0.833614275370739,-0.0058026577546806,0.777624076436996,0.777624076438295,-0.454910173799266,0.454910173799587,0.38420365371782,10.8544000000001,102,1138.91225490196,341.335294117647,974.073529411765,1134.71666666667,1143.10784313725,354.276470588235,328.394117647059,979.490196078431,968.656862745098,0
