time,S1-D1,S1-D8,S1-D9,S1-D15,S2-D1,S2-D2,S2-D3,S2-D9,S3-D1,S3-D2,S3-D16,S4-D2,S4-D3,S4-D5,S5-D3,S5-D4,S5-D5,S6-D2,S6-D5,S6-D17,S7-D6,S7-D7,S8-D6,S8-D7,S8-D18,S9-D3,S9-D4,S9-D9,S9-D11,S9-D19,S10-D8,S10-D9,S10-D10,S10-D11,S11-D8,S11-D10,S11-D20,S12-D10,S12-D11,S12-D12,S13-D4,S13-D11,S13-D12,S14-D10,S14-D12,S14-D21,S15-D13,S15-D14,S16-D13,S16-D14,S16-D22,t_rel_s,eye_n,xp,yp,ps,xpl_i,xpr_i,ypl_i,ypr_i,psl_i,psr_i,blink_prop
2418.0736,-0.579528916562724,0.643743896431239,0.0427423574662185,-0.436403823978966,0.357966903027879,0.357966903031092,,-0.231219557152927,-0.414289972243995,0.10254822052082,0.62092616577376,0.102548220518856,-0.276158227787519,,-0.215761210595592,0.363531648980715,,0.671780181861136,,0.0708725546528668,0.0665136302059141,,0.352182832943826,,-0.571537321301289,,,,,,0.30735327960778,,,,,,,,,,,,0.567854214030259,-0.138494361199894,,,,,,,,0,103,1617.71553398058,918.333009708738,1031.42233009709,1602.56990291262,1632.86116504854,918.965048543689,917.700970873786,1099.22330097087,963.621359223301,0
2418.176,-0.594527666521268,0.631311029597232,0.0264022398267768,-0.431390392162841,0.367711494764856,0.36771149476808,,-0.232405453740517,-0.415847180049123,0.0839348317573345,0.609000410872226,0.0839348317553578,-0.270427593600871,,-0.212386209943227,0.368882239936121,,0.677828969369477,,0.0577587030595302,0.0454291148065395,,0.35724196278951,,-0.561746588499259,,,,,,0.284226530402602,,,,,,,,,,,,0.562581627981012,-0.151045121506344,,,,,,,,0.102399999999761,102,1322.49558823529,737.446078431373,1028,1297.98235294118,1347.00882352941,734.345098039216,740.547058823529,1099.17647058824,956.823529411765,0
2418.2784,-0.608755900812452,0.618351378760926,0.0102026483471412,-0.425898123272776,0.376998311471004,0.376998311474242,,-0.233470101502649,-0.416879741815212,0.0656621960035972,0.59663414710554,0.0656621960016084,-0.264512979218172,,-0.208988387742795,0.374534495687777,,0.683864362196371,,0.0441069637664813,0.0235331538152821,,0.361671893990006,,-0.551186153809223,,,,,,0.260878633207275,,,,,,,,,,,,0.55697208831288,-0.162982745710476,,,,,,,,0.204799999999977,103,946.867961165048,500.516019417476,1017.60194174757,946.723300970874,947.012621359223,507.771844660194,493.260194174757,1063.39805825243,971.805825242718,0
2418.3808,-0.622214056513262,0.60485759465382,-0.00586108296143613,-0.419938800111077,0.385804138044981,0.385804138048238,,-0.234420503349897,-0.417404988429442,0.047737869139138,0.583849424749648,0.0477378691371376,-0.258428794789607,,-0.205577018753139,0.380480970458806,,0.689874540778992,,0.0299174748566075,0.000841714693043546,,0.365446559594915,,-0.539869436970919,,,,,,0.237361159682051,,,,,,,,,,,,0.551018556605711,-0.17424972439517,,,,,,,,0.307199999999739,102,943.280392156863,495.123039215686,932.544117647059,945.412745098039,941.148039215686,500.740196078431,489.505882352941,970.833333333333,894.254901960784,0
2418.4832,-0.634904930173638,0.590823554341629,-0.0217942823467242,-0.413526430583547,0.394107280314173,0.394107280317445,,-0.235263279577691,-0.417441540590645,0.030168222821745,0.57067057024969,0.0301682228197341,-0.252189816085595,,-0.202161262831781,0.386711770374406,,0.69584649536915,,0.015192788645124,-0.0226254266561817,,0.368542063851289,,-0.527812177670679,,,,,,0.213725964728271,,,,,,,,,,,,0.544714595775485,-0.184791563914005,,,,,,,,0.409599999999955,102,935.735294117647,431.141666666667,782.906862745098,940.652941176471,930.817647058824,426.128431372549,436.154901960784,805.960784313726,759.852941176471,0
2418.5856,-0.646833344897942,0.576244590604315,-0.0376026055587515,-0.406677152390532,0.401887698773689,0.401887698776985,,-0.236004611566352,-0.417009171625846,0.0129584845317623,0.557123989375905,0.0129584845297419,-0.245811132044914,,-0.19875013850012,0.393214561162001,,0.701766087230915,,-6.20360754533907e-05,-0.0468446459451254,,0.37093680897211,,-0.515032433365343,,,,,,0.190024911767766,,,,,,,,,,,,0.538054463673757,-0.194557254996194,,,,,,,,0.511999999999716,103,917.078640776699,284.444174757282,679.388349514563,921.235922330097,912.921359223301,263.957281553398,304.931067961165,697.563106796117,661.21359223301,0
2418.688,-0.658005827435939,0.561117691006076,-0.0532917251980871,-0.399409119629795,0.409127123699181,0.409127123702493,,-0.236650198390208,-0.416128673594528,-0.00388722446771274,0.543237945222091,-0.00388722446974245,-0.239308097683404,,-0.195352504535084,0.399974590905856,,0.707618116303416,,-0.0158393430141552,-0.0717884491099943,,0.372611598618537,,-0.501550566945108,,,,,,0.166309603640974,,,,,,,,,,,,0.531033196725066,-0.203499690616136,,,,,,,,0.614399999999932,102,922.113725490196,274.492647058824,630.705882352941,930.573529411765,913.653921568628,253.172549019608,295.812745098039,647.460784313726,613.950980392157,0
2418.7904,-0.66843029851893,0.545441663737653,-0.0688670478353141,-0.391742374122361,0.415809151374087,0.415809151377418,,-0.237205227219429,-0.414821728600747,-0.0203658541330418,0.52904231593058,-0.0203658541350789,-0.232696293867698,,-0.191977050136063,0.406974724942772,,0.713386391145403,,-0.0321287961630092,-0.0974254768812201,,0.37354972246175,,-0.487389222905239,,,,,,0.142631123382953,,,,,,,,,,,,0.52364667997681,-0.21157602738576,,,,,,,,0.716799999999694,103,929.766504854369,218.625242718447,603.533980582524,937.003883495146,922.529126213592,200.267961165049,236.982524271845,623.203883495146,583.864077669903,0
2418.8928,-0.678115781992686,0.52921726622527,-0.084333464592409,-0.383698705564101,0.421919319244576,0.421919319247917,,-0.237674358882921,-0.413110787649088,-0.0364753912516592,0.514568341470718,-0.0364753912537034,-0.225991494327454,,-0.188632292891761,0.414195490064432,,0.719053796649714,,-0.048917308365189,-0.123720546426152,,0.373737023536937,,-0.472573288685489,,,,,,0.119039790249061,,,,,,,,,,,,0.515891700569466,-0.218747985242949,,,,,,,,0.81919999999991,102,934.573529411765,221.91862745098,586.867647058824,943.33137254902,925.81568627451,204.121568627451,239.71568627451,603.558823529412,570.176470588235,0
2418.9952,-0.68707213736152,0.512447294035266,-0.0996951394009819,-0.375301504326457,0.427445158770744,0.427445158774091,,-0.238061728956105,-0.411018958246692,-0.0522148229320158,0.499848368738439,-0.0522148229340662,-0.219209637897764,,-0.185326582094246,0.421615128815145,,0.724602358126565,,-0.0661889749339257,-0.150634738085205,,0.373161948366326,,-0.457129838446159,,,,,,0.0955849330930591,,,,,,,,,,,,0.507765984224362,-0.224982085447777,,,,,,,,0.921599999999671,102,931.460784313725,218.713725490196,583.985294117647,939.662745098039,923.258823529412,197.493137254902,239.93431372549,598.470588235294,569.5,0
2419.0976,-0.695309817244561,0.495136630421968,-0.114955335618231,-0.366575608202733,0.432376226130549,0.432376226133898,,-0.23837096410132,-0.40856990094773,-0.0675840970648523,0.48491559862113,-0.0675840970669079,-0.212366804453018,,-0.182068105935411,0.429209665604876,,0.730013301940204,,-0.0839250091157489,-0.178125529222196,,0.371815579365668,,-0.441088059947356,,,,,,0.0723146808860271,,,,,,,,,,,,0.499268218181929,-0.23024983371086,,,,,,,,1.02399999999989,103,935.412621359223,231.149514563107,590.257281553398,942.022330097087,928.802912621359,211.581553398058,250.717475728155,606.543689320388,573.970873786408,0
2419.2,-0.70283964833249,0.477292259655678,-0.130116278283189,-0.357547143295712,0.436704111162039,0.436704111165387,,-0.238605213193629,-0.40578773436287,-0.0825840790537916,0.469803835163841,-0.0825840790558516,-0.205479195627468,,-0.178864903522781,0.436952982844611,,0.735267111434557,,-0.102103686712014,-0.206146974287156,,0.369691648521693,,-0.424479168536962,,,,,,0.0492757713241314,,,,,,,,,,,,0.490398064835919,-0.234527856418034,,,,,,,,1.12639999999965,102,881.627450980392,245.304411764706,606.769607843137,888.505882352941,874.749019607843,224.682352941176,265.926470588235,622.411764705882,591.127450980392,0
2419.3024,-0.709672634702102,0.458923249751896,-0.145179047965725,-0.348243363369101,0.440422425018467,0.440422425021821,,-0.238767191037054,-0.402696947859256,-0.0972165011617621,0.45454724066897,-0.0972165011638259,-0.198563122366091,,-0.175724883133799,0.444816902716147,,0.740343575235201,,-0.120700311867368,-0.234649926830411,,0.36678653125872,,-0.407336314168585,,,,,,0.0265133804812065,,,,,,,,,,,,0.481156167559156,-0.237797992295443,,,,,,,,1.22879999999986,103,783.205825242719,279.178640776699,617.427184466019,790.861165048544,775.550485436893,257.255339805825,301.101941747573,629.776699029126,605.077669902913,0
2419.4048,-0.715819785636513,0.440040711436642,-0.160143503381929,-0.338692496610234,0.443526767866353,0.443526767869708,,-0.238859229934115,-0.399322321495637,-0.111483898416686,0.439180104958329,-0.111483898418755,-0.191634999561952,,-0.172655846248016,0.452771272681431,,0.745221826763868,,-0.139687210797495,-0.263582292676586,,0.363099220864448,,-0.389694487194266,,,,,,0.00407097593972819,,,,,,,,,,,,0.471544148173484,-0.240047336708416,,,,,,,,1.33119999999963,102,851.508823529412,271.393137254902,619.372549019608,853.232352941177,849.785294117647,234.399019607843,308.387254901961,631.176470588235,607.56862745098,0
2419.5072,-0.721291972049792,0.420657737983313,-0.175008232424084,-0.328923605552127,0.446014678965816,0.446014678969172,,-0.238883334292875,-0.3956888523323,-0.125389527580173,0.423736634176495,-0.125389527582247,-0.184711345244893,,-0.169665514601384,0.46078405757213,,0.749880378398909,,-0.159033752998768,-0.292889301980761,,0.358631285256133,,-0.371590423520115,,,,,,-0.0180098072195799,,,,,,,,,,,,0.461564594427761,-0.24126823318998,,,,,,,,1.43359999999984,102,893.631862745098,430.157352941177,617.745098039216,948.006862745098,839.256862745098,198.771568627451,661.543137254902,629.990196078431,605.5,0
2419.6096,-0.726099813542905,0.400789328459905,-0.189770531283453,-0.318966457166205,0.447885573171903,0.447885573175256,,-0.238841235541767,-0.391821684538436,-0.138937272208604,0.408250758978159,-0.138937272210682,-0.177808779313566,,-0.166761555807519,0.468821443637057,,0.754297158663915,,-0.178706395424032,-0.322513793300894,,0.353386809562763,,-0.353062502074831,,,,,,-0.0396892715265567,,,,,,,,,,,,0.451221035137995,-0.24145820831201,,,,,,,,1.5359999999996,103,943.857281553398,229.33640776699,619.514563106796,944.991262135922,942.723300970874,204.93786407767,253.734951456311,632.184466019418,606.844660194175,0
2419.712,-0.730253593497286,0.380452301345454,-0.204426405956538,-0.308851396210878,0.449140671308241,0.449140671311593,,-0.238734445493012,-0.387746039655814,-0.152131542286718,0.392755962539136,-0.152131542288801,-0.17094401589611,,-0.163951602601762,0.476847959955801,,0.758449564206498,,-0.198668743245578,-0.352396506723263,,0.347372331659486,,-0.33415062655449,,,,,,-0.0609297495839997,,,,,,,,,,,,0.440517901879602,-0.240619855988497,,,,,,,,1.63839999999982,102,942.004901960784,232.536274509804,618.514705882353,940.341176470588,943.66862745098,211.093137254902,253.979411764706,631.509803921569,605.519607843137,0
2419.8144,-0.73376319577416,0.359665211023124,-0.218970584824595,-0.298609218443788,0.449782933841647,0.449782933844993,,-0.238564306125843,-0.383487144645094,-0.164977177353252,0.377285131584713,-0.164977177355339,-0.16413384581404,,-0.161243262949201,0.484826620855355,,0.762314535977606,,-0.218881622666512,-0.382476385252717,,0.340596779242146,,-0.314896090248338,,,,,,-0.0816956896787399,,,,,,,,,,,,0.429460476686771,-0.238760685644068,,,,,,,,1.74080000000004,103,987.27710038584,223.645257592102,616.067058095307,986.940799581576,987.613401190103,201.210418096826,246.080097087379,636.910627308686,595.223488881929,0
2419.9168,-0.7366380567695,0.338448275363181,-0.233396533678931,-0.288271044835584,0.449817003945978,0.449817003949315,,-0.238332034882447,-0.379070158027022,-0.177479357338596,0.361870430114274,-0.177479357340687,-0.157395110370439,,-0.158644122465833,0.492719089167018,,0.765868660073812,,-0.239303169928084,-0.412690888463906,,0.333071412232666,,-0.295341428304798,,,,,,-0.101953736325106,,,,,,,,,,,,0.418054824193696,-0.235892942742894,,,,,,,,1.8431999999998,102,960.647791625937,219.14154040404,636.019517758227,962.479292929293,958.816290322581,195.408080808081,242.875,680.661616161616,591.377419354839,0.735294117647059
2420.0192,-0.73888713026044,0.316823312461781,-0.247696472832901,-0.277868199235421,0.44924916041374,0.449249160417064,,-0.238038766014201,-0.374520096144128,-0.189643519479172,0.346543190744582,-0.189643519481268,-0.150744670544289,,-0.156161743070709,0.500485856951944,,0.769088287004695,,-0.259888950081602,-0.442976325126779,,0.32480976873064,,-0.275530261204482,,,,,,-0.121672804284864,,,,,,,,,,,,0.406307708451594,-0.23203339971531,,,,,,,,1.94560000000001,102,932.509606549365,211.817803030303,657.241544477028,935.519696969697,929.499516129032,185.860606060606,237.775,727.712121212121,586.770967741936,0.333333333333333
2420.1216,-0.740518865017929,0.294813680302865,-0.261861400043172,-0.267432090952301,0.4480872783085,0.448087278311823,,-0.237685588564561,-0.369861760908222,-0.201475277266757,0.33133382092867,-0.201475277268857,-0.144199374238918,,-0.153803660371699,0.508086441167928,,0.771949665025881,,-0.28059211804184,-0.473268207999141,,0.315827612571307,,-0.255507129692772,,,,,,-0.140824145605845,,,,,,,,,,,,0.394226498468716,-0.227203114809724,,,,,,,,2.04799999999977,103,914.162903362891,228.302043084567,625.587035613469,919.783501683502,908.54230504228,217.284668693407,239.319417475728,670.758098787225,580.415972439712,0
2420.224,-0.741541194731381,0.272444214635938,-0.275881121793927,-0.256994101676628,0.446340795136696,0.446340795140023,,-0.237273581067874,-0.365119668620175,-0.212980338992028,0.316271724935281,-0.212980338994131,-0.137776020901031,,-0.15157737914912,0.515479594539791,,0.77442908747531,,-0.301363623097013,-0.503501627246256,,0.306142882806245,,-0.235317319626915,,,,,,-0.159381411329357,,,,,,,,,,,,0.381819068753818,-0.221427163772396,,,,,,,,2.15039999999999,102,918.144117647059,248.816176470588,581.700980392157,926.835294117647,909.452941176471,247.288235294118,250.344117647059,593.921568627451,569.480392156863,0
2420.3264,-0.741961539375893,0.249741162668909,-0.289744293868698,-0.246585474137372,0.44402067998135,0.444020679984685,,-0.236803842555925,-0.360317979035993,-0.22416442626476,0.30138524110691,-0.224164426266866,-0.131491321206576,,-0.149490364536471,0.522623531333162,,0.77650305405194,,-0.322152446041561,-0.533611629748549,,0.295775646066649,,-0.215006677717834,,,,,,-0.17732070975317,,,,,,,,,,,,0.369093702115966,-0.214734356632935,,,,,,,,2.25279999999975,103,920.452912621359,253.258737864078,581.699029126214,931.615533980583,909.290291262136,252.510679611651,254.006796116505,590.718446601942,572.679611650485,0
2420.4288,-0.74178681777838,0.226732112835026,-0.303438470910129,-0.236237199703252,0.441139402849227,0.441139402852573,,-0.236277518874859,-0.355480425041811,-0.23503319469118,0.28670159325105,-0.23503319469329,-0.125361850419097,,-0.147550026931429,0.529476163343228,,0.778148443168639,,-0.342905851542197,-0.563533583433286,,0.284748052733877,,-0.194621423500225,,,,,,-0.194620662407815,,,,,,,,,,,,0.356058999681983,-0.207156953355865,,,,,,,,2.35519999999997,102,935.286764705882,253.485294117647,579.401960784314,945.498039215686,925.075490196079,251.869607843137,255.100980392157,587.28431372549,571.519607843137,0
2420.5312,-0.741023470796586,0.203445921721483,-0.316950163968411,-0.225979903805286,0.437710901899069,0.437710901902425,,-0.235695823524758,-0.350630244094839,-0.245592158857791,0.272246855975077,-0.245592158859903,-0.119403996113118,,-0.145763700589917,0.535995338553835,,0.779342690166654,,-0.363569641360315,-0.593203509598565,,0.273084296265063,,-0.174207963925755,,,,,,-0.211262458088821,,,,,,,,,,,,0.342723796199377,-0.19873038385021,,,,,,,,2.45759999999973,102,946.274019607843,253.159803921569,573.377450980392,953.759803921569,938.788235294118,250.98137254902,255.338235294118,579.950980392157,566.803921568627,0
2420.6336,-0.739677493539493,0.179912636214688,-0.330264906273804,-0.215843729784049,0.43375054643326,0.433750546436625,,-0.235060052988317,-0.345790112028981,-0.255846621814446,0.258045930786437,-0.255846621816563,-0.113633902802518,,-0.144138617978541,0.542139077476568,,0.780063965220822,,-0.384088407511653,-0.622558380857945,,0.260810570539253,,-0.153812715038691,,,,,,-0.227229904618227,,,,,,,,,,,,0.329097074748281,-0.18949296646917,,,,,,,,2.55999999999995,103,828.695631067961,272.841262135922,572.543689320388,838.381553398058,819.009708737864,268.926213592233,276.756310679612,574.378640776699,570.708737864078,0
2420.736,-0.73775447515952,0.156163407098618,-0.343367328619599,-0.205858222768983,0.429275094264537,0.429275094267908,,-0.234371596453893,-0.340982078956808,-0.265801607116413,0.244122527794919,-0.265801607118534,-0.108067416467384,,-0.142681882581773,0.54786580743096,,0.780291345752716,,-0.404405796839072,-0.651536392579487,,0.247955017798691,,-0.133481933418672,,,,,,-0.242509477936553,,,,,,,,,,,,0.31518787905339,-0.179485617317517,,,,,,,,2.66239999999971,102,755.922549019608,297.221078431373,576.602941176471,770.799019607843,741.046078431373,292.835294117647,301.606862745098,577.960784313726,575.245098039216,0
2420.8384,-0.735259645615091,0.132230393924065,-0.356241244108584,-0.196052215544326,0.424302644307388,0.424302644310771,,-0.233631939563864,-0.336227507063677,-0.275461791819931,0.230499153168494,-0.275461791822058,-0.102720030594659,,-0.14140044146285,0.553134597675112,,0.780004981424082,,-0.424464797244179,-0.68007721496501,,0.234547663997766,,-0.113261557754307,,,,,,-0.257090368031815,,,,,,,,,,,,0.301005227600879,-0.168751551175639,,,,,,,,2.76479999999992,103,758.723300970874,302.056310679612,591.825242718447,774.228155339806,743.218446601942,300.616504854369,303.496116504854,595.73786407767,587.912621359223,0
2420.9408,-0.732197929889356,0.108146664443483,-0.36886974057497,-0.186453717918487,0.418852586114829,0.418852586118229,,-0.232842662536603,-0.331547010843736,-0.28483144085615,0.217197107717638,-0.284831440858283,-0.0976068332651719,,-0.140301056903722,0.557905396394795,,0.779186252456053,,-0.444208044023977,-0.708122227200846,,0.220620343678559,,-0.0931970572352866,,,,,,-0.270964519553961,,,,,,,,,,,,0.286558037799035,-0.157335983782488,,,,,,,,2.86719999999968,102,757.563235294118,304.233823529412,604.946078431373,772.05,743.076470588235,301.948039215686,306.519607843137,610.392156862745,599.5,0
2421.0432,-0.728574011087935,0.0839460898041462,-0.381235280809446,-0.177089810143862,0.41294554534422,0.412945545347632,,-0.232005433877175,-0.326960400592716,-0.293914344010487,0.204236499638955,-0.293914344012627,-0.0927424537697148,,-0.139390275547096,0.562139266608783,,0.777817920497525,,-0.463578135203149,-0.735614730972835,,0.206206616574082,,-0.0733332814608195,,,,,,-0.284126662251782,,,,,,,,,,,,0.271855070732351,-0.145285846893433,,,,,,,,2.9695999999999,102,877.101470588235,274.250490196078,602.568627450981,883.43431372549,870.76862745098,273.820588235294,274.680392156863,608.745098039216,596.392156862745,0
2421.1456,-0.724392402956175,0.0596632338027288,-0.393319811925089,-0.167986540355496,0.406603322019473,0.406603322022902,,-0.231122000756912,-0.32248662961265,-0.302713756491085,0.191636269477416,-0.302713756493233,-0.0881410078496026,,-0.138674394077116,0.565798616194492,,0.775884268049271,,-0.482517944834908,-0.762500141215577,,0.191341675675802,,-0.0537143087842947,,,,,,-0.296574325784583,,,,,,,,,,,,0.256904902790568,-0.132649520617205,,,,,,,,3.07199999999966,103,929.18640776699,259.310679611651,592.796116504854,933.730097087379,924.642718446602,261.18932038835,257.432038834952,598.73786407767,586.854368932039,0
2421.248,-0.719657529577266,0.0353332360773482,-0.405104882612351,-0.159168826623087,0.3998488202962,0.399848820299641,,-0.230194176562054,-0.318143745367695,-0.311232344433441,0.179414224003592,-0.311232344435598,-0.0838160421302236,,-0.138159421894798,0.568847418594969,,0.773371222614922,,-0.50097092893005,-0.788726156746172,,0.17606224618892,,-0.0343832944296275,,,,,,-0.308307835895328,,,,,,,,,,,,0.241715920427186,-0.119476578763471,,,,,,,,3.17439999999988,102,550.760294117647,354.353921568627,587.720588235294,563.349019607843,538.171568627451,353.212745098039,355.495098039216,584.21568627451,591.225490196079,0
2421.3504,-0.714373808110665,0.0109916918809736,-0.416571764245049,-0.150660365259854,0.392705971032189,0.39270597103565,,-0.229223825998764,-0.313948844889274,-0.31947213712138,0.167587076384688,-0.319472137123548,-0.0797804793220781,,-0.137851042239509,0.571251422828232,,0.770266464601402,,-0.518881422101744,-0.814242917696505,,0.160406476374511,,-0.0153823219191066,,,,,,-0.319330291195725,,,,,,,,,,,,0.226296329416412,-0.105817540912586,,,,,,,,3.27679999999964,103,434.676213592233,385.396116504854,581.97572815534,451.918446601942,417.433980582524,384.556310679612,386.235922330097,576.252427184466,587.699029126214,0
2421.4528,-0.708545731015785,-0.0133254690945672,-0.427701572250723,-0.142483546709273,0.385199648854332,0.385199648857807,,-0.228212848407662,-0.30991803466696,-0.32743448726345,0.156170489825781,-0.327434487265628,-0.0760465655549387,,-0.137754573042606,0.572978352596236,,0.766559519992594,,-0.536194922928619,-0.839003155376073,,0.144413822831984,,0.00324774058245526,,,,,,-0.329647520021255,,,,,,,,,,,,0.210654172440505,-0.0917236279955235,,,,,,,,3.37919999999986,102,449.080392156863,383.441666666667,587.191176470588,462.019607843137,436.141176470588,380.195098039216,386.688235294118,581.254901960784,593.127450980392,0
2421.5552,-0.702177946288509,-0.0375821046462987,-0.438475386754712,-0.134659378390846,0.37735558449969,0.377355584503176,,-0.227163159876558,-0.306066394756111,-0.335120039790394,0.145179120685102,-0.335120039792582,-0.0726258201467097,,-0.137874927912407,0.573998095066817,,0.762241839263842,,-0.552858368007455,-0.862962334118097,,0.128124933025872,,0.0214673810340901,,,,,,-0.339268016687825,,,,,,,,,,,,0.19479735137705,-0.0772465189767197,,,,,,,,3.48159999999962,102,584.749019607843,406.047058823529,590.906862745098,592.309803921569,577.188235294118,404.049019607843,408.045098039216,591.411764705882,590.401960784314,0
2421.6576,-0.695275335684426,-0.0617419839692296,-0.448874373219792,-0.127207411950881,0.369200272663412,0.369200272666909,,-0.226076674021138,-0.302407946151292,-0.342528709375998,0.134626655723016,-0.342528709378199,-0.0695289873859102,,-0.138216577180151,0.574282880033562,,0.757306863298161,,-0.568820400367615,-0.88607877976282,,0.111581526163947,,0.0392385847919613,,,,,,-0.34820285751535,,,,,,,,,,,,0.178733652569429,-0.0624381062819241,,,,,,,,3.58399999999983,103,585.679126213592,407.878155339806,588.873786407767,593.880582524272,577.477669902913,404.155339805825,411.600970873786,589.961165048544,587.78640776699,0
2421.76,-0.687843090026445,-0.0857689133885506,-0.458879902451978,-0.1201456725477,0.360760876077741,0.360760876081249,,-0.224955280687507,-0.298955620600177,-0.349659667462867,0.124525839235827,-0.349659667465078,-0.0667659905146831,,-0.138783509466288,0.573807448877197,,0.751750075470025,,-0.584031639260695,-0.908313790235403,,0.0948262713359789,,0.0565249777467053,,,,,,-0.356465598056684,,,,,,,,,,,,0.162470776465835,-0.04735025210322,,,,,,,,3.68640000000005,102,748.445588235294,334.110784313726,575.759803921569,750.605882352941,746.285294117647,332.248039215686,335.973529411765,580.352941176471,571.166666666667,0
2421.8624,-0.679886779283804,-0.109626861780208,-0.468473667322271,-0.113490590522779,0.352065126753022,0.352065126756547,,-0.223800822100481,-0.295721232959312,-0.356511339554772,0.114888489830407,-0.356511339556992,-0.0643458895228202,,-0.139579195196861,0.572549210940333,,0.74556903787772,,-0.598444950957029,-0.929631729267288,,0.0779026603517688,,0.0732919696698048,,,,,,-0.364072152565751,,,,,,,,,,,,0.146016372886603,-0.0320345504728001,,,,,,,,3.78879999999981,103,964.283352388389,227.887331641616,576.515113912049,968.04376899696,960.522935779817,224.642553191489,231.132110091743,601.057750759879,551.97247706422,0.0194174757281553
2421.9648,-0.671412416138827,-0.133280084942813,-0.47763779500198,-0.107256938289272,0.343141223808581,0.343141223812122,,-0.222615066616683,-0.292715456548317,-0.363081412154312,0.105725508120732,-0.363081412156541,-0.0622768448733071,,-0.140606553877856,0.570488383534217,,0.738763409349336,,-0.612015712469623,-0.950000108645626,,0.0608548714075949,,0.0895068944971404,,,,,,-0.371040655792082,,,,,,,,,,,,0.12937807959419,-0.0165420953404606,,,,,,,,3.89120000000003,102,956.210678267012,224.545694254669,602.672940892148,963.30820668693,949.113149847095,215.482978723404,233.608409785933,657.448328267477,547.89755351682,1
2422.0672,-0.662426514043311,-0.156693251131122,-0.486354956630502,-0.10145777500987,0.334017726017454,0.334017726021012,,-0.221399680258002,-0.289947801163762,-0.369366847600734,0.0970468735534279,-0.369366847602974,-0.060566088022719,,-0.141867926142979,0.567608110200482,,0.731334942170254,,-0.624702060826862,-0.969389662838162,,0.0437276194136384,,0.105139144315785,,,,,,-0.377391307484548,,,,,,,,,,,,0.112563562487097,-0.000923251925095504,,,,,,,,3.99359999999979,103,948.138004145636,221.204056867721,628.830767872248,958.5726443769,937.703363914373,206.323404255319,236.084709480122,713.838905775076,543.822629969419,0.233009708737864
2422.1696,-0.652936142378645,-0.179831571114263,-0.494608477980798,-0.0961043999166428,0.324723437362996,0.32472343736657,,-0.220156195976882,-0.287426592566998,-0.375363905026001,0.0888616262134475,-0.375363905028251,-0.0592198977922857,,-0.143365050231242,0.563894551070106,,0.723287454131005,,-0.636465127295966,-0.987774417626184,,0.026565990021632,,0.120160295296983,,,,,,-0.383146200927527,,,,,,,,,,,,0.095580561340587,0.0147725682285672,,,,,,,,4.096,102,949.940304840786,234.867903623158,613.438570639395,965.230120984564,934.650488697008,223.047476011681,246.688331234635,684.322695035461,542.554446243329,0
2422.272,-0.642948982443354,-0.202660936457243,-0.502382455546217,-0.0912063144598624,0.315287283635142,0.315287283638735,,-0.218885981342888,-0.285158952840083,-0.381068165792576,0.0811778321322377,-0.381068165794838,-0.0582435811381852,,-0.145099042027445,0.55933694148692,,0.714626774629843,,-0.647269259202776,-1.00513175783445,,0.00941525557600366,,0.134544225654673,,,,,,-0.388329137050449,,,,,,,,,,,,0.0784369471315957,0.0304971269710718,,,,,,,,4.19839999999977,102,975.396078431373,238.849509803922,576.921568627451,987.100980392157,963.691176470588,230.299019607843,247.4,600.539215686275,553.303921568627,0
2422.3744,-0.632473386904959,-0.225148069050164,-0.509661881424234,-0.0867711941643099,0.305738177786512,0.305738177790123,,-0.217590206546123,-0.283150782676056,-0.386474562167076,0.0740025357123605,-0.386474562169347,-0.0576414579301701,,-0.147070378563121,0.553927618780494,,0.705360666498634,,-0.657082228772233,-1.02144250197893,,-0.00767932715534465,,0.148267225497084,,,,,,-0.392965425351074,,,,,,,,,,,,0.0611407935271053,0.046203573966338,,,,,,,,4.30079999999998,103,1000.25145631068,225.827184466019,592.902912621359,1013.33980582524,987.163106796116,221.72427184466,229.930097087379,609.47572815534,576.330097087379,0
2422.4768,-0.62151844102231,-0.24726068165532,-0.51643277585596,-0.0828048714655641,0.296104873886499,0.296104873890133,,-0.216269814550164,-0.281406747237102,-0.391577409139672,0.0673417043082505,-0.391577409141955,-0.0574168505465056,,-0.149278885825208,0.547662019313139,,0.695498725510525,,-0.66587542679324,-1.03669098521384,,-0.0246727344146843,,0.161308096430368,,,,,,-0.397081672726063,,,,,,,,,,,,0.0437004617602979,0.0618466539416178,,,,,,,,4.40319999999974,102,1002.00980392157,245.070098039216,604.573529411765,1014.81176470588,989.207843137255,249.451960784314,240.688235294118,618.754901960784,590.392156862745,0
2422.5792,-0.610094020533954,-0.268967644625945,-0.52268232149169,-0.0793113296541634,0.286415813555264,0.286415813558925,,-0.214925493883207,-0.279930266201982,-0.396370440773292,0.0612001680945373,-0.396370440775584,-0.0575720790555513,,-0.151723731639176,0.54053865079173,,0.685052260749231,,-0.673624043239472,-1.05086514081132,,-0.0415204011440477,,0.173648238495176,,,,,,-0.400705562314536,,,,,,,,,,,,0.0261246951167936,0.0773829027986909,,,,,,,,4.50559999999996,102,1000.71666666667,254.953431372549,606.392156862745,1011.65,989.783333333333,260.237254901961,249.669607843137,617.970588235294,594.813725490196,0
2422.6816,-0.598210842408034,-0.290239150924355,-0.528398992408124,-0.0762927060810553,0.27669897168962,0.276698971693301,,-0.213557653894932,-0.278723508205503,-0.400846853315644,0.0555815588550606,-0.400846853317947,-0.0581084614183289,,-0.154403423280672,0.532559049067745,,0.674034165551794,,-0.680307239649686,-1.06395656475594,,-0.0581784452411807,,0.185271724719088,,,,,,-0.403865627155346,,,,,,,,,,,,0.00842271429134054,0.0927708301418373,,,,,,,,4.60799999999972,103,968.240776699029,267.057281553398,612.47572815534,973.928155339806,962.553398058252,270.715533980583,263.399029126214,622.194174757282,602.757281553398,0
2422.784,-0.585880508289692,-0.311046872533462,-0.533572673638852,-0.073749301737172,0.266981707867157,0.266981707870858,,-0.212166403142973,-0.277787390614997,-0.4049993565392,0.0504882535803663,-0.404999356541512,-0.0590263164144797,,-0.157315808072769,0.523727728135876,,0.662458793495297,,-0.685908311692045,-1.0759605522033,,-0.0746038811328094,,0.196165366512313,,,,,,-0.40659102545667,,,,,,,,,,,,-0.00939569600320069,0.107971086927913,,,,,,,,4.71039999999994,102,958.814705882353,281.957352941177,624.980392156863,963.642156862745,953.987254901961,286.83137254902,277.083333333333,637.382352941177,612.578431372549,0
2422.8864,-0.573115541901419,-0.331364104988785,-0.538194769999137,-0.0716795951747947,0.257290626800103,0.257290626803825,,-0.210751531957839,-0.277121585528041,-0.408820232537391,0.0459213274765701,-0.408820232539712,-0.0603249662493415,,-0.160458074419865,0.514052124682833,,0.650341847961396,,-0.69041483084816,-1.08687610403231,,-0.0907548171322837,,0.206318773051125,,,,,,-0.408911322695225,,,,,,,,,,,,-0.0273201115065993,0.122946614934139,,,,,,,,4.8127999999997,103,958.529611650486,289.017961165049,639.199029126214,962.388349514563,954.670873786408,293.966990291262,284.068932038835,653.174757281553,625.223300970874,0
2422.9888,-0.559929419947536,-0.351165899566853,-0.542258303660831,-0.070080260532874,0.247651448163756,0.247651448167507,,-0.20931249903031,-0.276724531627961,-0.412301399328892,0.0418805157870185,-0.41230139933122,-0.0620027373277035,,-0.163826751681712,0.503542532193853,,0.637700281479891,,-0.693818754157025,-1.09670590842504,,-0.106590635405316,,0.215724404237511,,,,,,-0.410856281708237,,,,,,,,,,,,-0.0453393998115828,0.137662774397675,,,,,,,,4.91519999999991,102,983.541666666667,256.096078431373,655.245098039216,990.376470588235,976.706862745098,260.191176470588,252.000980392157,672.970588235294,637.519607843137,0
2423.0912,-0.546336593547067,-0.370429182670124,-0.545757998438969,-0.0689461898991614,0.238088885751676,0.238088885755454,,-0.207848420717381,-0.276593450564571,-0.415434477449034,0.0383641797081153,-0.41543447745137,-0.0640569600474011,,-0.167417709363357,0.492212021292076,,0.624552195835033,,-0.696116500212225,-1.1054563029438,,-0.122072155604393,,0.224377613499209,,,,,,-0.412455660048294,,,,,,,,,,,,-0.063441656971543,0.152087449742182,,,,,,,,5.01759999999968,102,991.413725490196,260.236764705882,656.210784313726,997.006862745098,985.820588235294,264.549019607843,255.924509803922,674.21568627451,638.205882352941,0
2423.1936,-0.532352496460251,-0.38913285832324,-0.548690346127982,-0.0682705192171319,0.228626539144511,0.228626539148318,,-0.206358061533456,-0.276724366348452,-0.418210861168778,0.0353692738001524,-0.41821086117112,-0.0664839685987531,,-0.171226156574797,0.480076349813785,,0.610916741649724,,-0.697308995948533,-1.11313721867365,,-0.137161781398487,,0.232276676971102,,,,,,-0.413739016381471,,,,,,,,,,,,-0.081614153781549,0.166191134822894,,,,,,,,5.11999999999989,103,986.845145631068,262.923786407767,653.097087378641,989.7,983.990291262136,270.285436893204,255.56213592233,674.980582524272,631.21359223301,0
2423.296,-0.517993538622523,-0.407257886923792,-0.551053649895432,-0.0680446571293769,0.2192868029606,0.219286802964434,,-0.204839824924653,-0.2771121269688,-0.420621797364199,0.0328913192690121,-0.420621797366546,-0.0692791006811612,,-0.175246641841254,0.467153868981746,,0.596814025490577,,-0.697401697939143,-1.11976210464771,,-0.151823626273473,,0.239422807932449,,,,,,-0.414735530172749,,,,,,,,,,,,-0.0998432971576625,0.179946996437778,,,,,,,,5.22239999999965,102,980.270588235294,270.770588235294,643.03431372549,982.989215686275,977.551960784314,274.688235294118,266.852941176471,663.21568627451,622.852941176471,0
2423.3984,-0.503277086921892,-0.424787338108249,-0.552848044597136,-0.068258318020123,0.210090794467017,0.210090794470884,,-0.203291745231325,-0.277750428972556,-0.422658471551928,0.0309243916790925,-0.42265847155428,-0.0724366974610655,,-0.179473053542576,0.453465428126623,,0.582265031080845,,-0.696404587457341,-1.12534783190384,,-0.166023616750722,,0.245820157065494,,,,,,-0.415473837049914,,,,,,,,,,,,-0.118114606855864,0.193330913608274,,,,,,,,5.32479999999987,103,938.626699029126,284.710679611651,642.859223300971,942.033009708738,935.220388349515,290.897087378641,278.52427184466,660.427184466019,625.291262135922,0
2423.5008,-0.488221436498091,-0.441706423591162,-0.554075499468512,-0.0688995614525727,0.201058294760007,0.201058294763909,,-0.201711482738265,-0.27863184656768,-0.424312096976677,0.0294611283309843,-0.424312096979034,-0.0759501047969546,,-0.183898621913242,0.439034276418538,,0.567291552990876,,-0.694332134149786,-1.12991457797988,,-0.179729575527393,,0.251475799138737,,,,,,-0.41598187884378,,,,,,,,,,,,-0.136412702790662,0.206321492299816,,,,,,,,5.42719999999963,102,921.622058823529,290.903921568627,638.68137254902,925.697058823529,917.547058823529,298.139215686275,283.66862745098,656.794117647059,620.56862745098,0
2423.6032,-0.472845774505045,-0.458002517881792,-0.554739809082085,-0.0699548392785025,0.192207698347686,0.192207698351617,,-0.200096322242477,-0.279747866131846,-0.425574003014294,0.0284927525756489,-0.425574003016658,-0.0798116766892823,,-0.188515923531633,0.423885959313768,,0.551916135856901,,-0.691203226086015,-1.13348569020432,,-0.192911288523787,,0.256399704676127,,,,,,-0.416286766102439,,,,,,,,,,,,-0.154721298956886,0.218900057855657,,,,,,,,5.52959999999985,102,947.530882352941,279.221078431373,626.995098039216,949.196078431373,945.86568627451,287.396078431373,271.046078431373,646.06862745098,607.921568627451,0
2423.7056,-0.457170136220429,-0.473665170519191,-0.55484657468568,-0.0714090505302369,0.183555969302408,0.183555969306375,,-0.198443173918682,-0.281088926037303,-0.426435721409521,0.0280091074515628,-0.42643572141189,-0.0840127819292478,,-0.193316889050163,0.408048207797898,,0.536162012629811,,-0.68704107021966,-1.13608752542264,,-0.205540558297046,,0.260604692782703,,,,,,-0.416414652374414,,,,,,,,,,,,-0.173023205025088,0.2310506288126,,,,,,,,5.63199999999961,103,973.985436893204,258.824757281553,624.199029126214,974.433009708738,973.53786407767,268.91359223301,248.735922330097,644.359223300971,604.038834951456,0
2423.808,-0.441215352888386,-0.488686107759657,-0.554403174318686,-0.0732456042777737,0.175118605540095,0.175118605544095,,-0.196748574910095,-0.282644461254732,-0.426889070424556,0.0279986942979307,-0.426889070426931,-0.0885438142256703,,-0.198292814058989,0.391550820500902,,0.520053040039519,,-0.681873062530302,-1.13774926897079,,-0.217591243799184,,0.264106361560227,,,,,,-0.416390622997158,,,,,,,,,,,,-0.19130034011247,0.242759875606855,,,,,,,,5.73439999999982,102,978.873039215686,256.168137254902,623.5,979.683333333333,978.062745098039,264.774509803922,247.561764705882,641.696078431373,605.303921568627,0
2423.9104,-0.425002992150283,-0.503059217726041,-0.55341871862048,-0.0754464911490208,0.166909615206484,0.166909615210518,,-0.195008690330728,-0.28440295196099,-0.426926237806782,0.028448719286326,-0.426926237809162,-0.0933942045439771,,-0.203434371546773,0.374425541338101,,0.503613634620086,,-0.675730620064021,-1.13850273896719,,-0.229039285081481,,0.266922996449429,,,,,,-0.416238602884177,,,,,,,,,,,,-0.20953376343456,0.25401706735545,,,,,,,,5.83680000000004,103,987.205339805825,250.321359223301,618.271844660194,991.081553398058,983.329126213592,263.729126213592,236.91359223301,634.844660194175,601.699029126214,0
2424.0128,-0.408555293026014,-0.516780512676639,-0.551903989690327,-0.0779923630098491,0.158941509642936,0.158941509646998,,-0.193219313717126,-0.286351975387502,-0.426539863764821,0.0293451544304601,-0.426539863767208,-0.0985524338584248,,-0.208731624031909,0.356705934800435,,0.486868714835924,,-0.668648973628368,-1.13838217659891,,-0.239862712550038,,0.269075462437352,,,,,,-0.415981284479143,,,,,,,,,,,,-0.227703726122302,0.264814009815462,,,,,,,,5.9391999999998,102,1075.68529411765,235.575,602.730392156863,1082.08333333333,1069.28725490196,245.186274509804,225.963725490196,619.56862745098,585.892156862745,0
2424.1152,-0.391895096942598,-0.529848065689555,-0.549871362263762,-0.0808626180426914,0.151225314711465,0.15122531471556,,-0.191375868844898,-0.288478260612033,-0.425723124165522,0.0306728170298629,-0.425723124167915,-0.10400604543285,,-0.214174034300523,0.338427258537512,,0.469843653283801,,-0.66066692868721,-1.13742401634668,,-0.250041642130043,,0.270587088434931,,,,,,-0.415640071715007,,,,,,,,,,,,-0.245789746263579,0.275144974701636,,,,,,,,6.04160000000002,102,1071.66176470588,231.986764705882,602.740196078431,1073.72941176471,1069.59411764706,238.585294117647,225.388235294118,618.78431372549,586.696078431373,0
2424.2176,-0.375045775651599,-0.542261924929142,-0.547334709602863,-0.0840354882269032,0.143770597897285,0.143770597901408,,-0.189473414997623,-0.290767746450483,-0.424469811877231,0.0324154649510474,-0.42446981187963,-0.109741657196476,,-0.219750474970793,0.319626331572911,,0.452564238160228,,-0.651826601617385,-1.13566663191906,,-0.259558259058139,,0.271483548154162,,,,,,-0.415235033966465,,,,,,,,,,,,-0.263770704689171,0.285006616630409,,,,,,,,6.14399999999978,103,1065.18586632152,233.232215200504,600.134554889865,1068.63132231149,1061.74041033156,239.115831756568,227.34859864444,614.643537330562,585.625572449167,0
2424.32,-0.358031156009118,-0.554024012851353,-0.544309298496462,-0.0874881284127158,0.136585506526627,0.136585506530778,,-0.187506656754102,-0.29320564268863,-0.422774412439106,0.0345559000487862,-0.422774412441511,-0.115744976145789,,-0.225449238446642,0.300341396327779,,0.435056637994005,,-0.642173134813671,-1.13315006084223,,-0.268396794575061,,0.271792735670709,,,,,,-0.414784866575444,,,,,,,,,,,,-0.281624957295518,0.294397874836984,,,,,,,,6.24639999999999,102,1046.02074969357,231.53532737557,601.331879056403,1052.24936102236,1039.79213836478,237.073642172524,225.997012578616,613.615015974441,589.048742138365,0.725490196078431
2424.4224,-0.340875440049286,-0.565138017197972,-0.540811676548553,-0.0911967082224725,0.129676813696467,0.129676813700644,,-0.185469959230407,-0.295776494879539,-0.420632170526636,0.0370760731916721,-0.420632170529048,-0.122000817314872,,-0.23125804963238,0.280611973441653,,0.417347362361798,,-0.631754389808264,-1.12991571354769,,-0.27654350085682,,0.271544631240113,,,,,,-0.41430685813777,,,,,,,,,,,,-0.299330462543355,0.303319861040636,,,,,,,,6.34879999999976,103,1025.94605662387,229.288357747102,603.263266823397,1034.59840255591,1017.29371069182,234.15910543131,224.417610062893,613.287539936102,593.238993710692,0.41747572815534
2424.5248,-0.323603118624004,-0.575609277120404,-0.536859552734973,-0.0951365086043884,0.123049970369432,0.123049970373637,,-0.183357369835311,-0.298464252779025,-0.418039145251082,0.0399571890888441,-0.418039145253501,-0.128493129375336,,-0.237164083436693,0.26047870966395,,0.399463214257159,,-0.62062061544657,-1.12600607073242,,-0.283986628699815,,0.270771153877033,,,,,,-0.413816865669516,,,,,,,,,,,,-0.316864925839593,0.311775737682851,,,,,,,,6.45119999999997,102,1008.3308379204,225.001986216553,608.273751958637,1018.38826974879,998.273406091996,223.641862431874,226.362110001233,617.346739334712,599.200764582563,0
2424.6272,-0.306238878708928,-0.585444665611286,-0.532471671994239,-0.0992820244560376,0.11670916274682,0.116709162751056,,-0.181162646606052,-0.301252341727389,-0.414992254315907,0.0431798106818747,-0.41499225431833,-0.135205027832575,,-0.243153988027149,0.239983219322775,,0.381431233139349,,-0.608824095170502,-1.12146437284358,,-0.290716409369223,,0.269505999331127,,,,,,-0.41332929702548,,,,,,,,,,,,-0.334205961534244,0.319770591223485,,,,,,,,6.55359999999973,102,1007.56225490196,233.144117647059,611.897058823529,1015.36568627451,999.758823529412,228.903921568627,237.38431372549,626.43137254902,597.362745098039,0
2424.7296,-0.288807505976299,-0.594652470200823,-0.527667685974049,-0.10360707345247,0.110657373676395,0.110657373680662,,-0.178879292022186,-0.304123735232227,-0.411489309282221,0.0467239605791514,-0.41148930928465,-0.142118835761915,,-0.249213913942287,0.219167920197806,,0.363278629503544,,-0.596418788545314,-1.11633431006436,,-0.29672503822766,,0.267784464418432,,,,,,-0.412857098576418,,,,,,,,,,,,-0.351331267639304,0.3273113034857,,,,,,,,6.65599999999995,103,765.776699029126,275.422330097087,628.485436893204,773.371844660194,758.181553398058,276.216504854369,274.628155339806,636.796116504854,620.174757281554,0
2424.832,-0.271333784820926,-0.603242275136364,-0.522468023158612,-0.108084909610448,0.104896446302819,0.104896446307123,,-0.17650059099865,-0.307061026690413,-0.40752904546379,0.0505692156591689,-0.407529045466222,-0.149216131308623,,-0.255329548709918,0.198075866411711,,0.345032713561087,,-0.583459985663161,-1.11065972458709,,-0.302006656054128,,0.265643260598622,,,,,,-0.412411746705323,,,,,,,,,,,,-0.368218802692313,0.334406421424758,,,,,,,,6.75839999999971,102,721.772549019608,294.225490196078,627.259803921569,733.461764705882,710.083333333333,297.216666666667,291.23431372549,629,625.519607843137,0
2424.9344,-0.253842398793792,-0.611224847731628,-0.516893761737815,-0.112688339265872,0.0994271483989459,0.0994271484032863,,-0.174019652081688,-0.31004649874582,-0.403111149232763,0.0546947925689327,-0.403111149235201,-0.15647780046116,,-0.261486156028329,0.176750582202172,,0.326720822695168,,-0.570003986949097,-1.10448433477616,,-0.306557324931905,,0.263120320809193,,,,,,-0.412003242988507,,,,,,,,,,,,-0.384846953805199,0.341066024841313,,,,,,,,6.86079999999993,103,725.919417475728,297.188834951456,617.708737864078,738.936893203884,712.901941747573,299.944660194175,294.433009708738,616.339805825243,619.077669902913,0
2425.0368,-0.236357834866241,-0.618612030318342,-0.510966508105023,-0.117389837151763,0.0942492364522403,0.0942492364566199,,-0.171429451057759,-0.31306218951153,-0.39823628368885,0.0590796239662594,-0.398236283691294,-0.163884092947671,,-0.267668617840124,0.155235899710834,,0.308370252474303,,-0.556107809430958,-1.09785148538862,,-0.310374997502905,,0.26025460351381,,,,,,-0.411640113627713,,,,,,,,,,,,-0.401194690567194,0.347301594133164,,,,,,,,6.96319999999969,102,729.48431372549,303.516666666667,597.93137254902,741.691176470588,717.277450980392,304.816666666667,302.216666666667,597.774509803922,598.088235294118,0
2425.1392,-0.218904293806131,-0.625416638484669,-0.504708282745267,-0.122161661061583,0.0893615187006604,0.0893615187050801,,-0.168722876314792,-0.316089955558094,-0.392906112175359,0.0637024260329081,-0.392906112177809,-0.171414679558156,,-0.273861477777155,0.1335758025226,,0.290008192995533,,-0.541828910163012,-1.09080392364186,,-0.313459480236048,,0.257085896017717,,,,,,-0.411329413495477,,,,,,,,,,,,-0.417241707027831,0.353125883945501,,,,,,,,7.0655999999999,102,731.920098039216,303.478431372549,574.818627450981,745.905882352941,717.93431372549,307.406862745098,299.55,577.421568627451,572.21568627451,0
2425.2416,-0.201505606467329,-0.631652364924151,-0.498141412990658,-0.126975965203708,0.0847619166773549,0.0847619166818163,,-0.165892775602113,-0.319111532125311,-0.387123318661135,0.0685417575576393,-0.38712331866359,-0.179048711357911,,-0.280048986115386,0.111814275687064,,0.271661668471965,,-0.527224918703133,-1.08338359884151,,-0.315812392782998,,0.253654616177308,,,,,,-0.411076734430792,,,,,,,,,,,,-0.432968556374029,0.358552807509445,,,,,,,,7.16799999999967,103,725.333980582524,293.25,557.533980582524,739.929126213592,710.738834951456,294.400970873786,292.099029126214,563.922330097087,551.145631067961,0
2425.344,-0.184185153966506,-0.637333686449452,-0.491288429976311,-0.131804913748453,0.0804475258733671,0.0804475258778655,,-0.162932004259608,-0.322108591077844,-0.380891624613157,0.0735760708775151,-0.380891624615619,-0.186764883470103,,-0.286215148268982,0.0899951622862916,,0.253357476418629,,-0.512353383567994,-1.07563148316599,,-0.317437125395318,,0.250001610159197,,,,,,-0.410886216938655,,,,,,,,,,,,-0.448356778244028,0.36359732918777,,,,,,,,7.27039999999988,102,954.18137254902,204.855882352941,539.862745098039,960.814705882353,947.548039215686,209.26568627451,200.446078431373,555.794117647059,523.93137254902,0
2425.4464,-0.166965790054846,-0.642475771986952,-0.48417196748455,-0.136620796039454,0.0764146763734946,0.0764146763780299,,-0.159833475239062,-0.325062796732809,-0.374215802912314,0.0787837553786908,-0.374215802914783,-0.194541506006247,,-0.292343778973837,0.0681620258126723,,0.235122124254856,,-0.497271545514975,-1.06758741169571,,-0.318338794697661,,0.246167944876806,,,,,,-0.41076056475723,,,,,,,,,,,,-0.463389013851484,0.368275356583311,,,,,,,,7.37279999999964,103,991.206796116505,187.589805825243,534.543689320388,999.088349514563,983.325242718447,195.108737864078,180.070873786408,551.116504854369,517.970873786408,0
2425.5488,-0.149869765784751,-0.647094391515801,-0.476814662714992,-0.141396143721548,0.0726589936536956,0.0726589936582684,,-0.156590211150913,-0.327955859286026,-0.367101689482689,0.0841431745781817,-0.367101689485164,-0.202356582457307,,-0.298418562629842,0.0463580168745767,,0.216981763972134,,-0.482036145811745,-1.05928993826857,,-0.318524196760642,,0.242194696015885,,,,,,-0.410701062462258,,,,,,,,,,,,-0.478049103847256,0.372603624356494,,,,,,,,7.47519999999986,102,994.091176470588,201.896078431373,540.911764705882,1001.73333333333,986.449019607843,206.120588235294,197.671568627451,556.78431372549,525.039215686275,0
2425.6512,-0.132918658133813,-0.651205827352543,-0.469239060805237,-0.146103848626463,0.0691754597063554,0.0691754597109635,,-0.153195398345416,-0.330769585410024,-0.359556192626285,0.0896326978319509,-0.359556192628768,-0.210187893650235,,-0.304423118516625,0.024625743874169,,0.198962128052067,,-0.466703271542517,-1.05077620056956,,-0.318001756748304,,0.238122734855251,,,,,,-0.410707596647442,,,,,,,,,,,,-0.492322167266407,0.376599568452414,,,,,,,,7.57759999999962,102,997.012254901961,210.319117647059,556.019607843137,1006.59607843137,987.428431372549,214.409803921569,206.228431372549,574.392156862745,537.647058823529,0
2425.7536,-0.116133304616543,-0.654826789188953,-0.461467525149135,-0.150717279490922,0.065958474977142,0.0659584749817887,,-0.149642442897359,-0.333485925942905,-0.35158729945313,0.0952307276183088,-0.351587299455621,-0.218013084732193,,-0.310341068965893,0.00300714968717,,0.181088470875586,,-0.451328237109289,-1.04208178740349,,-0.316781475710522,,0.233992517941576,,,,,,-0.410778681165975,,,,,,,,,,,,-0.506194665954577,0.380281197450108,,,,,,,,7.67999999999984,103,1000.48483198528,220.084108675857,581.235530510535,1010.70732000385,990.262343966713,222.603518215899,217.564699135816,601.410674805345,561.060386215726,0
2425.856,-0.0995337447434449,-0.657974333385618,-0.453522154323116,-0.155210396052732,0.0630019212428075,0.0630019212474997,,-0.145925028218995,-0.336087021445299,-0.343204078512087,0.100915723002765,-0.343204078514586,-0.225809753664642,,-0.316156109154286,-0.0184566047323789,,0.163385517701091,,-0.435965497021672,-1.03324060520059,,-0.31487487540377,,0.229843881961247,,,,,,-0.410911486647828,,,,,,,,,,,,-0.519654463361804,0.383666971868,,,,,,,,7.78240000000005,102,1000.85827439887,229.478330023936,592.723622293548,1010.33440594059,991.382142857143,233.585643564356,225.371016483517,612.617574257426,572.82967032967,0.588235294117647
2425.9584,-0.083139167163481,-0.660665785541211,-0.445424704343405,-0.159557860445881,0.0602992251561805,0.0602992251609189,,-0.142037173889366,-0.338555247012056,-0.334416677625792,0.106666219356374,-0.334416677628301,-0.233555541462633,,-0.321852078403698,-0.0397252538176208,,0.145877418512385,,-0.420668581742653,-1.02428474621201,,-0.312294940751571,,0.225715843403169,,,,,,-0.411101874258238,,,,,,,,,,,,-0.532690884578595,0.38677569958083,,,,,,,,7.88479999999981,103,1001.04674681754,238.599586552062,601.978565988467,1009.97920792079,992.114285714286,244.647524752475,232.551648351648,620.990099009901,582.967032967033,1
2426.0608,-0.0669678603610187,-0.662918664547027,-0.437196513919423,-0.16373514673222,0.0578434222461098,0.0578434222508891,,-0.137973295329381,-0.340873257441699,-0.325236316179599,0.112460844262537,-0.325236316182118,-0.241228225323255,,-0.32741303368826,-0.0607595442025168,,0.128587701382419,,-0.405490048803879,-1.01524436453585,,-0.30905605875215,,0.221646401725255,,,,,,-0.41134443378019,,,,,,,,,,,,-0.545294777615635,0.389626448322797,,,,,,,,7.98720000000003,102,1001.23322343789,247.71853888928,611.237926834862,1009.62400990099,992.84243697479,255.709405940594,239.727671837966,629.362623762376,593.113229907348,0.431372549019608
2426.1632,-0.0510371657421791,-0.664750607145843,-0.428858431424995,-0.167718649041463,0.0556272212831169,0.0556272212879369,,-0.133728264084217,-0.343024033143417,-0.315675271608315,0.118278329938002,-0.315675271610845,-0.248805815116267,,-0.332823325754035,-0.081521357802991,,0.111539222002147,,-0.390481442738536,-1.00614756665567,,-0.305173953698071,,0.21767234624303,,,,,,-0.411632526529156,,,,,,,,,,,,-0.557458570086283,0.392238469634993,,,,,,,,8.08959999999979,103,998.923442756897,249.330813226954,620.122524752475,1009.8604777468,987.98640776699,262.072306065558,236.58932038835,635.099418436989,605.145631067961,0
2426.2656,-0.0353634338071656,-0.666179293644281,-0.420430744389242,-0.171485787589731,0.0536430689096348,0.0536430689144978,,-0.129297468500626,-0.344990926752258,-0.305746860068838,0.124097522889335,-0.305746860071375,-0.256266652128317,,-0.338067677120112,-0.101973838983143,,0.0947541098230764,,-0.375693256205246,-0.99702032013531,,-0.30066562026521,,0.213829069278233,,,,,,-0.411958333996056,,,,,,,,,,,,-0.569176315526511,0.394631127943069,,,,,,,,8.19200000000001,102,1003.21666666667,250.058333333333,618.568627450981,1017.07843137255,989.354901960784,258.307843137255,241.808823529412,640.294117647059,596.843137254902,0
2426.368,-0.0199619855136716,-0.667222376408131,-0.411933113731295,-0.175015110719419,0.05188321428244,0.0518832142873407,,-0.124676874380402,-0.346757710281191,-0.29546541113054,0.129897391663473,-0.295465411133085,-0.263589507543241,,-0.343131260045413,-0.122081520203836,,0.0782537140656383,,-0.361174883571383,-0.987886380547138,,-0.295549256727483,,0.210150389591511,,,,,,-0.412312913092211,,,,,,,,,,,,-0.580443728763835,0.396823833522171,,,,,,,,8.29439999999977,102,1037.83578431373,233.578431372549,629.25,1048.92352941176,1026.74803921569,243.061764705882,224.095098039216,654.980392156863,603.519607843137,0
2426.4704,-0.00484708076002794,-0.667897412344694,-0.403384514603292,-0.178286391027133,0.0503397732076682,0.0503397732126066,,-0.119863084734592,-0.348308622359563,-0.28484623606292,0.13565703356902,-0.284846236065475,-0.270753678085027,,-0.347999772366554,-0.141810439366015,,0.0620585536135284,,-0.346974564020899,-0.978767235673257,,-0.289844199489263,,0.206668389292787,,,,,,-0.412686258054258,,,,,,,,,,,,-0.591258213037547,0.398835981017343,,,,,,,,8.39679999999999,103,1054.36504854369,227.48786407767,622.796116504854,1066.73495145631,1041.99514563107,236.866019417476,218.109708737864,644.893203883495,600.699029126214,0
2426.5728,0.0099681058478912,-0.668221799646812,-0.394803184103501,-0.181280714992223,0.0490047909246526,0.049004790929636,,-0.114853397404628,-0.349628414837414,-0.27390558931532,0.141355681203143,-0.273905589317884,-0.277739077896928,,-0.352659510355762,-0.161128244504176,,0.0461882724574825,,-0.333139320937772,-0.969682067098063,,-0.283570858382815,,0.203413264439219,,,,,,-0.413067368034602,,,,,,,,,,,,-0.601618880068574,0.400686892604353,,,,,,,,8.49919999999975,102,1014.04754901961,292.85637254902,608.161764705882,1026.38333333333,1001.71176470588,299.820588235294,285.892156862745,623.588235294118,592.735294117647,0
2426.6752,0.0244715030936646,-0.668212719040913,-0.386206575325115,-0.183980566975733,0.0478703023705997,0.0478703023756167,,-0.109645859378046,-0.350702398115268,-0.262660623246493,0.146972709408429,-0.262660623249064,-0.28452632735119,,-0.357097439055265,-0.18000428684312,,0.0306615988143632,,-0.319714904341053,-0.960647731808893,,-0.27675065207046,,0.2004131872186,,,,,,-0.413444319338396,,,,,,,,,,,,-0.611526562637786,0.402395762554919,,,,,,,,8.60159999999996,102,887.060294117647,514.280882352941,600.25,903.603921568627,870.516666666667,513.71862745098,514.843137254902,607.352941176471,593.147058823529,0
2426.7776,0.0386521556028411,-0.667887080092238,-0.377611317781163,-0.186369908409937,0.046928388885245,0.0469283888902933,,-0.104239316852176,-0.351516484824029,-0.251129336776853,0.152487642935135,-0.251129336779432,-0.291096839332163,,-0.361301260410045,-0.1984097056298,,0.015496305764828,,-0.306745733410041,-0.951678767937374,,-0.269405943756479,,0.197694178157114,,,,,,-0.413804341977514,,,,,,,,,,,,-0.620983819247489,0.403981600717621,,,,,,,,8.70399999999972,103,890.357766990291,521.345631067961,602.184466019418,905.32427184466,875.391262135922,527.908737864078,514.782524271845,612.252427184466,592.116504854369,0
2426.88,0.0525002295766676,-0.667261472479033,-0.369033184789055,-0.188434251666745,0.0461712311981677,0.0461712312032491,,-0.0986334601744952,-0.352057231572146,-0.239330518891563,0.157880164953355,-0.239330518894148,-0.297432902245207,,-0.365259478448446,-0.216317505175785,,0.000709174105601868,,-0.29427483249072,-0.942787425213088,,-0.261559976405837,,0.195279989273931,,,,,,-0.414133900618161,,,,,,,,,,,,-0.629994929624783,0.405463173877877,,,,,,,,8.80639999999994,102,916.720098039216,553.872549019608,616.235294117647,927.977450980392,905.462745098039,559.627450980392,548.117647058824,628.950980392157,603.519607843137,0
2426.9824,0.066007009999918,-0.666352121129461,-0.360487068221796,-0.190160726785128,0.0455911594672632,0.0455911594723767,,-0.0928288627758052,-0.352311878400181,-0.227283687822801,0.163130126837024,-0.22728368782539,-0.303517758084626,,-0.368961460022987,-0.233702621626232,,-0.0136840399936457,,-0.282343761214583,-0.933983714445402,,-0.253236804456957,,0.193192001351489,,,,,,-0.414418779827506,,,,,,,,,,,,-0.638565879843994,0.406858946413869,,,,,,,,8.9087999999997,103,1001.69514563107,711.695145631068,631.111650485437,1008.92038834951,994.469902912621,720.778640776699,702.611650485437,648.52427184466,613.699029126214,0
2427.0848,0.079164888383953,-0.665174843971435,-0.351986960432605,-0.191538138976265,0.045180701175085,0.0451807011802243,,-0.0868270133257364,-0.352268385716314,-0.215009026561447,0.168217559901751,-0.215009026564042,-0.309335674010118,,-0.372397489720435,-0.250541977936045,,-0.0276686307884834,,-0.270992546155506,-0.925275468851166,,-0.24446121926826,,0.191449138567079,,,,,,-0.414644173009724,,,,,,,,,,,,-0.646704338803862,0.408187025037395,,,,,,,,9.01119999999992,102,1010.55392156863,724.520588235294,651.627450980392,1016.22843137255,1004.87941176471,737.576470588235,711.464705882353,669.794117647059,633.460784313726,0
2427.1872,0.0919673420945201,-0.663745011704446,-0.343545942376844,-0.192557016037382,0.0449326268760894,0.0449326268812559,,-0.0806303407635181,-0.351915469031085,-0.202527315100895,0.173122689595338,-0.202527315103496,-0.314872006998839,,-0.375558818471144,-0.266814528258038,,-0.0412309633690231,,-0.260259620299209,-0.916668414214631,,-0.235258669001776,,0.190067801025352,,,,,,-0.414794773903304,,,,,,,,,,,,-0.654419629084165,0.409465112073389,,,,,,,,9.11359999999968,102,1023.91078431373,730.029901960784,671.593137254902,1028.13039215686,1019.69117647059,742.508823529412,717.550980392157,688.803921568627,654.382352941177,0
2427.2896,0.104408907709202,-0.662077509597021,-0.335176176485227,-0.193209646513986,0.0448399930962829,0.0448399931014748,,-0.0742422323210775,-0.351242632224603,-0.189859859641937,0.177825952201088,-0.189859859644542,-0.320113262309902,,-0.378437706401654,-0.282501294682578,,-0.0543584925426956,,-0.250181770981688,-0.908166248257471,,-0.225655176439685,,0.189061812670591,,,,,,-0.414854869470519,,,,,,,,,,,,-0.661722691801907,0.410710466811083,,,,,,,,9.21599999999989,103,1035.44077669903,736.570388349515,683.766990291262,1038.53786407767,1032.34368932039,750.287378640777,722.853398058252,700.077669902913,667.456310679612,0
2427.392,0.116485150410648,-0.660186701529491,-0.326888903231682,-0.193490109910374,0.0448961817471757,0.044896181752386,,-0.0676670446144451,-0.350240199822508,-0.177028419241973,0.182308013833213,-0.177028419244582,-0.325047146519946,,-0.381027460514333,-0.297585398774677,,-0.0670397833613149,,-0.240794092086132,-0.899770728515316,,-0.215677257510458,,0.18844238181182,,,,,,-0.414808433510533,,,,,,,,,,,,-0.66862604203525,0.411939871365714,,,,,,,,9.31839999999966,102,1043.70490196078,741.357843137255,697.333333333333,1045.5862745098,1041.82352941176,753.938235294118,728.777450980392,713.147058823529,681.519607843137,0
2427.4944,0.128192629780494,-0.658086396638277,-0.318694441393329,-0.193394299181418,0.0450949357410197,0.0450949357462444,,-0.0609101075199379,-0.348899348169787,-0.164055130933219,0.186549791577051,-0.164055130935831,-0.329662614924534,,-0.383322466938316,-0.31205208803741,,-0.0792645328521625,,-0.232129934500981,-0.891481765763343,,-0.205351841240804,,0.188218073930598,,,,,,-0.414639220935182,,,,,,,,,,,,-0.675143712323379,0.41316959965524,,,,,,,,9.42079999999987,103,1052.39174757282,745.582524271845,711.072815533981,1057.61359223301,1047.16990291262,759.96213592233,731.202912621359,726.155339805825,695.990291262136,0
2427.5968,0.139528860878904,-0.655789818995357,-0.310602192923104,-0.192919934336665,0.0454303906357322,0.0454303906409646,,-0.0539777204837795,-0.347212135039164,-0.15096243446394,0.190532476958034,-0.150962434466555,-0.333949912148288,,-0.385318216675873,-0.325888755781032,,-0.0910235899130142,,-0.224220850745581,-0.883297520927637,,-0.194706190934831,,0.188394799038073,,,,,,-0.414330862919412,,,,,,,,,,,,-0.681291183280348,0.414415390444966,,,,,,,,9.52319999999963,102,1053.7318627451,753.55931372549,720.294117647059,1060.93921568627,1046.52450980392,768.651960784314,738.466666666667,730.352941176471,710.235294117647,0
2427.6992,0.15049226923653,-0.6533095806348,-0.302620653435527,-0.192066565449379,0.0458971021309833,0.0458971021362238,,-0.04687714119152,-0.345171527361277,-0.137772997151932,0.194237562100664,-0.13777299715455,-0.337900604485133,,-0.387011323494786,-0.33908495363743,,-0.10230897056295,,-0.217096531478271,-0.875214506436903,,-0.183767826239698,,0.188975816364692,,,,,,-0.413866962923588,,,,,,,,,,,,-0.687085299801553,0.415692422886898,,,,,,,,9.62559999999985,102,1058.06323529412,761.529901960784,736.230392156863,1064.88039215686,1051.24607843137,775.960784313726,747.099019607843,745.21568627451,727.245098039216,0
2427.8016,0.161082139880786,-0.650657657869139,-0.294757428199051,-0.190835564267473,0.0464900690956756,0.046490069100926,,-0.0396165668324664,-0.342771427315316,-0.124509638471697,0.197646868693917,-0.124509638474317,-0.341507603269704,,-0.388399533273611,-0.351632398086446,,-0.113113868042109,,-0.210784731271283,-0.867227693976779,,-0.172564445824008,,0.189961756854686,,,,,,-0.413231193000856,,,,,,,,,,,,-0.692544171718829,0.417015289448512,,,,,,,,9.72799999999961,103,1060.68980582524,769.092718446602,766.194174757282,1066.18834951456,1055.19126213592,783.779611650486,754.405825242719,777.922330097087,754.466019417476,0
2427.904,0.171298562738445,-0.647845370184055,-0.287019251821055,-0.189230105299847,0.0472047518433495,0.0472047518486023,,-0.0322051083312168,-0.340006697211896,-0.111195253961221,0.200742579602747,-0.111195253963843,-0.344765180249934,,-0.389481725582101,-0.363524973509765,,-0.123432659807219,,-0.20531118482618,-0.859330628745447,,-0.161123850692602,,0.191350660881769,,,,,,-0.412407389236644,,,,,,,,,,,,-0.697687061719095,0.41839796360601,,,,,,,,9.83039999999983,102,664.282843137255,670.689215686275,797.642156862745,668.686274509804,659.879411764706,657.367647058824,684.010784313726,809.450980392157,785.833333333333,0
2428.0064,0.181142377528201,-0.644883360878378,-0.279412009281552,-0.187255138120106,0.0480370855858711,0.0480370855911354,,-0.0246527579668848,-0.336873183047797,-0.097852739015509,0.203507273110218,-0.0978527390181315,-0.347668976982834,,-0.390257909300796,-0.374758733070798,,-0.133260913974833,,-0.200699522022701,-0.851515548342732,,-0.149473868668795,,0.19313802798339,,,,,,-0.411379645241268,,,,,,,,,,,,-0.702534267437133,0.41985376578148,,,,,,,,9.93280000000004,103,615.777669902913,679.509223300971,812.417475728155,621.565048543689,609.990291262136,673.773786407767,685.244660194175,824.699029126214,800.135922330097,0
2428.1088,0.190615119928351,-0.641781579972235,-0.271940757571694,-0.184917352039458,0.0489834887023759,0.0489834887076457,,-0.0169703509546661,-0.333367736107667,-0.0845049140896686,0.205923960074433,-0.0845049140922908,-0.350216009572882,,-0.390729213577659,-0.385331895944175,,-0.142595395818471,,-0.196971188683715,-0.843773504950781,,-0.137642280898302,,0.195316877456384,,,,,,-0.410132403512407,,,,,,,,,,,,-0.707107004036932,0.421395332667555,,,,,,,,10.0351999999998,102,624.823039215686,692.585784313726,812.132352941176,628.898039215686,620.748039215686,691.797058823529,693.374509803922,823.225490196078,801.039215686275,0
2428.2112,0.199718969007524,-0.63854927164234,-0.264609749298857,-0.182225132989946,0.0500408648340232,0.0500408648393009,,-0.00916952165944129,-0.3294882320709,-0.0711744527522456,0.207976124234214,-0.071174452754867,-0.352404668232202,,-0.390897873861612,-0.395244837643381,,-0.151434072568635,,-0.194145368863727,-0.836094492560928,,-0.125656750410352,,0.197877821021021,,,,,,-0.408650545375781,,,,,,,,,,,,-0.711427289625289,0.423034592755858,,,,,,,,10.1376,102,640.843137254902,703.668137254902,794.102941176471,647.895098039216,633.791176470588,700.630392156863,706.705882352941,804.921568627451,783.28431372549,0
2428.3136,0.208456695516946,-0.635194968343793,-0.257422459791054,-0.179188511537538,0.0512065979563326,0.0512065979616181,,-0.00126265484593751,-0.325233587332346,-0.0578838131423773,0.209647765543544,-0.0578838131449963,-0.354234709930064,,-0.390767211630723,-0.40450007157293,,-0.159776114465933,,-0.192238899879691,-0.828467583077547,,-0.113544751353509,,0.200809149386671,,,,,,-0.4069194799466,,,,,,,,,,,,-0.715517833433162,0.42478274995771,,,,,,,,10.2399999999998,103,650.74854368932,710.717961165049,782.140776699029,661.567961165049,639.929126213592,706.112621359223,715.323300970874,792.78640776699,771.495145631068,0
2428.416,0.216831611986819,-0.631726491819195,-0.250381617262744,-0.175819101288078,0.0524785405175549,0.0524785405228435,,0.00673716804117421,-0.320603772430212,-0.0446551727028439,0.210923446150517,-0.0446551727054614,-0.355707243174788,,-0.390341606932993,-0.413102223357116,,-0.167621892522635,,-0.191266180148116,-0.82088107296864,,-0.101333497886133,,0.204096932767724,,,,,,-0.40492523120986,,,,,,,,,,,,-0.71940192619267,0.426650275856566,,,,,,,,10.3424,102,780.012254901961,674.279411764706,782.612745098039,787.141176470588,772.883333333333,674.072549019608,674.486274509804,795.921568627451,769.303921568627,0
2428.5184,0.224847527054562,-0.628150959580137,-0.243489233755434,-0.172130028398124,0.0538549953670303,0.0538549953723253,,0.0148162276182756,-0.315599822710472,-0.0315103661586766,0.211788338607177,-0.0315103661612915,-0.356824705990358,,-0.389626464555853,-0.421058001103452,,-0.174972976242719,,-0.191239078349802,-0.813322638477509,,-0.0890498739759438,,0.207725132763428,,,,,,-0.402654521518464,,,,,,,,,,,,-0.723103331122466,0.428646907201905,,,,,,,,10.4447999999998,103,798.752912621359,676.5,783.281553398058,806.898058252427,790.607766990291,679.177669902913,673.822330097087,798.864077669903,767.699029126214,0
2428.6208,0.232508706204885,-0.624474795019255,-0.236746634457337,-0.168135854014472,0.0553346923900837,0.0553346923953702,,0.0229602300812691,-0.310223846383835,-0.0184708272225761,0.212228275882758,-0.0184708272251877,-0.357590839223805,,-0.388628175734216,-0.428376162932776,,-0.181832134218154,,-0.192166850871559,-0.805779496239975,,-0.076720366382698,,0.211675722244428,,,,,,-0.400094850387181,,,,,,,,,,,,-0.726646173577006,0.430781644106789,,,,,,,,10.5472,102,784.976960784314,679.414705882353,714.759803921569,788.004901960784,781.949019607843,685.485294117647,673.344117647059,726.970588235294,702.549019607843,0
2428.7232,0.239819839322291,-0.620703739304984,-0.230154484056647,-0.163852491196669,0.0569167611470909,0.0569167611523761,,0.0311543751206779,-0.304479029752735,-0.005557534550849,0.212229802546074,-0.00555753455345741,-0.358010656491773,,-0.387354076719169,-0.435067480492676,,-0.188203337009468,,-0.194056069618527,-0.79823856702056,,-0.0643710012824144,,0.215928811487002,,,,,,-0.397234568317289,,,,,,,,,,,,-0.730054828911814,0.433062748214715,,,,,,,,10.6495999999997,102,437.230392156863,433.955882352941,591.39705882353,445.691176470588,428.769607843137,429.156862745098,438.754901960784,589.843137254902,592.950980392157,0
2428.8256,0.24678601373929,-0.616842863879944,-0.223712810201413,-0.159297116668817,0.0586007009106802,0.0586007009159632,,0.0393834279363315,-0.298369639037423,0.00720903825088628,0.211780226302142,0.00720903824827887,-0.358090410241632,,-0.385812403941468,-0.441144696201707,,-0.194091758063116,,-0.196910558427783,-0.790686641030949,,-0.0520272825394241,,0.220462780982947,,,,,,-0.394062945700909,,,,,,,,,,,,-0.733353809468254,0.43549774367252,,,,,,,,10.752,103,329.407766990291,254.773786407767,522.296116504854,351.909708737864,306.905825242718,265.395145631068,244.152427184466,524.252427184466,520.339805825243,0
2428.928,0.253412690803838,-0.612896583739369,-0.217421025342497,-0.154488076689019,0.0603863487619683,0.0603863487672491,,0.0476317950166373,-0.291901018289904,0.0198089695108289,0.2108676692784,0.0198089695082221,-0.357837552106296,,-0.384012244402309,-0.446622472477164,,-0.19950376761299,,-0.20073133358329,-0.78311054165422,,-0.0397141292326274,,0.225254422415914,,,,,,-0.390570236807461,,,,,,,,,,,,-0.73656765116317,0.438093423586139,,,,,,,,10.8543999999997,102,692.185784313725,257.110784313726,507,706.58137254902,677.790196078431,269.344117647059,244.877450980392,518.627450980392,495.372549019608,0
2429.0304,0.259705684866409,-0.608868672176147,-0.211277948022758,-0.149444786387782,0.0622738457902214,0.062273845795507,,0.0558836031121037,-0.28507958319978,0.0322229341993021,0.209481118901948,0.032222934196695,-0.357260686258487,,-0.381963480411471,-0.451517332701644,,-0.20444691735426,,-0.205516547866149,-0.775497280997143,,-0.0274558120257731,,0.23027908829278,,,,,,-0.386747738427092,,,,,,,,,,,,-0.739720799154711,0.440855862265142,,,,,,,,10.9567999999999,103,981.786893203883,286.365048543689,514.393203883495,997.878640776699,965.695145631068,296.025242718447,276.704854368932,535.233009708738,493.553398058252,0
2429.1328,0.265671145524182,-0.604762276920186,-0.205281823072981,-0.144187623253737,0.0642636017709162,0.0642636017762018,,0.0641227805755157,-0.277912810874791,0.0444322467563396,0.20761047838981,0.0444322467537324,-0.356369516595556,,-0.379676729610134,-0.45584759507636,,-0.20892991733454,,-0.211261447271652,-0.767834201542637,,-0.0152758901128037,,0.235510848326214,,,,,,-0.382587842214669,,,,,,,,,,,,-0.742837493099691,0.443790432276973,,,,,,,,11.0591999999997,102,979.957843137255,299.424019607843,533.46568627451,995.926470588235,963.989215686274,311.059803921569,287.788235294118,558.235294117647,508.696078431373,0
2429.2352,0.271315544943176,-0.600579936829267,-0.199430339130563,-0.138737816757811,0.0663562594182504,0.0663562594235462,,0.0723331401385282,-0.270409225714998,0.0564189017252225,0.205246616609802,0.0564189017226151,-0.355174790232458,,-0.377163282605221,-0.459633299840137,,-0.212962607215397,,-0.217958352977476,-0.760109104823411,,-0.0031971505785347,,0.240922649271933,,,,,,-0.37808407989406,,,,,,,,,,,,-0.74594165463534,0.446901825395904,,,,,,,,11.1615999999999,102,985.04068627451,308.119607843137,557.720588235294,998.533333333333,971.548039215686,321.178431372549,295.060784313726,583.117647058824,532.323529411765,0
2429.3376,0.276645670870166,-0.596323598407194,-0.193720642684253,-0.133117336058763,0.0685526594639362,0.0685526594692347,,0.0804984622415501,-0.262578381346043,0.0681656118529394,0.202381416679622,0.0681656118503316,-0.35368823935627,,-0.374435040142478,-0.462896128380095,,-0.216555922288339,,-0.225596672697207,-0.752310372469465,,0.00875844891608271,,0.246486475882082,,,,,,-0.373231161305149,,,,,,,,,,,,-0.749056779404806,0.450194076186755,,,,,,,,11.2639999999997,103,990.254732672208,297.995262552408,576.619102653018,1001.69008299899,978.819382345427,312.168019356222,283.822505748595,601.76199810113,551.476207204906,0
2429.44,0.281668623847861,-0.591994632363708,-0.188149349654138,-0.127348776513932,0.0708538071329351,0.0708538071382419,,0.0886025780812638,-0.25443083848951,0.0796558436839342,0.199007822673215,0.0796558436813266,-0.351922521673802,,-0.371504450200678,-0.465659312200748,,-0.219721853343281,,-0.234162934436259,-0.744427082153601,,0.0205698329209554,,0.252173512895489,,,,,,-0.368025006178271,,,,,,,,,,,,-0.752205833640382,0.453670586506356,,,,,,,,11.3663999999999,102,992.650704331313,269.176052475926,593.835176095799,1003.00552050473,982.295888157895,282.081545741325,256.270559210526,618.477917981073,569.192434210526,0.931372549019608
2429.5424,0.286391816329626,-0.587593851248725,-0.18271255649063,-0.121455244500118,0.073260839771243,0.0732608397765572,,0.0966294517391247,-0.245978138639618,0.0908738509429882,0.195119884218039,0.0908738509403806,-0.349891158146286,,-0.368384444165505,-0.467947530974534,,-0.222473399475677,,-0.243640832980195,-0.736449116440455,,0.0322168545679416,,0.257954309570761,,,,,,-0.362462770755105,,,,,,,,,,,,-0.755411152675302,0.457334148263944,,,,,,,,11.4687999999996,103,994.888318217666,239.929229100946,611.015477129338,1004.00788643533,985.76875,251.202208201893,228.65625,634.968454258675,587.0625,0.310679611650485
2429.6448,0.290822972446822,-0.583121528851514,-0.177405851945253,-0.115460239869942,0.0757749952743177,0.0757749952796346,,0.104563261212654,-0.237232773436192,0.101804706127764,0.190712798946214,0.101804706125153,-0.347608466585422,,-0.365088371126089,-0.469786800595535,,-0.224824513893454,,-0.254011284562733,-0.728367262065355,,0.0436803347141354,,0.263798947676213,,,,,,-0.356542869588952,,,,,,,,,,,,-0.758694337302462,0.461186960969094,,,,,,,,11.5711999999999,102,996.138910946559,229.877402030981,623.448042359273,1004.82398094885,987.453840944272,233.420087214697,226.334716847265,646.382507577163,600.513577141383,0
2429.7472,0.294970128656838,-0.578577420979143,-0.172224329146848,-0.109387536432954,0.0783975814453447,0.0783975814506623,,0.112388478352599,-0.228208149790745,0.112434330660935,0.185782952429929,0.112434330658322,-0.345089490965078,,-0.361629930298987,-0.471204352916051,,-0.226790044381051,,-0.265252489769804,-0.720173298023499,,0.0549420949356778,,0.26967721153182,,,,,,-0.350264991879941,,,,,,,,,,,,-0.762076146767564,0.465230643257392,,,,,,,,11.6735999999996,102,1000.46960784314,245.773529411765,630.78431372549,1007.71568627451,993.223529411765,247.340196078431,244.206862745098,650.696078431373,610.872549019608,0
2429.8496,0.298841635800403,-0.573960787053078,-0.167162597333591,-0.103261062061498,0.0811299466582208,0.0811299466635395,,0.120089947245571,-0.218918551017528,0.1227495235127,0.180327954969776,0.122749523510085,-0.342349927600362,,-0.358023102684158,-0.472228507791851,,-0.228385670654875,,-0.277340003582154,-0.711860070454253,,0.0659849860783368,,0.275558757158878,,,,,,-0.34363011180876,,,,,,,,,,,,-0.765576392533633,0.469466241950153,,,,,,,,11.7759999999998,103,1010.62378640777,257.925242718447,649.776699029126,1016.03689320388,1005.21067961165,263.859223300971,251.991262135922,672.281553398058,627.271844660194,0
2429.952,0.302446162234838,-0.569270413185433,-0.162214793834951,-0.0971047800595635,0.0839734518701435,0.0839734518754522,,0.127652959967802,-0.209379094209823,0.132737987723674,0.174346674828666,0.132737987721057,-0.339406049274084,,-0.354282083135063,-0.47288853631657,,-0.229627839477429,,-0.290246806129429,-0.703421553638857,,0.076792913281693,,0.28141327842119,,,,,,-0.336640493452739,,,,,,,,,,,,-0.769213838374289,0.473894243116093,,,,,,,,11.8784000000001,102,1082.61862745098,347.85,662.093137254902,1089.75980392157,1075.47745098039,355.495098039216,340.204901960784,687.921568627451,636.264705882353,0
2430.0544,0.305792696642431,-0.56450463816072,-0.157374597988449,-0.0909425722969236,0.086929443788041,0.0869294437933417,,0.135063328577907,-0.199605683885697,0.142388354227131,0.167839267873,0.142388354224514,-0.336274627217894,,-0.350421213075291,-0.473214514091218,,-0.230533696493462,,-0.303943366102977,-0.694852899101462,,0.087350857049792,,0.287210670229341,,,,,,-0.329299691581484,,,,,,,,,,,,-0.773006108205922,0.478514586750251,,,,,,,,11.9807999999998,103,1090.36893203884,356.532524271845,680.228155339806,1095.68446601942,1085.05339805825,365.080582524272,347.984466019418,710.446601941748,650.009708737864,0
2430.1568,0.308890548754982,-0.559661382431343,-0.152635248097994,-0.0847981233881505,0.0899992294609179,0.0899992294662065,,0.142307452874077,-0.189614961636147,0.151690202720807,0.160807203718328,0.151690202718188,-0.332972850019695,,-0.346454913211998,-0.473237165301832,,-0.231121013123397,,-0.318397697242282,-0.686150475069007,,0.0976448895693198,,0.292921190290647,,,,,,-0.321612548881003,,,,,,,,,,,,-0.776969598107727,0.483326682754704,,,,,,,,12.0832,102,1094.98823529412,358.845098039216,696.480392156863,1098.68039215686,1091.29607843137,366.428431372549,351.261764705882,726.872549019608,666.088235294118,0
2430.2592,0.311749347186619,-0.554738178234965,-0.147989560777861,-0.0786948050371971,0.0931840531714361,0.0931840531767157,,0.149372384183873,-0.179424251448306,0.160634079631772,0.153253288387926,0.160634079629152,-0.329518239089494,,-0.342397615790471,-0.47298770075701,,-0.231408108300885,,-0.333575420339648,-0.677311897649863,,0.10766218681823,,0.298515620055118,,,,,,-0.313585188591912,,,,,,,,,,,,-0.781119388588113,0.488329423349564,,,,,,,,12.1855999999998,103,1100.01116504854,365.898058252427,700.572815533981,1106.91262135922,1093.10970873786,377.858252427184,353.93786407767,732.242718446602,668.902912621359,0
2430.3616,0.314379035093813,-0.54973219843395,-0.143429950817498,-0.0726555608036677,0.0964850764195499,0.0964850764248194,,0.156245885551687,-0.16905150074506,0.169211513145631,0.14518168330509,0.169211513143008,-0.325928561896474,,-0.338263697116833,-0.472497654780252,,-0.231413767430241,,-0.349439845702899,-0.668336054861191,,0.117391038192801,,0.303965423228321,,,,,,-0.305225000975661,,,,,,,,,,,,-0.785469157385078,0.493521188100621,,,,,,,,12.288,102,1106.09117647059,371.400490196078,697.142156862745,1116.12254901961,1096.05980392157,385.636274509804,357.164705882353,727.598039215686,666.686274509804,0
2430.464,0.316789864664473,-0.544640282518127,-0.138948450038786,-0.0667027927574155,0.0999033611949723,0.0999033612002246,,0.162916488273723,-0.158515217563692,0.17741502485423,0.136597920318799,0.177415024851606,-0.322221745184685,,-0.334067411987965,-0.47179872481058,,-0.231157161785183,,-0.365952082288729,-0.65922312328028,,0.126820854660267,,0.309242899088531,,,,,,-0.296540623135915,,,,,,,,,,,,-0.790031097245346,0.49889984229311,,,,,,,,12.3903999999998,102,1084.26764705882,355.792647058824,702.230392156863,1092.63333333333,1075.90196078431,367.11568627451,344.469607843137,729.696078431373,674.764705882353,0
2430.5664,0.318992390145189,-0.539458959063106,-0.134536724893841,-0.0608582514298714,0.103439856341079,0.103439856346324,,0.169373544439854,-0.147834404251493,0.185238137217636,0.127508912453247,0.18523813721501,-0.318415789728222,,-0.329822831252789,-0.470922612677153,,-0.230657769355072,,-0.383071170090223,-0.649974575670536,,0.135942174524529,,0.314321329019125,,,,,,-0.287541913068691,,,,,,,,,,,,-0.794815843881978,0.504462733478473,,,,,,,,12.4928,103,1014.05873786408,299.13640776699,700.592233009709,1015.91165048544,1012.20582524272,303.680582524272,294.592233009709,721.961165048544,679.223300970874,0
2430.6688,0.320997457950308,-0.534184464135949,-0.130186093361139,-0.0551429292382717,0.107095387063051,0.107095387068279,,0.175607275244625,-0.137028487759994,0.192675376163249,0.117922960028485,0.192675376160622,-0.314528686584654,,-0.325543782365559,-0.46990086236906,,-0.229935295327499,,-0.400754230866865,-0.640593178701902,,0.144746664866324,,0.319175116838314,,,,,,-0.278239918776068,,,,,,,,,,,,-0.799832416741921,0.510206691041406,,,,,,,,12.5951999999998,102,1012.06323529412,308.960784313725,709.53431372549,1017.71960784314,1006.4068627451,314.375490196078,303.546078431373,729.71568627451,689.352941176471,0
2430.7712,0.322816192566356,-0.528812754667458,-0.125887541313963,-0.0495769563380272,0.11087064829231,0.110870648297529,,0.181608815202239,-0.126117246453708,0.199722268692486,0.107849751715484,0.199722268689856,-0.310578333750652,,-0.321243791741786,-0.468764690624388,,-0.229009589476689,,-0.418956638895586,-0.631082980677751,,0.153227118383953,,0.323779924663678,,,,,,-0.268646841984273,,,,,,,,,,,,-0.805088171572335,0.516128030626185,,,,,,,,12.6976,102,1014.59460784314,301.021568627451,717.372549019608,1021.33529411765,1007.85392156863,302.645098039216,299.398039215686,740.186274509804,694.558823529412,0
2430.8736,0.324459978004113,-0.523339515103967,-0.12163173749622,-0.0441794978846874,0.114766202973195,0.114766202978408,,0.187370252668517,-0.115120733518855,0.206375335853345,0.0973003600427199,0.206375335850714,-0.306582452594809,,-0.316936027969177,-0.467544811742094,,-0.227900559058479,,-0.437632220346342,-0.621449288359991,,0.161377448256681,,0.328112804847602,,,,,,-0.25877599479022,,,,,,,,,,,,-0.810588762953824,0.522222563221741,,,,,,,,12.7999999999997,103,1018.43009708738,282.185922330097,732.398058252427,1025.25922330097,1011.60097087379,279.945631067961,284.426213592233,755.058252427185,709.73786407767,0
2430.976,0.325940435500447,-0.517760155801479,-0.117409045767878,-0.0389686531451554,0.118782485911971,0.118782485917184,,0.19288466677634,-0.104059197475217,0.212632081326709,0.0862872308941852,0.212632081324075,-0.302558505104095,,-0.312633246363745,-0.466271261658346,,-0.226628078942376,,-0.456733489746936,-0.611698631052922,,0.169192683314393,,0.332152325799921,,,,,,-0.248641747598403,,,,,,,,,,,,-0.816338118283643,0.528485609563936,,,,,,,,12.9023999999999,102,1029.14705882353,292.655392156863,745.921568627451,1036.05784313725,1022.2362745098,294.160784313726,291.15,766.421568627451,725.421568627451,0
2431.0784,0.32726939831632,-0.512069803351524,-0.113209534232295,-0.0339613582221425,0.122919812774457,0.122919812779668,,0.19814616021204,-0.0929530005450888,0.218490975378466,0.0748241667675714,0.21849097537583,-0.298523614134335,,-0.308347736524845,-0.464973227444568,,-0.225211903422909,,-0.476211923860392,-0.601838710237619,,0.176668961809373,,0.335878688353862,,,,,,-0.238259468007463,,,,,,,,,,,,-0.822338426826054,0.534912021446709,,,,,,,,13.0047999999997,103,1033.69640216478,301.60344578275,742.885950605409,1042.2059576346,1025.18684669496,306.241950573698,296.964940991803,759.953751103266,725.818150107552,0
2431.1808,0.328458883624303,-0.50626328566526,-0.109022982944263,-0.029173293371055,0.127178392429128,0.127178392434344,,0.20314988686574,-0.0818225354916909,0.223951434236471,0.062926303930366,0.223951434233833,-0.294494488138723,,-0.304091274004173,-0.463678888150469,,-0.223671582983888,,-0.496018260603094,-0.591878334900646,,0.18380351981037,,0.339273831734492,,,,,,-0.227645451685104,,,,,,,,,,,,-0.82859014370786,0.541496209256921,,,,,,,,13.1071999999999,102,1023.54451097804,303.42251497006,726.97125748503,1031.50833333333,1015.58068862275,308.185,298.66002994012,743.7,710.24251497006,0.46078431372549
2431.2832,0.329521060614754,-0.500335116485111,-0.104838893514698,-0.0246187933840293,0.131558339592147,0.131558339597367,,0.207892073406829,-0.0706881414155327,0.229013796051991,0.0506100835226693,0.229013796049353,-0.290487350195154,,-0.299875075749783,-0.462415270835564,,-0.22202638492889,,-0.516102801160716,-0.581827345234659,,0.190594672338904,,0.342321531738215,,,,,,-0.216816846812961,,,,,,,,,,,,-0.835092003664071,0.548232171631433,,,,,,,,13.2095999999997,102,1010.40074396661,303.606303756124,709.769515514426,1019.29924242424,1001.50224550898,308.277727272727,298.934880239521,727.009090909091,692.529940119761,0.843137254901961
2431.3856,0.330468214194616,-0.494279483284203,-0.100646503357593,-0.0203107591822372,0.136059684769959,0.136059684775184,,0.212370034082226,-0.0595700195310964,0.23367929502314,0.0378932163102743,0.233679295020502,-0.286517870843869,,-0.295709758724434,-0.461208122869559,,-0.220295215322442,,-0.53641569628243,-0.571696528144843,,0.197041788582945,,0.345007493081149,,,,,,-0.205791573331242,,,,,,,,,,,,-0.841841039780916,0.555113522789252,,,,,,,,13.3119999999999,103,996.90732594828,303.095685187436,693.404740210664,1006.613239188,987.201412708563,308.055639894087,298.135730480786,710.780935569285,676.028544852044,0
2431.488,0.331312704538918,-0.488090240035991,-0.096434805314098,-0.0162605730658245,0.140682379917378,0.140682379922607,,0.216582178395448,-0.0484881509921517,0.237950035143176,0.0247946416016244,0.237950035140535,-0.282601105698257,,-0.291605302186094,-0.460081801661846,,-0.218496543868525,,-0.556907208812642,-0.561497527417792,,0.203145263601428,,0.3473194324377,,,,,,-0.194588237246197,,,,,,,,,,,,-0.84883260701992,0.562133516082793,,,,,,,,13.4143999999997,102,981.937254901961,289.267156862745,706.897058823529,989.103921568628,974.770588235294,288.245098039216,290.289215686275,723.098039215686,690.696078431373,0
2431.5904,0.332066923467296,-0.481760904882116,-0.0921925720946228,-0.0124780242469164,0.145426299629,0.145426299634233,,0.220528011668308,-0.0374622190664346,0.241828965273712,0.0113344820658866,0.241828965271067,-0.278751440053653,,-0.287571014932525,-0.459059184661762,,-0.216648336873042,,-0.57752795164118,-0.551242750604224,,0.208906487900564,,0.349247145040668,,,,,,-0.183226039858026,,,,,,,,,,,,-0.856060412434003,0.569285064648161,,,,,,,,13.5167999999999,103,940.495145631068,276.834466019418,716.577669902913,944.297087378641,936.693203883495,268.18640776699,285.482524271845,730.640776699029,702.514563106796,0
2431.6928,0.332743248957483,-0.475284662917487,-0.0879083848931266,-0.00897124993350387,0.150291238354453,0.150291238359692,,0.224208128907327,-0.026511536843481,0.24531985679389,-0.00246600454087637,0.24531985679124,-0.274982542575454,,-0.283615508915143,-0.458161601529067,,-0.214768000891868,,-0.598229100851255,-0.540945273147651,,0.214327814883908,,0.350782549342073,,,,,,-0.171724683386995,,,,,,,,,,,,-0.863516551740749,0.576560758441417,,,,,,,,13.6191999999996,102,911.789215686274,283.09068627451,724.558823529412,915.9,907.678431372549,272.530392156863,293.650980392157,738.401960784314,710.71568627451,0
2431.7952,0.333353997834193,-0.468654375336546,-0.0835706668967732,-0.00574669322558273,0.155276904067893,0.155276904073132,,0.227624202730058,-0.0156549807860702,0.248427283508318,-0.0165844775416584,0.248427283505662,-0.271307329015632,,-0.279746680281948,-0.457408786827843,,-0.212872335054319,,-0.61896258128474,-0.53061874008192,,0.21941252587928,,0.351919707814829,,,,,,-0.160104276385544,,,,,,,,,,,,-0.871191549692045,0.583952875366553,,,,,,,,13.7215999999999,102,905.94068627451,296.624509803922,716.112745098039,910.573529411765,901.307843137255,283.798039215686,309.450980392157,732.794117647059,699.43137254902,0
2431.8976,0.333911373750242,-0.461862596796156,-0.0791677245114753,-0.0028090771462658,0.16038290860907,0.160382908614308,,0.230778966278979,-0.00491093044389377,0.25115660213358,-0.0309975705725405,0.251156602130916,-0.267737934967845,,-0.275971697415841,-0.456818847614347,,-0.210977487988671,,-0.639681220591269,-0.52027726737144,,0.224164793229524,,0.352654825458845,,,,,,-0.148385241341951,,,,,,,,,,,,-0.879074402629457,0.591453387375475,,,,,,,,13.8239999999996,103,913.373300970874,310.536893203884,686.888349514563,923.703883495146,903.042718446602,301.270873786408,319.802912621359,707.398058252427,666.378640776699,0
2432,0.334427407492862,-0.454901600858174,-0.0746877979787144,-0.000161393755668009,0.165608755845318,0.165608755850553,,0.233676192837361,0.0057027861404939,0.253513930938573,-0.0456809539031068,0.253513930935901,-0.264285694460273,,-0.272296993357034,-0.456408238597646,,-0.209098915326974,,-0.660338870154347,-0.509935344151344,,0.228589642701613,,0.352986229940986,,,,,,-0.136588225265408,,,,,,,,,,,,-0.887152623524978,0.599053964766785,,,,,,,,13.9263999999998,102,918.336764705882,315.816176470588,670.240196078431,929.648039215686,907.025490196078,310.512745098039,321.119607843137,691.970588235294,648.509803921569,0
2432.1024,0.33491389181361,-0.447763410591767,-0.0701191183304827,0.00219509303744276,0.170953829795948,0.17095382980119,,0.236320674499461,0.0161689432017663,0.255506124300819,-0.0606094010632399,0.25550612429814,-0.26096112086812,,-0.26872825966109,-0.456191741166491,,-0.207251336420053,,-0.680890492038924,-0.499607733633971,,0.232692915681644,,0.352914336284123,,,,,,-0.124734014737562,,,,,,,,,,,,-0.895412289939793,0.606745978316395,,,,,,,,14.0288,103,921.366990291262,315.135922330097,663.912621359223,934.24854368932,908.485436893204,313.534951456311,316.736893203883,688.077669902913,639.747572815534,0
2432.2048,0.335382317726695,-0.440439832373776,-0.065449965392115,0.00426083238921155,0.176417383568926,0.176417383574166,,0.238718200483655,0.0264709658300315,0.257140742803779,-0.0757568594184672,0.257140742801096,-0.257773889045349,,-0.265270440825274,-0.456182448476556,,-0.205448693539402,,-0.701292211300812,-0.489309370535447,,0.236481229383796,,0.352441597136178,,,,,,-0.112843456166599,,,,,,,,,,,,-0.903838093297896,0.614520495156393,,,,,,,,14.1311999999998,102,934.657843137255,325.177941176471,653.397058823529,947.712745098039,921.602941176471,325.785294117647,324.570588235294,675.656862745098,631.137254901961,0
2432.3072,0.335843818540613,-0.432922493269378,-0.0606687233512478,0.00603795977608475,0.18199852853252,0.181998528537761,,0.240875533246215,0.0365929768984832,0.258426019830232,-0.0910965234125018,0.258426019827545,-0.254732819815025,,-0.261927730130133,-0.456391759626908,,-0.203704117687036,,-0.721501337974447,-0.479055256613226,,0.239961933357883,,0.351572440316875,,,,,,-0.100937379694082,,,,,,,,,,,,-0.912413386356858,0.622368264793868,,,,,,,,14.2336,102,945.277450980392,332.867647058824,649.176470588235,957.276470588235,933.278431372549,336.31862745098,329.416666666667,668.343137254902,630.009803921569,0
2432.4096,0.33630912421427,-0.425202881007715,-0.0557639317670987,0.00753025798583883,0.187696224671489,0.187696224676741,,0.242800381408935,0.0465198431131703,0.259370823983583,-0.106600906133893,0.259370823980892,-0.25184586772152,,-0.25870356763819,-0.456829381533068,,-0.2020299006703,,-0.741476367597512,-0.468860356660412,,0.24314306487065,,0.350313195517537,,,,,,-0.0890365275541605,,,,,,,,,,,,-0.921120228317975,0.630279693589277,,,,,,,,14.3359999999998,103,946.219902912621,344.452912621359,656.728155339806,955.750485436893,936.68932038835,343.359223300971,345.546601941748,672.184466019418,641.271844660194,0
2432.512,0.336788525277881,-0.417272383765548,-0.0507243307989167,0.00874310574016885,0.19350927442781,0.193509274433066,,0.244501370912266,0.0562372213131921,0.259984615233137,-0.122241904840372,0.259984615230442,-0.249120111763078,,-0.255600640512153,-0.457503334048559,,-0.200437469734302,,-0.761176968297434,-0.458739495674035,,0.246033308622329,,0.348672010799861,,,,,,-0.0771614916495505,,,,,,,,,,,,-0.929939430618186,0.638244808252354,,,,,,,,14.4384,102,937.397058823529,360.946078431373,670.725490196079,946.272549019608,928.521568627451,363.244117647059,358.648039215686,684.794117647059,656.656862745098,0
2432.6144,0.337291843624167,-0.409122329384576,-0.0455389020251159,0.00968341723230555,0.199436320260451,0.199436320265715,,0.245988015713542,0.065731605404047,0.260277394412198,-0.137990861345929,0.260277394409499,-0.246561747991399,,-0.25262088519358,-0.458419954911467,,-0.198937361802935,,-0.780563959687703,-0.448707259680003,,0.248641963072992,,0.346658761412133,,,,,,-0.0653326630509798,,,,,,,,,,,,-0.938850605735468,0.646253211630086,,,,,,,,14.5407999999998,103,935.070737994991,367.836954984978,686.114578918585,942.645093683947,927.496382306035,370.414258589188,365.259651380767,698.363289506682,673.865868330489,0
2432.7168,0.337828408297655,-0.4007440265026,-0.0401969074494637,0.0103595788008221,0.205475843884266,0.205475843889537,,0.247270687942369,0.0749903737244151,0.260259647592477,-0.153818622350234,0.260259647589775,-0.244176082236857,,-0.249765490294474,-0.45958390500016,,-0.197539196994334,,-0.799599284650584,-0.438777904324049,,0.2509789110075,,0.344284956386897,,,,,,-0.0535701918616357,,,,,,,,,,,,-0.9478322189724,0.654294034954265,,,,,,,,14.6432,102,942.04664387422,354.340216351011,695.010654051065,954.440405904059,929.65288184438,343.717896678967,364.962536023055,707.44926199262,682.57204610951,0.754901960784314
2432.8192,0.338407037139884,-0.392128808848413,-0.03468792693565,0.010781387016881,0.211626165656564,0.211626165661846,,0.248360587241556,0.0840018362785479,0.259942286743904,-0.169695602248254,0.259942286741199,-0.241967521803037,,-0.247034899524535,-0.460998179726311,,-0.196251654145273,,-0.81824596933115,-0.428965271593203,,0.253054591456318,,0.34156364597322,,,,,,-0.0418939558450644,,,,,,,,,,,,-0.956861644508821,0.662355890009386,,,,,,,,14.7455999999997,102,949.729753713964,339.992998766443,703.695411114774,967.425645756458,932.03386167147,315.376199261993,364.609798270893,716.294280442804,691.096541786744,1
2432.9216,0.339036026339148,-0.383268081622473,-0.0290018922102976,0.0109599872871097,0.217885443780018,0.217885443785312,,0.249269708853141,0.0927552802715286,0.259336588191966,-0.185591846301254,0.259336588189259,-0.239939567131317,,-0.24442881551866,-0.462664134801633,,-0.195082453156669,,-0.836468068092365,-0.419282712311044,,0.25487997198159,,0.338509327961109,,,,,,-0.0303235369789339,,,,,,,,,,,,-0.965915229392859,0.670426825090895,,,,,,,,14.848,103,957.331564439983,324.991853015715,714.002103153778,980.474538745388,934.188590134579,286.89557195572,363.088134075711,725.182656826568,702.821549480988,1
2433.024,0.339723148526407,-0.374153370819094,-0.0231291175675637,0.0109078090995448,0.224251671964845,0.224251671970151,,0.250010808157112,0.101241011362397,0.258454131965516,-0.201477093594952,0.258454131962805,-0.238094806559852,,-0.241946206667408,-0.464581531558323,,-0.194038349698388,,-0.854230602617663,-0.409743015750103,,0.256466519594104,,0.335137849714637,,,,,,-0.0188782024005669,,,,,,,,,,,,-0.97496836568804,0.678494288342736,,,,,,,,14.9503999999997,102,967.009264886767,301.620707618841,730.261006801244,993.523431734317,940.495098039216,258.414944649447,344.826470588235,734.071033210332,726.450980392157,0.637254901960784
2433.1264,0.340475657961814,-0.364776379926382,-0.0170603307977251,0.0106384940741705,0.23072267248551,0.230722672490826,,0.250597358001722,0.109450387952709,0.257306745814658,-0.217320843835912,0.257306745811944,-0.236434917398623,,-0.239585319007233,-0.466748601907803,,-0.193125147008348,,-0.871499511800849,-0.400358350583193,,0.257826165963744,,0.331466304050898,,,,,,-0.00757688383671497,,,,,,,,,,,,-0.983995564729027,0.686545098781169,,,,,,,,15.0527999999999,103,994.989565793716,255.247889872103,735.80184860101,1006.83350051947,983.145631067961,236.044323433526,274.45145631068,744.749328269982,726.854368932039,0
2433.2288,0.341300299863824,-0.355129056138399,-0.01078670736601,0.010166814173208,0.237296083328286,0.237296083333617,,0.251043497408782,0.117375847085318,0.255906454680768,-0.233092429894242,0.255906454678049,-0.234960673640589,,-0.237343693186535,-0.4691621285696,,-0.192347723995245,,-0.888241618796354,-0.391140217171014,,0.25897126472335,,0.327512918582279,,,,,,0.0035618477087452,,,,,,,,,,,,-0.992970529093678,0.694565423083223,,,,,,,,15.1551999999997,102,1021.77058823529,242.40637254902,742.367647058824,1024.31862745098,1019.22254901961,239.233333333333,245.579411764706,758.21568627451,726.519607843137,0
2433.3312,0.342203320452331,-0.345203662333753,-0.00429990762637413,0.00950858031631484,0.243969341877937,0.243969341883283,,0.251363973886955,0.1250109221794,0.254265432074,-0.248761092045412,0.254265432071277,-0.233671957394657,,-0.23521818416021,-0.471817533893589,,-0.191710071902252,,-0.904424609072471,-0.382099405934935,,0.259914544659969,,0.323296940505466,,,,,,0.0145198105849092,,,,,,,,,,,,-1.00186622659309,0.702540758952798,,,,,,,,15.2575999999999,102,1026.52107843137,252.164705882353,747.843137254902,1027.42254901961,1025.61960784314,246.945098039216,257.38431372549,766.470588235294,729.21568627451,0
2433.4336,0.34319047543991,-0.334992849923321,0.00240788452422997,0.00868054503938793,0.250739667956234,0.250739667961594,,0.251574081826998,0.132350252952577,0.252395949784304,-0.264296049971636,0.252395949781577,-0.232567771448768,,-0.233204981501883,-0.474708972661694,,-0.191215332704638,,-0.920017016070627,-0.37324595780161,,0.260669063489568,,0.318838520731849,,,,,,0.0252792430186519,,,,,,,,,,,,-1.01065497463169,0.710455930110067,,,,,,,,15.3599999999997,103,1033.58446601942,266.59854368932,742.621359223301,1038.23203883495,1028.93689320388,264.261165048544,268.935922330097,764.504854368932,720.73786407767,0
2433.536,0.344267036643937,-0.324489730365883,0.00934392267732973,0.00770030315820489,0.257604046497495,0.257604046502875,,0.251689597120402,0.139389586784154,0.250310326267315,-0.279666572943239,0.250310326264584,-0.231646253086072,,-0.231299630275059,-0.477829427724991,,-0.190865838565333,,-0.934988218724058,-0.364589128303656,,0.261248162334967,,0.314158600500049,,,,,,0.035822837656391,,,,,,,,,,,,-1.01930853957292,0.718295098092412,,,,,,,,15.4623999999999,102,1046.03088235294,288.714215686275,724.745098039216,1055.11666666667,1036.94509803922,281.974509803922,295.453921568627,746.754901960784,702.735294117647,0
2433.6384,0.345437796791145,-0.3136879437698,0.0165148596210248,0.00658619239252673,0.264559209367099,0.264559209372501,,0.251726707936849,0.146125770861531,0.248020876052188,-0.294842050194419,0.248020876049454,-0.230904690581604,,-0.22949705350046,-0.481170806649136,,-0.190663152457475,,-0.949308455763938,-0.356137359858794,,0.261665419501025,,0.309278801450812,,,,,,0.0461337823573771,,,,,,,,,,,,-1.02779825108202,0.726041792291789,,,,,,,,15.5647999999997,103,1048.3640776699,299.223300970874,721.320388349515,1056.01262135922,1040.71553398058,296.953398058252,301.493203883495,746.398058252427,696.242718446602,0
2433.7408,0.346707071597844,-0.302581721759058,0.0239267108738022,0.00535719518498328,0.271601617294475,0.271601617299895,,0.251701943738601,0.152556736108002,0.245539861106427,-0.309792062452007,0.24553986110369,-0.230339543317079,,-0.227791577151209,-0.484724035048675,,-0.190608106812114,,-0.962948863258763,-0.347898264128369,,0.261934605222537,,0.304221319133456,,,,,,0.0561958060043021,,,,,,,,,,,,-1.03609512933663,0.73367895569854,,,,,,,,15.6671999999999,102,1054.56764705882,314.800980392157,714.764705882353,1059.32450980392,1049.81078431373,315.013725490196,314.588235294118,736.71568627451,692.813725490196,0
2433.8432,0.348078698155874,-0.291165942684066,0.031584820620559,0.00403284356274972,0.278727443347859,0.278727443353299,,0.251632105311003,0.158681474902722,0.242879443865587,-0.324486454854513,0.242879443862847,-0.229946465842473,,-0.226176958411097,-0.48847914394972,,-0.190700837580211,,-0.975881544036443,-0.339878612599816,,0.262069639928715,,0.29900882013974,,,,,,0.0659932261200367,,,,,,,,,,,,-1.04417002102406,0.741189000819496,,,,,,,,15.7695999999996,102,1056.60343137255,329.894607843137,711.93137254902,1063.04803921569,1050.15882352941,329.595098039216,330.194117647059,731.411764705882,692.450980392157,0
2433.9456,0.349556029355698,-0.279436179365885,0.0394938297786635,0.00263312913845425,0.285932558355032,0.285932558360496,,0.251534197329181,0.164500014119264,0.240051641656973,-0.338895411241981,0.240051641654229,-0.229720335540155,,-0.224646417371649,-0.49242535168875,,-0.190940812919063,,-0.988079671992616,-0.33208433298465,,0.262084555938211,,0.293664343809947,,,,,,0.0755109952531484,,,,,,,,,,,,-1.05199373778842,0.748553868915967,,,,,,,,15.8719999999998,103,1063.95,320.226699029126,714.310679611651,1068.6067961165,1059.2932038835,319.855339805825,320.598058252427,731.844660194175,696.776699029126,0
2434.048,0.351141924154222,-0.26738873920182,0.0476576461832069,0.00117841961156549,0.293212518273588,0.293212518279064,,0.251425364202681,0.170013384081035,0.237068282056274,-0.352989528840239,0.237068282053526,-0.229655282471291,,-0.223192671021944,-0.49655114066451,,-0.191326854726141,,-0.99951762716954,-0.324520509130347,,0.261993461402333,,0.28821121039947,,,,,,0.0847347445659499,,,,,,,,,,,,-1.05953719272555,0.755755089227907,,,,,,,,15.9743999999996,102,1080.10833333333,260.278921568627,732.514705882353,1083.81470588235,1076.40196078431,256.325490196078,264.232352941177,751.411764705882,713.617647058824,0
2434.1504,0.352838734375127,-0.255020695859776,0.0560794177621691,-0.000310618916562643,0.300562553174051,0.300562553179544,,0.251322829357983,0.175223582999684,0.233940958955554,-0.366739891031784,0.233940958952801,-0.229744719765276,,-0.221807967766804,-0.500844329731657,,-0.191857152936902,,-1.01017115308524,-0.317191381557629,,0.261810505541373,,0.282672936813538,,,,,,0.093650825546289,,,,,,,,,,,,-1.06677153681675,0.76277384148473,,,,,,,,16.0767999999998,103,1070.98155339806,277.707281553398,732.810679611651,1077.29029126214,1064.67281553398,275.98932038835,279.425242718447,749.582524271845,716.038834951456,0
2434.2528,0.354648291158852,-0.242329913917421,0.0647615097348245,-0.00181309658895328,0.307977556473849,0.307977556479362,,0.251243836431782,0.180133535702398,0.230680990289133,-0.380118135779224,0.230680990286377,-0.229981374206148,,-0.220484121845499,-0.505292146787757,,-0.192529277887009,,-1.02001752073806,-0.310100347557145,,0.261549843548076,,0.277073157978024,,,,,,0.102246351099488,,,,,,,,,,,,-1.07366829986325,0.769591026319695,,,,,,,,16.1792,102,1001.70392156863,262.233333333333,750.892156862745,1004.80196078431,998.605882352941,254.883333333333,269.583333333333,765.176470588235,736.607843137255,0
2434.3552,0.356571895265615,-0.229315069422966,0.0737054865381206,-0.00330797446342533,0.315452073251716,0.315452073257243,,0.251205589501863,0.184747045827184,0.227299378895005,-0.393096518561471,0.227299378892245,-0.2303573180625,,-0.219212548509413,-0.509881306946244,,-0.193340196948763,,-1.02903568062369,-0.30324996280113,,0.261225600384011,,0.271435549774175,,,,,,0.110509234815484,,,,,,,,,,,,-1.08019953674186,0.776187343159139,,,,,,,,16.2815999999998,103,988.50145631068,272.08640776699,769.427184466019,987.37572815534,989.627184466019,267.838834951456,276.333980582524,784.825242718447,754.029126213592,0
2434.4576,0.358610313709484,-0.215975668192057,0.0829120988609087,-0.00477414122118578,0.322980288037396,0.322980288042938,,0.251225189929985,0.189068741728331,0.223806777333353,-0.40564796989423,0.223806777330591,-0.230864003512587,,-0.217984301208224,-0.514598097246513,,-0.194286296719756,,-1.03720639329442,-0.296641946875436,,0.260851835184227,,0.265783750208123,,,,,,0.118428226072889,,,,,,,,,,,,-1.08633797695192,0.782543372314763,,,,,,,,16.384,102,977.916176470588,281.302941176471,777.338235294118,973.98431372549,981.848039215686,279.924509803922,282.68137254902,790.333333333333,764.343137254902,0
2434.56,0.360763782754977,-0.202312061948657,0.0923812757398919,-0.00619049265619314,0.330556013400831,0.330556013406385,,0.251319568914264,0.193104017171314,0.220213456637696,-0.417746147791877,0.220213456634931,-0.231492300336887,,-0.216790111423231,-0.519428464559327,,-0.195363407598763,,-1.0445123411442,-0.290277193778518,,0.26044250849413,,0.260141277846713,,,,,,0.125992939847437,,,,,,,,,,,,-1.09205717646117,0.788639659774246,,,,,,,,16.4863999999998,102,980.236764705882,298.13137254902,770.995098039216,977.360784313725,983.112745098039,296.813725490196,299.449019607843,780.186274509804,761.803921568627,0
2434.6624,0.363032015723022,-0.188325461727226,0.102112121146743,-0.00753601326406529,0.338172680341975,0.338172680347545,,0.251505416380981,0.196858968424086,0.216529278635459,-0.429365485394163,0.216529278632692,-0.23223253624185,,-0.215620430571037,-0.524358102183398,,-0.196566826416749,,-1.05093822565306,-0.284155787756706,,0.260011452587146,,0.254531448999542,,,,,,0.133193881039897,,,,,,,,,,,,-1.09733167096271,0.794456804317874,,,,,,,,16.5888,103,981.794660194175,316.610679611651,780.980582524272,979.8,983.78932038835,315.250485436893,317.970873786408,793.912621359223,768.04854368932,0
2434.7648,0.365414213452905,-0.174017948058558,0.112102914077225,-0.00878985794587619,0.345823330561063,0.345823330566644,,0.251799107819163,0.200340329555173,0.212763671670846,-0.440481233925592,0.212763671668076,-0.233074537870284,,-0.214465472118404,-0.529372531205956,,-0.197891333448826,,-1.05647084665554,-0.278277024133226,,0.259572343234138,,0.248977296628804,,,,,,0.140022463192446,,,,,,,,,,,,-1.10213712719402,0.79997554507211,,,,,,,,16.6911999999998,102,489.305392156863,569.244607843137,815.519607843137,492.735294117647,485.875490196079,546.040196078431,592.449019607843,815.411764705882,815.627450980392,0
2434.8672,0.367909076066313,-0.159392477699034,0.122351111484389,-0.00993143174448076,0.353500610038562,0.353500610044153,,0.252216630598087,0.203555407334536,0.208925609994273,-0.451069501130105,0.208925609991501,-0.23400767061978,,-0.213315252004645,-0.534457174425641,,-0.199331202093849,,-1.06109915846801,-0.272639432119339,,0.259138670947534,,0.243501493240097,,,,,,0.146471021829358,,,,,,,,,,,,-1.10645048825786,0.805176846717235,,,,,,,,16.7936,102,409.397549019608,635.340196078431,830.549019607843,419.546078431373,399.249019607843,615.589215686275,655.091176470588,828.882352941177,832.21568627451,0
2434.9696,0.370514816638434,-0.144452886205556,0.132853354832645,-0.0109404671667166,0.361196763740772,0.36119676374637,,0.252773510322051,0.206512016151941,0.20502359735439,-0.461107285333741,0.205023597351616,-0.235020877444791,,-0.212159627309796,-0.539597423240667,,-0.200880203420829,,-1.06481430936833,-0.267240794605131,,0.258723710395905,,0.2381262770843,,,,,,0.152532823618514,,,,,,,,,,,,-1.11025011253028,0.810041981994932,,,,,,,,16.8959999999997,103,411.03786407767,646.833980582524,843.796116504854,417.674757281553,404.400970873787,634.617475728155,659.050485436893,844.291262135922,843.300970873786,0
2435.072,0.373229178757793,-0.129203885117323,0.143605482189404,-0.0117971006030212,0.368903632300698,0.368903632306296,,0.253484736886153,0.209218412551099,0.201065655179492,-0.470572505511596,0.201065655176718,-0.236102718930389,,-0.210988335081518,-0.544778699623425,,-0.202531611321951,,-1.06760968056653,-0.262078162604063,,0.258340487952906,,0.232873378508175,,,,,,0.15820207298376,,,,,,,,,,,,-1.11351590822711,0.814552612389991,,,,,,,,16.9983999999999,102,410.406862745098,652.338235294118,831.71568627451,418.456862745098,402.356862745098,646.869607843137,657.806862745098,827.480392156863,835.950980392157,0
2435.1744,0.37604945955086,-0.113651053581688,0.154602546885478,-0.0124819497004896,0.376612651750877,0.376612651756477,,0.254364689788491,0.211683228981084,0.197059315218159,-0.479444027988049,0.197059315215387,-0.237241416739377,,-0.209791033182318,-0.549986515171121,,-0.204278213213394,,-1.06948093232643,-0.257147866586362,,0.258001748773091,,0.227763943646805,,,,,,0.163473916857273,,,,,,,,,,,,-1.11622946178013,0.818690863361172,,,,,,,,17.1007999999997,103,411.741262135922,654.941262135922,792.165048543689,419.158252427185,404.32427184466,648.125242718447,661.757281553398,788.174757281553,796.155339805825,0
2435.2768,0.378972538075775,-0.0978008262911863,0.165838841567992,-0.0129761922024093,0.384314856444029,0.384314856449633,,0.255427062602522,0.213915407012826,0.193011615928976,-0.487701690284736,0.193011615926205,-0.238424900516858,,-0.208557343356627,-0.555206527272833,,-0.206112326658738,,-1.07042604858668,-0.252445528740983,,0.257719925032829,,0.222818455226422,,,,,,0.168344446838913,,,,,,,,,,,,-1.11837415389749,0.822439387461652,,,,,,,,17.2031999999999,102,419.104901960784,664.75,765.897058823529,426.772549019608,411.437254901961,656.890196078431,672.609803921569,762.539215686275,769.254901960784,0
2435.3792,0.381994907307833,-0.0816604799105582,0.177307925286328,-0.0132616450168596,0.392000884665704,0.392000884671308,,0.256684787119984,0.215924131078236,0.188929101653981,-0.495326322265362,0.188929101651213,-0.239640856529997,,-0.207276895189121,-0.560424588940579,,-0.208025818106122,,-1.07044536717155,-0.247966079237907,,0.257507105961704,,0.21805665290916,,,,,,0.172810697621642,,,,,,,,,,,,-1.11993525910712,0.825781413462501,,,,,,,,17.3055999999997,102,426.776470588235,667.170098039216,763.5,435.349019607843,418.203921568627,657.539215686275,676.800980392157,761.950980392157,765.049019607843,0
2435.4816,0.385112707671498,-0.0652381183415172,0.1890026521912,-0.0133208412418385,0.399660987022453,0.399660987028058,,0.258149958551504,0.217718764304729,0.184817823979539,-0.50229976458576,0.184817823976773,-0.240876775790303,,-0.205939369039222,-0.565626786573213,,-0.210010118883325,,-1.06954159123491,-0.24370377658918,,0.25737500946767,,0.213497456678564,,,,,,0.176870641353549,,,,,,,,,,,,-1.12090002947964,0.828700785911042,,,,,,,,17.4079999999999,103,434.692233009709,675.429126213592,779.097087378641,442.815533980583,426.568932038835,669.583495145631,681.274757281553,779.95145631068,778.242718446602,0
2435.584,0.388321761657701,-0.0485426553455799,0.200915202460818,-0.0131371033227524,0.407285038427354,0.407285038432962,,0.25983376346657,0.219308787613271,0.18068334543867,-0.508604884647379,0.180683345435908,-0.242120000375187,,-0.204534536662135,-0.570799462402955,,-0.212056236063816,,-1.06771978717305,-0.239652229163216,,0.257334955021707,,0.209158895294305,,,,,,0.180523178724311,,,,,,,,,,,,-1.12125776734416,0.831182002004424,,,,,,,,17.5103999999997,102,437.600980392157,690.854411764706,805.406862745098,442.5,432.701960784314,688.257843137255,693.450980392157,806.098039215686,804.71568627451,0
2435.6864,0.391617610729234,-0.0315837928246161,0.213037117186336,-0.0126946122522451,0.414862554421532,0.414862554427138,,0.261746411170971,0.220703741985472,0.176530746039098,-0.514225590497925,0.176530746036341,-0.243357768605471,,-0.203052299854547,-0.57592922425712,,-0.214154759593968,,-1.064987378131,-0.23580441578142,,0.257397837648885,,0.205058038909304,,,,,,0.183768128055794,,,,,,,,,,,,-1.12099989359458,0.833210251966526,,,,,,,,17.6127999999999,103,437.890776699029,698.083009708738,833.378640776699,440.803883495146,434.977669902913,691.745631067961,704.420388349515,830.009708737864,836.747572815534,0
2435.7888,0.394995555658544,-0.0143719943572228,0.22535933813543,-0.0119784741756458,0.42238271215609,0.422382712161696,,0.263897067918958,0.221913172872899,0.172364632674616,-0.519146843231126,0.172364632671862,-0.244577261030328,,-0.201482728718866,-0.581002948996011,,-0.216295868751766,,-1.06135413920554,-0.23215270742372,,0.257574103246575,,0.201210933374516,,,,,,0.186606213200359,,,,,,,,,,,,-1.12012001470107,0.834771465054154,,,,,,,,17.7151999999996,102,446.308333333333,711.103921568628,843.529411764706,452.259803921569,440.356862745098,703.375490196078,718.832352941177,837.529411764706,849.529411764706,0
2435.8912,0.398450700080279,0.00308154481164156,0.237872251546971,-0.0109747856595081,0.42983437619415,0.42983437619975,,0.266293793037375,0.222946575971624,0.168189150820484,-0.52335466835391,0.168189150817733,-0.245765648702653,,-0.199816100888199,-0.586007784881815,,-0.218469340061172,,-1.05683219331801,-0.22868889409617,,0.257873725788804,,0.19763253485378,,,,,,0.189039050079344,,,,,,,,,,,,-1.11861398508025,0.835852358370248,,,,,,,,17.8175999999999,102,450.322058823529,723.29362745098,856.029411764706,459.143137254902,441.500980392157,713.670588235294,732.916666666667,852.627450980392,859.43137254902,0
2435.9936,0.401977995508032,0.0207649296557949,0.250565733917245,-0.00967069752476334,0.437206129245613,0.437206129251206,,0.268943476745166,0.223813344627244,0.164007997541029,-0.526836166301104,0.164007997538284,-0.246910143625731,,-0.198042941784015,-0.590931153972516,,-0.220664556808815,,-1.05143600211345,-0.225404218276403,,0.258306186674729,,0.194336645914494,,,,,,0.191069131013434,,,,,,,,,,,,-1.11647995894506,0.836440484883415,,,,,,,,17.9199999999996,103,448.865048543689,723.328155339806,889.558252427185,454.872815533981,442.857281553398,719.059223300971,727.597087378641,890.009708737864,889.106796116505,0
2436.096,0.405572285090468,0.0386655983594008,0.263429197702982,-0.00805447561974146,0.444486307923318,0.444486307928906,,0.271851780555031,0.22452272012034,0.159824434933112,-0.529579522012804,0.159824434930373,-0.247998049714949,,-0.196154064689804,-0.595760750994458,,-0.222870518090618,,-1.04518234632741,-0.222289411777356,,0.258880455645953,,0.191335856439845,,,,,,0.192699805987702,,,,,,,,,,,,-1.11371842808874,0.836524279512963,,,,,,,,18.0223999999998,102,454.673529411765,724.384803921569,913.838235294118,461.779411764706,447.567647058824,721.28431372549,727.485294117647,918.186274509804,909.490196078431,0
2436.1984,0.409228343946783,0.0567703566146804,0.276451635781327,-0.00611555631550507,0.451663043412384,0.45166304341796,,0.275023081811579,0.225083746211482,0.155641303733257,-0.531574013563069,0.155641303730526,-0.249016812053911,,-0.194140608829817,-0.600484534081263,,-0.225075844661535,,-1.03809029034773,-0.219334730895299,,0.259604972515932,,0.18864149282091,,,,,,0.193935260535401,,,,,,,,,,,,-1.11033224440346,0.836093103109893,,,,,,,,18.1248000000001,103,458.409708737864,719.082038834952,928.407766990291,467.009708737864,449.809708737864,715.752427184466,722.411650485437,940.679611650485,916.135922330097,0
2436.3008,0.412940915988476,0.075065413286703,0.289621664648256,-0.00384459553025466,0.45872430626561,0.458724306271174,,0.278460423385945,0.225505228294321,0.151461037459746,-0.532810020103583,0.151461037457023,-0.24995406327602,,-0.191994074379611,-0.605090708275972,,-0.227268781680673,,-1.0301811248742,-0.216529986380053,,0.26048762971795,,0.186263576311811,,,,,,0.194780490529745,,,,,,,,,,,,-1.10632662597799,0.835137282876257,,,,,,,,18.2271999999998,102,460.266666666667,712.971078431373,930.75,471.222549019608,449.310784313726,704.194117647059,721.748039215686,954.088235294118,907.411764705882,0
2436.4032,0.416704748632525,0.0935364167561699,0.302927566774533,-0.00123351189490885,0.465657953972611,0.465657953978162,,0.282165468309201,0.225795696314182,0.147285677418864,-0.533279029453522,0.14728567741615,-0.250797667814088,,-0.189706354932561,-0.609567709138392,,-0.229437202145543,,-1.02147828318237,-0.213864568091831,,0.261535756553364,,0.184210788425864,,,,,,0.195241274303952,,,,,,,,,,,,-1.10170914571932,0.833648147167304,,,,,,,,18.3296,102,466.354411764706,708.24068627451,922.745098039216,478.694117647059,454.014705882353,696.950980392157,719.530392156863,953.078431372549,892.411764705882,0
2436.5056,0.420514626362703,0.11216849096295,0.316357332099904,0.00172447453255158,0.472451780414004,0.472451780419542,,0.286138458633363,0.225963370610428,0.143116888256342,-0.532973645482105,0.143116888253637,-0.251535765569302,,-0.187269768764219,-0.613904192801534,,-0.231568614910901,,-1.0120072313155,-0.211327467480892,,0.262756106620474,,0.182490440801301,,,,,,0.195324142196052,,,,,,,,,,,,-1.09648970358572,0.831618053946662,,,,,,,,18.4319999999998,103,469.777669902913,713.380097087379,917.334951456311,484.268932038835,455.28640776699,700.460194174757,726.3,950.834951456311,883.834951456311,0
2436.608,0.424365402545145,0.130946270672363,0.329898698027101,0.0050348073692471,0.479093567506902,0.479093567512432,,0.290378178573965,0.226016130949082,0.138955973247535,-0.531887595267247,0.138955973244839,-0.252156815630929,,-0.184677089602298,-0.618089031703681,,-0.23365017755444,,-1.00179533793078,-0.208907302189312,,0.264154849600396,,0.181108449063213,,,,,,0.195036343404695,,,,,,,,,,,,-1.09068048567756,0.82904041353603,,,,,,,,18.5344,102,471.396568627451,725.767156862745,899.289215686274,487.612745098039,455.180392156863,708.301960784314,743.232352941177,931.892156862745,866.686274509804,0
2436.7104,0.428252027288956,0.149853936493022,0.343539186924119,0.00870156365700356,0.485571140034278,0.485571140039797,,0.294881923282009,0.225961490122262,0.134803888586501,-0.530015735985108,0.134803888583814,-0.252649639099356,,-0.181921576294461,-0.622111309591493,,-0.235668710651086,,-0.99087173195393,-0.206592344794927,,0.265737566904926,,0.180069312731126,,,,,,0.194385810202061,,,,,,,,,,,,-1.08429591287698,0.825909706846562,,,,,,,,18.6367999999998,103,465.071359223301,725.98640776699,890.567961165049,480.033009708738,450.109708737864,709.808737864078,742.164077669903,919.582524271845,861.553398058253,0
2436.8128,0.43216956847954,0.168875250713993,0.357266140073647,0.0127274301222031,0.491872423924421,0.491872423929929,,0.299645475353428,0.225806573784805,0.130661256482333,-0.527354061474925,0.130661256479655,-0.253003458931044,,-0.178996999730193,-0.625960309294823,,-0.237610709275971,,-0.979267152367488,-0.204370554168369,,0.267509249061334,,0.179376104315086,,,,,,0.193381119726335,,,,,,,,,,,,-1.07735258027275,0.822221501277658,,,,,,,,18.7392,102,470.786274509804,729.049509803922,892.308823529412,486.292156862745,455.280392156863,711.435294117647,746.663725490196,918.205882352941,866.411764705882,0
2436.9152,0.436113224567599,0.187993594188091,0.371066747366216,0.0171136874659203,0.497985506432527,0.497985506438026,,0.304663090614932,0.225558107440522,0.126528377622871,-0.523899708342801,0.126528377620205,-0.253207934829915,,-0.175897665446598,-0.629625491114506,,-0.239462350177355,,-0.967013787105409,-0.202229606413865,,0.26947429208101,,0.179030469503499,,,,,,0.192031453406617,,,,,,,,,,,,-1.06986918997753,0.817972467548688,,,,,,,,18.8415999999997,102,474.175,723.449509803922,909.539215686275,490.213725490196,458.136274509804,700.63431372549,746.264705882353,932.833333333333,886.245098039216,0
2437.0176,0.440078330302708,0.207192003251566,0.384928072835903,0.0218602025843898,0.503898695448748,0.503898695454229,,0.309927493105138,0.225222410274533,0.122405243931829,-0.519650961367517,0.122405243929176,-0.253253192570335,,-0.172618431613812,-0.633096464266061,,-0.241209497091459,,-0.954145096129689,-0.200156923696478,,0.271636489839663,,0.179032637940783,,,,,,0.190346553559668,,,,,,,,,,,,-1.0618664810782,0.813160398769095,,,,,,,,18.944,103,477.423786407767,717.879126213592,936.087378640777,491.631067961165,463.216504854369,694.322330097087,741.435922330097,957.815533980583,914.359223300971,0
2437.12,0.444060358073765,0.226453205643563,0.398837076993917,0.0269654273030696,0.509600575810057,0.509600575815522,,0.315429877917098,0.224805394931392,0.118291552225407,-0.514607257993441,0.118291552222765,-0.253129848289451,,-0.169154723163677,-0.636362955339298,,-0.242837709159668,,-0.940695618667843,-0.198139702078396,,0.273999020340851,,0.179381443045589,,,,,,0.18833667614907,,,,,,,,,,,,-1.05336715467959,0.807784226866734,,,,,,,,19.0463999999997,102,485.033823529412,721.937254901961,954.25,496.441176470588,473.626470588235,702.399019607843,741.475490196079,976.696078431373,931.803921568627,0
2437.2224,0.448054917236676,0.245759654952999,0.412780637086857,0.0324264024976105,0.515080062064221,0.515080062069664,,0.321159920675705,0.224312572620449,0.114186718714277,-0.508769191866247,0.114186718711648,-0.252829027964137,,-0.165502542493334,-0.639414776736463,,-0.244332256758896,,-0.926700765944778,-0.196164941292219,,0.27656442594156,,0.180074350307125,,,,,,0.186012538473606,,,,,,,,,,,,-1.04439578310999,0.801844026097277,,,,,,,,19.1487999999999,103,488.837378640777,730.400970873786,970.490291262136,497.750485436893,479.92427184466,716.730097087379,744.071844660194,992,948.980582524272,0
2437.3248,0.452057752226115,0.265093563128514,0.426745565473232,0.0382387680614187,0.520326448055228,0.520326448060656,,0.327105793673586,0.223749063668264,0.110089893513324,-0.502138515436156,0.110089893510705,-0.252342381136777,,-0.161658476082828,-0.64224179595131,,-0.245678145821241,,-0.912196596159267,-0.19421947805251,,0.279334588770798,,0.181107495201619,,,,,,0.183385260919262,,,,,,,,,,,,-1.03497869131843,0.795340994963551,,,,,,,,19.2511999999997,102,490.59068627451,731.862745098039,987.588235294118,496.210784313726,484.970588235294,720.751960784314,742.973529411765,1007.70588235294,967.470588235294,0
2437.4272,0.456064738143469,0.284436930884736,0.440718625243452,0.0443967808808716,0.525329454039434,0.525329454044847,,0.333254190354904,0.22311961462529,0.105999973535219,-0.494718141435254,0.105999973532612,-0.251662087308361,,-0.157619695719925,-0.644833904096952,,-0.246860147909574,,-0.897219569391207,-0.192290021481467,,0.282310701794397,,0.182475733043651,,,,,,0.180466303034653,,,,,,,,,,,,-1.02514380582661,0.788277414801119,,,,,,,,19.3535999999999,102,491.652450980392,733.34068627451,984.852941176471,493.946078431373,489.358823529412,727.717647058824,738.963725490196,997.656862745098,972.049019607843,0
2437.5296,0.460071871726242,0.303771576767096,0.454686542299597,0.050893343437796,0.530079272029209,0.530079272034601,,0.339590360741027,0.222428623489842,0.101915611989592,-0.486512142812882,0.101915611986997,-0.25078085379589,,-0.153383953249699,-0.647180981806519,,-0.247862832247994,,-0.881806287563769,-0.190363188219965,,0.285493235773584,,0.18417270257702,,,,,,0.177267395500267,,,,,,,,,,,,-1.0149204744556,0.780656589415244,,,,,,,,19.4559999999997,103,495.461650485437,733.060679611651,941.247572815534,494.781553398058,496.141747572816,728.091262135922,738.030097087379,950.223300970874,932.271844660194,0
2437.632,0.464075257140366,0.323079165823411,0.468636014132724,0.0577200441768217,0.534566609304762,0.534566609310136,,0.34609815940736,0.221680173401556,0.0978352233631905,-0.477525750856921,0.0978352233606074,-0.249691905084644,,-0.148949568753666,-0.649272863682375,,-0.248670598857338,,-0.865993225118281,-0.188425536878399,,0.288881903614473,,0.186190902634505,,,,,,0.173800469759555,,,,,,,,,,,,-1.00433926526346,0.772482773253828,,,,,,,,19.5583999999999,102,499.056862745098,729.127941176471,914.495098039216,499.706862745098,498.406862745098,722.614705882353,735.641176470588,924.156862745098,904.833333333333,0
