time,S1-D1,S1-D8,S1-D9,S1-D15,S2-D1,S2-D2,S2-D3,S2-D9,S3-D1,S3-D2,S3-D16,S4-D2,S4-D3,S4-D5,S5-D3,S5-D4,S5-D5,S6-D2,S6-D5,S6-D17,S7-D6,S7-D7,S8-D6,S8-D7,S8-D18,S9-D3,S9-D4,S9-D9,S9-D11,S9-D19,S10-D8,S10-D9,S10-D10,S10-D11,S11-D8,S11-D10,S11-D20,S12-D10,S12-D11,S12-D12,S13-D4,S13-D11,S13-D12,S14-D10,S14-D12,S14-D21,S15-D13,S15-D14,S16-D13,S16-D14,S16-D22,t_rel_s,eye_n,xp,yp,ps,xpl_i,xpr_i,ypl_i,ypr_i,psl_i,psr_i,blink_prop
613.5808,0.844593730932423,-1.29747076271761,,-1.59914628246216,0.58580141204386,,,,-1.58395777992134,0.217355119115523,0.220582464252232,,,,,,,,,-0.130406532873727,,,,,-0.430960325772545,1.28429814340659,,,-1.45510240631309,0.5935549788564,0.74479051546084,0.322555206488591,,0.349948435497932,1.86930793290587,1.08490704270619,-0.790787703062893,-0.911423991778685,-0.911423991778191,,,-0.516850251838488,,0.0404536917149172,,-0.748753194108013,,,,,0.573985422787263,0,103,1044.29660194175,523.323786407767,606.480582524272,1043.57378640777,1045.01941747573,500.760194174757,545.887378640777,479.718446601942,733.242718446602,0
613.6832,0.834950069441894,-1.30002703774584,,-1.62239715313933,0.591087416262823,,,,-1.6060803604173,0.191734234830395,0.204379182128724,,,,,,,,,-0.103901317254997,,,,,-0.476471521498846,1.261604831875,,,-1.45320355816963,0.600003830712911,0.775149198955054,0.283839568790761,,0.331295097143808,1.83127652324703,1.05174076869468,-0.814800148971629,-0.965323179391171,-0.965323179390687,,,-0.545108107308624,,0.040417410233605,,-0.740018339705671,,,,,0.563667306771242,0.102400000000102,102,1043.87598039216,521.047549019608,616.799019607843,1041.63823529412,1046.1137254902,504.735294117647,537.359803921569,491.039215686275,742.558823529412,0
613.7856,0.82517468707627,-1.30180096869688,,-1.6442858693912,0.596186639754235,,,,-1.62737920558586,0.166072505045864,0.187915343859391,,,,,,,,,-0.0774767677345456,,,,,-0.521342497474324,1.23868766284103,,,-1.45101342598814,0.60607922481568,0.805203034587453,0.244542865004077,,0.312892767807929,1.79214112220614,1.01837398806757,-0.837509787084118,-1.01947329272902,-1.01947329272855,,,-0.575091654665577,,0.0409998284143551,,-0.730785705457799,,,,,0.554089711924659,0.204800000000091,103,1041.89768658338,530.315207404273,624.984632876961,1038.95690943175,1044.83846373501,516.186172742788,544.444242065758,497.984583531518,751.984682222404,0
613.888,0.815275862722512,-1.30279501854921,,-1.66477495775149,0.601087618235314,,,,-1.647764144503,0.140425248650968,0.171217845294838,,,,,,,,,-0.0511938995974905,,,,,-0.565446942063144,1.21561540716227,,,-1.44858415480152,0.611754947255471,0.834948978413474,0.204657884969818,,0.294728387453713,1.75205667249919,0.984856164410794,-0.858846002082171,-1.07371873255126,-1.0737187325508,,,-0.60675526053618,,0.0422679399766274,,-0.721037236960678,,,,,0.545265018909172,0.30720000000008,102,1029.69856119681,687.747208818686,652.382094120069,1019.38976945245,1040.00735294118,701.361959654179,674.132457983193,521.719020172911,783.045168067227,0.46078431372549
613.9904,0.805263208304341,-1.30301414911368,,-1.68382937790849,0.60577847291621,,,,-1.6671439326867,0.114848369100521,0.154315194076136,,,,,,,,,-0.0251136826826453,,,,,-0.608659507313429,1.19245710655918,,,-1.44596830480337,0.617004507325902,0.86438455076188,0.164178296437985,,0.276787201838463,1.71118161506411,0.951236532108233,-0.878741139110838,-1.12790186032549,-1.12790186032504,,,-0.640047956280338,,0.0442874701049056,,-0.710756495591935,,,,,0.537201751077382,0.409600000000069,103,1014.0885531446,880.747928522994,683.66757985615,993.897694524496,1034.27941176471,933.419596541787,828.076260504202,549.190201729107,818.144957983193,1
614.0928,0.795147811393341,-1.30246587804874,,-1.70141652796494,0.610246864159201,,,,-1.68542646037639,0.089398036958964,0.137237424744252,,,,,,,,,0.000703035846546117,,,,,-0.650856046045292,1.16928183231323,,,-1.44321853019205,0.621801332693542,0.893507691820055,0.123098908403239,,0.259052838964503,1.66967750949447,0.917564017931656,-0.897130593924575,-1.18186359461318,-1.18186359461275,,,-0.674913641994394,,0.0471226279901118,,-0.699928828877534,,,,,0.529904810346274,0.512000000000057,102,998.478545092389,1073.7486482273,714.953065592231,968.405619596542,1028.55147058824,1165.47723342939,982.02006302521,576.661383285303,853.24474789916,1
614.1952,0.784942345097829,-1.30116031132767,,-1.71750624398953,0.614479946781933,,,,-1.70251897465905,0.0641303751875771,0.120016012132676,,,,,,,,,0.0261956032343504,,,,,-0.691913859127309,1.14615845222322,,,-1.4403872713916,0.626118970290537,0.922316612654569,0.0814159475746023,,0.241507400002918,1.62770864004902,0.883887170777118,-0.91395291143777,-1.23544398968311,-1.2354439896827,,,-0.711291298966062,,0.0508358792819063,,-0.688541523483748,,,,,0.523375693787297,0.614400000000046,102,998.925471125049,1198.41581336425,748.22487518062,974.999471661864,1022.85147058824,1261.61870656043,1135.21292016807,608.276431033509,888.173319327731,0.225490196078431
614.2976,0.774661148187269,-1.29911015549391,,-1.73207080156734,0.61846433671553,,,,-1.71832831750877,0.0391011586619385,0.102683780516167,,,,,,,,,0.0513036353634955,,,,,-0.731711955831079,1.12315540467368,,,-1.43752646422402,0.629931292704249,0.95080965177796,0.03912733884148,,0.224131570790765,1.58544160431121,0.85025410424463,-0.929149892679196,-1.2884828044256,-1.2884828044252,,,-0.749115202997674,,0.0554877353384607,,-0.676583942807614,,,,,0.517612683950515,0.716800000000035,103,973.254411764706,1245.39885065677,775.82959737293,952.897087378641,993.611736150771,1251.4145631068,1239.38313820674,630.252427184466,921.406767561393,0
614.4,0.764320285841487,-1.29633072107794,,-1.74508492828947,0.622186099189174,,,,-1.7327611734036,0.0143655392707956,0.0852748035471539,,,,,,,,,0.0759671041611786,,,,,-0.770131328504008,1.10034046853565,,,-1.43468726969543,0.633212711303296,0.978985145130111,-0.00376701848884679,,0.206904755365941,1.54304487626732,0.816712450174388,-0.942666708800589,-1.34082007637035,-1.34082007636997,,,-0.788315134471152,,0.0611365492522104,,-0.664047652042941,,,,,0.512611014258043,0.819200000000024,102,952.601470588235,1243.97303921569,796.176470588235,935.889215686275,969.313725490196,1244.21960784314,1243.72647058824,650.117647058824,942.235294117647,0
614.5024,0.75393760394998,-1.29283993174122,,-1.75652583178576,0.625630765909614,,,,-1.74572431887235,-0.0100221932955865,0.0678242860406612,,,,,,,,,0.100126452817328,,,,,-0.807055238144315,1.07778051948305,,,-1.43191982514044,0.635938395763481,1.00684131358162,-0.0472649880513879,,0.189805228769317,1.50068833449951,0.783309316750389,-0.954452018793295,-1.39229671276932,-1.39229671276895,,,-0.82881658658009,,0.0678383068995435,,-0.65092653032534,,,,,0.508363018011493,0.921600000000012,103,956.78640776699,1233.82427184466,810.04854368932,938.307766990291,975.265048543689,1241.46213592233,1226.18640776699,661.456310679612,958.640776699029,0
614.6048,0.743532783086232,-1.28865834386059,,-1.76637324248283,0.628783379093557,,,,-1.75712487791672,-0.0340088141710228,0.0503684215077005,,,,,,,,,0.123722743228347,,,,,-0.842369503458211,1.05554127203061,,,-1.42927301567642,0.638084502516398,1.03437616588703,-0.0913619543298716,,0.172810300087492,1.45854275288752,0.750091241445813,-0.964458082837179,-1.4427551003876,-1.44275510038724,,,-0.87054098380236,,0.0756464115662425,,-0.637216867372213,,,,,0.504858273120639,1.024,102,965.835784313725,1244.75049019608,818.245098039216,943.332352941177,988.339215686275,1246.81666666667,1242.68431372549,668.264705882353,968.225490196079,0
614.7072,0.73312738863767,-1.28380916947646,,-1.77460946866703,0.631628552687518,,,,-1.76687059522264,-0.0575423392926247,0.0329442265735491,,,,,,,,,0.146697827769326,,,,,-0.875962787026953,1.03368701065101,,,-1.4267942657419,0.639628416959093,1.06158741146839,-0.136050601317424,,0.155896475116102,1.41677925395652,0.717104128650239,-0.972640859662214,-1.49203973084784,-1.4920397308475,,,-0.913405927987619,,0.0846114710127144,,-0.622917444383184,,,,,0.502083750448957,1.12639999999999,102,976.828431372549,1247.86911764706,826.313725490196,949.962745098039,1003.69411764706,1257.79019607843,1237.94803921569,675.705882352941,976.921568627451,0
614.8096,0.722744909415228,-1.27831829393773,,-1.78121946314254,0.63415054321553,,,,-1.77487013454946,-0.080572185810749,0.0155893554681101,,,,,,,,,0.168994539576133,,,,,-0.907726878972881,1.01228031170332,,,-1.42452935157151,0.640549009259115,1.08847237937438,-0.181320707513742,,0.139039611604752,1.37556872161777,0.684393163905883,-0.978960080630282,-1.53999784189854,-1.5399978418982,,,-0.957325483456912,,0.0947810981892475,,-0.608029600528325,,,,,0.500023964632851,1.22880000000009,103,977.429126213592,1238.86553398058,832.859223300971,949.715533980583,1005.1427184466,1241.05922330097,1236.67184466019,685.058252427185,980.660194174757,0
614.912,0.712410776686777,-1.27221428269951,,-1.78619090133914,0.636333329445226,,,,-1.78103340154788,-0.103049322547848,-0.00165810707456142,,,,,,,,,0.190556906267128,,,,,-0.937556986130779,0.991381759118651,,,-1.42252223446559,0.640826898643576,1.11502794234314,-0.227158954207081,,0.122215065299947,1.33508117170423,0.652002702397622,-0.983379303371554,-1.5864800760483,-1.58648007604797,,,-1.00221050098676,,0.106199732830353,,-0.592557284136434,,,,,0.498661123275276,1.33120000000008,102,973.921078431373,1231.13676470588,835.911764705882,947.214705882353,1000.62745098039,1230.52843137255,1231.74509803922,691.107843137255,980.71568627451,0
615.0144,0.702152355267787,-1.26552837354859,,-1.78951426750892,0.638160704363647,,,,-1.7852718867425,-0.124926415362779,-0.0187598798627546,,,,,,,,,0.211330398691961,,,,,-0.965352036955748,0.971049662714907,,,-1.42081491104428,0.640444721274876,1.14125044555751,-0.273548748642592,,0.105397832338599,1.29548508458293,0.619976138751711,-0.98586595537725,-1.63134115311035,-1.63134115311003,,,-1.04796897143096,,0.11890848297012,,-0.576507085261511,,,,,0.497975276389702,1.43360000000007,103,973.391262135922,1233.36213592233,839.902912621359,947.964077669903,998.818446601942,1235.24757281553,1231.47669902913,697.893203883495,981.912621359223,0
615.1168,0.691998902199794,-1.25829445417875,,-1.79118294273587,0.639616381696551,,,,-1.78749902956845,-0.146157976583266,-0.0356777476842736,,,,,,,,,0.231262221759066,,,,,-0.991015009146057,0.95133978950646,,,-1.41944727375836,0.639387396490702,1.16713564200046,-0.320470067829954,,0.0885626952848466,1.25694670500024,0.588355767221685,-0.986391380113091,-1.6744405510219,-1.67444055102159,,,-1.09450639986572,,0.132944981211037,,-0.559888243089137,,,,,0.497944471162723,1.53600000000006,102,972.957843137255,1070.08578431373,822.460784313726,947.379411764706,998.536274509804,1064.12843137255,1076.0431372549,681.647058823529,963.274509803922,0
615.2192,0.681981496389732,-1.25054902898704,,-1.79119329023835,0.640684114948481,,,,-1.7876306146803,-0.166700527743778,-0.0523738477079484,,,,,,,,,0.250301642826606,,,,,-1.01445328339305,0.932305112540776,,,-1.41845697808863,0.637642384369607,1.19267863947759,-0.367899330035295,,0.0716843714896112,1.21962931040141,0.557182631488356,-0.98493089648997,-1.71564319261448,-1.71564319261417,,,-1.14172620006494,,0.148343254836048,,-0.542712616992776,,,,,0.498544910419038,1.63840000000005,102,964.385784313725,756,711.573529411765,951.863725490196,976.907843137255,741.721568627451,770.278431372549,575.14705882353,848,0
615.3216,0.67213294486174,-1.24233117715238,,-1.78954473727208,0.641347826030961,,,,-1.78558521540977,-0.186512777888492,-0.0688109773188403,,,,,,,,,0.268400347490605,,,,,-1.03557902463761,0.913995577108094,,,-1.41787932104578,0.635199930350012,1.21787386439576,-0.4158093000908,,0.0547376569393502,1.1836924452364,0.52649635650489,-0.981463877341441,-1.75482013778929,-1.75482013778899,,,-1.18953011688308,,0.165133611435497,,-0.524994609522536,,,,,0.499751108347532,1.74080000000004,103,964.114563106796,739.65145631068,576.04854368932,961.474757281553,966.754368932039,735.14854368932,744.154368932039,446.825242718447,705.271844660194,0
615.424,0.66248766426495,-1.23368249579025,,-1.78623985480161,0.641591744047081,,,,-1.78128469285756,-0.205555813749583,-0.0849529256871841,,,,,,,,,0.285512812409405,,,,,-1.05430959096053,0.896457885672624,,,-1.41774713867036,0.632053300139984,1.24271504516115,-0.464169034628231,,0.0376975645052838,1.14929112106208,0.496334961263839,-0.97597384531472,-1.7918492765405,-1.79184927654021,,,-1.23781868420773,,0.183342536083118,,-0.506751037705994,,,,,0.501536045186761,1.84320000000002,102,990.619117647059,595.850490196079,454.112745098039,991.675490196078,989.562745098039,590.893137254902,600.807843137255,336.833333333333,571.392156862745,0
615.5264,0.653081525548056,-1.2246470127335,,-1.78128443477855,0.641400560681327,,,,-1.77465474897641,-0.223793300201704,-0.100764825845681,,,,,,,,,0.301596679226483,,,,,-1.07056796919392,0.879735306639552,,,-1.41809072098247,0.62819901465887,1.26719521452653,-0.512943872833925,,0.0205394609432798,1.11657499715533,0.466734662560775,-0.968448577540889,-1.82661600790266,-1.82661600790239,,,-1.28649172050541,,0.202992587463647,,-0.488000964569076,,,,,0.503871334783797,1.94560000000001,103,1001.79951456311,489.332038834951,376.247572815534,1011.73300970874,991.866019417476,487.270873786408,491.393203883495,267.912621359223,484.582524271845,0
615.6288,0.643951646144616,-1.21527105376278,,-1.7746875610121,0.64075961329671,,,,-1.76562552115763,-0.241191694128311,-0.116213510724095,,,,,,,,,0.316613106544371,,,,,-1.0842832308796,0.863867511546285,,,-1.41893773100158,0.623637094727545,1.29130672441372,-0.562095471987151,,0.00323920277536646,1.08568757568653,0.437729683510882,-0.958880204802852,-1.85901387831254,-1.85901387831228,,,-1.33544885484281,,0.224102276626585,,-0.468765517460998,,,,,0.506727419404285,2.048,102,1003.83235294118,476.709803921569,332.490196078431,1017.89607843137,989.76862745098,476.899019607843,476.520588235294,232.843137254902,432.137254901961,0
615.7312,0.635136127864591,-1.20560306402665,,-1.76646166757612,0.639655100122411,,,,-1.75413219683091,-0.257720471820015,-0.131267852356439,,,,,,,,,0.330527080897414,,,,,-1.09539099015243,0.848890437190419,,,-1.42031311653786,0.618371314368609,1.31504126174025,-0.61158187551288,,-0.0142267360951085,1.05676544657887,0.409352074004364,-0.947265289672295,-1.88894515354605,-1.8889451535458,,,-1.38459006393408,,0.246685918877616,,-0.449067721338186,,,,,0.510073791422369,2.15039999999999,102,1013.94138861515,472.944248134222,310.315840664624,1028.55740708224,999.325370148059,472.861556921276,473.026939347168,214.334562481709,406.297118847539,0
615.8336,0.626673760503519,-1.19569339969184,,-1.7566225823857,0.638074314935521,,,,-1.74011562520099,-0.273352360857808,-0.145899073479102,,,,,,,,,0.343307680735836,,,,,-1.10383383772617,0.834836159883664,,,-1.42223901734915,0.612409446449153,1.33838985501249,-0.661357594878525,,-0.0318811529800576,1.02993759615764,0.381631541104396,-0.93360487481993,-1.91632131293718,-1.91632131293693,,,-1.43381619166773,,0.270753461376373,,-0.428932361287566,,,,,0.513879225275153,2.25280000000009,103,1037.90040207128,474.53491188373,299.133231800183,1051.98447761194,1023.81632653061,478.481194029851,470.588629737609,204.674626865672,393.591836734694,0.922330097087379
615.936,0.618603717298354,-1.18559410755242,,-1.74518955865763,0.636005880619178,,,,-1.72352290945382,-0.288063561690413,-0.160081031670153,,,,,,,,,0.354928295834496,,,,,-1.10956173322238,0.821732772173503,,,-1.42473467838193,0.605763480341808,1.36134286926123,-0.711373693537149,,-0.0497460226385657,1.00532477440953,0.354595285944712,-0.917904504066544,-1.94106346701025,-1.94106346701001,,,-1.48302942823508,,0.296310295842596,,-0.408385871797255,,,,,0.518112002058259,2.35520000000008,102,1062.26187024063,475.991570645316,288.115184282668,1075.60537313433,1048.91836734694,484.233432835821,467.749708454811,195.189552238806,381.040816326531,0.558823529411765
616.0384,0.610965255992027,-1.17535870153916,,-1.73218529675175,0.63343996893498,,,,-1.70430796879556,-0.301833943996887,-0.173790477155211,,,,,,,,,0.365366804934532,,,,,-1.11253235327401,0.809604268427426,,,-1.42781637657528,0.598449800793056,1.38388999453493,-0.761577873313967,,-0.0678424142865016,0.9830389142005,0.328267851060249,-0.900174226483823,-1.96310270181411,-1.96310270181388,,,-1.53213374293391,,0.323357067461111,,-0.387456243582058,,,,,0.522740120329071,2.45760000000007,103,1081.41336100358,476.091267577311,278.284588154926,1091.27568178525,1071.55104022191,489.609204463121,462.5733306915,187.07819156644,369.490984743412,0
616.1408,0.603797426841029,-1.16504193819098,,-1.71763595521394,0.630368504419931,,,,-1.68243206182591,-0.31464720584412,-0.187007280376509,,,,,,,,,0.374605713771932,,,,,-1.11271140057423,0.798470455278611,,,-1.43149736377806,0.590489329206833,1.4060202347956,-0.81191456812031,,-0.0861904085030251,0.963182602721953,0.302670988724599,-0.88042859456854,-1.98238035175104,-1.98238035175082,,,-1.58103527374551,,0.351889491219693,,-0.366172941692799,,,,,0.527731494128848,2.56000000000006,102,1078.42009803922,474.135294117647,280.088235294118,1084.0931372549,1072.74705882353,485.48431372549,462.786274509804,189.813725490196,370.362745098039,0
616.2432,0.597138786206555,-1.15469959029691,,-1.70157114827575,0.6267853536155,,,,-1.65786426617781,-0.326490989391272,-0.199714623348885,,,,,,,,,0.382632255229889,,,,,-1.11007287820889,0.788346896822771,,,-1.43578782727447,0.581907633175136,1.42772190161471,-0.862325047699689,,-0.104809003809922,0.945848607178819,0.277823560934401,-0.858686663344305,-1.9988482033798,-1.99884820337958,,,-1.62964267362406,,0.381898185882222,,-0.344566831555642,,,,,0.533054138698183,2.66240000000005,102,908.109803921569,437.407352941176,293.970588235294,919.106862745098,897.112745098039,450.487254901961,424.327450980392,204.941176470588,383,0
616.3456,0.591027117039703,-1.14438821705649,,-1.6840239280405,0.62268649927193,,,,-1.63058191617199,-0.337356954058367,-0.211899152112781,,,,,,,,,0.389438452105068,,,,,-1.10459932996851,0.779244895823308,,,-1.44069487006981,0.57273500545324,1.44898261505865,-0.912747532830271,,-0.123716004646161,0.931119454134313,0.253741478768316,-0.834971990958309,-2.01246863438942,-2.01246863438922,,,-1.677867411564,,0.413368535468026,,-0.322670109002733,,,,,0.538676342549806,2.76480000000004,103,872.033980582524,424.353883495146,296.310679611651,887.560194174757,856.507766990291,438.539805825243,410.167961165049,206.572815533981,386.04854368932,0
616.448,0.585499159469254,-1.13416493015085,,-1.66503075111987,0.618070197757754,,,,-1.60057100270248,-0.347240812985288,-0.223551093692406,,,,,,,,,0.395021144139785,,,,,-1.09628204135114,0.771171508889244,,,-1.44622251358013,0.563006507158949,1.46978931307096,-0.963117324016119,,-0.142927886482363,0.919067063582871,0.230437685642442,-0.809312634123959,-2.02321469119477,-2.02321469119459,,,-1.72562402957593,,0.446280588192541,,-0.300516231040361,,,,,0.544566825223448,2.86720000000003,102,868.601470588235,426.687745098039,291.53431372549,886.456862745098,850.746078431373,442.167647058824,411.207843137255,203.578431372549,379.490196078431,0
616.5504,0.580590354490839,-1.12408715725264,,-1.64463143129243,0.61293711776548,,,,-1.56782653321854,-0.356142341260901,-0.23466434840172,,,,,,,,,0.399381983607997,,,,,-1.08512118797263,0.764129588533825,,,-1.45237172585367,0.552761968445014,1.49012826866015,-1.0133669471632,,-0.162459641532425,0.909752445313201,0.207922184164025,-0.78174112392154,-2.03107010583214,-2.03107010583197,,,-1.77283035885205,,0.48060899809725,,-0.278139845858847,,,,,0.550694882174783,2.96960000000001,103,879.93640776699,432.103398058252,286.611650485437,897.127184466019,862.745631067961,444.296116504854,419.91067961165,199.407766990291,373.815533980583,0
616.6528,0.576334603445409,-1.11421240617311,,-1.62286908177787,0.607290459043802,,,,-1.53235284268443,-0.364065366360324,-0.245236572050956,,,,,,,,,0.402527402445384,,,,,-1.07112591521745,0.758117837746834,,,-1.45914047952636,0.542045941789825,1.50998511211627,-1.06342632161681,,-0.182324615310306,0.903225465216376,0.186202099790634,-0.752294402587793,-2.03602925315766,-2.0360292531575,,,-1.81940770137571,,0.516323004589515,,-0.255576719902715,,,,,0.557030520409831,3.072,102,929.483333333333,426.594117647059,284.362745098039,947.329411764706,911.637254901961,437.340196078431,415.848039215686,198.245098039216,370.480392156863,0
616.7552,0.572764044817134,-1.10459803149381,,-1.59979005067894,0.601136051331136,,,,-1.49416384706644,-0.371017747521222,-0.255269254008229,,,,,,,,,0.404468549787808,,,,,-1.05431434165644,0.753130863376456,,,-1.46652384264776,0.530907606127815,1.52934485589325,-1.11322295511841,,-0.20253434530803,0.899524676536088,0.165281768446183,-0.721013707035805,-2.03809705449569,-2.03809705449554,,,-1.86528098869836,,0.553386440834047,,-0.232863661589651,,,,,0.563544588429346,3.17439999999999,102,721.051960784314,424.794607843137,284.269607843137,740.921568627451,701.182352941177,421.044117647059,428.545098039216,198.578431372549,369.960784313725,0
616.8576,0.569908847335654,-1.09530100182533,,-1.57544384890028,0.594482434783553,,,,-1.45328323518202,-0.377011338847483,-0.264767781169135,,,,,,,,,0.405221198232342,,,,,-1.03471349437532,0.74915922507594,,,-1.47451409922873,0.519400623150573,1.54819192166042,-1.16268216650419,,-0.223098409883192,0.898677199510986,0.145162833688822,-0.687944400736013,-2.0372888373708,-2.03728883737067,,,-1.91037892880747,,0.591757770198752,,-0.210038446838143,,,,,0.570208901291313,3.27680000000009,103,-13.3970873786408,512.022330097087,289.412621359223,31.9601941747573,-58.7543689320388,556.905825242719,467.138834951456,201.873786407767,376.95145631068,0
616.96,0.567797018961081,-1.08637766584656,,-1.54988306463074,0.587340921934254,,,,-1.40974459675762,-0.382061922328472,-0.273741471410384,,,,,,,,,0.404805620427858,,,,,-1.01235919357484,0.746189487951081,,,-1.48310089033324,0.507582945474162,1.56651016910109,-1.21172733499818,,-0.244024289569356,0.900698635844838,0.125844345871787,-0.653135770453558,-2.03363015602813,-2.03363015602801,,,-1.95463414167842,,0.63139015839608,,-0.187139750828381,,,,,0.576996360387978,3.37920000000008,102,-7.60294117647059,492.170588235294,289.544117647059,44.1490196078431,-59.3549019607843,556.777450980392,427.563725490196,202.401960784314,376.686274509804,0
617.0624,0.566454233810402,-1.07788351840427,,-1.52316325687775,0.579725638470305,,,,-1.36359148689797,-0.386189101037697,-0.282203565847101,,,,,,,,,0.40324643838133,,,,,-0.987295900275482,0.744204292739466,,,-1.49227136776964,0.49551656839336,1.58428292548659,-1.2602801760504,,-0.265317234759817,0.905593012582446,0.107322866945491,-0.616640806851219,-2.02715656714591,-2.0271565671458,,,-1.99798327626305,,0.672231585542969,,-0.164207081970362,,,,,0.58388106789198,3.48160000000007,103,5.86553398058253,488.350970873786,295.233009708738,59.5932038834951,-47.8621359223301,552.244660194175,424.457281553398,207.844660194175,382.621359223301,0
617.1648,0.565903675221907,-1.06987296594148,,-1.49534282099133,0.571653539035973,,,,-1.31487742887215,-0.389416151402845,-0.290171174680772,,,,,,,,,0.400572444319688,,,,,-0.959576532449986,0.743182454963963,,,-1.50201035687295,0.483267212213529,1.60149301802353,-1.30826104590771,,-0.2869801302888,0.913352754061382,0.0895925894828925,-0.578515982379433,-2.01791334995726,-2.01791334995717,,,-2.04036710435865,,0.714224994779873,,-0.141280707989426,,,,,0.590838434053501,3.58400000000006,102,26.6794117647059,500.886764705882,303.43137254902,75.5558823529412,-22.1970588235294,549.112745098039,452.660784313726,217.774509803922,389.088235294118,0
617.2672,0.566165885413846,-1.06239908406862,,-1.46648281843556,0.563144394061925,,,,-1.26366585268879,-0.391769837665303,-0.297665170381568,,,,,,,,,0.396816389017623,,,,,-0.929262249890266,0.743099096774741,,,-1.51230052465436,0.470903927870464,1.6181228159474,-1.35558927976458,,-0.309013353492589,0.92395868738009,0.0726454753932906,-0.538821035509449,-2.00595516291383,-2.00595516291375,,,-2.08173059387878,,0.757308472957761,,-0.118401565410142,,,,,0.597845274915448,3.68640000000005,102,44.4490196078431,519.313235294118,313.348039215686,85.971568627451,2.92647058823529,551.152941176471,487.473529411765,229.245098039216,397.450980392157,0
617.3696,0.567258611174398,-1.05551335759205,,-1.43664676344327,0.554220742478669,,,,-1.21002996266229,-0.393280193099409,-0.304710019562661,,,,,,,,,0.39201473321554,,,,,-0.896422208072568,0.743925810987208,,,-1.52312254726389,0.458498628264218,1.63415429059188,-1.4021835699119,,-0.331414628296936,0.937380095184867,0.0564714174005631,-0.49761876677526,-1.99134563366986,-1.99134563366981,,,-2.12202296826975,,0.80141546231083,,-0.0956111504932731,,,,,0.604879901198474,3.78880000000004,103,-0.0315533980582534,535.87427184466,323.805825242718,43.8165048543689,-43.8796116504854,567.883495145631,503.865048543689,237.990291262136,409.621359223301,0
617.472,0.56919664117567,-1.04926539656494,,-1.40590036307979,0.544907806544871,,,,-1.1540525323696,-0.393980272757629,-0.31133354696112,,,,,,,,,0.386207357889672,,,,,-0.861133285253073,0.745630859973751,,,-1.53445527518075,0.446125552724462,1.64956909919004,-1.44796238945869,,-0.354178873996984,0.953574827919787,0.0410584294302033,-0.454974845621763,-1.97415688523593,-1.9741568852359,,,-2.16119776001399,,0.846475005602101,,-0.0729513951485744,,,,,0.611922199343708,3.89120000000003,102,15.7593137254902,539.660784313726,331.328431372549,49.7029411764706,-18.1843137254902,567.810784313725,511.510784313726,244.764705882353,417.892156862745,0
617.5744,0.571991636888746,-1.04370262776882,,-1.37431121136578,0.535233370192121,,,,-1.09582563567061,-0.393905880505431,-0.317566630984145,,,,,,,,,0.379437229958084,,,,,-0.823479790192629,0.748179417762765,,,-1.54627590476704,0.433860668930259,1.66434869614324,-1.49284446561217,,-0.377298037487365,0.972489478672885,0.0263928779729638,-0.410957618758508,-1.9544690100409,-1.9544690100409,,,-2.19921286748241,,0.892412029702257,,-0.050464529148142,,,,,0.618953697912989,3.99360000000002,103,36.0834951456311,538.488834951456,334.495145631068,67.0543689320389,5.1126213592233,562.850485436893,514.12718446602,247.747572815534,421.242718446602,0
617.6768,0.575651963295452,-1.03886996816444,,-1.34194844012302,0.525227625958313,,,,-1.03545032666494,-0.393095272100481,-0.323442836666748,,,,,,,,,0.371750024148772,,,,,-0.783553153039016,0.751533864171453,,,-1.55856016946596,0.421781011371598,1.67847447388327,-1.53674930336963,,-0.400760894495568,0.994059621468306,0.0124597686611065,-0.365637903904578,-1.93236950796995,-1.93236950796996,,,-2.23603062487271,,0.939147670937186,,-0.0281929252196318,,,,,0.625957605617441,4.096,102,48.3411764705882,538.448039215686,334.901960784314,80.4078431372549,16.2745098039216,557.880392156863,519.01568627451,248.137254901961,421.666666666667,0
617.7792,0.580182528916408,-1.03480949430976,,-1.30888233432575,0.514922995099075,,,,-0.973036274011142,-0.391588842260852,-0.328997998793245,,,,,,,,,0.363193709913248,,,,,-0.741451589673926,0.755654128083032,,,-1.57128255628437,0.409963963005088,1.69192792995188,-1.57959774843199,,-0.424552817769505,1.01821011998566,-0.000756907177172552,-0.3190887516551,-1.90795270256383,-1.90795270256387,,,-2.27161789039523,,0.98659963947438,,-0.00617892718939182,,,,,0.63291881359045,4.19839999999999,102,60.4362745098039,532.950980392157,336.808823529412,88.821568627451,32.0509803921569,554.723529411765,511.178431372549,250.078431372549,423.539215686275,0
617.8816,0.585584646812197,-1.03156012662158,,-1.27518393086064,0.504353924582164,,,,-0.90870134347449,-0.389428816100954,-0.334269775841805,,,,,,,,,0.353818120199238,,,,,-0.697279722932393,0.760498057029391,,,-1.58441653806633,0.398486507401589,1.70469084778498,-1.62131255896888,,-0.448655530733854,1.04485551523736,-0.013273780378507,-0.271385166003078,-1.88131914929644,-1.88131914929649,,,-2.30594614992713,,1.03468261507995,,0.0155353285439158,,,,,0.639823868097835,4.3008000000001,103,70.6174757281553,531.711165048544,341.174757281553,93.9825242718447,47.252427184466,553.708737864078,509.71359223301,254.009708737864,428.339805825243,0
617.984,0.59185592636116,-1.02915734479161,,-1.24092462682682,0.493556666181892,,,,-0.842571121711373,-0.386658970792399,-0.3392971973807,,,,,,,,,0.343674518971127,,,,,-0.651148153359417,0.766021778724655,,,-1.59793480262185,0.387424491264299,1.71674547566824,-1.6618189497931,,-0.473046875907326,1.07390048891826,-0.0251076957104408,-0.222603788033509,-1.85257505064283,-1.85257505064291,,,-2.33899162630659,,1.08330866636596,,0.0369080846539754,,,,,0.646660924865663,4.40320000000008,102,82.5955882352941,530.699019607843,345.96568627451,106.496078431373,58.6950980392157,550.18431372549,511.213725490196,259.411764705882,432.519607843137,0
618.0864,0.598990199240583,-1.02763293948255,,-1.20617581669738,0.482569044689505,,,,-0.774778385795692,-0.383324401775101,-0.344120219367106,,,,,,,,,0.332815175341942,,,,,-0.603172988950432,0.772180027747076,,,-1.61180946414374,0.376851930661977,1.72807469583011,-1.70104508807058,,-0.497700622563589,1.10524038335984,-0.0362753187248496,-0.172822558832265,-1.82183168630039,-1.82183168630049,,,-2.37073537853067,,1.13238768871827,,0.0578981217697873,,,,,0.653419692557693,4.50560000000007,103,92.902427184466,527.671844660194,349.422330097087,119.415533980583,66.3893203883495,546.841747572816,508.501941747573,262.825242718447,436.019417475728,0
618.1888,0.606977478109054,-1.02701479471921,,-1.1710085630779,0.471430222023633,,,,-0.705462533303983,-0.379471327377972,-0.34877929309494,,,,,,,,,0.321292945471335,,,,,-0.553475350930304,0.778926428533107,,,-1.62601225209891,0.366840379096997,1.73866218172121,-1.73892253654553,,-0.522586327694575,1.1387617566539,-0.0467927798017299,-0.122120380778454,-1.78920485486846,-1.78920485486858,,,-2.40116337291759,,1.18182785823715,,0.0784649073157112,,,,,0.660091368405559,4.60800000000006,102,104.067647058824,525.305392156863,356.088235294118,132.524509803922,75.6107843137255,542.739215686275,507.871568627451,269.147058823529,443.029411764706,0
618.2912,0.615803947061865,-1.02732669376992,,-1.13549329668354,0.460180460370946,,,,-0.634768985509843,-0.375146914246942,-0.35331495201176,,,,,,,,,0.309160867716214,,,,,-0.502180869827105,0.786213737581716,,,-1.64051467700845,0.357458362577456,1.74849253872598,-1.77538664289944,,-0.547669255332865,1.17434296368794,-0.0566753639533752,-0.0705767929898759,-1.75481431742077,-1.75481431742091,,,-2.43026651319045,,1.23153609673676,,0.0985687393519887,,,,,0.666668563544202,4.71040000000005,102,205.368137254902,481.381862745098,365.980392156863,213.145098039216,197.591176470588,484.578431372549,478.185294117647,277.303921568627,454.656862745098,0
618.3936,0.625451982851462,-1.02858814231597,,-1.09969954069527,0.448860879167678,,,,-0.562848563358807,-0.370399110605556,-0.357767418693722,,,,,,,,,0.296471780948496,,,,,-0.449419181705941,0.793994049796016,,,-1.65528817322224,0.348770880355308,1.75755142319008,-1.81037687202313,,-0.572910350773955,1.21185476458173,-0.0659372424652474,-0.0182716720659034,-1.71878323871212,-1.71878323871228,,,-2.45804062333392,,1.28141854014726,,0.118170888418693,,,,,0.673145210870709,4.81280000000004,103,1128.63932038835,341.356310679612,361.529126213592,1128.4213592233,1128.8572815534,340.774757281553,341.93786407767,275.038834951456,448.019417475728,0
618.496,0.635900201726409,-1.03081419932367,,-1.06369565781906,0.437513194013609,,,,-0.489856828142991,-0.36527648245943,-0.362176228382669,,,,,,,,,0.283277970824146,,,,,-0.395323431759691,0.802218975244001,,,-1.6703042209139,0.340838970964405,1.76582564417426,-1.84383708377949,,-0.598266259816837,1.25116096289114,-0.0745912359218782,0.0347150341847062,-1.6812376280969,-1.68123762809708,,,-2.48448638013124,,1.33138100453853,,0.137233737742179,,,,,0.679516448814336,4.91520000000003,102,1357.02696078431,281.801470588235,371.671568627451,1350.94411764706,1363.10980392157,326.736274509804,236.866666666667,284.333333333333,459.009803921569,0
618.5984,0.64712352767477,-1.03401530739101,,-1.02754861945524,0.426179428714924,,,,-0.415953385474008,-0.35982804733048,-0.366579865809629,,,,,,,,,0.269630845121443,,,,,-0.34002978833683,0.810839794951904,,,-1.68553445089563,0.333719345893207,1.77330325908854,-1.87571576696139,,-0.623689383498176,1.29211907535889,-0.0826485987438237,0.0883035377349849,-1.64230578031827,-1.64230578031847,,,-2.50960919426419,,1.38132944657172,,0.155720922151952,,,,,0.685778478431562,5.01760000000002,103,1359.09611650485,282.670388349515,377.087378640777,1353.61262135922,1364.57961165049,331.244660194175,234.096116504854,286.553398058252,467.621359223301,0
618.7008,0.659093285503077,-1.03819712480241,,-0.991323792577674,0.41490159933802,,,,-0.341301159011667,-0.354103097077734,-0.371015419312072,,,,,,,,,0.255580641050953,,,,,-0.283676961249544,0.819807602594521,,,-1.70095073481086,0.327464091667776,1.77997366757024,-1.9059662380297,,-0.649127965097433,1.33458103815079,-0.0901188201591313,0.142414413833372,-1.60211771146984,-1.60211771147006,,,-2.53341904263831,,1.43117041648009,,0.173597468425758,,,,,0.691928396771825,5.12000000000001,102,1361.86029411765,281.704411764706,382.019607843137,1355.19117647059,1368.52941176471,335.074509803922,228.33431372549,286.156862745098,477.882352941177,0
618.8032,0.671777323530897,-1.04336036890712,,-0.9550847372035,0.403721374542346,,,,-0.266065639873931,-0.34815100552168,-0.375518259066961,,,,,,,,,0.241176164057021,,,,,-0.226405709104276,0.82907343634028,,,-1.71652526232766,0.32212043773122,1.78582769796605,-1.93454680346809,,-0.674526211025496,1.378393950223,-0.0970094429018137,0.19696879345643,-1.56080458654906,-1.56080458654929,,,-2.55593025984998,,1.48081150322419,,0.190829937727639,,,,,0.697964017297883,5.22239999999999,102,1315.44754901961,307.307843137255,399.392156862745,1308.60196078431,1322.2931372549,352.696078431373,261.919607843137,297.754901960784,501.029411764706,0
618.9056,0.685140164551107,-1.0495006809495,,-0.918893014143232,0.39267972372402,,,,-0.190414117164914,-0.342021026558565,-0.380121743117872,,,,,,,,,0.226464553122441,,,,,-0.168358323192445,0.838588407423199,,,-1.7322306053503,0.317730583823272,1.79085768043134,-1.96142088119926,,-0.699824446964714,1.42340083848294,-0.10332590709287,0.251888559802767,-1.51849814208075,-1.51849814208099,,,-2.5771613043675,,1.5301617690026,,0.207386561761455,,,,,0.703883692014532,5.3248000000001,103,1007.06165048544,499.004368932039,424.509708737864,1014.48252427184,999.640776699029,501.892233009709,496.116504854369,314.456310679612,534.563106796117,0
619.008,0.699143182684611,-1.05660852341463,,-0.882808013077131,0.381816571539825,,,,-0.114514895222509,-0.335762095109899,-0.384856952090885,,,,,,,,,0.211491072104971,,,,,-0.109678089008255,0.84830383511914,,,-1.74803976596405,0.314331576421856,1.79505750602674,-1.98655708091583,,-0.72495931103968,1.46944142077958,-0.109071430608507,0.307096553526884,-1.47533011255318,-1.47533011255345,,,-2.597134520815,,1.57913216663591,,0.223237358870804,,,,,0.709686143514801,5.42720000000008,102,998.732843137255,503.89068627451,417.112745098039,1012.00294117647,985.462745098039,508.554901960784,499.226470588235,307.578431372549,526.647058823529,0
619.1104,0.71374480756966,-1.06466912030149,,-0.846886811642684,0.37117047360914,,,,-0.0385365010714274,-0.329422640627338,-0.389752452045885,,,,,,,,,0.196298933292875,,,,,-0.0505087369151056,0.858171392649283,,,-1.76392620480019,0.311955225804549,1.79842267337909,-2.0099292467907,,-0.749863990124916,1.51635285127709,-0.114246937992029,0.362516780085345,-1.43143166812787,-1.43143166812814,,,-2.6158759137011,,1.6276359374862,,0.238354223739453,,,,,0.715370306399227,5.52960000000007,103,998.489805825243,508.806796116505,410.169902912621,1012.7640776699,984.215533980583,509.87572815534,507.73786407767,303.582524271845,516.757281553398,0
619.2128,0.728900754691397,-1.07366244292997,,-0.81118406705582,0.360778315814017,,,,0.037353107473112,-0.323050415373515,-0.394834084239331,,,,,,,,,0.180929158351425,,,,,0.00900610323320854,0.868143254829193,,,-1.77986385210845,0.310628064284536,1.80095032297551,-2.03151646632557,,-0.774468506134994,1.56397044027012,-0.118851047672964,0.418074605227564,-1.38693286986146,-1.38693286986175,,,-2.63341492900054,,1.67558899097077,,0.252710997357849,,,,,0.720935176406718,5.63200000000006,102,597.673039215687,538.808333333333,401.495098039216,629.108823529412,566.237254901961,547.192156862745,530.424509803922,297.196078431373,505.794117647059,0
619.3152,0.744564272383312,-1.08356323487739,,-0.775751933576727,0.350675031877415,,,,0.112987308429639,-0.316692333944986,-0.40012478100196,,,,,,,,,0.165420475980286,,,,,0.0687234273849262,0.878172229810118,,,-1.79582710865147,0.310371349260076,1.80263925673765,-2.05130304695302,,-0.798700049638267,1.61212833742609,-0.122880119345356,0.473696921520267,-1.3419621516905,-1.3419621516908,,,-2.64978422219105,,1.72291025752034,,0.266283530715811,,,,,0.726379668557391,5.73440000000005,102,190.021568627451,583.829411764706,395.524509803922,227.602941176471,152.440196078431,591.121568627451,576.537254901961,293.529411764706,497.519607843137,0
619.4176,0.760686393816638,-1.09434106918279,,-0.740639999197232,0.340893336491159,,,,0.18820153307724,-0.310394317475626,-0.405644407186266,,,,,,,,,0.149809252486358,,,,,0.1285013480909,0.888211866222782,,,-1.81179084161155,0.311201105145935,1.80348993976304,-2.06927845894567,,-0.822483344047791,1.66066016763245,-0.126328349729714,0.529312270367228,-1.29664583753381,-1.29664583753412,,,-2.66501938966135,,1.76952199731229,,0.279049754482872,,,,,0.731702486246955,5.83680000000004,103,211.993203883495,576.03786407767,390.76213592233,245.749514563107,178.236893203884,585.771844660194,566.303883495146,289.669902912621,491.854368932039,0
619.52,0.777216189224334,-1.10596043712975,,-0.70589524021305,0.331463478301119,,,,0.262833925907505,-0.304201135896777,-0.411409626730708,,,,,,,,,0.134129451672228,,,,,0.188199543355418,0.898216542511451,,,-1.82773037577907,0.313128189522927,1.80350448549301,-2.08543724526668,,-0.84574101888081,1.70939961616254,-0.129187897346044,0.584850911239943,-1.25110769390252,-1.25110769390285,,,-2.67915865380834,,1.81535005309876,,0.290989760858323,,,,,0.736902001597539,5.93920000000003,102,339.214215686275,535.53431372549,385.470588235294,378.93137254902,299.497058823529,547.240196078431,523.828431372549,287.754901960784,483.186274509804,0
619.6224,0.79410102126669,-1.11838087077172,,-0.671561993484214,0.322413019509884,,,,0.336725947625136,-0.298156245411906,-0.417433794642689,,,,,,,,,0.118412618567229,,,,,0.247679663966207,0.908141547882381,,,-1.84362148004022,0.316158375990921,1.80268663212343,-2.0997789074257,,-0.868393981385332,1.75818096542182,-0.131449025099166,0.640244839971151,-1.20546851101668,-1.20546851101701,,,-2.69224250599417,,1.86032404977519,,0.302085895752001,,,,,0.741976144899275,6.04160000000002,103,352.946116504854,530.815533980583,383.004854368932,389.602912621359,316.28932038835,542.932038834951,518.699029126214,285.533980582524,480.47572815534,0
619.7248,0.811286807220592,-1.13155709764681,,-0.637681941726606,0.313766643968826,,,,0.409722920040807,-0.292301622906419,-0.423726875360815,,,,,,,,,0.102687877397634,,,,,0.306805704194457,0.917943157450922,,,-1.85944035377394,0.320292461000427,1.80104171751389,-2.11230777974691,,-0.890361789417926,1.80683958934352,-0.133100261021019,0.695427764870094,-1.15984570493545,-1.15984570493579,,,-2.70431331472155,,1.90437755152938,,0.312322853263309,,,,,0.746922298962243,6.14400000000001,102,362.138725490196,532.461274509804,382.372549019608,398.666666666667,325.610784313726,537.076470588235,527.846078431373,284.519607843137,480.225490196079,0
619.8272,0.828718285863842,-1.14543922079129,,-0.604294105986817,0.305545989827954,,,,0.481674511327877,-0.286677600557411,-0.430295388285216,,,,,,,,,0.0869819338305044,,,,,0.365444339855126,0.9275787017546,,,-1.8751636208563,0.325526404846551,1.79857665371568,-2.12303289724385,,-0.911563028902382,1.85521241435477,-0.13412857680136,0.750335049549615,-1.11435294188613,-1.11435294188649,,,-2.71541490129261,,1.94744818727798,,0.321687761630119,,,,,0.751737194285409,6.24639999999999,102,368.33137254902,531.977941176471,383.323529411765,408.482352941177,328.180392156863,532.999019607843,530.956862745098,286.009803921569,480.637254901961,0
619.9296,0.846339282154774,-1.15997291673778,,-0.571434843635941,0.297769502673426,,,,0.552435163748279,-0.281322704322757,-0.437142380251612,,,,,,,,,0.0713190766502592,,,,,0.423465234544839,0.937006631980718,,,-1.89076833588829,0.331851507362115,1.79529990218083,-2.13196785713486,,-0.931915690984949,1.90313835220051,-0.134519577292264,0.804903629444055,-1.06909979806292,-1.06909979806328,,,-2.72559208240157,,1.98947775073206,,0.330170251401245,,,,,0.756416804466112,6.3488000000001,103,993.18786407767,423.702912621359,378.422330097087,1010.96990291262,975.405825242718,421.930097087379,425.47572815534,284.68932038835,472.155339805825,0
620.032,0.864092964862543,-1.17509965042111,,-0.539137851785085,0.29045230818017,,,,0.621864469603456,-0.276273502394347,-0.444267423723501,,,,,,,,,0.0557211790221378,,,,,0.48074131749123,0.946186581720701,,,-1.90623200015084,0.339254611640573,1.79122145620339,-2.13913067842425,,-0.951337542265083,1.95045870302171,-0.134257695259819,0.859071912469383,-1.0241914701458,-1.02419147014618,,,-2.73489018404921,,2.03041227681803,,0.337762502148243,,,,,0.760956248153871,6.45120000000009,102,1487.35,358.182843137255,368.857843137255,1499.54705882353,1475.15294117647,380.676470588235,335.689215686275,277.43137254902,460.28431372549,0
620.1344,0.881922096688259,-1.19075691067837,,-0.507434174483705,0.283606103554153,,,,0.689827502552377,-0.271564471715571,-0.451666639995106,,,,,,,,,0.0402077004380923,,,,,0.537149042781441,0.955079425514091,,,-1.92153258089389,0.347718329511378,1.78635283721114,-2.14454366667284,,-0.969746487683377,1.9970175230692,-0.1333263932299,0.912779678855642,-0.979728543813735,-0.979728543814122,,,-2.74335453988139,,2.07020209531463,,0.344459267034997,,,,,0.765349708415759,6.55360000000007,103,1486.04708737864,343.640291262136,368.864077669903,1494.30388349515,1477.79029126214,380.080582524272,307.2,275.883495145631,461.844660194175,0
620.2368,0.899769277548831,-1.20687846680468,,-0.476352214371002,0.277239064070377,,,,0.756195110286717,-0.267227888604645,-0.459332748221375,,,,,,,,,0.0247956919731532,,,,,0.592568638866376,0.963647335165941,,,-1.93664852905143,0.357221283447647,1.78070710462658,-2.1482332838251,,-0.987060930764805,2.04266194972137,-0.131708379881906,0.96596799092374,-0.93580682385949,-0.935806823859891,,,-2.75102999274198,,2.1088018650532,,0.350257873401461,,,,,0.769590376493803,6.65600000000006,102,1486.94754901961,339.823529411765,372.68137254902,1490.78431372549,1483.11078431373,376.916666666667,302.730392156863,277.362745098039,468,0
620.3392,0.917577181968528,-1.22339464328294,,-0.445917753358522,0.271355761630284,,,,0.820844173683049,-0.263293743905757,-0.467255140154928,,,,,,,,,0.00949981094368811,,,,,0.646884349546892,0.97185383564507,,,-1.95155879303937,0.367738359030146,1.77429887289153,-2.15023001449888,,-1.00320013686297,2.08724247827843,-0.129385848633478,1.01857911389669,-0.892517229236528,-0.892517229236943,,,-2.75796041509413,,2.14617059321481,,0.355158199815576,,,,,0.773670417552194,6.75840000000005,102,1483.28039215686,341.13137254902,383.372549019608,1485.07843137255,1481.48235294118,375.227450980392,307.035294117647,283.872549019608,482.872549019608,0
620.4416,0.935288793403253,-1.24023261426592,,-0.416153985331902,0.265957100616233,,,,0.883657839221319,-0.259789678071638,-0.475419976443334,,,,,,,,,-0.00566765190514586,,,,,0.699984661154644,0.97966386377519,,,-1.96624282900632,0.379240962993681,1.76714432818687,-2.15056821975922,,-1.01808460324301,2.13061319124614,-0.126340741822079,1.07055644242921,-0.849945748697624,-0.849945748698054,,,-2.76418825279708,,2.18227164098755,,0.359162636361593,,,,,0.777580948564544,6.86080000000004,103,1461.75825242718,347.894174757282,396.184466019417,1463.53009708738,1459.98640776699,374.955339805825,320.833009708738,293.504854368932,498.864077669903,0
620.544,0.952847639705253,-1.25731672593536,,-0.387081559224682,0.26104028260113,,,,0.944525732020054,-0.256740931679027,-0.483810299291928,,,,,,,,,-0.0206967354460164,,,,,0.75176250784671,0.987043835083956,,,-1.98068060958117,0.391697281378721,1.75926123967057,-2.14928597423887,,-1.03163643495622,2.17263194620425,-0.122555037036342,1.12184442479917,-0.808173445463592,-0.808173445464038,,,-2.76975408893425,,2.21707271043844,,0.362276036818096,,,,,0.781312018723506,6.96320000000003,102,619.917647058824,500.771078431373,430.200980392157,650.719607843137,589.11568627451,495.452941176471,506.089215686275,318.549019607843,541.852941176471,0
620.6464,0.970198033163845,-1.27456885622499,,-0.35871862916754,0.25659880641595,,,,1.00334415293092,-0.254170310698659,-0.492406160854887,,,,,,,,,-0.0355797598514291,,,,,0.802115449176898,0.993961723202097,,,-1.9948526285496,0.405072529225446,1.75066896384532,-2.14642488796451,,-1.04377972082134,2.21316052918805,-0.118011047355719,1.17238847834514,-0.7672765044969,-0.767276504497362,,,-2.77469622739142,,2.25054580363958,,0.364505665361974,,,,,0.784852592641541,7.06560000000002,103,409.232524271845,537.409708737864,434.150485436893,440.268932038835,378.196116504854,522.731067961165,552.088349514563,319.233009708738,549.067961165049,0
620.7488,0.987285316540502,-1.2919088178883,,-0.331080908754384,0.252622501605968,,,,1.06001625825955,-0.252098166888885,-0.501184770076263,,,,,,,,,-0.0503112577477836,,,,,0.850945821464047,1.00038714961483,,,-2.00873989253613,0.419329185000217,1.74138844461418,-2.14202991904848,,-1.05444090562466,2.25206477795836,-0.112691730006958,1.22213489606259,-0.727326324138041,-0.72732632413852,,,-2.77905030235033,,2.28266714801092,,0.365861134105119,,,,,0.788190549133269,7.16800000000001,102,415.378431372549,538.430392156863,437.28431372549,443.846078431373,386.910784313726,523.736274509804,553.124509803922,320.313725490196,554.254901960784,0
620.8512,1.00405611344685,-1.30925480183711,,-0.304181727108184,0.249097589039961,,,,1.11445221797596,-0.250542391201968,-0.510120659690267,,,,,,,,,-0.0648878794456394,,,,,0.898160869574237,1.00629147563391,,,-2.02232389431143,0.434427210798833,1.7314422133504,-2.13614918433139,,-1.0635491592058,2.28921467597094,-0.106581003754653,1.27103074750197,-0.688389652245827,-0.688389652246322,,,-2.7828489208622,,2.31341708858575,,0.366354330238506,,,,,0.79131271164877,7.2704,102,420.750490196078,533.986764705882,442.397058823529,447.979411764706,393.521568627451,523,544.973529411765,329.382352941177,555.411764705882,0
620.9536,1.02045857580471,-1.32652384361956,,-0.278032087879066,0.246006760645308,,,,1.16656934664239,-0.249518417025895,-0.519185872938543,,,,,,,,,-0.079308276045929,,,,,0.943672863210884,1.01164789010846,,,-2.0355865720987,0.450324263321066,1.72085439294711,-2.12883377228739,,-1.0710367416728,2.32448441815448,-0.0996640738539798,1.31902377407031,-0.650528758996496,-0.650528758997007,,,-2.78612134146899,,2.34277995323059,,0.365999338281356,,,,,0.79420491705553,7.3728000000001,103,425.364563106796,536.344660194175,445.582524271845,451.814563106796,398.914563106796,524.694174757282,547.995145631068,334.796116504854,556.368932038835,0
621.056,1.03644261772216,-1.34363229075816,,-0.252640736437288,0.24332927466868,,,,1.21629220193779,-0.249039231975478,-0.528350165895709,,,,,,,,,-0.0935729683071602,,,,,0.987399198336569,1.01643149361474,,,-2.04851026216921,0.466975897469084,1.70965070806286,-2.12013756005066,,-1.07683936037888,2.35775245999204,-0.0919277557632218,1.36606227804973,-0.613801631284625,-0.613801631285153,,,-2.78889318758379,,2.37074389867076,,0.364812362927564,,,,,0.796852116883545,7.47520000000009,102,530.665196078431,534.445098039216,438.676470588235,567.140196078431,494.190196078431,540.675490196078,528.214705882353,330.264705882353,547.088235294118,0
621.1584,1.05196013132547,-1.36049626170499,,-0.228014239044023,0.241041074761621,,,,1.26355264967877,-0.249115399741708,-0.537581217849625,,,,,,,,,-0.107684209008172,,,,,1.0292624873705,1.0206193867082,,,-2.06107764966334,0.484335762966793,1.69785849907193,-2.11011703396224,,-1.08089651517099,2.38890157752657,-0.0833607832023777,1.41209501211111,-0.578262168163576,-0.578262168164118,,,-2.79118619431087,,2.39730074396374,,0.362811652623604,,,,,0.799238500743033,7.57760000000008,103,589.719902912621,537.449514563107,434.184466019418,638.763106796117,540.676699029126,560.649514563107,514.249514563107,326.747572815534,541.621359223301,0
621.2608,1.06696518937994,-1.37703210146549,,-0.20415707188412,0.23911494580862,,,,1.30828989766701,-0.249755094395361,-0.546844843960638,,,,,,,,,-0.121645844012479,,,,,1.06919064688037,1.02419076964564,,,-2.07327172288144,0.502355798475852,1.68550673121735,-2.09883110912203,,-1.08315182977033,2.41781896804022,-0.0739540865905464,1.45707108615774,-0.543960355645608,-0.54396035564617,,,-2.79301799228879,,2.42244579590168,,0.360017421061884,,,,,0.801347634753644,7.68000000000006,102,595.021078431373,544.530882352941,445.838235294118,645.41862745098,544.623529411765,563.126470588235,525.935294117647,336.735294117647,554.941176470588,0
621.3632,1.08141423973959,-1.39315683722843,,-0.181071714455587,0.237520707518251,,,,1.35045050171201,-0.250964147547507,-0.556105209045281,,,,,,,,,-0.135463172504832,,,,,1.10711699017844,1.02712705070287,,,-2.08507573675561,0.520986430758483,1.67262598843819,-2.08634094094392,,-1.08355336689488,2.44439639971256,-0.06370103623849,1.50093991028883,-0.510942405646546,-0.510942405647128,,,-2.79440193692784,,2.44617767014096,,0.356451764343557,,,,,0.803162609616877,7.78240000000005,102,601.497549019608,551.271568627451,466.117647058824,649.43431372549,553.560784313726,566.439215686274,536.103921568628,355.156862745098,577.078431372549,0
621.4656,1.09526629044005,-1.40878862833784,,-0.158758742373526,0.236225433129969,,,,1.38998834748558,-0.252746107061619,-0.565325044199468,,,,,,,,,-0.149142803644526,,,,,1.14298032410802,1.02941195050761,,,-2.09647318930144,0.540176783968554,1.65924844530655,-2.0727097238386,,-1.08205392616122,2.46853039583079,-0.052597655145925,1.54365118296999,-0.479250853859413,-0.479250853860017,,,-2.79534698860286,,2.46849811209494,,0.352138574152246,,,,,0.804666191786957,7.88480000000004,103,649.104368932039,549.707766990291,489.514563106796,689.37572815534,608.833009708738,559.72427184466,539.691262135922,378.368932038835,600.660194174757,0
621.568,1.10848308233211,-1.42384720486643,,-0.137216914714803,0.235193681625833,,,,1.42686461032159,-0.255102306166239,-0.574465867739196,,,,,,,,,-0.162692508445527,,,,,1.17672504110443,1.03103159161329,,,-2.10744781376223,0.559874899914252,1.64540781752898,-2.05800247728222,,-1.07861132648947,2.49012243939357,-0.0406428087290769,1.58515492033111,-0.44892462034162,-0.448924620342246,,,-2.79585763985475,,2.48941181905494,,0.347103450352499,,,,,0.80584097284175,7.98720000000003,102,664.406862745098,546.431862745098,505.28431372549,706.094117647059,622.719607843137,554.864705882353,537.999019607843,395.186274509804,615.382352941177,0
621.6704,1.1210292498329,-1.43825429733898,,-0.116443249580392,0.234387742936328,,,,1.46104769153623,-0.258031941775464,-0.583488208826624,,,,,,,,,-0.176121069317456,,,,,1.20830119722888,1.0319745686869,,,-2.11798358848872,0.580027968794114,1.63113929524962,-2.04228582210914,,-1.07318867549142,2.50907919889921,-0.0278383735476241,1.6254015169462,-0.419999040235391,-0.419999040236038,,,-2.79593388017415,,2.50892625906413,,0.34137361588898,,,,,0.806669518259751,8.08960000000002,103,677.905825242719,547.334466019418,500.970873786408,712.959223300971,642.852427184466,553.859223300971,540.809708737864,391.572815533981,610.368932038835,0
621.7728,1.13287247194167,-1.4519340627734,,-0.0964330838544589,0.233767902292498,,,,1.49251312819244,-0.261532160980177,-0.592351830608976,,,,,,,,,-0.18943813075167,,,,,1.23766457492488,1.03223199777147,,,-2.12806476399845,0.600582569225592,1.61647946015997,-2.02562774766421,,-1.06575462434675,2.52531278541095,-0.0141893795527225,1.66434183183495,-0.392505863383548,-0.392505863384217,,,-2.7955711926258,,2.52705147980528,,0.334977833021019,,,,,0.807134521185398,8.19200000000001,102,687.537254901961,546.317647058824,487.985294117647,723.693137254902,651.38137254902,550.816666666667,541.818627450981,378.088235294118,597.882352941176,0
621.8752,1.14398361114263,-1.46481350276706,,-0.0771801205815872,0.233292725874502,,,,1.52124347572541,-0.265598155425744,-0.601015951234411,,,,,,,,,-0.20265405409218,,,,,1.26477673461108,1.0317975466639,,,-2.13767590353719,0.621484912754754,1.60146618352329,-2.00809736811212,,-1.0562836010788,2.53874105028771,0.000295884720524853,1.70192729648846,-0.366473211310726,-0.366473211311417,,,-2.79476058169044,,2.54379990691128,,0.327946318724991,,,,,0.807218961792782,8.2944,102,711.66862745098,548.845098039216,482.299019607843,751.560784313725,671.776470588235,548.94705882353,548.743137254902,372.490196078431,592.107843137255,0
621.9776,1.15433683176572,-1.47682285791791,,-0.0586764722763131,0.232919359688237,,,,1.54722816865189,-0.270223261783085,-0.60943946074929,,,,,,,,,-0.215779780801896,,,,,1.28960505505014,1.03066745102636,,,-2.14680193190105,0.642681084563815,1.58613850506503,-1.98976466779836,,-1.04475601503228,2.54928792660628,0.0156058121502693,1.73811003939317,-0.341925489269311,-0.341925489270021,,,-2.79348863068054,,2.55918613734081,,0.32031065859099,,,,,0.806906260692964,8.3968000000001,103,721.304854368932,551.050970873787,489.436893203884,758.368932038835,684.240776699029,552.130097087379,549.971844660194,379.029126213592,599.844660194175,0
622.08,1.16390968751739,-1.4878959600688,,-0.0409127062680348,0.232603826899462,,,,1.57046337089167,-0.275399063367025,-0.617581130075429,,,,,,,,,-0.228826710848349,,,,,1.31212275907268,1.02884051852118,,,-2.15542818709694,0.664117272743582,1.57053649820111,-1.97070023885349,,-1.03115842948353,2.55688381178339,0.0317254641699543,1.77284302170784,-0.318883271694385,-0.318883271695113,,,-2.79173758324902,,2.5732267311004,,0.312103718500068,,,,,0.806180409299045,8.49920000000009,102,704.580882352941,550.75,504.245098039216,742.888235294118,666.273529411765,553.226470588235,548.273529411765,392.450980392157,616.039215686275,0
622.1824,1.17268317055343,-1.4979705286866,,-0.0238778942205595,0.232301311166025,,,,1.59095183043205,-0.2811154874933,-0.625399809759441,,,,,,,,,-0.241806600749806,,,,,1.33230892728448,1.02631811840295,,,-2.16354046970036,0.685739982344061,1.5547011294395,-1.95097501628028,,-1.01548370244858,2.56146598789682,0.0486366035907993,1.80608018760251,-0.297363187515147,-0.297363187515889,,,-2.78948544499299,,2.5859400000963,,0.303359552123971,,,,,0.805026068915096,8.60160000000008,103,688.920388349515,548.835922330097,511.815533980583,729.307766990291,648.533009708738,552.898058252427,544.773786407767,398.718446601942,624.912621359223,0
622.2848,1.18064171807542,-1.50698840429179,,-0.00755966675039746,0.231966420724038,,,,1.60870275232666,-0.287360896154942,-0.632854619688311,,,,,,,,,-0.254731479011797,,,,,1.35014850980444,1.02310414928714,,,-2.17112508574916,0.707496234781909,1.53867411967482,-1.93066001640047,,-0.997731097765381,2.56297907264518,0.0663177682814589,1.83777664230261,-0.277377825616909,-0.277377825617666,,,-2.78670610879948,,2.59734579599439,,0.294113301761777,,,,,0.803428642574663,8.70400000000007,102,703.209803921569,549.897058823529,500.264705882353,742.624509803922,663.795098039216,551.479411764706,548.314705882353,387.676470588235,612.852941176471,0
622.3872,1.18777317432545,-1.51489571745182,,0.00805572646512389,0.231553434137872,,,,1.62373169964748,-0.294122170824544,-0.6399051325412,,,,,,,,,-0.267613572764116,,,,,1.36563234647182,1.01920497609599,,,-2.17816888170947,0.729333754927459,1.52249781167268,-1.90982608246307,,-0.977906370162095,2.56137548770218,0.0847443768323962,1.86788887125189,-0.258935669898972,-0.258935669899742,,,-2.78336951226401,,2.60746530563913,,0.2844010913292,,,,,0.801374324624976,8.80640000000005,102,711.907843137255,548.435294117647,482.852941176471,746.214705882353,677.600980392157,550.269607843137,546.600980392157,369.941176470588,595.764705882353,0
622.4896,1.19406870744287,-1.52164299702201,,0.0229833523638004,0.231016531790823,,,,1.6360605220064,-0.301384793208816,-0.646511552592045,,,,,,,,,-0.280465242966889,,,,,1.37875720055982,1.01462933010406,,,-2.18465927323512,0.751201146320125,1.50621504152953,-1.88854363716445,,-0.956021830721399,2.55661593265005,0.103888855309989,1.89637500494048,-0.242041062466465,-0.242041062467248,,,-2.77944183037308,,2.61632086250367,,0.274259913176675,,,,,0.798850125231729,8.90880000000004,103,762.769417475728,542.405825242719,469.45145631068,792.047572815534,733.491262135922,544.833009708738,539.978640776699,356.388349514563,582.514563106796,0
622.592,1.19952268615062,-1.52718522780877,,0.037239527648569,0.230310017559131,,,,1.6457172968648,-0.309132923382184,-0.652634889145918,,,,,,,,,-0.293298930019901,,,,,1.38952580221297,1.00938817083289,,,-2.19058426956827,0.773048052718873,1.48986900934301,-1.86688244188873,,-0.932096403262203,2.54866985540797,0.123720771343709,1.92319512007146,-0.226694188003165,-0.22669418800396,,,-2.77488569789357,,2.62393577547616,,0.263727511725286,,,,,0.795843866188458,9.01120000000003,102,780.28137254902,536.913235294118,465.656862745098,810.491176470588,750.071568627451,539.760784313726,534.06568627451,352.950980392157,578.362745098039,0
622.6944,1.20413252960391,-1.53148187419976,,0.0508417482287402,0.229388535765987,,,,1.65273626030957,-0.317349475577857,-0.658237123215156,,,,,,,,,-0.306127110606579,,,,,1.39794688879385,1.00349451444611,,,-2.19593249379614,0.794825304936771,1.4735031486731,-1.84491136788528,,-0.90615568101188,2.53751590322429,0.144206960153233,1.94831155536561,-0.212891074679256,-0.212891074680064,,,-2.76966045396605,,2.63033416983194,,0.252842266517701,,,,,0.792344155259323,9.11360000000002,103,785.323300970874,537.788834951456,468.830097087379,816.556310679612,754.090291262136,541.290291262136,534.287378640777,355.893203883495,581.766990291262,0
622.7968,1.20789854553648,-1.53449688632639,,0.0638086106164285,0.228207291281211,,,,1.65715771085508,-0.326016189200774,-0.663281367915339,,,,,,,,,-0.318962262687243,,,,,1.40403522544995,0.996963239781056,,,-2.20069320115221,0.816485056324389,1.45716099932059,-1.82269818777429,,-0.878231982465804,2.52314233374788,0.165311635376481,1.97168921777467,-0.200623611814921,-0.200623611815737,,,-2.76372240632197,,2.63554083278341,,0.241643077855256,,,,,0.788340355006681,9.21600000000001,102,800.89705882353,541.522549019608,477.78431372549,827.271568627451,774.522549019608,544.936274509804,538.108823529412,363.823529411765,591.745098039216,0
622.8992,1.2108237642291,-1.53619869760748,,0.0761597219089454,0.226722280089959,,,,1.65902788559941,-0.335113690948829,-0.667732023622981,,,,,,,,,-0.331816833201652,,,,,1.40781159122651,0.989810885411089,,,-2.20485629936206,0.837980912979862,1.4408860876356,-1.80030939197028,,-0.848364394006796,2.50554737458473,0.186996492010771,1.9932958616192,-0.189879586622697,-0.189879586623525,,,-2.75702511670945,,2.63958105569356,,0.230169257062145,,,,,0.783822558740747,9.3184,102,828.355392156863,545.167156862745,491.137254901961,848.536274509804,808.174509803922,547.208823529412,543.125490196078,376.647058823529,605.627450980392,0
623.0016,1.21291376996954,-1.53656021599069,,0.0879155988366798,0.224890530929558,,,,1.65839881626501,-0.344621546161145,-0.671554925505628,,,,,,,,,-0.344703203621727,,,,,1.40930272156603,0.982055448720866,,,-2.2084123702497,0.859268058665215,1.42472181365295,-1.77781002755176,,-0.816598784890809,2.48473953229617,0.209220815694488,2.01310233047406,-0.180642740081361,-0.180642740082196,,,-2.74951970906481,,2.64248046736538,,0.218460419062741,,,,,0.77878157645798,9.4208000000001,103,836.106310679612,543.353398058252,497.111650485437,854.478640776699,817.733980582524,546.926213592233,539.780582524272,382.980582524272,611.242718446602,0
623.104,1.21417653349822,-1.53555881084151,,0.099097558378009,0.222670351678141,,,,1.65532816898883,-0.354518300307311,-0.674717478603022,,,,,,,,,-0.357633651558429,,,,,1.4085412069657,0.973716195492762,,,-2.21135268830487,0.880303366419004,1.40871134021036,-1.75526355273961,,-0.782987786942493,2.46073785903872,0.231941608976244,2.03108275742031,-0.172892837085161,-0.172892837086007,,,-2.74115519880498,,2.64426485799456,,0.206556375142359,,,,,0.773208927524787,9.52320000000009,102,841.970588235294,544.204901960784,495.480392156863,862.412745098039,821.528431372549,548.863725490196,539.546078431373,382.43137254902,608.529411764706,0
623.2064,1.21462225032712,-1.53317629713698,,0.109727602626747,0.220021571296326,,,,1.64987906721791,-0.36478151091972,-0.677188779128604,,,,,,,,,-0.370620309018609,,,,,1.40556535670267,0.964813485637618,,,-2.21366923562893,0.901045491517527,1.3928974803973,-1.73273170147968,,-0.747590738267324,2.43357218583831,0.255113738838242,2.0472147265831,-0.166605745518306,-0.166605745519164,,,-2.73187883735258,,2.64495999804984,,0.194497031506787,,,,,0.76709683912475,9.62560000000008,103,710.100485436893,540.912621359223,472.281553398058,741.201941747573,678.999029126214,546.460194174757,535.365048543689,362.883495145631,581.679611650485,0
623.3088,1.21426318589929,-1.52939891555234,,0.119828302295426,0.216905769234577,,,,1.64211989969519,-0.375387768396347,-0.678939725104833,,,,,,,,,-0.383675116438272,,,,,1.40041903855776,0.955368616015263,,,-2.21535471375606,0.921454949319294,1.37732258524798,-1.71027435847515,,-0.710473592342233,2.40328332466057,0.278690105029293,2.06147940470808,-0.16175352647497,-0.161753526475837,,,-2.72163646618162,,2.64459146015866,,0.182322303746897,,,,,0.760438254130891,9.72800000000007,102,186.872549019608,550.522549019608,448.397058823529,217.108823529412,156.636274509804,561.966666666667,539.078431372549,342.225490196078,554.56862745098,0
623.4112,1.21311352417216,-1.52421730535772,,0.12942268535767,0.213286488145984,,,,1.63212412092965,-0.386312705503165,-0.679943118259741,,,,,,,,,-0.39680976897002,,,,,1.39315150169649,0.945403678222488,,,-2.21640254739697,0.941494184259969,1.36202843711635,-1.68794944941593,,-0.671708793928288,2.3699232338167,0.302621825632977,2.07386165313537,-0.158304543119718,-0.158304543120594,,,-2.71037288170462,,2.64318445602319,,0.170072050923802,,,,,0.753226850328614,9.83040000000005,102,210.369607843137,545.960294117647,433.617647058824,237.740196078431,182.999019607843,554.821568627451,537.099019607843,329.441176470588,537.794117647059,0
623.5136,1.21118921529767,-1.51762646752237,,0.138534136085322,0.209129428064877,,,,1.61997005282431,-0.397530999632653,-0.68017375568131,,,,,,,,,-0.410035651146488,,,,,1.38381718961604,0.934941429540116,,,-2.21680687270135,0.961127632237797,1.3470561506445,-1.66581284850451,,-0.631375124512099,2.3335551394961,0.326858434381836,2.08435013144305,-0.156223592144095,-0.156223592144981,,,-2.69803221979588,,2.64076370164438,,0.157786023172522,,,,,0.745457069032344,9.93280000000004,103,233.511650485437,544.151941747573,429.470873786408,260.604854368932,206.418446601942,554.914563106796,533.38932038835,327.087378640777,531.854368932039,0
623.616,1.20850782021753,-1.50962571652448,,0.147186305504141,0.204402620437727,,,,1.60574069192123,-0.409016374294565,-0.679608510497692,,,,,,,,,-0.423363756541824,,,,,1.37247555289533,0.924005175380957,,,-2.21656250831397,0.980321776963969,1.33244607772165,-1.64391830005288,,-0.589557520214243,2.29425360323107,0.351348082810315,2.09293740475077,-0.155472060098354,-0.155472060099244,,,-2.68455837214172,,2.63735332153182,,0.145503811922789,,,,,0.737124152174242,10.0352,102,650.576960784314,488.867156862745,434.426470588235,664.072549019608,637.08137254902,491.072549019608,486.661764705882,334.833333333333,534.019607843137,0
623.7184,1.2050883539411,-1.50021862212764,,0.155403030441399,0.19907658424249,,,,1.58952351888166,-0.420741604851364,-0.678226405185169,,,,,,,,,-0.436804591384804,,,,,1.35919086788641,0.912618658083673,,,-2.21566491693181,0.999045205281324,1.31823771485608,-1.62231735257727,,-0.54634686362039,2.25210451865088,0.376037739183907,2.09962006309306,-0.15600811110538,-0.156008111106273,,,-2.66989544509233,,2.63297679547163,,0.133264790789954,,,,,0.728224186807585,10.1376,103,1240.78446601942,451.090291262136,445.723300970874,1252.29126213592,1229.27766990291,437.285436893204,464.895145631068,349.330097087379,542.116504854369,0
623.8208,1.20095113364244,-1.48941294624587,,0.163208256004631,0.193124473035963,,,,1.57141030034496,-0.43267852915763,-0.676008684964957,,,,,,,,,-0.450368068285471,,,,,1.34403205542467,0.900805941445157,,,-2.21411017138833,1.01726866787279,1.30446962064632,-1.60105931233555,,-0.501839752718356,2.2072050222732,0.400873375037337,2.10439885131345,-0.157786914420679,-0.157786914421577,,,-2.65398826403207,,2.62765693944483,,0.12110803808577,,,,,0.718754149375363,10.24,102,1231.21274509804,453.18137254902,460.357843137255,1236.77254901961,1225.65294117647,438.562745098039,467.8,363.205882352941,557.509803921569,0
623.9232,1.19611763898743,-1.47722058057096,,0.170625955405611,0.186522223607534,,,,1.55149687344127,-0.444798060084119,-0.672938897887735,,,,,,,,,-0.464063403516075,,,,,1.32707248204875,0.888591279800301,,,-2.21189493638406,1.03496514388137,1.29117935629624,-1.58019122813361,,-0.45613825581566,2.15966331653962,0.425800130067599,2.10727879510247,-0.16076091757173,-0.160760917572631,,,-2.63678291711474,,2.62141590411191,,0.109072240603325,,,,,0.708711938009421,10.3424,102,1227.50980392157,455.987254901961,465.088235294118,1234.17843137255,1220.84117647059,441.18431372549,470.790196078431,362.833333333333,567.343137254902,0
624.0256,1.19061038715172,-1.46365748567191,,0.177680043461772,0.1792487109314,,,,1.52988290689564,-0.457070198869935,-0.66900298018166,,,,,,,,,-0.477899031275802,,,,,1.30838972721557,0.875998969954743,,,-2.20901646447718,1.05210989934974,1.27840345389404,-1.55975791146992,,-0.40934966131386,2.10959842034192,0.450762452947768,2.10826930447376,-0.164880161622031,-0.164880161622937,,,-2.6182273266941,,2.61427517690625,,0.0971955844178969,,,,,0.698096388829747,10.4448000000001,103,1227.75048543689,459.945145631068,465.660194174757,1238.16310679612,1217.33786407767,446.249514563107,473.640776699029,357.330097087379,573.990291262136,0
624.128,1.18445281864841,-1.44874362724362,,0.184394285549962,0.171285904564142,,,,1.50667163525622,-0.469464052716876,-0.66418933814228,,,,,,,,,-0.491882541376563,,,,,1.28806531429699,0.863053197943089,,,-2.20547259457933,1.06868052801045,1.26617740149295,-1.53980198007266,,-0.361586220471797,2.05713987001981,0.475704229057594,2.10738424515405,-0.170092621559601,-0.170092621560512,,,-2.59827183310741,,2.6062555819121,,0.0855156367782646,,,,,0.686907284907081,10.5472000000001,102,1084.12843137255,464.386274509804,463.686274509804,1101.23529411765,1067.02156862745,454.350980392157,474.421568627451,350.147058823529,577.225490196079,0
624.2304,1.17766918989289,-1.43250290542346,,0.190792206889039,0.162619016055077,,,,1.48196956566551,-0.481947858282894,-0.658488920069126,,,,,,,,,-0.506020637962356,,,,,1.26618441367186,0.849777897819172,,,-2.20126174409836,1.08465696667638,1.25453562722508,-1.52036390497015,,-0.312964869494099,2.00242738145328,0.500568912525905,2.10464197720269,-0.176344551699928,-0.176344551700846,,,-2.57686977427319,,2.59737728086097,,0.0740692220032603,,,,,0.67514536949363,10.6496000000001,103,251.3,541.01213592233,463.679611650485,287.309708737864,215.290291262136,545.703883495146,536.320388349515,346.145631067961,581.21359223301,0
624.3328,1.17028447123553,-1.41496307439848,,0.196897006112518,0.153236627831178,,,,1.45588615748231,-0.494489007783834,-0.651895275981244,,,,,,,,,-0.520319112537288,,,,,1.24283552164709,0.836196634823135,,,-2.19638289377744,1.10002148322772,1.24351147132616,-1.50148204906309,,-0.263606913440103,1.94561045987307,0.525299674067193,2.10006535825772,-0.183580824610552,-0.183580824611475,,,-2.55397804889532,,2.58765978448453,,0.062892294627627,,,,,0.662812366629322,10.7520000000001,102,248.805882352941,545.560784313726,456.93137254902,282.225490196079,215.386274509804,554.649019607843,536.472549019608,340.411764705882,573.450980392157,0
624.4352,1.16232424766071,-1.39615564763727,,0.202731476614878,0.143130797460153,,,,1.42853347225749,-0.507054076477542,-0.644404600077785,,,,,,,,,-0.53478282770171,,,,,1.21811011121883,0.822332517899009,,,-2.1908355642212,1.11475864208086,1.23313714507648,-1.48319269766881,,-0.213637658088561,1.88684793474096,0.549839568881883,2.09368170545894,-0.191745255677643,-0.191745255678572,,,-2.52955765585595,,2.5771219772141,,0.052019807674394,,,,,0.649911004052645,10.8544000000001,102,275.048529411765,538.43431372549,454.151960784314,313.63137254902,236.46568627451,547.003921568628,529.864705882353,341.333333333333,566.970588235294,0
624.5376,1.15381461732376,-1.3761157843693,,0.20831793901163,0.132297135424642,,,,1.40002579179666,-0.519608855860633,-0.636015748554291,,,,,,,,,-0.549415711581028,,,,,1.19210225365234,0.808208139104985,,,-2.18461978089629,1.12885525808951,1.22344368098393,-1.46553008591518,,-0.163185984114231,1.82630740956186,0.574131725990312,2.08552271480667,-0.200780903665636,-0.200780903666573,,,-2.50357420213273,,2.56578214672046,,0.0414855680069533,,,,,0.636445033820103,10.9568,103,296.955825242718,535.225242718447,466.757281553398,337.611650485437,256.3,541.555339805825,528.895145631068,355.95145631068,577.563106796116,0
624.64,1.14478208759359,-1.35488215892214,,0.213678184047187,0.120734860171842,,,,1.37047920530673,-0.532118395521174,-0.626730232514114,,,,,,,,,-0.564220760001203,,,,,1.16490821869711,0.793845532529834,,,-2.17773603022224,1.1423003509959,1.2144608777292,-1.4485264254061,,-0.11238386582998,1.76416462936392,0.598119557928383,2.07562434546574,-0.210630343799328,-0.210630343800267,,,-2.47599837211746,,2.55365801126067,,0.0313220743465824,,,,,0.622419253918082,11.0592,102,221.496078431373,551.271078431373,491.769607843137,254.811764705882,188.180392156863,553.25,549.292156862745,380.480392156863,603.058823529412,0
624.7424,1.13525347355968,-1.33249681861423,,0.218833419912653,0.10844683754666,,,,1.34001116601019,-0.544547052173432,-0.6165521964635,,,,,,,,,-0.579200039525185,,,,,1.13662606461661,0.779266146216753,,,-2.17018521781984,1.15508510800111,1.2062172394492,-1.43221193129147,,-0.0613658399382256,1.70060276788305,0.621746986383622,2.06402668224577,-0.221235921115598,-0.22123592111654,,,-2.4468063570593,,2.54076674804075,,0.021560342919578,,,,,0.60783954093216,11.1616,103,32.6199029126214,584.522815533981,523.432038834952,50.1922330097087,15.047572815534,581.927184466019,587.118446601942,409.504854368932,637.359223300971,0
624.8448,1.12525580226264,-1.30900503265972,,0.223804217050244,0.0954396086055549,,,,1.30874001620709,-0.556858548398646,-0.605488395308899,,,,,,,,,-0.594354687423101,,,,,1.10735522770915,0.764490821003834,,,-2.16196864104287,1.16720285657708,1.19873990673072,-1.41661485127473,,-0.0102684312719838,1.63581163137596,0.644958675826543,2.05077379108067,-0.232539994619714,-0.232539994620659,,,-2.41598024691493,,2.52712502749499,,0.0122297293753707,,,,,0.592712901229161,11.264,102,55.1460784313726,584.218137254902,543.916666666667,72.5745098039216,37.7176470588235,580.452941176471,587.983333333333,427.441176470588,660.392156862745,0
624.9472,1.11481622185515,-1.28445513003271,,0.228610447353279,0.0817234035136968,,,,1.27678448267134,-0.569016053322823,-0.593548175840119,,,,,,,,,-0.609684912115884,,,,,1.07719612049245,0.749539767706403,,,-2.15308797992201,1.17864904366472,1.19205457671733,-1.40176149587564,,0.0407704547485873,1.5699867766227,0.667700264805853,2.03591358073434,-0.244485176063542,-0.24448517606449,,,-2.3835083847941,,2.51274905283922,,0.00335775181550296,,,,,0.577047540582295,11.3664,102,78.0014705882353,582.341176470588,554.56862745098,92.5872549019608,63.4156862745098,577.209803921569,587.472549019608,438.960784313726,670.176470588235,0
625.0496,1.10396191334498,-1.25889832253885,,0.233271219711211,0.0673121360312817,,,,1.24426314694337,-0.580982298144273,-0.580743460137488,,,,,,,,,-0.625190001938306,,,,,1.04624974341211,0.7344325375099,,,-2.14354530008761,1.18942121094051,1.18618540818951,-1.38767626496418,,0.0916121636044247,1.50332854227033,0.689918585584544,2.01949767690161,-0.257014560856166,-0.257014560857117,,,-2.34938568277041,,2.49765460127643,,-0.00503008444845931,,,,,0.560852949280039,11.4688000000001,103,102.877184466019,581.896116504854,566.038834951456,117.567961165049,88.1864077669903,574.150485436893,589.641747572816,450.543689320388,681.533980582524,0
625.152,1.09272000078082,-1.23238850797515,,0.237804817238613,0.0522233740463613,,,,1.21129389641836,-0.592719727039639,-0.567088722253874,,,,,,,,,-0.640868348000753,,,,,1.01461730308444,0.719187986508888,,,-2.13334305777072,1.19951895860427,1.18115490481709,-1.37438166297596,,0.142117940717448,1.43604099158058,0.711561865192072,2.00158130239136,-0.270071948043682,-0.270071948044634,,,-2.31361389751853,,2.48185706223007,,-0.012910460197442,,,,,0.544140000181101,11.5712000000001,102,203.88431372549,576.654901960784,584.328431372549,219.898039215686,187.870588235294,565.887254901961,587.422549019608,466.450980392157,702.205882352941,0
625.2544,1.08111745457062,-1.20498204982903,,0.242228643328474,0.0364782850946042,,,,1.17799336989001,-0.604190672284443,-0.552600947061976,,,,,,,,,-0.656717481900099,,,,,0.982399824016444,0.703824231448837,,,-2.12248410112229,1.20894390240743,1.17698377042236,-1.36189829642224,,0.192149588276272,1.36833077226549,0.732579900774662,1.98222314701157,-0.283602045816464,-0.283602045817416,,,-2.27620186157677,,2.46537146755579,,-0.0202624100963166,,,,,0.526921056694957,11.6736000000001,103,808.959223300971,583.429611650485,603.135922330097,839.871844660194,778.046601941748,577.101941747573,589.757281553398,486.504854368932,719.766990291262,0
625.3568,1.06918098537916,-1.17673753643094,,0.246559185654562,0.0201015612238996,,,,1.14447642452419,-0.615357544539026,-0.537299562822831,,,,,,,,,-0.672734126905151,,,,,0.949697749466468,0.688358588395115,,,-2.11097166244875,1.21769963304887,1.17369073421427,-1.35024485144399,,0.241570112483073,1.30040591776119,0.752924202289158,1.96148520886522,-0.297550651699785,-0.297550651700737,,,-2.23716566265531,,2.44821251278782,,-0.0270674779780344,,,,,0.509210086892807,11.7760000000001,102,846.375490196079,586.345098039216,606.68137254902,864.109803921569,828.641176470588,580.098039215686,592.592156862745,490.843137254902,722.519607843137,0
625.4592,1.05693692915794,-1.14771552575864,,0.250812006794169,0.00312133055042254,,,,1.1108556542566,-0.626183040233222,-0.521206343620711,,,,,,,,,-0.688914263363482,,,,,0.916610537250093,0.672807493548493,,,-2.09880932828888,1.22579167810001,1.1712923478797,-1.33943805296258,,0.290244346581066,1.23247462334173,0.772548101829415,1.93943259150564,-0.311864788821066,-0.311864788822016,,,-2.1965287600123,,2.43039457499761,,-0.0333098547565321,,,,,0.491022779959093,11.8784000000001,102,735.344117647059,608.72205882353,599.647058823529,760.927450980392,709.760784313726,606.383333333333,611.060784313725,478.56862745098,720.725490196079,0
625.5616,1.04441112503018,-1.11797827987266,,0.255001762305126,-0.0144309420217223,,,,1.07724097271046,-0.636630371531096,-0.504345280239785,,,,,,,,,-0.705253210234054,,,,,0.88323625656626,0.657186411721936,,,-2.08600097244313,1.23322745969348,1.1698027592361,-1.32949260909816,,0.338039548559252,1.16474401682971,0.791406836432908,1.9161332465583,-0.326492784742503,-0.326492784743455,,,-2.15432202347018,,2.41193173149121,,-0.0389764987415394,,,,,0.472376664198533,11.9808,103,49.0922330097087,754.543689320388,581.703883495146,66.9291262135922,31.2553398058252,754.920388349515,754.166990291262,448.941747572816,714.466019417476,0
625.664,1.03162879238093,-1.08758949500343,,0.25914223550753,-0.0325205692119337,,,,1.04373925134523,-0.646663516041276,-0.486742422306331,,,,,,,,,-0.721745719763678,,,,,0.849671191440565,0.641509729127439,,,-2.07255065164884,1.24001624418236,1.16923347007968,-1.32042114628342,,0.38482598047736,1.09741892071209,0.809457609767992,1.89165766312261,-0.341384297050823,-0.341384297051775,,,-2.11058368331586,,2.39283777401739,,-0.044057237345268,,,,,0.453291231141081,12.0832,102,67.8127450980392,757.554411764706,561.480392156863,86.2696078431373,49.3558823529412,758.047058823529,757.061764705883,429.813725490196,693.147058823529,0
625.7664,1.01861441938881,-1.05661403886931,,0.263246374516757,-0.0511097741560084,,,,1.01045399598851,-0.656247475518069,-0.468425703724016,,,,,,,,,-0.738386073495857,,,,,0.816009462921677,0.625790621650302,,,-2.05846248123327,1.24616908348246,1.16959308774453,-1.31223414050423,,0.430477472238006,1.03070059655791,0.826659631776863,1.86607852283683,-0.356490306667743,-0.356490306668693,,,-2.06535919323757,,2.3731262117368,,-0.0485448459494765,,,,,0.433788070447438,12.1856,103,86.3567961165049,756.24854368932,542.606796116505,104.118446601942,68.595145631068,755.443689320388,757.053398058253,420.320388349515,664.893203883495,0
625.8688,1.00539167191728,-1.02511770364722,,0.267326325278079,-0.0701578400101118,,,,0.97748505095939,-0.665348533771983,-0.449424770569915,,,,,,,,,-0.755168162819041,,,,,0.782342685885267,0.610040902894286,,,-2.04374051133188,1.25169874520347,1.17088707970434,-1.30493984717464,,0.474871965265849,0.964785487528427,0.842974138228288,1.83947035172376,-0.371763104544911,-0.371763104545858,,,-2.01870102589346,,2.35281026936608,,-0.0524351006690511,,,,,0.413891010885488,12.288,102,106.415196078431,750.529411764706,531.127450980392,118.339215686275,94.4911764705883,750.136274509804,750.922549019608,418.735294117647,643.519607843137,0
625.9712,0.991983322139968,-0.993166973204898,,0.271393464190356,-0.0896212738203805,,,,0.944928325604031,-0.673934509147853,-0.429770829886483,,,,,,,,,-0.772085541206641,,,,,0.748759668496144,0.594270873028284,,,-2.02838861638872,1.25661962424311,1.17311754057618,-1.29854423102078,,0.517892031101261,0.899864005446623,0.858364403979376,1.81190919600532,-0.387156288343945,-0.387156288344889,,,-1.97066842576916,,2.3319028974509,,-0.0557268034063392,,,,,0.393626250515985,12.3904,102,129.503921568627,747.39068627451,527.313725490196,139.76862745098,119.239215686275,743.889215686275,750.892156862745,417.392156862745,637.235294117647,0
626.0736,0.978411192629287,-0.960828799519112,,0.275458435534052,-0.109453982781579,,,,0.912875539554683,-0.681974999741661,-0.409496530607733,,,,,,,,,-0.789131444731939,,,,,0.715346149658223,0.57848919291514,,,-2.01241040377305,1.26094762933192,1.17628298203311,-1.29305090048065,,0.559425367578706,0.83611940744501,0.872795770536324,1.78347233147007,-0.402624770910803,-0.402624770911746,,,-1.92132713185341,,2.31041680725745,,-0.0584217761571623,,,,,0.373022456288694,12.4928000000001,103,150.894174757282,741.582524271845,522.145631067961,161.15145631068,140.636893203883,735.959223300971,747.205825242719,411.68932038835,632.601941747573,0
626.176,0.964696114495094,-0.928170386792785,,0.279531195463355,-0.129607460987346,,,,0.881413985347033,-0.689441619689864,-0.388635876455272,,,,,,,,,-0.806298783859769,,,,,0.682184562371903,0.562702799277684,,,-1.99580914399251,1.2647000450511,1.18037815507881,-1.288461052908,,0.599365280821827,0.77372677989027,0.886235702917129,1.75423799843344,-0.418124793229403,-0.418124793230343,,,-1.8707490676644,,2.28836453315066,,-0.0605248204041754,,,,,0.352110822063222,12.5952000000001,102,64.2166666666667,728.169607843137,517.53431372549,68.9049019607843,59.528431372549,719.960784313726,736.378431372549,405.539215686275,629.529411764706,0
626.2784,0.950857900805239,-0.895258985018033,,0.283621062853877,-0.150030986633675,,,,0.850626310723521,-0.696308224774892,-0.367224160324946,,,,,,,,,-0.823580109994162,,,,,0.649353811369745,0.546916867036975,,,-1.97858772138375,1.26789537486874,1.18539390994879,-1.28477343401532,,0.637611157897919,0.712852127780103,0.89865387975177,1.72428514731206,-0.433613934333956,-0.433613934334893,,,-1.81901199263816,,2.26575852258812,,-0.0620436364721268,,,,,0.330925086094834,12.6976000000001,103,-25.7432038834952,708.792718446602,511.466019417476,-32.4805825242719,-19.0058252427184,693.701941747573,723.883495145631,400,622.932038834951,0
626.3808,0.936915336265352,-0.862161693861732,,0.287736777761646,-0.17067183301242,,,,0.820590323491189,-0.702551126026443,-0.345297908890707,,,,,,,,,-0.84096755963008,,,,,0.616929057433505,0.531134822568719,,,-1.960748599894,1.27055316731378,1.19131709506217,-1.2819843118159,,0.674068930843826,0.65365156469052,0.910022315334501,1.69369318256062,-0.449051113415477,-0.449051113416409,,,-1.76619911429127,,2.2426112569656,,-0.0629886936816982,,,,,0.309501517252678,12.8000000000001,102,3.90490196078432,707.050490196078,504.720588235294,5.9764705882353,1.83333333333333,690.608823529412,723.492156862745,395.637254901961,613.803921568627,0
626.4832,0.922886181599738,-0.828945274090625,,0.291886567973341,-0.191475498036806,,,,0.791378816792805,-0.708149290425662,-0.322894834488476,,,,,,,,,-0.85845277924068,,,,,0.5849815037926,0.515358412581161,,,-1.94229379778993,1.27269382096208,1.19813049336925,-1.28008746451362,,0.708651534567664,0.596270601540749,0.920315515343505,1.66254169902627,-0.464396579764939,-0.464396579765866,,,-1.7123986657604,,2.21893540774025,,-0.0633730400890565,,,,,0.287878880459159,12.9024000000001,102,47.8421568627451,706.774509803922,496.661764705882,62.6460784313726,33.0382352941177,694.408823529412,719.140196078431,388.519607843137,604.803921568627,0
626.5856,0.908787188603965,-0.795675960568853,,0.296078222561785,-0.212385955731478,,,,0.763059406284656,-0.713084528117204,-0.300053797668697,,,,,,,,,-0.87602683380645,,,,,0.553578180976899,0.499587829192168,,,-1.92322487010058,1.27433836356192,1.20581279125209,-1.27907418137275,,0.741279361412251,0.540843536396634,0.929510669796497,1.6309102097861,-0.479611886552289,-0.479611886553215,,,-1.65770345516217,,2.19474402555115,,-0.0632120484541719,,,,,0.266098383877523,13.0048,103,284.5,766.721359223301,498.150485436893,296.988349514563,272.011650485437,763.514563106796,769.928155339806,387.78640776699,608.514563106796,0
626.688,0.894634122421428,-0.762419272035609,,0.30031916832107,-0.233345929568119,,,,0.735694370694508,-0.717341664959938,-0.276814781058236,,,,,,,,,-0.893680104159774,,,,,0.522781726508603,0.483821882110399,,,-1.9035429047971,1.27550820795247,1.21433857588271,-1.27893327516916,,0.771880705563413,0.487492947177845,0.937587877432228,1.59887786610691,-0.494659850437334,-0.494659850438257,,,-1.60221039236842,,2.17005074696398,,-0.0625231118551059,,,,,0.244203598596209,13.1072,102,342.275,786.445588235294,507.686274509804,373.993137254902,310.556862745098,796.561764705882,776.329411764706,396.245098039216,619.127450980392,0
626.7904,0.880441792100047,-0.729239820999607,,0.3046165427375,-0.254297181097502,,,,0.709340495369073,-0.720908696695352,-0.253218867833768,,,,,,,,,-0.911402184490264,,,,,0.492650157681572,0.468058200146556,,,-1.88324854278516,1.27622489607561,1.22367836316162,-1.27965110529081,,0.800392177071629,0.436329282336412,0.944530380083517,1.5665231705354,-0.509504508766066,-0.509504508766987,,,-1.54601999738067,,2.14486999490989,,-0.0613253177358705,,,,,0.222240337145331,13.2096,103,426.093203883495,731.588349514563,516.116504854369,460.198058252427,391.988349514563,746.645631067961,716.531067961165,403.902912621359,628.330097087379,0
626.8928,0.866224095635987,-0.6962011365403,,0.308977258302881,-0.275180801694911,,,,0.684048927009693,-0.723776919609884,-0.229308214128917,,,,,,,,,-0.929181794710584,,,,,0.46323664217509,0.452293443868995,,,-1.86234202884628,1.27650984477226,1.23379866267133,-1.28121161111367,,0.82675906303134,0.387450538047995,0.950324780855607,1.53392368744768,-0.524111089493121,-0.524111089494041,,,-1.48923589638196,,2.11921715436067,,-0.0596391307719782,,,,,0.200256485996,13.312,102,814.476960784314,427.200980392157,504.970588235294,835.135294117647,793.81862745098,431.951960784314,422.45,400.323529411765,609.617647058824,0
626.9952,0.851994085709274,-0.663365512335672,,0.313408054763359,-0.295937496721165,,,,0.659865048522523,-0.725941036652928,-0.205126007013839,,,,,,,,,-0.94700671811698,,,,,0.434589279514564,0.436523519164632,,,-1.84082329059645,1.27638410209307,1.24466208169775,-1.28359635552373,,0.850935623331465,0.340942008670438,0.954961228701256,1.50115576059223,-0.538446002017714,-0.538446002018633,,,-1.43196431799963,,2.0931087177666,,-0.0574861025563971,,,,,0.178301804341768,13.4144,102,768.60931372549,376.511764705882,505.117647058824,776.671568627451,760.547058823529,370.077450980392,382.946078431373,398.539215686275,611.696078431373,0
627.0976,0.837764056487697,-0.630793882001017,,0.317915536843151,-0.316507858971486,,,,0.636828376844427,-0.727399243954492,-0.180716405273284,,,,,,,,,-0.964863767310908,,,,,0.406750908766474,0.420743788636879,,,-1.81869203344398,1.27586811661917,1.25622746134102,-1.28678457860424,,0.872885315196804,0.296876098342506,0.958433558977976,1.46829424882841,-0.552476849389329,-0.552476849390244,,,-1.37431360750143,,2.06656240010273,,-0.0548886133319011,,,,,0.156427711792005,13.5168000000001,103,680.705825242719,298.305825242718,513.407766990291,670.54854368932,690.863106796117,255.268932038835,341.342718446602,401.26213592233,625.553398058253,0
627.2,0.823545646837819,-0.598545715660985,,0.322506197769914,-0.336832634891006,,,,0.614972481863048,-0.72815330332912,-0.15612446467827,,,,,,,,,-0.982738776981698,,,,,0.379758950746034,0.404949279097489,,,-1.79594784049389,1.27498151949226,1.26845003427092,-1.29075326134678,,0.892580938948312,0.255312186180967,0.960739379685271,1.43541228652906,-0.566172461586498,-0.566172461587408,,,-1.31639377301488,,2.03959722010783,,-0.0518696450595079,,,,,0.134687079370067,13.6192000000001,102,678.168137254902,298.736764705882,536.372549019608,668.478431372549,687.857843137255,253.694117647059,343.779411764706,418.647058823529,654.098039215686,0
627.3024,0.809349955309215,-0.56667893137313,,0.327186431666562,-0.356852988156566,,,,0.594324924548934,-0.728208602015039,-0.131396050338048,,,,,,,,,-1.00061662334912,,,,,0.353645282082261,0.389134884169563,,,-1.77259027297611,1.2737429168332,1.28128159929372,-1.29547719981309,,0.910004696316913,0.216296546706987,0.961880095699867,1.4025810649197,-0.579502949227223,-0.579502949228128,,,-1.25831606666435,,2.01223354399534,,-0.0484525801794574,,,,,0.113134021247975,13.7216000000001,103,675.085922330097,297.971359223301,561.956310679612,664.553398058253,685.618446601942,250.222330097087,345.720388349515,439.912621359223,684,0
627.4048,0.795187664115306,-0.535249817377215,,0.33196253589391,-0.376510761736971,,,,0.574907212624592,-0.727574197904094,-0.106577736028207,,,,,,,,,-1.01848127551431,,,,,0.328436132106837,0.373295565589591,,,-1.74861896827919,1.27216968600629,1.29467071644154,-1.3009290925862,,0.925148158180587,0.179862335375361,0.961860871950561,1.36986961919604,-0.59243977092342,-0.592439770924317,,,-1.20019259370011,,1.9844930917177,,-0.0446610137961014,,,,,0.0918236789546994,13.8240000000001,102,649.595098039216,274.909803921569,579.759803921569,639.063725490196,660.126470588235,223.019607843137,326.8,454.93137254902,704.588235294118,0
627.5072,0.781069169395358,-0.504312960873599,,0.336840699466752,-0.395748735443848,,,,0.556734772250004,-0.726262848406415,-0.0817166878978308,,,,,,,,,-1.03631588749211,,,,,0.304151994485533,0.357426560541548,,,-1.72403373004245,1.27027776852635,1.30856293149226,-1.30707964747708,,0.938012148084307,0.146029648557973,0.96069054539329,1.33734460105845,-0.604955802001469,-0.604955802002357,,,-1.14213594017273,,1.95639890670399,,-0.0405185658398447,,,,,0.0708119971114465,13.9264000000001,102,650.452941176471,268.074019607843,594.014705882353,638.558823529412,662.347058823529,223.432352941177,312.71568627451,467.78431372549,720.245098039216,0
627.6096,0.767004715169471,-0.47392117953883,,0.34182697261464,-0.414510874333685,,,,0.539816940948506,-0.724291017962497,-0.0568605318849385,,,,,,,,,-1.05410293475831,,,,,0.280807552358256,0.341523597581445,,,-1.69883460616425,1.26808145982248,1.3229010381195,-1.31389771345255,,0.948606555857204,0.114805659393836,0.958381500119959,1.30507002251633,-0.617025394479582,-0.61702539448046,,,-1.08425881275037,,1.9279752916388,,-0.0360486872466256,,,,,0.0501554956418153,14.0288,103,650.968446601942,266.900970873786,606.936893203884,639.405825242719,662.531067961165,224.076699029126,309.725242718447,478.766990291262,735.106796116505,0
627.712,0.753004530713743,-0.444125457636912,,0.346927218341724,-0.432742565697297,,,,0.52415699694941,-0.721678851329682,-0.0320572090512011,,,,,,,,,-1.0718243881182,,,,,0.258411625751624,0.325583111818416,,,-1.67302195512307,1.26559320262406,1.33762537722137,-1.32135043655121,,0.956950096780975,0.0861848275800597,0.954949519694941,1.27310697219178,-0.628624426057878,-0.628624426058745,,,-1.02667368720209,,1.89924772156688,,-0.0312744621785699,,,,,0.0299110424138165,14.1312,102,915.410294117647,313.137254901961,621.225490196079,913.440196078431,917.380392156863,290.622549019608,335.651960784314,494.754901960784,747.696078431373,0
627.8144,0.739078972116449,-0.414974893355092,,0.352147053972824,-0.450390848219023,,,,0.509752239425718,-0.718450096842228,-0.00735482455573902,,,,,,,,,-1.0894619105347,,,,,0.236967157843286,0.309602442641435,,,-1.64659650144953,1.26282338923482,1.352674159787,-1.32940342732033,,0.963070025404453,0.0601491865338684,0.950413626840223,1.24151332118569,-0.639730341978444,-0.6397303419793,,,-0.969492459965526,,1.87024275111869,,-0.0262184105793919,,,,,0.010135629566957,14.2336,103,1275.63495145631,359.683009708738,626.747572815534,1288.89514563107,1262.37475728155,350.521359223301,368.844660194175,499.970873786408,753.52427184466,0
627.9168,0.725238666013873,-0.386516661801759,,0.35749179233473,-0.46740464077886,,,,0.4965941209663,-0.714631972606655,0.0171985089804189,,,,,,,,,-1.10699706335626,,,,,0.216471257065482,0.293580000871239,,,-1.6195593777954,1.25978017553683,1.36798379141425,-1.338020921334,,0.967001804752751,0.0366687132082556,0.94479591330379,1.21034344186975,-0.650322192217357,-0.6503221922182,,,-0.912826090210609,,1.84098792298433,,-0.0209022953509958,,,,,-0.00911384007971264,14.336,102,1269.71176470588,361.948529411765,644.25,1286.84411764706,1252.57941176471,348.76862745098,375.128431372549,513.990196078431,774.509803921569,0
628.0192,0.711494651629606,-0.358795994419988,,0.362966387900922,-0.483734975257701,,,,0.484668423589951,-0.710254980111282,0.0415548383486858,,,,,,,,,-1.1244115108987,,,,,0.196915305382917,0.27751539896831,,,-1.59191215034505,1.25646931058484,1.38348917819832,-1.34716591796601,,0.968788726040568,0.0157017796593501,0.938121354846363,1.17964795708334,-0.660380662856579,-0.660380662857411,,,-0.856784216559626,,1.81151167069431,,-0.0153469384441153,,,,,-0.0277807480496973,14.4384,102,1267.49117647059,361.16862745098,656.53431372549,1286.19019607843,1248.79215686275,350.179411764706,372.157843137255,517.254901960784,795.813725490196,0
628.1216,0.697858519527734,-0.331856175555989,,0.368575387189871,-0.499335229599088,,,,0.473955472471328,-0.7053526742824,0.065666549820477,,,,,,,,,-1.14168721230509,,,,,0.178285133997629,0.261409540256706,,,-1.56365682786348,1.25289398420306,1.3991240039372,-1.35680029220804,,0.968481473039541,-0.00280432027380406,0.930417603061666,1.14947352730651,-0.669888105316813,-0.669888105317635,,,-0.801474741365769,,1.78184320861571,,-0.00957204847296876,,,,,-0.0458089332116956,14.5408,103,1269.03932038835,365.481553398058,663.339805825243,1284.83689320388,1253.24174757282,360.141747572816,370.821359223301,517.95145631068,808.728155339806,0
628.224,0.684342548036645,-0.305738558086656,,0.374322879400519,-0.514161350358311,,,,0.46443038802148,-0.699961399859614,0.0894865584687255,,,,,,,,,-1.15880658944479,,,,,0.160561261659093,0.245264664900536,,,-1.5347958606309,1.2490546919268,1.41482098237773,-1.36688488261384,,0.966137630542029,-0.0189127805258184,0.921714748950841,1.1198626796301,-0.678828577856287,-0.678828577857099,,,-0.747003390352506,,1.7520124141007,,-0.00359606004709985,,,,,-0.0631428499292549,14.6432000000001,102,852.469117647059,314.269117647059,684.490196078431,849.351960784314,855.586274509804,284.949019607843,343.589215686275,531.186274509804,837.794117647059,0
628.3264,0.67095983786828,-0.280482600545105,,0.380212443939946,-0.528172052748574,,,,0.456063377787283,-0.694120005588452,0.112968498642417,,,,,,,,,-1.17575266069249,,,,,0.143719191643212,0.22908435457882,,,-1.50533214196753,1.24494911940776,1.43051209666836,-1.37737956055309,,0.961821142720178,-0.0326966432171423,0.912045057976437,1.09085368619726,-0.68718791705135,-0.687187917052153,,,-0.69347326511504,,1.72204971722789,,0.00256401740047353,,,,,-0.0797277257473368,14.7456000000001,103,637.32572815534,273.440776699029,670.815533980583,618.767961165049,655.883495145631,217.810679611651,329.070873786408,508.019417475728,833.611650485437,0
628.4288,0.657724443678097,-0.256125927790955,,0.38624709466604,-0.541328990693168,,,,0.448820068566665,-0.687869546355327,0.136066910677732,,,,,,,,,-1.19250913411302,,,,,0.127729766813813,0.212873499903904,,,-1.47526902493423,1.24057205277588,1.44612883688547,-1.38824328451565,,0.955601726073668,-0.0442381200997693,0.90144267703598,1.06248050296965,-0.694953848756342,-0.694953848757135,,,-0.640984408557212,,1.69198601619849,,0.0088927446776127,,,,,-0.095509735131506,14.8480000000001,102,631.614705882353,273.363725490196,650.936274509804,618.182352941177,645.047058823529,217.838235294118,328.889215686275,487.196078431373,814.676470588235,0
628.5312,0.644651500240663,-0.232704414562107,,0.392429224963325,-0.553596894976524,,,,0.442661878886367,-0.681252975786617,0.158737425986071,,,,,,,,,-1.20906046184384,,,,,0.112559577802493,0.196638233474297,,,-1.4446103570532,1.23591531732321,1.46160243942021,-1.39943414188774,,0.947554236813598,-0.0536278806662155,0.889943310954737,1.03477277365786,-0.702116137302644,-0.702116137303429,,,-0.589633400353647,,1.66185263045597,,0.0153763909236233,,,,,-0.110436208503095,14.9504000000001,102,629.145588235294,276.741666666667,640.857843137255,619.498039215686,638.793137254902,221.078431372549,332.404901960784,486.764705882353,794.950980392157,0
628.6336,0.631757340872233,-0.21025228775011,,0.398760560690372,-0.564943680464394,,,,0.43754642754599,-0.674314824321038,0.180936955671599,,,,,,,,,-1.22539186529299,,,,,0.0981714078950231,0.180385833482909,,,-1.41336052655901,1.23096773689959,1.47686412566023,-1.4109093793065,,0.937757996451219,-0.0609643181705426,0.877583867619627,1.00775589037942,-0.708666765988728,-0.708666765989504,,,-0.539512990577404,,1.6316812904717,,0.0220030568949309,,,,,-0.12445589482449,15.0528,103,629.018932038835,277.754854368932,646.907766990291,618.781553398058,639.256310679612,225.097087378641,330.412621359223,499.436893203884,794.378640776699,0
628.736,0.619059606659935,-0.188802242162557,,0.405242125832328,-0.575340522826329,,,,0.433427963842701,-0.667100859774445,0.202623882437945,,,,,,,,,-1.24148934122435,,,,,0.0845246916048822,0.16412461150628,,,-1.38152451318754,1.22571510264718,1.49184533578828,-1.4226254233142,,0.926296094511363,-0.066352811405022,0.864402082809443,0.981451093019872,-0.714600136405365,-0.714600136406131,,,-0.490711767776791,,1.6015041506683,,0.028762773752655,,,,,-0.137519281385931,15.1552,102,628.045588235294,283.544117647059,662.671568627451,620.478431372549,635.612745098039,230.895098039216,336.193137254902,515.441176470588,809.901960784314,0
628.8384,0.606577343932589,-0.168385562500753,,0.411874220216125,-0.584761904157824,,,,0.430257800430457,-0.659657738649906,0.223758246175844,,,,,,,,,-1.2573396559603,,,,,0.0715759674833956,0.147863803614122,,,-1.34910794335228,1.22014015094141,1.5064779551433,-1.43453789645012,,0.913254699742271,-0.0699049928201182,0.850436150658056,0.955875589535222,-0.71991326259512,-0.71991326259588,,,-0.443313846136115,,1.57135380777582,,0.0356475729704008,,,,,-0.149578951528954,15.2576,103,627.908252427185,283.054854368932,680.053398058253,617.21359223301,638.602912621359,230.927184466019,335.182524271845,531.21359223301,828.893203883495,0
628.9408,0.59433108015059,-0.149032236917389,,0.418656409313774,-0.593185631063574,,,,0.427984741460704,-0.652032666804185,0.244301911747861,,,,,,,,,-1.27293033660002,,,,,0.0592793147528917,0.131613474812361,,,-1.31611715789748,1.21422257045278,1.52069453126492,-1.44660163432227,,0.898722405958084,-0.0717380114016604,0.835724389528088,0.931042685914886,-0.724605927838631,-0.724605927839381,,,-0.397398549123632,,1.54126330779984,,0.0426515318302712,,,,,-0.160589949119981,15.36,102,627.166666666667,284.339215686274,699.073529411765,616.352941176471,637.980392156863,235.469607843137,333.208823529412,547.823529411765,850.323529411765,0
629.0432,0.582342861289542,-0.130771043486868,,0.425587535559061,-0.600592835668262,,,,0.426555513794793,-0.644273088668117,0.26421871631598,,,,,,,,,-1.28824967012403,,,,,0.0475867735298877,0.115384432785636,,,-1.28255930140112,1.20793906445509,1.53442847860794,-1.45877070523941,,0.882789621529307,-0.071973760730488,0.820304963805509,0.906961923422872,-0.72868077836059,-0.728680778361334,,,-0.353040075166522,,1.51126612539026,,0.0497708032288903,,,,,-0.170510127009652,15.4624,102,627.12205882353,289.433823529412,717.735294117647,616.620588235294,637.623529411765,240.178431372549,338.689215686275,565.754901960784,869.71568627451,0
629.1456,0.570636237680708,-0.113629598716636,,0.432665764965639,-0.60696796966075,,,,0.42591520637225,-0.636426415437721,0.283474600669772,,,,,,,,,-1.30328671717196,,,,,0.0364487540064521,0.0991881458064246,,,-1.24844243239889,1.20126347838669,1.54761426921604,-1.47099843458051,,0.865548002319807,-0.0707380528061918,0.80421566919487,0.883639227424563,-0.732143342820537,-0.732143342821275,,,-0.310307151297861,,1.48139610455881,,0.0570036334328829,,,,,-0.179300473156914,15.5648,103,626.596601941748,286.977669902913,727.21359223301,615.020388349515,638.172815533981,240.712621359223,333.242718446602,573,881.427184466019,0
629.248,0.559236196460672,-0.0976343670388999,,0.439888672147905,-0.612298795342287,,,,0.426007709247856,-0.628539791695822,0.302037727592432,,,,,,,,,-1.31803134276677,,,,,0.0258144346786682,0.0830366658837538,,,-1.21377564451395,1.19416698587729,1.56018761501478,-1.48323744347417,,0.847089929806168,-0.0681597496579791,0.787493778371826,0.861077069211594,-0.735001980520666,-0.735001980521401,,,-0.269262690310579,,1.45168736006826,,0.0643503630163395,,,,,-0.186925416936457,15.6672000000001,102,627.108823529412,285.514215686275,725.848039215686,616.114705882353,638.102941176471,241.144117647059,329.88431372549,574.666666666667,877.029411764706,0
629.3504,0.548169046316325,-0.0828106333104461,,0.447253353020717,-0.616576375372569,,,,0.426776140985678,-0.620659893544901,0.319878589001729,,,,,,,,,-1.33247426536432,,,,,0.0156321416120378,0.0669425565216526,,,-1.17856918722423,1.18661832236761,1.5720856546163,-1.49543971408902,,0.827508036502187,-0.0643698838388492,0.77017593658653,0.839274634373613,-0.737267775272981,-0.737267775273713,,,-0.229963459384969,,1.42217414193395,,0.0718134033313881,,,,,-0.193353117501192,15.7696000000001,103,629.02572815534,285.150485436893,716.553398058252,618.923300970874,639.128155339806,244.768932038835,325.532038834951,570.834951456311,862.271844660194,0
629.4528,0.537462264916455,-0.0691824452807131,,0.454756552546397,-0.619795063321425,,,,0.428163261758951,-0.612832751644902,0.336970106747471,,,,,,,,,-1.34660712273473,,,,,0.00584970309395286,0.0509188191149148,,,-1.14283457740268,1.17858405230362,1.58324715547791,-1.50755668630533,,0.80689477754397,-0.0595007925222299,0.752298096221728,0.818227989897787,-0.73895440018303,-0.738954400183763,,,-0.192459759053396,,1.3928906578591,,0.079397188510283,,,,,-0.198555730519706,15.8720000000001,102,628.751960784314,285.032352941176,707.539215686275,618.144117647059,639.359803921569,246.266666666667,323.798039215686,567.382352941177,847.696078431373,0
629.5552,0.527144324803414,-0.0567725428581121,,0.462394801836293,-0.621952494326648,,,,0.430111876480077,-0.605103594071339,0.353287735048029,,,,,,,,,-1.36042254823791,,,,,-0.00358521759406524,0.0349788109585405,,,-1.10658469372161,1.17002885091363,1.59361273418857,-1.51953938199225,,0.785342046348271,-0.0536852761420243,0.733895483917909,0.79793024508578,-0.74007797600125,-0.740077976001985,,,-0.156795109175072,,1.36387084475998,,0.087108114583855,,,,,-0.202509644674112,15.9744000000001,102,628.757352941177,287.182843137255,706.583333333333,617.475490196078,640.039215686275,246.698039215686,327.667647058824,567.450980392157,845.71568627451,0
629.6576,0.517244512132969,-0.0456022919406106,,0.470164564760067,-0.623049570130562,,,,0.432565232568835,-0.597516700853065,0.368809574583436,,,,,,,,,-1.37391425093383,,,,,-0.0127248071738332,0.0191361468713351,,,-1.06983384545227,1.16091578573757,1.60312509332934,-1.53133855187106,,0.762940831816706,-0.0470557865480346,0.715002595844273,0.77837170152819,-0.740656939056022,-0.740656939056757,,,-0.12300594355605,,1.33514809064692,,0.0949544758334803,,,,,-0.20519568350446,16.0768000000001,103,628.632524271845,287.309223300971,716.859223300971,615.476699029126,641.788349514563,247.009708737864,327.608737864078,575.932038834951,857.78640776699,0
629.76,0.507792741668529,-0.0356916285150747,,0.478062397732935,-0.623090428460932,,,,0.43546741186409,-0.590115260043553,0.383516508769387,,,,,,,,,-1.38707709665714,,,,,-0.0216208081982966,0.00340457745197226,,,-1.03259780625202,1.15120659329534,1.61172927408828,-1.54290484358352,,0.739780914173529,-0.0397436485349376,0.695653216769793,0.759539986937458,-0.740711928092399,-0.740711928093135,,,-0.0911213241063384,,1.30675492016314,,0.10294639305532,,,,,-0.206599281773964,16.1792,102,628.075980392157,287.072058823529,729.308823529412,613.755882352941,642.396078431373,245.408823529412,328.735294117647,585.21568627451,873.401960784314,0
629.8624,0.498819363306222,-0.0270590082926341,,0.486085127097346,-0.622082386685118,,,,0.438763708997716,-0.58294122028247,0.397392367228952,,,,,,,,,-1.39990718864419,,,,,-0.0303242547426826,-0.0122021523072189,,,-0.994893805722665,1.14086195077684,1.6193729232952,-1.55418899069628,,0.715950601680537,-0.0318783158881399,0.67588046463472,0.741420169833913,-0.740265689529834,-0.740265689530571,,,-0.0611626872334818,,1.27872265616663,,0.111095718995973,,,,,-0.206710654011722,16.2816,103,626.089805825243,285.556310679612,741.320388349515,610.204854368932,641.974757281553,243.182524271845,327.930097087379,595.339805825243,887.300970873787,0
629.9648,0.490354959687531,-0.0197213573458995,,0.494230041530111,-0.620035857062396,,,,0.44240098668513,-0.576035140219596,0.410424108877225,,,,,,,,,-1.41240194589246,,,,,-0.0388852427615055,-0.0276704483551258,,,-0.956740480371339,1.12984174209986,1.626006568421,-1.56514201768412,,0.691536515195395,-0.0235866610780612,0.655716867670666,0.723994855637753,-0.739342990971341,-0.739342990972082,,,-0.0331436254099915,,1.25108106414767,,0.11941591189758,,,,,-0.205524964457295,16.384,102,625.264215686275,284.108333333333,750.343137254902,607.557843137255,642.970588235294,240.124509803922,328.092156862745,605.225490196079,895.460784313726,0
630.0672,0.482430145468233,-0.0136940266344015,,0.502495085666375,-0.616964239376926,,,,0.446328004494278,-0.56943603697375,0.422602005283805,,,,,,,,,-1.42456017495023,,,,,-0.0473527266067745,-0.0429870029459714,,,-0.918157795350504,1.11810531817901,1.63158388915967,-1.57571545024248,,0.666623419340413,-0.0149923004985604,0.635194472124516,0.707244270038322,-0.737970530526484,-0.737970530527231,,,-0.0070697008089305,,1.22385799391184,,0.127921875517368,,,,,-0.203042489912511,16.4864,102,624.505392156863,282.420098039216,755.352941176471,603.901960784314,645.108823529412,238.680392156863,326.159803921569,611.196078431373,899.509803921569,0
630.1696,0.475075383135623,-0.0089907590701359,,0.510879036933383,-0.612883798510582,,,,0.450495724520353,-0.56318123982947,0.433919804685942,,,,,,,,,-1.43638212523781,,,,,-0.0557743215449154,-0.0581389175203228,,,-0.879166950041508,1.10561175271881,1.63606197479133,-1.58586151914987,,0.641294085144463,-0.00621495832168893,0.614344964796407,0.691146342971729,-0.736176833990896,-0.73617683399165,,,0.0170617067955655,,1.19707904819364,,0.136629762369864,,,,,-0.199268758750521,16.5888,103,623.659223300971,281.309708737864,759.063106796117,600.128155339806,647.190291262136,235.815533980583,326.803883495146,616.78640776699,901.339805825243,0
630.272,0.468320821507907,-0.00562367267151027,,0.519381653928487,-0.607813533284999,,,,0.454857597438255,-0.557306259360646,0.44437486843096,,,,,,,,,-1.447869518714,,,,,-0.0641960929741612,-0.0731138159926173,,,-0.839790276831012,1.09232009647317,1.63940156062968,-1.59553334872833,,0.61562916731079,0.00263013360221898,0.593199795216303,0.675676809590652,-0.73399213728906,-0.733992137289819,,,0.0392615108713787,,1.17076730761709,,0.145556734704485,,,,,-0.194214657043997,16.6912000000001,102,625.068137254902,282.653431372549,762.362745098039,599.457843137255,650.678431372549,236.863725490196,328.443137254902,619,905.725490196079,0
630.3744,0.462196151497729,-0.00360325345791698,,0.52800379513665,-0.601775041853708,,,,0.459369826322914,-0.551844679997755,0.453968284245337,,,,,,,,,-1.4590255556223,,,,,-0.0726623247926862,-0.0878999484117537,,,-0.800051140797762,1.07818963574999,1.64156724139087,-1.60468512522303,,0.589707088722345,0.0114328030201335,0.57179029164207,0.660809339481996,-0.731448257654946,-0.731448257655713,,,0.0595489811491212,,1.14494312415811,,0.15472068429525,,,,,-0.187896504296588,16.7936000000001,103,623.61213592233,278.78640776699,770.072815533981,597.252427184466,649.971844660194,239.718446601942,317.854368932039,625.95145631068,914.194174757282,0
630.4768,0.456730471978137,-0.00293835186444823,,0.536747512457516,-0.594792385296363,,,,0.46399160243945,-0.546828078568694,0.462704964011376,,,,,,,,,-1.46985490291685,,,,,-0.0812152704017465,-0.102486282754281,,,-0.759973848518639,1.06318016323134,1.64252766466878,-1.61327224599714,,0.563603931760685,0.0200884632239359,0.550147767067131,0.646515699142568,-0.728578464807831,-0.728578464808602,,,0.0779517515849544,,1.11962398184233,,0.16413992178463,,,,,-0.180336104839576,16.8960000000001,102,621.732352941177,279.104901960784,781.46568627451,595.832352941177,647.632352941177,242.424509803922,315.785294117647,638.362745098039,924.56862745098,0
630.5792,0.451952163024102,-0.00363618346151584,,0.545616121833656,-0.586891947236112,,,,0.468685311608488,-0.542285965335345,0.470593725179862,,,,,,,,,-1.48036366325922,,,,,-0.0898948962601123,-0.116862583853132,,,-0.719583573294495,1.04725226669536,1.64225571191846,-1.62125145684228,,0.537393337162392,0.0284985803683116,0.528303609007918,0.632765949162485,-0.725417366769379,-0.725417366770156,,,0.0945057658180409,,1.09482441832526,,0.173832851539745,,,,,-0.171560777699171,16.9984000000001,102,619.916176470588,280.677450980392,797.303921568627,594.390196078431,645.442156862745,237.832352941177,323.522549019608,653.029411764706,941.578431372549,0
630.6816,0.447888765438631,-0.0057023354971772,,0.554614249577939,-0.578102287126222,,,,0.473416713456106,-0.538245739094688,0.477647345254532,,,,,,,,,-1.49055931841103,,,,,-0.0987386328656046,-0.131019479724156,,,-0.678906300347058,1.03036763367502,1.64072867312715,-1.62858098761027,,0.511146411500801,0.0365710702801735,0.506289349362257,0.619528671698326,-0.722000818458613,-0.722000818459396,,,0.109255157305848,,1.07055599386516,,0.183817648351794,,,,,-0.161603363751602,17.1008000000001,103,620.147087378641,282.135436893204,819.45145631068,593.556310679612,646.73786407767,236.414563106796,327.856310679612,670.26213592233,968.640776699029,0
630.784,0.444566864636643,-0.00914077637995782,,0.563747853077565,-0.568453986168869,,,,0.478155093975804,-0.534732646636819,0.483882579516638,,,,,,,,,-1.50045064929828,,,,,-0.107781148448538,-0.144948514734609,,,-0.637968790992858,1.01248936326889,1.63792841554066,-1.63522069257323,,0.484931646214891,0.0442206229351731,0.484136716418689,0.60677121469968,-0.718365847181193,-0.718365847181982,,,0.12225206862439,,1.04682728880522,,0.194111950438837,,,,,-0.150502207786464,17.2032,102,617.144117647059,281.304411764706,841.789215686275,591.454901960784,642.833333333333,236.198039215686,326.410784313726,689,994.578431372549,0
630.8864,0.442011976999327,-0.013953865739073,,0.573024216224097,-0.557979485112239,,,,0.482873391023555,-0.531769737678159,0.489320137990135,,,,,,,,,-1.51004763768581,,,,,-0.117054153143889,-0.158642185204297,,,-0.596798561796845,0.993582274434191,1.63384154197593,-1.6411321961663,,0.458814854439076,0.0513689574519627,0.461877676173129,0.594459934055936,-0.71455057710872,-0.714550577109515,,,0.133556421108944,,1.02364391453778,,0.204732581730804,,,,,-0.138301112486878,17.3056,103,672.702427184466,344.228155339806,869.407766990291,657.439805825243,687.965048543689,321.530097087379,366.926213592233,716.203883495146,1022.61165048544,0
630.9888,0.44024843741436,-0.0201423679389504,,0.582451920825705,-0.546712913265104,,,,0.487548293413114,-0.529377808313802,0.493984618850789,,,,,,,,,-1.51936134464289,,,,,-0.126586232588118,-0.172093948331483,,,-0.555423872718452,0.973613202845339,1.62845953262746,-1.64627904260283,,0.432859135153321,0.0579450125930518,0.439544474106241,0.582560419464546,-0.710594135510319,-0.710594135511118,,,0.143235649394494,,1.00100853044638,,0.215695311954635,,,,,-0.125049257580577,17.408,102,765.508823529412,464.408333333333,877.700980392157,778.635294117647,752.382352941176,477.34705882353,451.469607843137,728.372549019608,1027.02941176471,0
631.0912,0.439299286311826,-0.027705472245295,,0.592040795026197,-0.534689908645617,,,,0.492160311922995,-0.527575328813232,0.497904395243374,,,,,,,,,-1.52840375547805,,,,,-0.136402708261061,-0.18529819521205,,,-0.513873719393864,0.952551285656485,1.62177886387372,-1.65062684732121,,0.407124873653758,0.0638850820437523,0.417169689789925,0.571037701073988,-0.706536534860552,-0.706536534861357,,,0.151364413700222,,0.978920864541366,,0.227014652074528,,,,,-0.110801077211076,17.5104,102,663.002941176471,425.360294117647,781.269607843137,654.947058823529,671.058823529412,420.83431372549,429.886274509804,632.470588235294,930.06862745098,0
631.1936,0.439186153432537,-0.0366408163619216,,0.601801838075497,-0.52194742972141,,,,0.496693817408893,-0.526378353857103,0.501111456934754,,,,,,,,,-1.53718758828494,,,,,-0.146525526014848,-0.198250183523519,,,-0.47217783037437,0.930368241174396,1.61380109647501,-1.65414344512853,,0.381669782500382,0.0691329062031139,0.394786313018165,0.559856442113468,-0.702418533343477,-0.702418533344288,,,0.158024296595783,,0.957377738443309,,0.238703672220799,,,,,-0.0956160980390963,17.6128,103,633.006310679612,386.651941747573,702.315533980583,621.936893203884,644.07572815534,364.665048543689,408.638834951456,562.155339805825,842.47572815534,0
631.296,0.439929136063676,-0.0469445061015052,,0.611747119859487,-0.5085235596186,,,,0.501137041722821,-0.525800416860824,0.503641212979382,,,,,,,,,-1.54572607360411,,,,,-0.156973175624082,-0.210945929518797,,,-0.430366673991295,0.907038651240196,1.60453292525,-1.65679902656779,,0.356548980700174,0.0736397277169139,0.372427842200364,0.548981124074176,-0.698281476150617,-0.698281476151431,,,0.16330348203798,,0.936373098704819,,0.250773827868428,,,,,-0.0795587476623012,17.7152000000001,102,636.374509803922,385.476960784314,665.43137254902,630.348039215686,642.400980392157,369.953921568627,401,528.107843137255,802.754901960784,0
631.3984,0.441546672055209,-0.0586111273785167,,0.621889655397923,-0.494457303346031,,,,0.505482039378745,-0.525852413716529,0.505532259509854,,,,,,,,,-1.55403271555309,,,,,-0.167760639625316,-0.223382060358206,,,-0.388471477733573,0.882540249269589,1.59398618705673,-1.65856625663116,,0.331815103770441,0.0773643093374609,0.350128397375971,0.538376230095769,-0.69416711798924,-0.694167117990059,,,0.167296406767559,,0.915898058488922,,0.263234786712359,,,,,-0.0626981370849232,17.8176000000001,103,639.216019417476,386.688349514563,652.936893203884,637.946601941748,640.485436893204,375.647572815534,397.729126213592,514.699029126214,791.174757281554,0
631.5008,0.444055409978743,-0.0716337511571098,,0.632243256134612,-0.479788377406761,,,,0.509724610090746,-0.526542481814667,0.506826113357859,,,,,,,,,-1.56212104170156,,,,,-0.178899364824747,-0.235555629892334,,,-0.346524258630338,0.85685421153363,1.58217783076317,-1.65942037601108,,0.307518437212038,0.0802729070515949,0.32792283783939,0.528006432130613,-0.690117428816418,-0.690117428817242,,,0.170103373530359,,0.895940957000626,,0.276094256457682,,,,,-0.0451078120302817,17.9200000000001,102,639.541666666667,387.813235294118,656.308823529412,640.661764705882,638.421568627451,379.138235294118,396.488235294118,516.892156862745,795.725490196079,0
631.6032,0.447470078199137,-0.0860039314105643,,0.642822358224798,-0.464556991501481,,,,0.513864185559316,-0.52787588056638,0.50756691580423,,,,,,,,,-1.570004345554,,,,,-0.190397249414029,-0.247463904349701,,,-0.304557857809376,0.829965443666882,1.56912985335968,-1.65933928679853,,0.283707070105212,0.0823391929677832,0.305846879007907,0.517836787996129,-0.686174388557661,-0.686174388558493,,,0.171830120653015,,0.876487444611313,,0.28935781883665,,,,,-0.0268654658090012,18.0224000000001,102,601.329411764706,351.587745098039,667.137254901961,584.880392156863,617.778431372549,326.879411764706,376.296078431373,525.5,808.774509803922,0
631.7056,0.451803352169506,-0.101711692644006,,0.653641825238522,-0.448803624231979,,,,0.517903686696705,-0.529854880491176,0.507801114596421,,,,,,,,,-1.57769542203937,,,,,-0.202258641419778,-0.25910412543466,,,-0.262605968434525,0.801862851682694,1.5548692014859,-1.65830362321922,,0.260427067635162,0.0835441275332835,0.283937207213472,0.507832956276127,-0.682379778815998,-0.682379778816838,,,0.172587345404489,,0.857520597010139,,0.303028777091658,,,,,-0.00805260687404722,18.1248000000001,103,574.747087378641,324.665048543689,666.95145631068,554.711650485437,594.782524271845,290.918446601942,358.411650485437,524.78640776699,809.116504854369,0
631.808,0.457065717235835,-0.118745502928903,,0.66471672241173,-0.43256879549715,,,,0.521849356672454,-0.532478663437262,0.507577128434839,,,,,,,,,-1.58520629220996,,,,,-0.214484347558165,-0.270473257015743,,,-0.220703148259949,0.772539592014792,1.53942763527347,-1.65629680864736,,0.237722658741393,0.0838757806940432,0.262231588602579,0.497961438610926,-0.678774978912633,-0.67877497891348,,,0.172490178337866,,0.839021055592722,,0.317108021404844,,,,,0.0112458241754854,18.2272,102,635.528431372549,340.844117647059,670.377450980392,620.286274509804,650.770588235294,316.363725490196,365.324509803922,528.56862745098,812.186274509804,0
631.9104,0.46326532459449,-0.137092233730372,,0.676062062727818,-0.415892835670939,,,,0.525710571702862,-0.53574322824905,0.50694499236665,,,,,,,,,-1.59254791181285,,,,,-0.227071653685862,-0.2815677209174,,,-0.178884814984136,0.741993302762568,1.52284155349245,-1.65330510116736,,0.215636430001443,0.0833290956550957,0.240768961054974,0.488189856064746,-0.675400771128166,-0.675400771129021,,,0.171657607033647,,0.820967188765644,,0.331593913217673,,,,,0.0309418858698588,18.3296,103,1236.43737864078,525.538834951456,679.378640776699,1240.76601941748,1232.10873786408,527.770873786408,523.306796116505,548.320388349515,810.436893203884,0
632.0128,0.470407840765256,-0.15673711492595,,0.687692528864977,-0.398815647362651,,,,0.529499629308956,-0.539641293444786,0.505955980702301,,,,,,,,,-1.59972986145064,,,,,-0.240014359293378,-0.292383126425656,,,-0.137187226920428,0.710226318762118,1.505151782778,-1.64931763013043,,0.19420951360692,0.0819055876712955,0.21958949441189,0.478487259188591,-0.672297157099474,-0.672297157100336,,,0.170211850247557,,0.803335269028319,,0.346482191527133,,,,,0.0509451064252682,18.432,102,1259.7,539.658823529412,702.098039215686,1261.59509803922,1257.80490196078,535.283333333333,544.03431372549,566.235294117647,837.960784313726,0
632.1152,0.478496294351944,-0.177663691970129,,0.699622176513145,-0.381376457760934,,,,0.533231514583351,-0.544162192391771,0.50466220014019,,,,,,,,,-1.60676002170768,,,,,-0.253302831440448,-0.302913998679572,,,-0.0956474537084344,0.677245869496181,1.48640333731739,-1.64432642771156,,0.173481758876947,0.0796129817930246,0.198734610432523,0.468824461390534,-0.669503184314847,-0.669503184315716,,,0.168277689811856,,0.786099657357919,,0.361765905704751,,,,,0.0711629879368247,18.5344,102,1261.89362745098,543.198039215686,715.21568627451,1261.74117647059,1262.04607843137,535.207843137255,551.188235294118,572.186274509804,858.245098039216,0
632.2176,0.487530928688562,-0.199853776327902,,0.711864129077336,-0.363613579315477,,,,0.536923645817123,-0.549291761488059,0.503116129903686,,,,,,,,,-1.61364424985562,,,,,-0.266924087940335,-0.3131535220166,,,-0.0543033551998513,0.643064259616916,1.46664515825317,-1.63832645992734,,0.153491876287603,0.0764648130363117,0.178246961272888,0.459174369952236,-0.667056778691023,-0.667056778691901,,,0.165981782637182,,0.769232978272797,,0.377435370445637,,,,,0.0915015480227759,18.6368,103,1265.10533980583,533.805825242719,679.179611650485,1262.46699029126,1267.74368932039,528.003883495146,539.607766990291,537.233009708738,821.126213592233,0
632.32,0.497509074930355,-0.223287365169471,,0.724430285555966,-0.345564220544025,,,,0.54059559852697,-0.555012229787175,0.501370074022797,,,,,,,,,-1.62038609646615,,,,,-0.280861918280178,-0.323093329749654,,,-0.0131936050862435,0.607699034637589,1.44592984317125,-1.63131565651143,,0.13427753639242,0.0724800230558014,0.158170363176398,0.449512276835119,-0.66499457778406,-0.664994577784946,,,0.163451986763717,,0.752706266432907,,0.393478129982738,,,,,0.111865906512681,18.7392000000001,102,1184.49068627451,491.092647058824,622.848039215686,1186.45392156863,1182.52745098039,490.491176470588,491.694117647059,482.352941176471,763.343137254902,0
632.4224,0.508425057702753,-0.247942515053476,,0.737331066203681,-0.327264379836328,,,,0.544268804095746,-0.561302133291013,0.499475529525383,,,,,,,,,-1.62698660762085,,,,,-0.295097039045569,-0.332723365467197,,,0.0276422194331502,0.571173132075857,1.42431337108062,-1.62329492969343,,0.115875409992895,0.0676825668507569,0.138549677671723,0.439816080095939,-0.663351761581311,-0.663351761582206,,,0.160816723007365,,0.7364890841987,,0.409878925191183,,,,,0.132160912397718,18.8416000000001,103,599.646116504854,292.585922330097,577.145631067961,582.049514563107,617.242718446602,246.24854368932,338.923300970874,430.485436893204,723.805825242719,0
632.5248,0.52027013053958,-0.273795176816719,,0.750575201823716,-0.308748816946147,,,,0.547966216955026,-0.568136290861646,0.497482554039001,,,,,,,,,-1.63344423938835,,,,,-0.309607271956757,-0.342031808256511,,,0.0681635146706615,0.533515008878834,1.40185481529487,-1.61426816229695,,0.0983211598187126,0.0621009998404905,0.119430638271599,0.43006642943413,-0.662161880404913,-0.662161880405817,,,0.158204365798518,,0.720549639737038,,0.426619664103152,,,,,0.152291786471076,18.9440000000001,102,581.018137254902,285.332352941176,536.970588235294,557.963725490196,604.072549019608,235.709803921569,334.954901960784,395.901960784314,678.039215686275,0
