time,S1-D1,S1-D8,S1-D9,S1-D15,S2-D1,S2-D2,S2-D3,S2-D9,S3-D1,S3-D2,S3-D16,S4-D2,S4-D3,S4-D5,S5-D3,S5-D4,S5-D5,S6-D2,S6-D5,S6-D17,S7-D6,S7-D7,S8-D6,S8-D7,S8-D18,S9-D3,S9-D4,S9-D9,S9-D11,S9-D19,S10-D8,S10-D9,S10-D10,S10-D11,S11-D8,S11-D10,S11-D20,S12-D10,S12-D11,S12-D12,S13-D4,S13-D11,S13-D12,S14-D10,S14-D12,S14-D21,S15-D13,S15-D14,S16-D13,S16-D14,S16-D22,t_rel_s,eye_n,xp,yp,ps,xpl_i,xpr_i,ypl_i,ypr_i,psl_i,psr_i,blink_prop
1338.368,-0.240215521043934,0.302463574356313,-0.113598546327255,-1.2495987646994,-0.369116615108528,-0.369116615108175,,-0.0850884509609667,-0.149266578887977,-0.505136535606558,1.09911931092241,-0.505136535605845,0.0482882310310652,-0.0210928754736472,,0.162117621007883,,0.167156872045962,0.0538696256194019,0.670744977090336,0.0538696256202666,0.0715208797751838,0.019759160998831,0.0976806776274409,-1.23658373378769,-0.0626115298974415,,,-0.558938895728356,-0.47332723780119,-0.155510388685224,0.0138721690519008,-0.121481894755918,0.603532322690647,-0.118953205180296,0.484737758725189,-1.99333467812038,0.525897932641429,0.525897932642041,-0.126655002355354,-0.139364079207283,,,-0.20619350874783,-1.30788232542451,-1.98713046980593,-0.444975838591994,-0.444975838591878,-0.29225686424922,0.292256864248958,-1.37430944508721,0,103,948.472815533981,517.107766990291,1018.94174757282,951.740776699029,945.204854368932,523.893203883495,510.322330097087,958.514563106796,1079.36893203884,0
1338.4704,-0.227615651297028,0.292299044608564,-0.105671364315931,-1.26064524688818,-0.365025007787725,-0.365025007787367,,-0.100053429039628,-0.159250633297666,-0.484755411650717,1.10672832034576,-0.484755411649983,0.0218101281896015,-0.0344561542508858,,0.1301909632971,,0.129691721788868,0.0523029325424992,0.668540947405649,0.0523029325433707,0.0633912102142468,0.011894180952333,0.0815874401201945,-1.25085655781151,-0.0838273952594927,,,-0.59032656411569,-0.489683674842859,-0.151563904088945,0.0269480173176689,-0.109331033475831,0.586354406930983,-0.148030622911052,0.455394494759913,-2.04049522907018,0.53583623988375,0.535836239884327,-0.120595518917106,-0.149348187731197,,,-0.166286973235259,-1.30332941675471,-1.99553888485474,-0.434444454338052,-0.434444454337956,-0.300022275902724,0.300022275902477,-1.36422253765941,0.102399999999989,102,951.351960784314,522.400490196078,1000.45098039216,954.767647058824,947.936274509804,518.096078431373,526.704901960784,943.088235294118,1057.8137254902,0
1338.5728,-0.214878194535601,0.281944419772736,-0.0976849378882889,-1.27203291871512,-0.360785198327303,-0.360785198326941,,-0.115022869808293,-0.169188852610716,-0.463702025153223,1.11437821864814,-0.463702025152469,-0.00442803520331606,-0.0477806880496704,,0.0982286166284249,,0.0923671466282603,0.0506719808749002,0.66594728347858,0.0506719808757803,0.0546604072934136,0.00470079961440164,0.0654171052478228,-1.26530097328776,-0.105172238077303,,,-0.621460404392565,-0.506266640261638,-0.148489003725277,0.0401478434169864,-0.0978298193083834,0.568684416435413,-0.177164741739674,0.425582411990625,-2.08644757707822,0.544534884289614,0.544534884290156,-0.114566803513245,-0.159557037463579,,,-0.126338214440553,-1.2973162253357,-2.00328626175927,-0.423473310494603,-0.423473310494528,-0.308138029129125,0.308138029128891,-1.35377973269104,0.204799999999977,103,931.442233009709,487.102912621359,940.04854368932,924.311650485437,938.572815533981,494.893203883495,479.312621359223,889.359223300971,990.73786407767,0
1338.6752,-0.202024716332327,0.27144143727272,-0.0896444289582147,-1.28370879631345,-0.356383980055626,-0.356383980055263,,-0.129947330067219,-0.1790548744575,-0.442027511853592,1.12203891905902,-0.442027511852814,-0.0303998265196901,-0.0610384585251848,,0.0662808640977223,,0.0552446604063559,0.0489811223816977,0.662982975193076,0.0489811223825884,0.0453517970849811,-0.00182317185432232,0.0491938641248833,-1.27986375302276,-0.126597747199964,,,-0.652296419806055,-0.523033545905511,-0.146272189951363,0.0534459182913444,-0.0869842700351632,0.550561226839011,-0.206298340844426,0.39536380642589,-2.13114538896472,0.552032261559063,0.552032261559564,-0.10858860497182,-0.169961521640608,,,-0.086442763339942,-1.28987990600511,-2.01035283784782,-0.412069647471577,-0.412069647471518,-0.316566887104701,0.316566887104478,-1.34299115539422,0.307199999999966,102,888.224241305859,413.375633908355,798.930238250091,884.322164811871,892.126317799847,417.564076576577,409.187191240132,758.368243243243,839.492233256939,0
1338.7776,-0.189075748853846,0.260831584519151,-0.0815541477057939,-1.29561888914539,-0.351808840045067,-0.351808840044704,,-0.144778249289834,-0.188822650915994,-0.419782472449996,1.12968078169418,-0.4197824724492,-0.0560796954871815,-0.0742020010994713,,0.0343955813455921,,0.0183829710132309,0.047235081502115,0.659668076918399,0.0472350815030142,0.0354896153747729,-0.00768084190006148,0.0329421104547038,-1.29449074631521,-0.148055576163342,,,-0.682790961923638,-0.539940925288319,-0.144898597784263,0.0668164291027144,-0.076799309504465,0.532023427674602,-0.235374797393562,0.36480043090519,-2.17454362196956,0.558371252585341,0.558371252585812,-0.102679647248027,-0.180531648313327,,,-0.0466927765562773,-1.2810621802105,-2.01671851016869,-0.400241069606705,-0.400241069606663,-0.325272235123226,0.325272235123018,-1.33186621666366,0.409599999999955,103,859.576847139347,371.39161986662,676.170191295191,861.486486486487,857.667207792208,371.586486486487,371.196753246753,645.486486486487,706.853896103896,0.718446601941748
1338.88,-0.176050773720048,0.250155817122107,-0.0734176343349309,-1.3077085159633,-0.347048130967545,-0.347048130967182,,-0.159468200968352,-0.198466584830452,-0.397016858130213,1.13727472105779,-0.397016858129399,-0.0814430821784534,-0.0872445419407063,,0.00261819874913626,,-0.0181621581118762,0.0454388786456489,0.656023543369735,0.0454388786465529,0.0250988874673568,-0.0128762335623036,0.0166863103134121,-1.30912728320184,-0.169497608341466,,,-0.712900957377125,-0.556944734341977,-0.144352081895753,0.0802336695690976,-0.0672787122960477,0.51310917661942,-0.264338405001254,0.333953211769162,-2.21659870861516,0.563598757918228,0.563598757918658,-0.0968574180354832,-0.191236878439356,,,-0.00717651917868691,-1.2709088748118,-2.0223629822875,-0.387995575221282,-0.387995575221254,-0.334218059453693,0.334218059453493,-1.32041356276751,0.512000000000171,102,831.031370656371,329.509495656371,556.223334942085,838.839527027027,823.223214285714,327.158277027027,331.860714285714,535.714527027027,576.732142857143,0.323529411764706
1338.9824,-0.162968222029182,0.239454298459959,-0.0652377490378118,-1.3199226186132,-0.342091224590998,-0.342091224590638,,-0.173971129520546,-0.207961670743121,-0.373779877183465,1.14479230745438,-0.37377987718263,-0.106466529422265,-0.100140125291893,,-0.0290083330274827,,-0.0543380324299595,0.0435977505508682,0.652071051034398,0.0435977505517814,0.0142053173408664,-0.0174142883285777,0.000450874533737957,-1.32371856597447,-0.19087620957809,,,-0.742584127858207,-0.57400063833316,-0.144615299742594,0.0936722394457964,-0.0584250389577537,0.493856055576193,-0.293134671239904,0.302881977206228,-2.25726872745174,0.567765222969815,0.567765222970202,-0.0911379928607808,-0.202046445394679,,,0.0320221146479127,-1.25946937677109,-2.02726591115995,-0.375341586342505,-0.375341586342492,-0.343368920828177,0.343368920827988,-1.30864102332996,0.61440000000016,102,811.710660044116,304.176519001335,454.571625794052,827.817640434552,795.60367965368,302.121194356121,306.23184364655,440.126954160042,469.016297428062,0
1339.0848,-0.149845493860581,0.228766172003466,-0.0570167683279724,-1.33220605358506,-0.336928637220961,-0.336928637220602,,-0.188242567384744,-0.217283639674067,-0.350119925161011,1.1522058596956,-0.350119925160156,-0.13112779720239,-0.112863726316542,,-0.060443578894818,,-0.0900951358431801,0.0417170746932847,0.647832815512126,0.0417170746942037,0.00283518445618394,-0.0213008756924977,-0.0157399653999738,-1.33821001556812,-0.212144451532356,,,-0.771799193088992,-0.591064254895791,-0.145669779719657,0.10710725666202,-0.0502395500938946,0.474300932499588,-0.321710582613789,0.2716452063387,-2.29651353996483,0.570924172581178,0.570924172581525,-0.0855359078132653,-0.212929637661164,,,0.0708240361992183,-1.24679603765477,-2.03140704565061,-0.362287977986692,-0.362287977986685,-0.352689928103984,0.352689928103793,-1.29655555637069,0.716800000000148,103,785.110194174757,357.88786407767,428.281553398058,802.816504854369,767.403883495146,358.295145631068,357.480582524272,412.553398058252,444.009708737864,0
1339.1872,-0.136698997218726,0.218129369489008,-0.0487564866405858,-1.34450384946102,-0.33155212550194,-0.331552125501583,,-0.202239830325508,-0.226409107393265,-0.326084545176865,1.15948852551109,-0.326084545175992,-0.155405974644508,-0.125391345061271,,-0.0916496553656756,,-0.125387220641095,0.0398023053856776,0.643331410689289,0.0398023053866028,-0.00898475352538367,-0.0245428050382559,-0.0318622769027986,-1.35254755507393,-0.233256296584079,,,-0.800506050115768,-0.608091336747837,-0.147495961220572,0.120514577663551,-0.0427220912742593,0.454479838860965,-0.350014826404962,0.240299812998915,-2.33429488350295,0.573131773489489,0.573131773489794,-0.0800640855465872,-0.223856030781578,,,0.10915534127452,-1.2329435753217,-2.03476635375243,-0.348844095220074,-0.34884409522008,-0.362146731291899,0.36214673129171,-1.28416318999425,0.819200000000137,102,726.951960784314,477.56862745098,429.720588235294,737.871568627451,716.032352941176,482.213725490196,472.923529411765,411.558823529412,447.882352941176,0
1339.2896,-0.123544202122927,0.207580445134766,-0.0404583226870795,-1.35676143853139,-0.325954762814691,-0.325954762814337,,-0.215922192372165,-0.235315721452859,-0.301720416005889,1.16661434753799,-0.301720416004997,-0.17928158435484,-0.137700082303409,,-0.12259126106002,,-0.160171374891481,0.0378589263939935,0.638589590983665,0.0378589263949219,-0.0212273543866406,-0.0271478368797208,-0.0478925411912852,-1.36667784515765,-0.254166752597248,,,-0.828665930607402,-0.625037910440215,-0.150073212947431,0.13387100899075,-0.0358709655604213,0.434427868910665,-0.377997972954462,0.208900968017387,-2.37057642908914,0.574446432039021,0.574446432039287,-0.0747338094821606,-0.234795662570295,,,0.146947622463914,-1.21796850906099,-2.03732414363938,-0.335019748703658,-0.335019748703677,-0.37170555063115,0.371705550630964,-1.27146896323494,0.921600000000126,103,728.673786407767,479.134466019417,447.830097087379,737.931067961165,719.416504854369,487.850485436893,470.418446601942,430.252427184466,465.407766990291,0
1339.392,-0.110395704113113,0.197154418769778,-0.0321234312791801,-1.36892488642803,-0.320131011368472,-0.320131011368119,,-0.229251042122846,-0.243982298667708,-0.277073355924276,1.17355831495187,-0.277073355923365,-0.202736675096924,-0.149768203596288,,-0.153235696609669,,-0.19440806912051,0.0358924191156876,0.633630117405082,0.0358924191166145,-0.033865183761203,-0.029124690872144,-0.0638077639324827,-1.3805485081538,-0.274832018058889,,,-0.856241545203453,-0.641860410765791,-0.153379855214874,0.147154488326832,-0.0296828300098961,0.414179097959964,-0.405612634891424,0.177501949621737,-2.4053238281879,0.574928419260733,0.57492841926096,-0.0695547375974282,-0.245719154253305,,,0.184138202066016,-1.20192863895683,-2.03906118876112,-0.320825190444088,-0.320825190444121,-0.381333244622214,0.381333244622022,-1.25847687374018,1.02400000000011,102,729.861764705882,498.660784313726,480.764705882353,739.370588235294,720.352941176471,513.756862745098,483.564705882353,461.088235294118,500.441176470588,0
1339.4944,-0.0972672956170175,0.186884618301981,-0.0237528225174319,-1.38094113616091,-0.314076796703299,-0.314076796702945,,-0.242190020988055,-0.252388947993802,-0.252188334791951,1.18029640221692,-0.252188334791022,-0.22575490075168,-0.161575197025963,,-0.183552871514006,,-0.228061184955523,0.0339082382284052,0.628475591139924,0.0339082382293329,-0.0468706113094013,-0.0304830425264578,-0.0795855800831974,-1.39410836392767,-0.29520963044004,,,-0.883197221958497,-0.658515837124102,-0.15739320336075,0.16034422558019,-0.024152636928937,0.393766513930215,-0.432813615388568,0.146154010998945,-2.43850476871266,0.574639509560249,0.57463950956043,-0.0645349455071951,-0.256597790633821,,,0.220670278926279,-1.18488256761397,-2.0399588653351,-0.306271073323391,-0.30627107332343,-0.390997410951499,0.390997410951305,-1.24518984322679,1.1264000000001,102,811.833823529412,508.096078431373,501.833333333333,825.198039215686,798.469607843137,516.633333333333,499.558823529412,479.362745098039,524.303921568627,0
1339.5968,-0.0841720477811255,0.176802527077214,-0.0153474887890869,-1.39275826024039,-0.307789578849078,-0.307789578848718,,-0.254705142912356,-0.260517180450107,-0.22710949880383,1.18680559651285,-0.227109498802886,-0.248321585441446,-0.173101824347302,,-0.21351529769756,,-0.26109802553359,0.031911781149758,0.623148299264132,0.0319117811506844,-0.0602159172119564,-0.0312334959690695,-0.0952043490163508,-1.40730766706169,-0.31525861183227,,,-0.909499037149086,-0.674961922263742,-0.162089622599487,0.173420813314534,-0.0192736054532889,0.373221961236297,-0.459558042313506,0.114906265682788,-2.47008904102802,0.573642626762041,0.573642626762183,-0.0596809855830375,-0.267403577840801,,,0.256492999677347,-1.1668892666827,-2.03999930254451,-0.291368390303296,-0.291368390303345,-0.400666512782205,0.400666512782001,-1.23160970468006,1.22880000000009,103,1019.55631067961,506.906796116505,501.708737864078,1033.80194174757,1005.31067961165,500.618446601942,513.195145631068,489.893203883495,513.52427184466,0
1339.6992,-0.0711224044707367,0.166937651345007,-0.00690853586854401,-1.40432569815026,-0.301268408449711,-0.301268408449346,,-0.266764893892194,-0.268350011336258,-0.20188021752912,1.19306391488804,-0.201880217528162,-0.27042377633622,-0.184330160596574,,-0.243098071759602,,-0.293489305845654,0.0299083433914076,0.617670074131959,0.0299083433923367,-0.0738734112774919,-0.0313875253473684,-0.110643235935441,-1.42009831298834,-0.334939594245665,,,-0.935114930543448,-0.691157278160986,-0.16744456700395,0.186366325498165,-0.0150371876623564,0.352576101565561,-0.485805474841635,0.0838056012940217,-2.50004859656296,0.572001506578627,0.572001506578733,-0.0549979504558636,-0.278109290051643,,,0.291561481151755,-1.14800769319805,-2.03916553653124,-0.276128386814514,-0.276128386814579,-0.410310022666928,0.41031002266672,-1.21773720288928,1.33120000000008,102,1000.91225490196,499.778431372549,508.995098039216,1013.97745098039,987.84705882353,483.235294117647,516.321568627451,497.372549019608,520.617647058824,0
1339.8016,-0.0581302861795301,0.15731742055429,0.00156268832485114,-1.41559445841922,-0.294513959653769,-0.294513959653396,,-0.27834030876911,-0.275872057703098,-0.176543157344704,1.19905041246695,-0.176543157343736,-0.292050284769683,-0.195243616900853,,-0.272278847160563,,-0.325209120320776,0.0279030698268217,0.61206216617625,0.0279030698277556,-0.0878155605783209,-0.030957387544444,-0.125882277364963,-1.43243398734624,-0.354214910322297,,,-0.960014798578825,-0.707061488592173,-0.173432580627008,0.199164419424658,-0.0114330006952819,0.331858397448161,-0.511517970115788,0.0528966328706733,-2.52835757830711,0.569780393791428,0.569780393791493,-0.0504895347853322,-0.288688506605005,,,0.325836805328654,-1.12829645269724,-2.03744165558606,-0.260562448991028,-0.260562448991108,-0.419898570490128,0.419898570489913,-1.20357199977321,1.43360000000007,103,753.533980582524,336.216019417476,515.820388349515,768.141747572816,738.926213592233,341.423300970874,331.008737864078,493.184466019418,538.456310679612,0
1339.904,-0.0452071983421619,0.147967118408712,0.0100644715951991,-1.42651728476368,-0.28752854314457,-0.287528543144185,,-0.289405023163801,-0.283069626874912,-0.151140372594603,1.20474518406689,-0.151140372593625,-0.313191712563641,-0.205826945260284,,-0.301037792299767,,-0.356234884313412,0.0259009212595952,0.60634513367267,0.0259009212605369,-0.102015117787063,-0.0299560167992538,-0.140902431356918,-1.44427026608108,-0.373048651476056,,,-0.984170566771998,-0.722635153247554,-0.180027265471919,0.211800440318759,-0.00844872915929033,0.311097120279983,-0.536660110284518,0.0222216971204726,-2.55499231756469,0.567043780673955,0.567043780673975,-0.0461580920393377,-0.299115642176655,,,0.359285982097513,-1.10781349738622,-2.03481292980775,-0.244681982815292,-0.244681982815391,-0.429404069939479,0.42940406993926,-1.18911268967509,1.53600000000006,102,748.611764705882,330.001960784314,506.245098039216,766.791176470588,730.432352941176,332.11862745098,327.885294117647,477.313725490196,535.176470588235,0
1340.0064,-0.0323643379589848,0.138909828572136,0.0185946219301546,-1.43704880705335,-0.28031611171571,-0.280316111715313,,-0.299935300126195,-0.289930787063838,-0.125713396281637,1.21012936248251,-0.125713396280649,-0.333840459032549,-0.216066230783178,,-0.329357527727629,,-0.386547249407395,0.0239066637129114,0.600538757092614,0.0239066637138566,-0.116445241766657,-0.0283969155795817,-0.155685615690133,-1.45556470307157,-0.391406711625187,,,-1.00755625043586,-0.737839922090773,-0.187201245899801,0.224261513452194,-0.00607003297524436,0.290319377326997,-0.561199005736646,-0.00817912489022699,-2.57993131419993,0.56385617148734,0.563856171487328,-0.0420046859067613,-0.309365979192314,,,0.391881855933603,-1.08661584787553,-2.03126592899269,-0.22849830485842,-0.228498304858539,-0.438799794579012,0.43879979457879,-1.17435683912728,1.63840000000005,102,651.960294117647,287.900980392157,498.200980392157,666.060784313726,637.859803921569,279.271568627451,296.530392156863,465.186274509804,531.21568627451,0
1340.1088,-0.0196126949529702,0.130166382038902,0.027150357317819,-1.44714569779206,-0.272882265553978,-0.272882265553568,,-0.309910033886261,-0.296445415293206,-0.100303315986313,1.21518511736371,-0.100303315985315,-0.353990708210709,-0.225948880181316,,-0.357223040760234,,-0.416129997670412,0.0219248727343076,0.594661981484962,0.0219248727352575,-0.131079602800253,-0.0262940552981763,-0.170214737601205,-1.46627693511718,-0.409256834668209,,,-1.03014801224888,-0.752638554620672,-0.194926156198758,0.236536609277824,-0.00428049293237254,0.269551149725941,-0.585104291981558,-0.0382679721346919,-2.60315522624458,0.560281853323163,0.56028185332311,-0.0380291394695215,-0.319415712003233,,,0.423602937007611,-1.0647593345866,-2.02678863657745,-0.212022563686997,-0.212022563687131,-0.448060389221524,0.448060389221298,-1.15930106281263,1.74080000000004,103,602.488349514563,270.428640776699,500.368932038835,616.328155339806,588.64854368932,261.616504854369,279.240776699029,462.233009708738,538.504854368932,0
1340.2112,-0.00696314833004602,0.121755309140119,0.0357282018819357,-1.45676683520578,-0.26523425140916,-0.265234251408737,,-0.319310735420312,-0.302605225984254,-0.0749508336390472,1.21989565872896,-0.0749508336380384,-0.373638400781702,-0.235463611312036,,-0.38462158292584,,-0.444969920586035,0.0199599472931859,0.588732881634406,0.0199599472941415,-0.145892467368382,-0.0236617954284365,-0.184473716939844,-1.47636880151565,-0.426568668457521,,,-1.05192421710211,-0.766995004409661,-0.203172653357856,0.248616581619619,-0.00306159564673816,0.248817338055168,-0.608348123795987,-0.0680091599202998,-2.62464688006961,0.556384668493675,0.556384668493591,-0.0342300820964482,-0.329242008099021,,,0.454433157949369,-1.04229836531839,-2.02137056160409,-0.195265705298423,-0.195265705298578,-0.457161822656476,0.457161822656246,-1.14394113958771,1.84320000000002,102,697.745098039216,279.433333333333,507.328431372549,714.385294117647,681.104901960784,278.892156862745,279.974509803922,472.245098039216,542.411764705882,0
1340.3136,0.00557344116101166,0.11369281045207,0.0443238917226072,-1.46587345548349,-0.257380943963041,-0.257380943962605,,-0.328121504127184,-0.308403787163102,-0.0496963173467853,1.22424524817997,-0.0496963173457646,-0.392781195472171,-0.244600441234567,,-0.411542557404192,,-0.473056684165817,0.0180161407634597,0.582768642031748,0.0180161407644197,-0.160858763303981,-0.0205148197816141,-0.198447502579744,-1.48580445049053,-0.44331381263696,,,-1.07286547750222,-0.780874499905719,-0.211910435297713,0.260494192439803,-0.00239273217537886,0.228141818171722,-0.630905156566857,-0.0973691208367567,-2.64439128986234,0.552227800106804,0.552227800106683,-0.0306049876267719,-0.338823087476278,,,0.484361580954017,-1.01928573256591,-2.01500284291657,-0.178238483537987,-0.178238483538164,-0.466081302113539,0.46608130211331,-1.12827216378823,1.94560000000001,103,911.065048543689,277.691262135922,515.912621359223,924.136893203884,897.993203883495,273.798058252427,281.584466019418,492.058252427185,539.766990291262,0
1340.416,0.0179861419290132,0.10599275851339,0.0529322946289316,-1.47442927358551,-0.249332803491174,-0.249332803490721,,-0.336328987663944,-0.313836529073545,-0.0245798525981105,1.22821921928538,-0.0245798525970765,-0.411418421299877,-0.253350666397475,,-0.437977399329372,,-0.5003826779281,0.0160976177958893,0.576785545037089,0.0160976177968566,-0.175954130539753,-0.01686808069302,-0.212122079710564,-1.49455040625839,-0.459465845053746,,,-1.09295468263494,-0.794243590976299,-0.221108244004432,0.272164135970021,-0.00225118435733271,0.207547511737705,-0.652752503585131,-0.126316321002822,-2.66237566523255,0.547873586470943,0.547873586470789,-0.027150196820225,-0.34813831942275,,,0.513382087749926,-0.995772470187163,-2.00767833842992,-0.160951501815346,-0.160951501815541,-0.474797173936272,0.474797173936045,-1.11228872013191,2.048,102,913.66862745098,281.593137254902,537.666666666667,926.593137254902,900.744117647059,276.222549019608,286.963725490196,517.813725490196,557.519607843137,0
1340.5184,0.0302638696039959,0.0986667280799804,0.0615473461497426,-1.48240056737748,-0.241101816669909,-0.241101816669444,,-0.34392233169918,-0.318900744874097,0.000358710447537295,1.23180400689713,0.000358710448584578,-0.42955102002148,-0.261706831492855,,-0.463919447099903,,-0.526942846384435,0.0142085306045082,0.570798957521626,0.0142085306054799,-0.191154958544035,-0.0127367474576585,-0.225484465989246,-1.50257559816121,-0.475000324389458,,,-1.11217701039868,-0.80707015955037,-0.230733857666974,0.283623057788694,-0.00261210531487196,0.187056469390784,-0.67386967031292,-0.154821153936745,-2.67858939596692,0.543383366090974,0.543383366090784,-0.0238609231244116,-0.357168335813531,,,0.541493066102252,-0.971807756149841,-1.99939169867089,-0.143415270381268,-0.143415270381487,-0.483288823414151,0.483288823413921,-1.09598506899738,2.15039999999999,102,888.482882614802,277.477358495806,553.009846374811,901.682492997199,875.283272232406,269.830196078431,285.124520913181,535.006722689076,571.012970060546,0
1340.6208,0.0423953173275184,0.0917240381402658,0.0701620008246711,-1.48975624196714,-0.232701435997512,-0.232701435997034,,-0.350893123488858,-0.323595578871389,0.0250797264016957,1.2349871836231,0.0250797264027535,-0.44718147918947,-0.269662690708704,,-0.489363802913906,,-0.552734507260236,0.0123530969079015,0.56482330413413,0.0123530969088826,-0.206438404757843,-0.00813616927480309,-0.238522699289604,-1.50985138214962,-0.489894783868135,,,-1.13051992869967,-0.819323426563517,-0.24075410247896,0.294869547414093,-0.00344853438557278,0.166689953879331,-0.694238481434581,-0.182855831002708,-2.69302402471052,0.538817334904385,0.538817334904158,-0.0207312519054147,-0.365895155704953,,,0.568697084770917,-0.947438847124921,-1.99013943323663,-0.125640273118631,-0.125640273118874,-0.49153657148212,0.491536571481895,-1.0793553327986,2.25279999999998,103,827.662393767705,270.116201133145,555.602322946176,842.45,812.874787535411,261.446,278.786402266289,542.08,569.124645892351,0.951456310679612
1340.7232,0.054368900604143,0.0851717881446084,0.07876819463497,-1.49646789769551,-0.224146528869753,-0.224146528869265,,-0.357235334427477,-0.327921997932844,0.0495437499874966,1.23775750119941,0.049543749988561,-0.464313756926986,-0.277213169331368,,-0.514307183707992,,-0.577757164494521,0.0105356674837379,0.558872025621464,0.0105356674847244,-0.221782391021245,-0.0030818647571346,-0.251225824381782,-1.51635158417877,-0.504128734709366,,,-1.14797319400379,-0.830973990591694,-0.251134910517021,0.30590408660995,-0.00473148073225667,0.146468509106649,-0.713843018610817,-0.210394289630333,-2.70567323153441,0.534234393781888,0.534234393781625,-0.0177541509761046,-0.374302309056843,,,0.595000553910204,-0.922711028174065,-1.97991998288723,-0.107637042500408,-0.107637042500676,-0.499521568296624,0.4995215682964,-1.0623936797477,2.35519999999997,102,766.650834682315,262.763205382436,558.10031970862,783.146428571429,750.155240793201,253.041,272.485410764873,549.108571428571,567.092067988669,0.549019607843137
1340.8256,0.0661727150926536,0.0790148836871287,0.0873568155577508,-1.5025099100579,-0.215453335945763,-0.215453335945264,,-0.362945265397737,-0.331882745811698,0.0737115534616809,1.24010493494825,0.0737115534627533,-0.480953198073585,-0.284354330850752,,-0.538747764568968,,-0.602012321775273,0.00876078077079535,0.552957535727578,0.0087607807717829,-0.237165584737781,0.00241046256133673,-0.263583885600595,-1.52205256809747,-0.517683685883369,,,-1.1645288510669,-0.841993905046691,-0.261841420482026,0.316728955434533,-0.00643007155419183,0.126412012605918,-0.732669575126058,-0.237412124496148,-2.71653284670711,0.529691980586334,0.529691980586036,-0.0149215026967034,-0.382374948966812,,,0.620413384954331,-0.89766756676797,-1.9687338042763,-0.0894162353096312,-0.0894162353099309,-0.507225698290061,0.507225698289839,-1.04509450166179,2.45759999999996,103,686.212711433208,251.540473472868,559.400231029456,704.186893203884,668.238529662532,241.127669902913,261.953277042823,546.796116504854,572.004345554058,0
1340.928,0.0777945039133712,0.0732560603739045,0.0959176821321494,-1.50785950908507,-0.20663943141893,-0.206639431418423,,-0.368021495266254,-0.335482284578644,0.0975441527624059,1.24202072930563,0.0975441527634795,-0.497106440707817,-0.291083348103914,,-0.56268501593111,,-0.625503297966229,0.00703320446321315,0.547091191955951,0.00703320446419987,-0.252567375174854,0.00832489326250215,-0.275587927789002,-1.5269333047244,-0.530543171100023,,,-1.18018123160846,-0.852356769593774,-0.272838094395949,0.327348113647301,-0.00851173036552985,0.106539719790084,-0.750706620040339,-0.263886530639258,-2.72560088743604,0.525245899272244,0.5252458992719,-0.0122241524920208,-0.390099951020609,,,0.644948663899034,-0.872349671427789,-1.95658346475193,-0.070988692057591,-0.0709886920579215,-0.514631519757542,0.514631519757323,-1.02745257520573,2.56000000000017,102,604.985294117647,243.813235294118,555.470588235294,622.824509803922,587.146078431373,235.422549019608,252.203921568627,525.588235294118,585.352941176471,0
1341.0304,0.089221631267694,0.0678959185875964,0.104439531518571,-1.5124968356876,-0.197723678269439,-0.197723678268922,,-0.372464828471857,-0.338726728930957,0.121002828627196,1.24349744146257,0.121002828628272,-0.512781313042223,-0.297398471745544,,-0.586119535847901,,-0.648235043290447,0.00535796495705184,0.541283284743075,0.0053579649580376,-0.267967850527767,0.0146452566879176,-0.287230001998869,-1.53097541198555,-0.542692765866474,,,-1.19492694521027,-0.862037800512349,-0.284088821147067,0.337767076671488,-0.0109423478835221,0.0868703083350329,-0.767944758364725,-0.289796244553023,-2.73287759702544,0.520950164510903,0.520950164510514,-0.0096519618520865,-0.397466003085735,,,0.668622340934669,-0.846796465095872,-1.9434737386642,-0.0523654607670549,-0.0523654607674204,-0.521722255885265,0.521722255885039,-1.00946319051127,2.66240000000016,102,605.588235294118,253.725980392157,567.450980392157,622.439215686275,588.737254901961,251.359803921569,256.092156862745,531.558823529412,603.343137254902,0
1341.1328,0.100441061340327,0.0629329736033434,0.112910017654995,-1.51640496094608,-0.188726178196071,-0.188726178195549,,-0.376278235852231,-0.341623776248524,0.144049138030687,1.24452897978259,0.144049138031763,-0.527986721857911,-0.303298990027063,,-0.609052879522613,,-0.670213955582019,0.00374036663368225,0.535543039558109,0.00374036663466607,-0.283347775092669,0.0213550963742579,-0.298503170610693,-1.53416315402698,-0.554120083832009,,,-1.20876485739908,-0.871013862964207,-0.295556997886072,0.34799279349831,-0.0136864329691593,0.0674219237466828,-0.784376679976457,-0.315121478821607,-2.73836546487824,0.516856871841801,0.516856871841368,-0.00719385667751596,-0.404463687613809,,,0.691452931329081,-0.821044983770113,-1.92941169611752,-0.0335577803248706,-0.0335577803252665,-0.528481828915831,0.528481828915598,-0.991122235860244,2.76480000000015,103,602.830582524272,257.826213592233,601.776699029126,618.529126213592,587.132038834952,251.04854368932,264.603883495146,566.349514563107,637.203883495146,0
1341.2352,0.11143934490416,0.0583637122673117,0.121315718671832,-1.51956987737495,-0.179668223360867,-0.179668223360337,,-0.379466786094434,-0.344182630570098,0.166644924429364,1.24511063421164,0.16664492443044,-0.542732535806769,-0.308785181020604,,-0.631487389990105,,-0.691447699689164,0.00218599974902729,0.529878620178464,0.00218599975000561,-0.298688561263845,0.0284376321488288,-0.3094015096205,-1.53648341820725,-0.564814759233378,,,-1.22169605746612,-0.879263483114357,-0.30720561035146,0.358033516327471,-0.0167072682473494,0.0482122195959559,-0.799997104701429,-0.339843859706924,-2.74206922572072,0.513016087161673,0.513016087161204,-0.00483786798937196,-0.411085556776964,,,0.713461213462393,-0.795130201852099,-1.91440678070183,-0.0145770407418539,-0.0145770407422838,-0.534894902118391,0.534894902118153,-0.972426239526644,2.86720000000014,102,602.997058823529,260.494117647059,611.926470588235,616.613725490196,589.380392156863,251.11862745098,269.869607843137,572.735294117647,651.117647058824,0
1341.3376,0.122202616344922,0.0541826434436141,0.129642151613222,-1.52198048689493,-0.170572256432183,-0.170572256431643,,-0.382037569775814,-0.346413917260784,0.188752339152519,1.24523909718273,0.188752339153599,-0.557029468644898,-0.313858263877334,,-0.65342603446694,,-0.711945035529669,0.000700730759107778,0.524297120030781,0.000700730760083191,-0.313972231764887,0.0358757127857717,-0.319920108367339,-1.53792570205639,-0.574768431907616,,,-1.2337238226192,-0.886766875020728,-0.318997343398522,0.367898645414868,-0.0199671078837095,0.0292583839266182,-0.814802737638091,-0.363946382050808,-2.74399585610368,0.509475739466772,0.509475739466266,-0.00257116962102637,-0.417326195398843,,,0.734669907528422,-0.769085078855099,-1.89847088129254,0.00456525755427806,0.00456525755380951,-0.540946901683668,0.540946901683425,-0.953372383924952,2.96960000000013,103,601.871844660194,265.245631067961,601.76213592233,617.403883495146,586.339805825243,260.538834951456,269.952427184466,558.640776699029,644.883495145631,0
1341.44,0.132716599754132,0.0503823384882373,0.137873791945878,-1.52362860162389,-0.161461836975691,-0.161461836975141,,-0.383999618894218,-0.348329587702802,0.210333876517324,1.2449124748745,0.210333876518407,-0.570888965327877,-0.31852035294416,,-0.674872248383185,,-0.731715656976745,-0.000709329778559954,0.518804537737897,-0.000709329777593636,-0.329181375235344,0.0436517639610943,-0.330055065991072,-1.53848212431573,-0.583974742151067,,,-1.24485358058181,-0.893505999044547,-0.330894730794505,0.377598545395751,-0.0234274276635371,0.0105771493970164,-0.828792239434401,-0.387413385937962,-2.74415458407286,0.506281506151725,0.506281506151191,-0.00038012435745119,-0.42318225575407,,,0.755103335059726,-0.742940623407465,-1.88161840524111,0.0238575404190733,0.0238575404185672,-0.546624026752434,0.546624026752185,-0.933958513192392,3.07200000000012,102,686.450228460179,291.784438881936,613.748614339353,704.000783717742,668.899673202614,284.871818940342,298.697058823529,573.261934561058,654.235294117647,0
1341.5424,0.142966619595095,0.0469534699473921,0.14599409660592,-1.52450895172909,-0.152361605047216,-0.152361605046658,,-0.385363822674167,-0.34994281664054,0.231352413829751,1.24413028892218,0.231352413830832,-0.584323090236107,-0.322774412490061,,-0.695829786258631,,-0.750770038969656,-0.00203788038451877,0.513405746245492,-0.00203788038355859,-0.344299103663447,0.0517477453073151,-0.339803481877506,-1.53814744578724,-0.592429327429034,,,-1.25509286675446,-0.899464636747119,-0.342860323531428,0.387144347678097,-0.0270492000590585,-0.00781520600940879,-0.84196620267056,-0.410230544747925,-2.74255691004147,0.503476695360221,0.503476695359657,0.00174964746801385,-0.428652443935341,,,0.774787082390796,-0.716725972748564,-1.86386635258826,0.0432882034223554,0.0432882034218137,-0.551913274165452,0.551913274165198,-0.914183146352827,3.17440000000011,102,891.6086643026,347.234802431611,640.562816616008,898.270820668693,884.946507936508,346.855319148936,347.614285714286,607.316109422493,673.809523809524,0.96078431372549
1341.6448,0.152937612261486,0.0438848619013627,0.153985531877805,-1.52461918053829,-0.143297232220688,-0.143297232220121,,-0.386142838782685,-0.351267896636178,0.251771245395859,1.24289346862158,0.251771245396944,-0.597344416081536,-0.326624206972007,,-0.716302578645553,,-0.769119288806458,-0.00327849854220687,0.508104466504716,-0.00327849854125155,-0.359309017247889,0.0601451277156329,-0.349163436446047,-1.53691907225518,-0.600129806421433,,,-1.26445127034308,-0.904628450915181,-0.35485684700842,0.396547759613817,-0.03079315535399,-0.0259028571263272,-0.854327119914804,-0.43238484818961,-2.73921662257819,0.501102140626722,0.501102140626127,0.00383316728361885,-0.433737448322555,,,0.793747701473072,-0.690468483138952,-1.84523438216553,0.0628456729425644,0.0628456729419842,-0.556802492934134,0.556802492933875,-0.894045493911484,3.27680000000009,103,1099.56873691321,403.313829787234,667.459979736576,1093.79969604863,1105.33777777778,409.227659574468,397.4,641.586626139818,693.333333333333,0.29126213592233
1341.7472,0.162614138072505,0.0411635594482678,0.161829608279644,-1.52395981166152,-0.13429535714557,-0.134295357144992,,-0.386350999343523,-0.352320132783926,0.271554107764573,1.24120433470148,0.271554107765659,-0.609965913389185,-0.330074243369605,,-0.736294595340796,,-0.786774999218924,-0.00442472410278836,0.502903246962061,-0.00442472410183637,-0.374195178634995,0.0688248954862883,-0.358133960374904,-1.53479702352102,-0.607075742022753,,,-1.27294036640579,-0.908985011355618,-0.366847334684292,0.405820890198207,-0.0346200118078023,-0.04367042368528,-0.865879334903207,-0.453864571813435,-2.73414979314899,0.499196117758428,0.499196117757796,0.00588596461932251,-0.438439815669043,,,0.8120124757849,-0.664193821162882,-1.82574486048141,0.0825184876067408,0.0825184876061227,-0.561280468005292,0.561280468005025,-0.873545469836305,3.37920000000008,102,1246.992284668,446.493263901305,694.660354212607,1237.48556528995,1256.49900404606,453.85277430121,439.133753501401,675.045264914477,714.275443510738,0
1341.8496,0.171980396685654,0.0387749111319683,0.169506923021246,-1.52253419273882,-0.125383512246936,-0.12538351224635,,-0.38600421195445,-0.353115736322841,0.29066520401376,1.23906657599822,0.29066520401485,-0.6222008407232,-0.333129707010045,,-0.755809714090665,,-0.803749103934691,-0.00547015570591947,0.497803445714842,-0.00547015570497154,-0.388942097951935,0.077767572514049,-0.366714994577636,-1.53178387989639,-0.61326858914918,,,-1.28057363652194,-0.912523797437831,-0.378795250688456,0.414976086254799,-0.0384906894488182,-0.0611029599624529,-0.876628981129186,-0.474659238309351,-2.72737474972579,0.497794276798956,0.497794276798288,0.00792391618665696,-0.442763787815803,,,0.829609257290143,-0.637926048042055,-1.80542289222782,0.102295392927185,0.102295392926535,-0.565337027663126,0.565337027662852,-0.852683696197404,3.48160000000007,103,1242.96893203884,474.744174757282,735.898058252427,1238.97669902913,1246.96116504854,480.968932038835,468.519417475728,720.669902912621,751.126213592233,0
1341.952,0.181020249732091,0.036702650815171,0.176997208826861,-1.52034843539866,-0.116590049572581,-0.116590049571987,,-0.385119855210989,-0.353671712678781,0.309069236594937,1.23648521881106,0.309069236596034,-0.634062634452821,-0.335796396190065,,-0.774851592525592,,-0.820053737956801,-0.00640855993047312,0.49280521977453,-0.00640855992953165,-0.403534727329993,0.0869532660039389,-0.37490734524452,-1.5278847317581,-0.618711641580381,,,-1.28736638503221,-0.91523620564925,-0.390664619352851,0.424025770240785,-0.0423665285962425,-0.0781859467969086,-0.886583918247587,-0.494759579886799,-2.71891204627766,0.496929573295229,0.496929573294519,0.00996306763334464,-0.446715116026379,,,0.846566349331444,-0.611687703540522,-1.78429633815779,0.122165436685728,0.122165436685047,-0.568963170977226,0.56896317097695,-0.83146150883665,3.58400000000006,102,952.779411764706,536.425,795.019607843137,955.667647058823,949.891176470588,548.106862745098,524.743137254902,767.352941176471,822.686274509804,0
1342.0544,0.189717251612573,0.0349289733463821,0.184279388022388,-1.51741136391478,-0.107944064931829,-0.107944064931229,,-0.383716666773658,-0.354005741897418,0.32673144950028,1.23346658803636,0.326731449501385,-0.645564796335958,-0.338080659200621,,-0.793423542422592,,-0.835701103202706,-0.00723398696208029,0.487907531396755,-0.00723398696114257,-0.417958458887578,0.0963617186997373,-0.382712635200398,-1.52310714324569,-0.623409984917357,,,-1.2933356549934,-0.917115575900128,-0.402420161836511,0.432982281808612,-0.0462095118134487,-0.0949052847558598,-0.89575366902024,-0.51415750194351,-2.70878444405606,0.496632192793479,0.496632192792726,0.0120194494512772,-0.450300870100585,,,0.86291239805732,-0.585499906491235,-1.76239582527912,0.142118056929829,0.142118056929117,-0.572151211942859,0.572151211942573,-0.809880978791553,3.68640000000005,102,947.456862745098,540.386274509804,831.348039215686,955.948039215686,938.96568627451,553.787254901961,526.985294117647,795.039215686275,867.656862745098,0
1342.1568,0.198054685846154,0.033434612957176,0.191331632606051,-1.51373446495703,-0.0994753103931586,-0.0994753103925571,,-0.381814622300887,-0.354136055085423,0.34361767157906,1.23001826026442,0.343617671580169,-0.656720779587518,-0.339989331932976,,-0.811528409262889,,-0.85070333813286,-0.00794088106966147,0.483108174306979,-0.00794088106873251,-0.432199121122858,0.10597236694352,-0.39013324830229,-1.51746111516466,-0.627370448220661,,,-1.29850014034675,-0.918157221269128,-0.414027420704462,0.441857736278774,-0.0499824643055758,-0.111247282763223,-0.904149347710312,-0.532846038567202,-2.69701690190389,0.496929477424162,0.49692947742337,0.0141088906983973,-0.453529247000761,,,0.878676277187566,-0.559382480336132,-1.73975474673157,0.162143159993972,0.162143159993229,-0.574894924042399,0.574894924042105,-0.787944959219928,3.78880000000004,103,948.306796116505,542.621359223301,860.694174757282,955.910679611651,940.702912621359,556.798058252427,528.444660194175,815.970873786408,905.417475728155,0
1342.2592,0.206015603401231,0.0321989408116707,0.198131432732894,-1.50933181805804,-0.0912140841556658,-0.0912140841550652,,-0.379434804935454,-0.354081313669953,0.359694351277232,1.22614900984831,0.359694351278342,-0.667543876270683,-0.341529670494865,,-0.829168461468497,,-0.865072388803784,-0.00852417710318457,0.478403812883852,-0.00852417710225906,-0.4462429761675,0.115764413825265,-0.397172261400848,-1.51095902010073,-0.630601538994565,,,-1.30288008591451,-0.918358430733937,-0.425452848939974,0.450663915255283,-0.0536492026845487,-0.127198636828804,-0.911783566557434,-0.550819288654929,-2.68363655603249,0.497845870471603,0.497845870470767,0.0162468255054469,-0.456409369236997,,,0.893886981469438,-0.533354095360662,-1.71640924172808,0.182231185865518,0.182231185864746,-0.57718965302283,0.577189653022532,-0.765657157640428,3.89120000000003,102,944.880882352941,540.633823529412,882.338235294118,951.701960784314,938.059803921569,555.393137254902,525.874509803922,829.490196078431,935.186274509804,0
1342.3616,0.213582861614557,0.0312000911728482,0.20465567561604,-1.50421999224722,-0.0831910949351191,-0.0831910949345195,,-0.376599265721141,-0.353860495578941,0.374928579958662,1.2218687484405,0.374928579959775,-0.678047107800666,-0.342709274572074,,-0.846345290591826,,-0.878819878818732,-0.00897938074969273,0.473790026306755,-0.00897938074877568,-0.460076723714148,0.125716928951393,-0.403833360139851,-1.50361549623653,-0.633113352236119,,,-1.30649717017872,-0.917718427789094,-0.436663854228096,0.459412195532283,-0.0571746202399935,-0.142746397245682,-0.918670314441802,-0.568072328363367,-2.66867267116786,0.499402889324999,0.499402889324121,0.0184480933121372,-0.458951066121295,,,0.90857355119276,-0.507432412469347,-1.6923981466017,0.202373155957074,0.202373155956275,-0.579032369046193,0.579032369045889,-0.743022227854622,3.99360000000002,103,948.88418425294,533.391177573342,890.623113812482,954.014440569328,943.753927936551,531.319668834637,535.462686312047,841.315863889151,939.930363735813,0
1342.464,0.220739165601528,0.0304151092486969,0.210880734176662,-1.49841791546782,-0.0754373094340615,-0.0754373094334663,,-0.373330876866963,-0.353492786106502,0.389288111990095,1.21718845716166,0.389288111991211,-0.688243119118181,-0.343536003256125,,-0.863059720933171,,-0.891956979282227,-0.00930263100849127,0.469261355226481,-0.00930263100758282,-0.473687511990305,0.135808972890458,-0.410120740735713,-1.4954473152625,-0.634917460610931,,,-1.30937437556959,-0.916238299917275,-0.447628814392776,0.468113507501888,-0.0605247280158526,-0.157877929425144,-0.924824816452883,-0.584601108703709,-2.65215656363519,0.501619120053013,0.501619120052096,0.0207267450127495,-0.461164646313837,,,0.922765032485486,-0.481634220359478,-1.66776291557656,0.222560694143764,0.222560694142935,-0.580421649070289,0.580421649069977,-0.720045876685068,4.096,102,970.265146827567,539.282555893614,858.851317858608,971.13786407767,969.392429577465,515.272330097087,563.292781690141,838.398058252427,879.304577464789,0.676470588235294
1342.5664,0.227467114943554,0.0298201035940934,0.216782562057634,-1.49194673879714,-0.0679837960293407,-0.0679837960287524,,-0.36965318230663,-0.352997467725557,0.40274139363709,1.21212011011378,0.402741393638208,-0.698144076995624,-0.344017890162935,,-0.879311726940376,,-0.904494284052996,-0.00949073915870425,0.464811356522658,-0.00949073915780562,-0.487062952955828,0.146019734099185,-0.416039005405836,-1.48647325418437,-0.636026803070575,,,-1.31153585771393,-0.913920931613889,-0.458317090489098,0.476778308035375,-0.063666684139881,-0.172580877915902,-0.930263390874132,-0.600402354757134,-2.63412151434118,0.50451021466516,0.504510214664203,0.0230958709104708,-0.463060682956465,,,0.936490456962667,-0.455975569926828,-1.6425475177094,0.242786012525604,0.24278601252475,-0.581357602235681,0.581357602235369,-0.696734983057109,4.19839999999999,102,992.060097600164,544.789888725557,822.212284630111,987.180582524272,996.939612676056,496.22572815534,593.354049295775,834.436893203884,809.987676056338,0.382352941176471
1342.6688,0.233749256250482,0.0293903909895237,0.222336791372063,-1.48482970951963,-0.0608615727316862,-0.0608615727311069,,-0.365590250231537,-0.35239380558589,0.415257604707497,1.20667658927571,0.41525760470862,-0.707761571977759,-0.344163063673069,,-0.895100356782727,,-0.916441694833161,-0.00954119960233856,0.460432677935442,-0.00954119960145274,-0.50019114508549,0.156328673515499,-0.421593059486625,-1.47671398484989,-0.636455582389337,,,-1.31300682226429,-0.91077095775145,-0.468699047589088,0.485416560941862,-0.0665688245097296,-0.186843138837019,-0.935003313820207,-0.615473476106848,-2.61460268850141,0.508088880012545,0.508088880011554,0.0255674667435309,-0.464649837150758,,,0.949778817879746,-0.430471913229502,-1.61679831841071,0.263041866080489,0.26304186607961,-0.58184176507003,0.581841765069725,-0.67309772367969,4.30079999999998,103,1002.12649602251,482.883440376605,864.971668188981,1000.66437930059,1003.58861274443,476.756040468784,489.010840284425,846.663116222076,883.280220155887,0
1342.7712,0.239568140409737,0.0291006358278545,0.227518832809555,-1.47709204561238,-0.0541014582072608,-0.0541014582066871,,-0.361166530023701,-0.351700931078469,0.426806706922758,1.20087159220264,0.426806706923886,-0.717106523804739,-0.343979673262972,,-0.910423661983758,,-0.927808317351747,-0.00945217508868942,0.456117160033152,-0.00945217508781252,-0.513060711555208,0.166715681653835,-0.426788014707221,-1.46619196656204,-0.636219167355353,,,-1.31381340933446,-0.906794722655662,-0.478746069735231,0.494037730455429,-0.0692006797733405,-0.200652837345036,-0.939062689476692,-0.629812484471613,-2.59363706245404,0.512364864947056,0.512364864946026,0.0281523473664124,-0.46594273562689,,,0.96265902849968,-0.405138247818028,-1.59056394772121,0.283321488988791,0.283321488987881,-0.581876984920248,0.581876984919951,-0.64914369151031,4.40319999999997,102,1001.09950980392,451.05931372549,913.735294117647,1012.44607843137,989.752941176471,461.205882352941,440.912745098039,869.960784313726,957.509803921569,0
1342.8736,0.244906383938101,0.0289249973762919,0.232303982186401,-1.46876079000378,-0.0477339173028076,-0.0477339173022396,,-0.356406714110659,-0.350937729863865,0.437359490684604,1.19471953426313,0.437359490685736,-0.726189092686341,-0.34347581933882,,-0.925278636721152,,-0.938602368142083,-0.00922246219762234,0.451855960216673,-0.00922246219675547,-0.525660855184921,0.177161248833999,-0.431629099574227,-1.45493131139128,-0.635333986867504,,,-1.31398257860249,-0.902000211658758,-0.488430546201081,0.502650799617451,-0.071532951354668,-0.213998302026013,-0.942460315326097,-0.643417906178161,-2.57126334268281,0.517344963825754,0.517344963824688,0.0308601004402014,-0.46694989664021,,,0.975159860185343,-0.379989263080236,-1.56389514827385,0.303618519383008,0.303618519382069,-0.581467289913908,0.581467289913624,-0.624883991482017,4.50559999999996,103,1004.64174757282,451.173786407767,934.830097087379,1016.57184466019,992.711650485437,456.292233009709,446.055339805825,888.815533980583,980.844660194175,0
1342.976,0.249746735839663,0.0288372956305666,0.236667538414957,-1.459864627767,-0.041788895007368,-0.0417888950068049,,-0.351335604462901,-0.350122738810902,0.44688761826963,1.18823544749055,0.446887618270768,-0.735018599275459,-0.342659484373921,,-0.939661171291368,,-0.948831091193056,-0.00885144436083452,0.447639686652655,-0.00885144435997603,-0.537981423900682,0.187646640112852,-0.436121577365932,-1.4429576027113,-0.633817407728938,,,-1.31354198843702,-0.896396932694533,-0.497725817603325,0.511264319524087,-0.0735374328539036,-0.226868030771856,-0.945215534651539,-0.656288680897588,-2.54752186211999,0.523033052248653,0.523033052247549,0.0336990616405058,-0.467681683265721,,,0.987309863752885,-0.355039487277684,-1.53684459440002,0.323926913628926,0.323926913627959,-0.580617742535848,0.58061774253557,-0.600331304529035,4.60800000000018,102,1003.52450980392,458.507843137255,966.897058823529,1014.97156862745,992.077450980392,463.630392156863,453.385294117647,916.186274509804,1017.60784313725,0
1343.0784,0.254072152885229,0.0288111895334689,0.240584933387732,-1.450433672209,-0.0362956456993639,-0.0362956456988075,,-0.345977982958213,-0.349274048802865,0.455363672380581,1.18143487890722,0.455363672381724,-0.743603454406704,-0.341538467133071,,-0.953566021109683,,-0.958500685492713,-0.00833904593632161,0.443458532405006,-0.00833904593547237,-0.550012978847853,0.198154062303387,-0.440270674123798,-1.43029768109985,-0.631687603003983,,,-1.31251986984727,-0.889995761858508,-0.506606097908166,0.519886478310754,-0.0751868978364591,-0.239250652458844,-0.947348084167137,-0.668424054280163,-2.52245445506011,0.529430151313195,0.529430151312053,0.0366762984648465,-0.468148267646747,,,0.999137279657952,-0.330303432709988,-1.5094666839112,0.344240851150537,0.344240851149539,-0.579334285105728,0.579334285105468,-0.575499920182052,4.71040000000016,102,1003.03970588235,450.153431372549,996.593137254902,1012.11078431373,993.968627450981,452.969607843137,447.337254901961,941.088235294118,1052.09803921569,0
1343.1808,0.257865884830862,0.0288203491304591,0.244031868789919,-1.44049924612041,-0.0312825717093523,-0.0312825717088017,,-0.340358484998094,-0.348409205700166,0.462761223616352,1.1743337918569,0.462761223617499,-0.751951099473462,-0.340120324884828,,-0.966986790688361,,-0.967616247045839,-0.00768570403346116,0.439302401811333,-0.00768570403262156,-0.561746853899018,0.208666806270922,-0.444081518957967,-1.41697943644079,-0.628963428038944,,,-1.31094490169963,-0.882808794683476,-0.515046407300867,0.528525167517973,-0.0764549985305632,-0.251134898045759,-0.948877955768063,-0.679823485806653,-2.49610432854597,0.536534495194936,0.536534495193747,0.0397976007214223,-0.468359604615355,,,1.01066994535539,-0.305795728759779,-1.48181731556853,0.364554626379684,0.364554626378651,-0.577623580333065,0.577623580332827,-0.550405751000692,4.81280000000015,103,1011.67233009709,458.530097087379,1013.14077669903,1020.57184466019,1002.77281553398,469.368932038835,447.691262135922,956.708737864078,1069.57281553398,0
1343.2832,0.26111156724403,0.0288386106024203,0.246984453904211,-1.43009368019841,-0.0267770769193934,-0.0267770769188526,,-0.334501477674544,-0.347545106012044,0.4690549224911,1.16694847378051,0.469054922492255,-0.760067959653771,-0.338412327072342,,-0.979915932911306,,-0.976181728980245,-0.00689236513708212,0.435161019847389,-0.00689236513625574,-0.573175191259706,0.219169345532384,-0.447559096377965,-1.40303163378017,-0.625664314967292,,,-1.30884609153454,-0.874849234104101,-0.523022539529671,0.537188030695736,-0.0773162055268609,-0.26250959295382,-0.949825283705625,-0.690486587917247,-2.46851594795713,0.544341579790665,0.54434157978943,0.0430674828667498,-0.46832542357332,,,1.0219352035737,-0.281531229210314,-1.45395366611529,0.384862518639598,0.384862518638534,-0.575492832649008,0.575492832648789,-0.525066350824105,4.91520000000014,102,862.786274509804,485.730882352941,1023.13235294118,870.280392156863,855.292156862745,489.973529411765,481.488235294118,959.911764705882,1086.35294117647,0
1343.3856,0.263793317553396,0.0288401192258923,0.249419342172593,-1.4192501284834,-0.0228054295827032,-0.022805429582179,,-0.328430945786563,-0.346697891347547,0.474220609956398,1.15929545202335,0.474220609957558,-0.767959411406464,-0.336421420302193,,-0.992344763615144,,-0.984199920151101,-0.00596049615212863,0.431024020669462,-0.00596049615131253,-0.58429094357817,0.229647381401864,-0.450708208564395,-1.38848376792333,-0.621810182484658,,,-1.30625266196627,-0.866131310764959,-0.530511057513466,0.545882495987039,-0.0777457820787515,-0.273363669808187,-0.950210252465283,-0.700413093330739,-2.43973494102039,0.552844194348906,0.552844194347629,0.0464892045116314,-0.468055248080439,,,1.03295979608786,-0.257525093397828,-1.42593397161586,0.405158636309358,0.405158636308259,-0.572949576372913,0.572949576372712,-0.49950094841495,5.01760000000013,103,848.440776699029,486.950970873786,1001.85922330097,857.588349514563,839.293203883495,486.015533980583,487.88640776699,935.029126213592,1068.68932038835,0
1343.488,0.265895831457299,0.0287994733718688,0.251313868442408,-1.40800238298379,-0.0193926257579791,-0.0193926257574672,,-0.322170387703402,-0.345882848220406,0.478235435467757,1.15139141658971,0.478235435468925,-0.775629762085403,-0.334154201963313,,-1.00426348873402,,-0.99167243839318,-0.0048920892002997,0.426881025153587,-0.00489208919949165,-0.595087845163056,0.24008784107699,-0.453533444820107,-1.37336591913156,-0.617421349065243,,,-1.30319394089871,-0.856670204942356,-0.537489289200476,0.554615807222083,-0.0777197596197551,-0.28368618808077,-0.950053012108113,-0.70960283213225,-2.409808011217,0.562032456522057,0.562032456520737,0.0500648121761518,-0.467558446489811,,,1.04376971520068,-0.233792862245876,-1.39781730831885,0.425436747973323,0.425436747972189,-0.57000144505936,0.570001445059178,-0.473730486667684,5.12000000000012,102,846.450490196079,503.257352941176,962.004901960784,858.245098039216,834.655882352941,508.847058823529,497.667647058824,895.637254901961,1028.37254901961,0
1343.5904,0.267404480095327,0.0286918776682242,0.252646190069832,-1.3963846690933,-0.0165622511273726,-0.0165622511268752,,-0.315742719957073,-0.34511431646252,0.481077976025022,1.14325314791042,0.481077976026195,-0.783082237307839,-0.331616899257019,,-1.01566123960181,,-0.998599733031782,-0.00368964649331772,0.42272172153363,-0.00368964649251656,-0.605560361707287,0.250478844126357,-0.456039155001279,-1.35770858631051,-0.612518439394087,,,-1.29969925378062,-0.846481941786424,-0.5439353003592,0.563395066182549,-0.0772148863278509,-0.293466346699858,-0.949373591960325,-0.718055701757152,-2.37878284677875,0.571893868945896,0.571893868944535,0.0537952051190979,-0.466844311479902,,,1.05439000186222,-0.21035055245821,-1.36966336601897,0.44569012475256,0.445690124751395,-0.566655960483256,0.566655960483092,-0.447777645641735,5.22240000000011,102,854.909631635081,490.534771105095,925.174788743949,878.005537779966,831.813725490196,487.473463778817,493.596078431373,860.447616703585,989.901960784314,0
1343.6928,0.268305411413649,0.0284932986276085,0.253395432681725,-1.38443142082718,-0.014336350421755,-0.0143363504212711,,-0.309170189535403,-0.344405604221765,0.482728360473334,1.13489744901062,0.482728360474515,-0.790318973685987,-0.328815353169511,,-1.02652611371943,,-1.00498109543831,-0.00235614976329818,0.418535948886607,-0.00235614976250638,-0.615703625171932,0.260809647599933,-0.458229425305666,-1.34154250339211,-0.607122286043085,,,-1.29579781860634,-0.835583263418943,-0.549827852272844,0.572227279164404,-0.076208560084474,-0.302693489389676,-0.948191818317171,-0.725771632372195,-2.34670802036021,0.582413397556557,0.582413397555146,0.057680228659152,-0.465922163847947,,,1.06484450593281,-0.187214768523315,-1.34153221429123,0.465911412900518,0.465911412899323,-0.562920367678308,0.562920367678164,-0.421666831991253,5.3248000000001,103,1210.49698785392,754.107100784011,581.567798675712,1001.28912133891,1419.70485436893,456.059832635983,1052.15436893204,836.941422594142,326.194174757281,0.368932038834951
1343.7952,0.26858565929395,0.0281806043316698,0.253541837478662,-1.37217705626485,-0.0127353192813227,-0.0127353192808539,,-0.302474296584031,-0.343768905038003,0.483168410379577,1.12634108282505,0.483168410380763,-0.797341017872837,-0.32575501167075,,-1.03684522165558,,-1.01081468275573,-0.000895030961686247,0.414313768164337,-0.000895030960905844,-0.625513353017139,0.271070566307218,-0.460108058575654,-1.32489847236533,-0.601253841923887,,,-1.29151864853982,-0.823991514288923,-0.555146379186902,0.581119383335581,-0.0746787916988462,-0.311357116912145,-0.946527254063586,-0.73275056894761,-2.31363289350769,0.593573557324627,0.593573557323175,0.0617187884563268,-0.464801469341882,,,1.07515562973809,-0.164402810238531,-1.31348407357934,0.48609254059184,0.486092540590617,-0.558801514697539,0.558801514697412,-0.395424134457025,5.42720000000008,102,1167.83654729674,495.24384280909,777.874394946263,1130.09466322094,1205.57843137255,426.383764049553,564.103921568628,815.797809500369,739.950980392157,0
1343.8976,0.268233260234083,0.0277316741110415,0.25306690503088,-1.35965577719623,-0.0117778254336583,-0.0117778254332015,,-0.295675732886051,-0.343215214991855,0.4823818033144,1.1176007153916,0.48238180331559,-0.804148333678584,-0.322440938001951,,-1.0466047424283,,-1.01609756091243,0.000689840979610803,0.410045508383406,0.000689840980379901,-0.634985748858545,0.281252859564573,-0.461678563567648,-1.30780724275451,-0.594934119074028,,,-1.28689046791584,-0.811724575183971,-0.559871012532415,0.590078234514711,-0.0726042335432036,-0.319446919771601,-0.944399173566508,-0.73899248858742,-2.27960755039375,0.605354493075381,0.60535449307388,0.0659089670783864,-0.463491949424792,,,1.08534406518309,-0.141932752901052,-1.28557910696784,0.506224652199303,0.50622465219806,-0.554305768331997,0.554305768331884,-0.369077261993547,5.52960000000007,103,1166.77572815534,433.26067961165,867.194174757282,1178.17475728155,1155.37669902913,449.159223300971,417.36213592233,836.679611650486,897.708737864078,0
1344,0.267237373315123,0.0271254791612366,0.251953532019995,-1.34690140051071,-0.0114807537789111,-0.0114807537784699,,-0.288794339456976,-0.342754252377186,0.480354252899804,1.10869286446938,0.480354252900998,-0.81073981809782,-0.318877836118053,,-1.0557899892305,,-1.0208257684024,0.0023941509460654,0.405721789370516,0.00239415094681943,-0.644117389039802,0.291348586570537,-0.462944156301978,-1.29029943913963,-0.588184156026154,,,-1.28194164343298,-0.798800850311762,-0.563982649497389,0.599110558957092,-0.0699642698093971,-0.326952832803383,-0.94182657066569,-0.744497453352556,-2.24468277351927,0.617734052238659,0.617734052237117,0.070248125974186,-0.462003672072473,,,1.0954285323609,-0.119823488051358,-1.25787723896485,0.52629806063927,0.526298060638001,-0.549438962361181,0.549438962361092,-0.342655479954759,5.63200000000006,102,1171.19176961443,437.518329808402,905.116538517289,1179.3082226439,1163.07531658497,452.655787476281,422.380872140523,876.38330170778,933.849775326797,0
1344.1024,0.265588398179589,0.0263421468745216,0.250186140551559,-1.3339472092157,-0.0118591639706333,-0.0118591639702066,,-0.281849081533564,-0.342394385022486,0.477073693144126,1.09963385205246,0.477073693145325,-0.817113326532141,-0.315070089404914,,-1.06438548596559,,-1.02499439743015,0.00421310764776008,0.401333530439178,0.00421310764849931,-0.652905105654922,0.301350444544142,-0.463907772742731,-1.2724055130993,-0.58102500196118,,,-1.2767001266175,-0.785239281372329,-0.567463041541018,0.608222886435844,-0.0667391361774821,-0.333865103298193,-0.938828185652762,-0.749265684326512,-2.20891005062206,0.630687851804233,0.630687851802644,0.0747329857989794,-0.460347121810259,,,1.10542553513759,-0.0980947206722986,-1.23043799366379,0.546302211012097,0.546302211010806,-0.544206372530054,0.544206372529984,-0.316189544693148,5.73440000000005,102,1132.56940244176,458.050943660394,904.810007840502,1140.80842293907,1124.33038194444,454.343727598566,461.758159722222,891.507168458781,918.112847222222,0.156862745098039
1344.2048,0.26327808700406,0.0253630242608635,0.247750801701398,-1.32082580135152,-0.012926249734568,-0.0129262497341593,,-0.274858035396049,-0.342142569949629,0.472530454438045,1.09043975961915,0.472530454439245,-0.823265706025916,-0.311021804588532,,-1.07237505206216,,-1.02859768535768,0.00614140115373007,0.396871953160058,0.00614140115445116,-0.661345871727793,0.311251603563457,-0.464572086824895,-1.25415568871255,-0.57347769982784,,,-1.27119339937395,-0.771059352297143,-0.570294873756738,0.617421484403776,-0.0629100310543905,-0.340174361271775,-0.935422533710942,-0.753297638306074,-2.17234158703921,0.644189345511232,0.644189345509593,0.0793596864459609,-0.458533251342531,,,1.11534914445333,-0.0767669250667652,-1.20332033890705,0.566225657448721,0.566225657447412,-0.538612709113437,0.538612709113375,-0.289711629828734,5.83680000000004,103,1061.53293010753,485.032392473118,877.009408602151,1063.47419354839,1059.59166666667,448.906451612903,521.158333333333,888.935483870968,865.083333333334,0.689320388349515
1344.3072,0.260299648371971,0.0241707476513626,0.244635353879029,-1.30756892236658,-0.0146932957901424,-0.0146932957897505,,-0.267838380854624,-0.342004306118105,0.466717424973924,1.08112638590117,0.466717424975123,-0.829192833392707,-0.306736853076684,,-1.07974189041715,,-1.03162910791031,0.008173155949333,0.392328580431461,0.0081731559500361,-0.669436685776844,0.321045544949587,-0.464939524644025,-1.23557988676328,-0.565563256734616,,,-1.26544841507447,-0.75628106579015,-0.572461821127167,0.626712303677307,-0.0584591995882038,-0.345871684663658,-0.931627923796174,-0.756594075362979,-2.13503030223987,0.658209896190283,0.658209896188602,0.084123834842607,-0.456573512363158,,,1.12521080467257,-0.0558612707466009,-1.17658252891054,0.586056061018134,0.586056061016802,-0.532662120133792,0.532662120133736,-0.263255244895723,5.93920000000003,102,993.074447541113,488.147771386781,873.438952798862,989.535884461311,996.613010620915,440.312597512123,535.982945261438,893.968796120599,852.909109477124,0
1344.4096,0.256647842672212,0.0227493109433079,0.240829512994924,-1.29420728920572,-0.0171696379725437,-0.0171696379721685,,-0.26080639556658,-0.341983595669539,0.459630201549745,1.07170920641703,0.459630201550944,-0.83488965552889,-0.302218907505995,,-1.08646867490026,,-1.03408146942857,0.0103018790519136,0.387695230319179,0.0103018790526011,-0.677174451765495,0.330725903494714,-0.465012270062328,-1.21670764360462,-0.557302605849368,,,-1.25949153459346,-0.740924908312057,-0.573948594621027,0.636100929737238,-0.0533700053417749,-0.350948662904518,-0.927462471173318,-0.759156121902775,-2.09702981034361,0.672718848236529,0.672718848234801,0.0890205488946841,-0.454479864008908,,,1.13501915531082,-0.0353995379662056,-1.15028194914082,0.605780209781569,0.605780209780211,-0.526358199216665,0.526358199216617,-0.236855158087984,6.04160000000002,103,973.708252427184,406.519417475728,980.126213592233,980.316504854369,967.1,443.599029126214,369.439805825243,944.174757281553,1016.07766990291,0
1344.512,0.252319069399375,0.0210841155467051,0.236324968956966,-1.28077043178365,-0.0203626367893434,-0.0203626367889839,,-0.25377745066469,-0.342082907189913,0.451267238129961,1.06220333305955,0.451267238131156,-0.840350230863808,-0.297471477725311,,-1.09253763739128,,-1.03594699238328,0.0125203968721377,0.38296400846799,0.0125203968728111,-0.684555857010161,0.340286310344953,-0.464792267444785,-1.19756805707621,-0.548716575813998,,,-1.25334846500196,-0.725011840309181,-0.574741002427725,0.645592524941454,-0.0476270208412131,-0.355397469358639,-0.922944117081375,-0.760985345103632,-2.05839440437042,0.687683588433188,0.687683588431422,0.0940445004644914,-0.452264765856118,,,1.14477986703346,-0.0154040423304879,-1.12447497470743,0.625384055270942,0.62538405526956,-0.519703995528202,0.519703995528161,-0.210547335562215,6.14400000000001,102,972.397058823529,415.424509803922,959,985.944117647059,958.85,452.932352941177,377.916666666667,915.529411764706,1002.47058823529,0
1344.6144,0.247311446656573,0.0191619903980371,0.231115464751252,-1.26728657051703,-0.0242776707971237,-0.0242776707967782,,-0.246766008616884,-0.342303138209513,0.44162999491272,1.05262347305729,0.441629994913919,-0.845567771784205,-0.292497952221218,,-1.09793065546189,,-1.03721741187315,0.014820778482276,0.378127309506091,0.0148207784829402,-0.691577256819404,0.349720235060811,-0.464281232667382,-1.1781897770193,-0.539825880004388,,,-1.24704421046827,-0.708563332766702,-0.574826038881333,0.655191752453867,-0.0412161537696114,-0.359210948647616,-0.918090666821167,-0.762083849534388,-2.01917906411307,0.703069590284021,0.703069590282215,0.0991899580549683,-0.449941168304223,,,1.15449549147175,0.00410242343623167,-1.09921685139422,0.644852766378873,0.644852766377468,-0.512702035097153,0.512702035097122,-0.184368895108415,6.24639999999999,102,910.847058823529,476.162254901961,958.343137254902,922.999019607843,898.695098039216,496.775490196079,455.549019607843,909.264705882353,1007.42156862745,0
1344.7168,0.24162488289931,0.0169711849681968,0.22519685915307,-1.2537825263929,-0.0289181480204217,-0.0289181480200916,,-0.23978562342468,-0.342643580247706,0.430723082353824,1.04298388853473,0.430723082355021,-0.850534689083474,-0.28730164756726,,-1.10262934100557,,-1.03788407848171,0.0171942533333249,0.373177832738617,0.0171942533339781,-0.698234573348835,0.359020830380056,-0.463480677652931,-1.15860102898638,-0.530651124122063,,,-1.24060303843102,-0.691601437906623,-0.574191993347794,0.664902684723918,-0.0341248003914691,-0.36238271450647,-0.912919846417058,-0.762454392121116,-1.9794394902507,0.718840450695995,0.718840450694149,0.104450831272145,-0.447522507997351,,,1.16416532996945,0.0230966375862174,-1.07456159953447,0.664170810967144,0.664170810965714,-0.50535437590379,0.505354375903768,-0.158358056048471,6.34879999999998,103,798.072330097087,578.822815533981,971.174757281553,804.896116504854,791.24854368932,577.885436893204,579.760194174757,910.174757281554,1032.17475728155,0
1344.8192,0.235261140883776,0.0145013503408415,0.218567178241447,-1.24028364396664,-0.0342855271770469,-0.034285527176729,,-0.232848942351403,-0.343101893169135,0.418554391210317,1.03329835865223,0.418554391211512,-0.855242640967116,-0.28188586355721,,-1.10661512995977,,-1.03793806817267,0.0196311400879727,0.368108606157107,0.019631140088617,-0.70452321173159,0.368180788239729,-0.462391944263965,-1.13882964125258,-0.521212819178342,,,-1.23404845566052,-0.674148859663458,-0.572828559524494,0.674728708743642,-0.0263420015003926,-0.364907247596733,-0.907449366844663,-0.762100500698395,-1.93923214939623,0.734957935712717,0.734957935710848,0.109820720432973,-0.445022704832153,,,1.17378534658147,0.0415550025555563,-1.05056193246511,0.683322074249711,0.683322074248259,-0.497662724487148,0.497662724487129,-0.13255406491385,6.45119999999997,102,803.464215686275,581.070098039216,979.696078431373,810.28137254902,796.647058823529,583.117647058824,579.022549019608,916.392156862745,1043,0
1344.9216,0.228223894479992,0.0117435231363454,0.211226661419488,-1.22681370895581,-0.0403793414309915,-0.0403793414306812,,-0.225967709346388,-0.343674093696634,0.405135203686148,1.02358014584145,0.405135203687343,-0.859682588986903,-0.27625393944612,,-1.10986937358108,,-1.03737029515624,0.0221208013392749,0.362913008507579,0.0221208013399092,-0.710437995984401,0.377192218627777,-0.461016240078343,-1.11890305072351,-0.511531387254543,,,-1.22740318655732,-0.65622899472008,-0.570726929302931,0.6846724393141,-0.0178585799687967,-0.366779984333571,-0.901696982948598,-0.761026581952233,-1.89861430991517,0.7513820478254,0.751382047823499,0.115292974536914,-0.442456151809566,,,1.18334815823189,0.0594536173303502,-1.027269178606,0.702290012148399,0.702290012146924,-0.489628629884995,0.489628629884984,-0.106997086277693,6.55359999999996,102,954.887745098039,434.771078431373,952.779411764706,961.313725490196,948.461764705882,454.58137254902,414.960784313726,901.029411764706,1004.52941176471,0
1345.024,0.220518779706708,0.00869011428744255,0.203177803865047,-1.2133948599802,-0.0471972249512619,-0.0471972249509536,,-0.219152772847855,-0.344354557144592,0.390480289383978,1.01384196614921,0.39048028938517,-0.86384486088512,-0.270409308794474,,-1.11237343024769,,-1.036171623363,0.0246516268788025,0.357584783090984,0.0246516268794219,-0.715973126231419,0.386046559264402,-0.459354670670867,-1.09884829152327,-0.501627159772939,,,-1.22068915125475,-0.63786594641691,-0.567879874096552,0.694735639075923,-0.00866726318283803,-0.367997393939278,-0.89568054309962,-0.75923801436064,-1.85764406154694,0.768071114735629,0.768071114733707,0.120860754305365,-0.439837690045933,,,1.19284311004069,0.0767683773855015,-1.00473320208324,0.721057825003816,0.721057825002318,-0.481253742313806,0.481253742313797,-0.0817280672839455,6.65599999999995,103,974.93932038835,421.582524271845,898.538834951456,990.606796116505,959.271844660194,442.635922330097,400.529126213592,853.941747572816,943.135922330097,0
1345.1264,0.212153440241518,0.00533489300991446,0.194425392306862,-1.20004751195102,-0.0547349471989811,-0.054734947198675,,-0.212414101426424,-0.34513602725016,0.374607994281571,1.00409596281606,0.374607994282768,-0.867719217861575,-0.264355554006668,,-1.11410875507037,,-1.03433297349954,0.0272110396107578,0.352118043076615,0.0272110396113613,-0.721122155272006,0.394734516635037,-0.457408265725965,-1.07869199412763,-0.491520379297637,,,-1.21392744686305,-0.619084542441829,-0.564281832085575,0.704919133548562,0.00123718617332312,-0.368557046183893,-0.889418034924691,-0.756741230894646,-1.81638033103269,0.784981888691925,0.784981888689992,0.126517087845074,-0.437182563423525,,,1.20225641536348,0.093475103795293,-0.98300232706221,0.739608632021536,0.739608632020014,-0.472540101671694,0.472540101671687,-0.056788603288358,6.75840000000017,102,975.778431372549,415.89068627451,846.960784313726,992.810784313725,958.746078431373,441.575490196078,390.205882352941,803.558823529412,890.362745098039,0
1345.2288,0.203137565759469,0.00167295788020436,0.18497652983798,-1.18679030726278,-0.062986456385817,-0.0629864563855139,,-0.205760808090028,-0.346009630163521,0.357540326590572,0.994353683828696,0.357540326591773,-0.871294923964099,-0.258096462922354,,-1.11505698603286,,-1.03184542529333,0.0297855211834172,0.34650727212173,0.0297855211840027,-0.725877983086529,0.403246037822454,-0.455177997896779,-1.05846041601841,-0.481231214097616,,,-1.20713833554038,-0.599910381873989,-0.559929014584638,0.715222713010841,0.0118578143567801,-0.368457673106618,-0.882927632886679,-0.75354379720261,-1.77488291014444,0.80206964513421,0.802069645132275,0.132254907301645,-0.434506350687175,,,1.21157133541413,0.109549695319727,-0.96212327422789,0.75792563278194,0.757925632780398,-0.463490419175428,0.463490419175426,-0.0322208292919123,6.86080000000015,103,973.497572815534,411.323786407767,818.203883495146,989.21067961165,957.784466019417,436.958252427185,385.68932038835,774.873786407767,861.533980582524,0
1345.3312,0.19348292066117,-0.00229930203819493,0.174840648568554,-1.17364009356408,-0.0719439268898985,-0.0719439268895971,,-0.199201180593607,-0.346964892785201,0.339303034675573,0.984626065468117,0.339303034676778,-0.874560816681088,-0.251636087556362,,-1.1152000272598,,-1.02870031534079,0.03236065961029,0.340747326910349,0.032360659610861,-0.73023287098672,0.411570316312403,-0.452664793503717,-1.03817949718107,-0.470779783434553,,,-1.20034123898929,-0.580369906694822,-0.554819524194816,0.725645027015664,0.0231953059152297,-0.367699223027634,-0.876227745682311,-0.749654482787624,-1.73321249880614,0.819288279634399,0.819288279632468,0.138067063854028,-0.431824875531398,,,1.22076837863742,0.124968290471943,-0.94214111056856,0.775992252752273,0.775992252750708,-0.454108329229204,0.454108329229207,-0.00806734075651159,6.96320000000014,102,974.04362745098,396.622058823529,813.318627450981,988.654901960784,959.432352941177,413.711764705882,379.532352941177,769.196078431373,857.441176470588,0
1345.4336,0.18320336081745,-0.00658424375125915,0.164029512200789,-1.16061191169647,-0.0815978016238227,-0.081597801623521,,-0.192742713408692,-0.347989768720379,0.319925665840341,0.974923421591119,0.319925665841553,-0.877505378004136,-0.244978801092402,,-1.11452012992628,,-1.02488932884532,0.0349212189640988,0.334833448715179,0.0349212189646589,-0.73417847655682,0.419695834913927,-0.449869533567102,-1.01787491352631,-0.46018618130244,,,-1.19355473460352,-0.560490468351399,-0.548953459986496,0.736183489084413,0.0352478308233594,-0.366282898176057,-0.869337052047358,-0.745083311927761,-1.69143074958652,0.836590413751494,0.836590413749565,0.14394632637187,-0.429154096221523,,,1.22982550123646,0.139707425920074,-0.923099204763061,0.793792277754237,0.793792277752651,-0.444398609278563,0.444398609278575,0.0156288674340809,7.06560000000013,103,972.147572815534,399.084466019418,834.038834951456,986.104854368932,958.190291262136,413.254368932039,384.914563106796,786.194174757282,881.883495145631,0
1345.536,0.172314837545143,-0.0111829931049135,0.152557211774054,-1.14771897662152,-0.0919368235046961,-0.0919368235043979,,-0.18639213743831,-0.349070675212125,0.299441596536811,0.965255435231391,0.299441596538029,-0.880116805585803,-0.238129347815863,,-1.11299997216428,,-1.02040458331723,0.0374512243500714,0.328761284786744,0.0374512243506209,-0.737705907274486,0.427610444486796,-0.446793043969928,-0.997572104669286,-0.449470486041094,,,-1.18679654812779,-0.540300361458199,-0.542332988094102,0.746834206543595,0.0480109377013264,-0.364211166914658,-0.862274513074287,-0.739841580547343,-1.6496002946191,0.853927521172608,0.853927521170685,0.149885375762592,-0.426509981825432,,,1.23871829603144,0.153744185140081,-0.90503917812227,0.81130998257387,0.811309982572269,-0.434367378168617,0.434367378168638,0.0388244582814008,7.16800000000012,102,972.884803921569,410.330392156863,872.485294117647,987.769607843137,958,435.414705882353,385.246078431373,821.382352941177,923.588235294118,0
1345.6384,0.160835391178417,-0.0160954550230884,0.14044015629344,-1.13497264934329,-0.102948060146385,-0.102948060146085,,-0.180155445550339,-0.350192540661836,0.277888034919857,0.955631148834995,0.277888034921087,-0.882383083971332,-0.231092884243101,,-1.11062274029837,,-1.01523870517145,0.0399340518503196,0.322526915498213,0.0399340518508624,-0.740805786856357,0.43530146889148,-0.443436076590248,-0.97729627825235,-0.438652755245394,,,-1.18008354311631,-0.519828824851594,-0.534962380526067,0.757591934442252,0.0614774900390338,-0.361487750192432,-0.855059361420863,-0.733941838889408,-1.60778474686376,0.871250073337137,0.871250073335224,0.155876808837012,-0.423908390105106,,,1.24742016430096,0.167056336461766,-0.888000846083054,0.828530252301497,0.82853025229988,-0.4240222784001,0.424022278400127,0.0614758170948112,7.27040000000011,102,962.148456257807,404.805105744803,910.038529481943,972.224131907308,952.072780608306,408.369953654189,401.240257835418,860.959643493761,959.117415470125,0
1345.7408,0.148785137112788,-0.0213203245759066,0.127697056238704,-1.12238241513056,-0.114616932100904,-0.114616932100602,,-0.174037914440488,-0.351338858243555,0.255306004970045,0.946058951559528,0.255306004971282,-0.884292055008522,-0.223875014269993,,-1.10737221212178,,-1.00938490115741,0.0423525139744229,0.316126888827698,0.0423525139749528,-0.743468327164444,0.442755818587975,-0.439799288983258,-0.957072416269278,-0.427753017272473,,,-1.17343171301471,-0.499106037896574,-0.526848044835691,0.768450041200418,0.0756376180327804,-0.358117590858375,-0.847711079422032,-0.727397853490879,-1.56604868458656,0.888507691227153,0.888507691225247,0.161913155634984,-0.421364958771337,,,1.25590246316994,0.179622454820354,-0.872022152963953,0.845438688246882,0.845438688245246,-0.41337263425524,0.413372634255277,0.0835391219014819,7.3728000000001,103,927.792261989979,428.437451682176,890.268647100931,930.849090909091,924.735433070866,391.765454545455,465.109448818898,882.072727272727,898.464566929134,0.640776699029126
1345.8432,0.136186243286055,-0.0268551090751488,0.114348895491693,-1.10995588344495,-0.126927249246031,-0.126927249245727,,-0.168044124280072,-0.35249174199725,0.231740318219355,0.936546563980351,0.231740318220603,-0.88583148671852,-0.216481821126955,,-1.10323284087551,,-1.00283702425616,0.0446889304124897,0.30955826977162,0.0446889304130126,-0.745683403136122,0.449960098085228,-0.435883232912142,-0.936925303086305,-0.416791268215058,,,-1.16685618038465,-0.478163135817926,-0.517998560833101,0.779400478869045,0.0904786676112686,-0.354106815090333,-0.840249375227631,-0.720224561135204,-1.52445763150925,0.905649290221165,0.90564929021927,0.167986899787799,-0.418895007883663,,,1.26413462425863,0.191422019578249,-0.857139105157127,0.862021688614688,0.862021688613034,-0.402429570734047,0.402429570734091,0.104970408298022,7.47520000000009,102,890.286387918088,452.16167789521,864.350314399203,885.525454545455,895.047321290721,370.967272727273,533.356083063147,899.963636363636,828.736992434769,0.0784313725490196
1345.9456,0.123062894673847,-0.0326961576869932,0.100418888880112,-1.0976988085266,-0.139861250039345,-0.139861250039042,,-0.162177975805587,-0.353631986364374,0.207239529237473,0.92710102073973,0.207239529238725,-0.886989141861257,-0.208919894796291,,-1.09818983828291,,-0.995589631502477,0.0469251740075694,0.302818710003448,0.046925174008089,-0.747440633686967,0.456900706282067,-0.431688355883809,-0.916879568032012,-0.405787470631312,,,-1.16037120201207,-0.457032238035399,-0.508424717815865,0.790433763907058,0.105985156127691,-0.34946268809707,-0.832694153666444,-0.712438015139336,-1.4830780311529,0.922623216112314,0.922623216110428,0.174090486143854,-0.416513443560833,,,1.2720842568006,0.202435486131865,-0.843385702386189,0.878266499477974,0.878266499476297,-0.391206083220692,0.391206083220747,0.125725622939168,7.57760000000008,103,852.338280670785,374.202238305384,976.982206531333,863.259085613416,841.417475728155,389.706418358341,358.698058252427,912.372180052957,1041.59223300971,0
1346.048,0.109441241486109,-0.0388386845157695,0.0859324271805819,-1.08561511322631,-0.153399633976087,-0.153399633975785,,-0.156442702122291,-0.354739133785329,0.18185586469616,0.91772865085107,0.181855864697416,-0.887752848702406,-0.20119635012995,,-1.09222925654521,,-0.987638031236512,0.0490426926381231,0.295906537134746,0.0490426926386398,-0.74872947306888,0.463563942252975,-0.427215009563549,-0.896959714465051,-0.394761540632245,,,-1.1539901747099,-0.43574645787191,-0.498139528930839,0.801538982673132,0.122138763983841,-0.344193558045923,-0.825065469339516,-0.704055312562109,-1.44197719772973,0.939377382311308,0.939377382309431,0.180216306970475,-0.414234656385762,,,1.27971725610526,0.212644328989869,-0.830793858531294,0.894161239179466,0.894161239177761,-0.379717058292975,0.379717058293045,0.145760675093241,7.68000000000006,102,853.090196078431,381.31568627451,1010.11274509804,877.007843137255,829.172549019608,410.370588235294,352.260784313726,927.06862745098,1093.1568627451,0
1346.1504,0.0953493322051653,-0.045276771104858,0.0709170154700386,-1.07370689442577,-0.167521581041352,-0.167521581041052,,-0.15084087348773,-0.355791555491486,0.155645118642165,0.908435055314593,0.155645118643422,-0.888110575681917,-0.193318831249155,,-1.08533807077199,,-0.97897831849265,0.0510225247506755,0.28882085686804,0.0510225247511914,-0.749539315399783,0.46993613202946,-0.422463454301885,-0.877190108050689,-0.383733310334081,,,-1.14772563672504,-0.414339860269056,-0.487158201712265,0.812703832668796,0.13891838727185,-0.338308778964732,-0.817383450576971,-0.695094488587455,-1.40122322186718,0.955859425232258,0.955859425230391,0.186356672977976,-0.412072414283818,,,1.28699792770818,0.222031055364629,-0.819393300248426,0.909694902080695,0.909694902078968,-0.367979251017695,0.367979251017782,0.165031505105798,7.78240000000005,102,853.199509803922,370.772549019608,1038.07843137255,876.979411764706,829.419607843137,384.78137254902,356.763725490196,939.696078431373,1136.46078431373,0
1346.2528,0.0808170374177873,-0.0520033465527324,0.0554022108511066,-1.06197440125585,-0.182204762169126,-0.182204762168829,,-0.145374397428109,-0.356766547095262,0.128666518058922,0.899225082811263,0.128666518060181,-0.888050509530107,-0.185295502285813,,-1.07750426151061,,-0.969607398901022,0.0528453300435202,0.281561656535392,0.052845330044038,-0.749859609501671,0.476003780920242,-0.417433852530984,-0.857594921402591,-0.37272246525384,,,-1.14158926391055,-0.392847360639039,-0.475498066887645,0.823914694747755,0.156300246441793,-0.331818608973897,-0.80966819563016,-0.685574375468589,-1.36088482291651,0.972016892843829,0.972016892841973,0.192503787694682,-0.410039757586196,,,1.29388912665239,0.230579201052144,-0.809211437928919,0.924857344186896,0.924857344185149,-0.356011222503983,0.356011222504084,0.183494185959233,7.88480000000004,103,949.28640776699,462.905825242719,1075.56796116505,968.480582524272,930.092233009709,483.904854368932,441.906796116505,974.300970873786,1176.83495145631,0
1346.3552,0.0658759713967578,-0.0590101581377938,0.0394195614124328,-1.05041600050463,-0.197425352390576,-0.197425352390278,,-0.140044518593603,-0.357640435585562,0.100982573091435,0.89010280514825,0.100982573092695,-0.887561136098433,-0.177135030288041,,-1.06871689452177,,-0.959523004446501,0.054491440944728,0.274129895874675,0.0544914409452434,-0.749679975562295,0.481753739593679,-0.412126251982537,-0.83819806155539,-0.361748472500265,,,-1.13559186517195,-0.371304593501456,-0.463178492664789,0.835156715020101,0.17425801373305,-0.324734092539169,-0.801939657118548,-0.675514441505091,-1.32103116293476,0.987797466267245,0.987797466265406,0.198649740553795,-0.408148910123466,,,1.30035240589964,0.238273327405366,-0.800273216633804,0.939639245420858,0.939639245419092,-0.343833237610487,0.343833237610604,0.201105058764842,7.98720000000003,102,967.130392156863,474.413725490196,1100.32843137255,982.282352941176,951.978431372549,489.266666666667,459.560784313726,1007.37254901961,1193.28431372549,0
1346.4576,0.0505594134936486,-0.0662877475428226,0.0230025430837789,-1.03902815521035,-0.213158054632614,-0.213158054632319,,-0.134851820452877,-0.358388693008742,0.07265892379397,0.881071493681203,0.0726589237952294,-0.88663132563619,-0.168846567433103,,-1.05896619622646,,-0.948723706586162,0.0559409237463799,0.266527571579606,0.0559409237468964,-0.748990315378078,0.487173364732854,-0.406540566533769,-0.819023111908576,-0.350830518689401,,,-1.12974338246813,-0.34974778961006,-0.450220813504142,0.846413874846201,0.192762920373852,-0.317066943473244,-0.794217532259635,-0.664934633461579,-1.28173164907871,1.00314919642703,1.0031491964252,0.204786518683688,-0.40641121633599,,,1.30634816641205,0.245099030397433,-0.792600963498323,0.954032040919436,0.954032040917655,-0.331467119723383,0.331467119723516,0.217820887057701,8.08960000000002,103,969.865048543689,489.636893203883,1095.47572815534,984.317475728155,955.412621359223,512.196116504854,467.077669902913,1009.42718446602,1181.52427184466,0
1346.56,0.034902225358055,-0.0738254376010349,0.0061864890688621,-1.02780543066808,-0.22937613286889,-0.229376132868598,,-0.129796227582627,-0.358986055111064,0.0437641823426371,0.872133596475912,0.0437641823438931,-0.885250424773047,-0.160439734829484,,-1.04824362458266,,-0.937208929631663,0.057173636161837,0.258757749344559,0.0571736361623525,-0.747780910249057,0.492250659184896,-0.400676561428983,-0.80009329836089,-0.339987463009729,,,-1.12405289643955,-0.328213676894043,-0.436648279491349,0.857669043091334,0.211783834468522,-0.308829439275161,-0.786521163753532,-0.653855234265195,-1.24305574038311,1.01802073773069,1.01802073772889,0.210906028505248,-0.404837103521497,,,1.31183580622122,0.251042965881135,-0.78621424514057,0.968027825517714,0.968027825515916,-0.318936064989609,0.318936064989758,0.233599014586204,8.19200000000001,102,969.419117647059,487.286274509804,1072.16666666667,984.85,953.988235294118,503.838235294118,470.73431372549,993.107843137255,1151.22549019608,0
1346.6624,0.0189407582286199,-0.0816113224650472,-0.0109914909162917,-1.01674052045017,-0.246051446929117,-0.246051446928828,,-0.124877005786336,-0.359406647191129,0.0143697587008436,0.863290714534005,0.0143697587020933,-0.883408354661042,-0.151924603769114,,-1.03654193381417,,-0.924978961331234,0.0581692785792951,0.250824566252765,0.0581692785798099,-0.746042502850113,0.496974387718435,-0.394533842209446,-0.781431463063433,-0.329237794412657,,,-1.11852863346548,-0.306739388511403,-0.42248600617544,0.868904022340036,0.231287334413442,-0.30003432224296,-0.778869441210701,-0.6422967270426,-1.20507275467595,1.03236157925495,1.03236157925317,0.217000123090446,-0.403436061535572,,,1.3167738730389,0.256092892841492,-0.781129737813677,0.981619248921327,0.981619248919516,-0.306264429853592,0.306264429853752,0.248397521803283,8.2944,102,968.198039215686,492.712745098039,1052.30392156863,982.137254901961,954.258823529412,499.728431372549,485.697058823529,972.980392156863,1131.62745098039,0
1346.7648,0.0027127464504863,-0.0896322478313699,-0.0284926004736118,-1.00582427178141,-0.263154479692176,-0.263154479691891,,-0.120092757684395,-0.359624121537743,-0.0154503440299608,0.85454357479638,-0.0154503440287208,-0.881095712917428,-0.143311667051869,,-1.02385523189404,,-0.912034954249251,0.0589074525635228,0.242733208383418,0.0589074525640357,-0.743766366425387,0.501334178609888,-0.388111842024829,-0.763060016996438,-0.318599574996194,,,-1.11317796651995,-0.285362345037025,-0.407760894845701,0.880099608208543,0.251237816031751,-0.290694694269266,-0.771280686191021,-0.630279645638521,-1.16785165730254,1.04612228804137,1.0461222880396,0.223060639201039,-0.402216633572067,,,1.32112022989936,0.26023772818899,-0.777361103328083,0.994799417378976,0.99479941737715,-0.293477504636807,0.293477504636982,0.262175384432158,8.39679999999999,103,970.594660194175,495.211165048544,1014.97087378641,986.798058252427,954.391262135922,513.730097087379,476.692233009709,939.446601941748,1090.49514563107,0
1346.8672,-0.0137428137027159,-0.0978737733560636,-0.0462764535426966,-0.995045694390358,-0.280654353014686,-0.280654353014408,,-0.115441413215562,-0.35961180876148,-0.0456197701986122,0.84589199804368,-0.0456197701973828,-0.878303877670899,-0.134611794932556,,-1.01017903304902,,-0.898378914666623,0.0593677468952506,0.234489865703137,0.0593677468957611,-0.740944371119889,0.505320625473336,-0.381409805520813,-0.745000853702281,-0.308090359103511,,,-1.10800740372929,-0.264120090053444,-0.392501507628328,0.891235673385441,0.271597654423229,-0.280823899272371,-0.763772510947789,-0.617824401443804,-1.13146081379537,1.05925477123325,1.05925477123151,0.229079448469167,-0.401186417269235,,,1.32483224306791,0.26346759937063,-0.774918861775822,1.00756180385955,1.00756180385771,-0.280601268382492,0.280601268382679,0.274892640100346,8.49919999999997,102,1003.00980392157,478.945098039216,939.813725490196,1017.6862745098,988.333333333333,494.548039215686,463.342156862745,877.107843137255,1002.51960784314,0
1346.9696,-0.0303857981822322,-0.106320125052627,-0.0643011797392315,-0.984391958807553,-0.298518839114392,-0.298518839114117,,-0.110920216827682,-0.359342879377336,-0.07606008080448,0.837334860971403,-0.0760600808032606,-0.875025112928906,-0.125836176699414,,-0.995510309583702,,-0.884013683059904,0.0595298569286528,0.226101666643307,0.0595298569291602,-0.737569053405747,0.50892538946649,-0.37442677585996,-0.727275237085735,-0.297727095300392,,,-1.10302256571145,-0.24305009419311,-0.376737910515645,0.90229127059567,0.29232740557499,-0.270435402782629,-0.756361658007452,-0.604951098492486,-1.09596770663804,1.07171254111589,1.07171254111416,0.235048520974555,-0.400352079652238,,,1.32786698742699,0.265773885995413,-0.773810259458525,1.01990015465329,1.01990015465144,-0.267662107714693,0.267662107714892,0.286510562489359,8.60159999999996,102,1049.22681790205,453.520761892201,865.762815440077,1066.096773059,1032.3568627451,475.160151235382,431.88137254902,814.34916029192,917.176470588235,0
1347.072,-0.0471750991741688,-0.114954155537767,-0.0825235413511214,-0.973848408975832,-0.316714378167988,-0.316714378167727,,-0.106525715529902,-0.358790508243988,-0.106691037194212,0.828870053658235,-0.106691037193,-0.871252675071561,-0.116996255461333,,-0.979847546750199,,-0.868942915270197,0.0593737247815913,0.217576596878059,0.0593737247820984,-0.733633683820168,0.512141285060524,-0.367161594447379,-0.709903697810264,-0.287526031014176,,,-1.09822815972339,-0.222189568663024,-0.360501514644846,0.913244736858214,0.313386010319011,-0.259542685893192,-0.749063839258823,-0.59167936121676,-1.06143863843809,1.08345095559654,1.08345095559483,0.240959994810741,-0.399719390293562,,,1.33018144286831,0.267149251057294,-0.774039139823403,1.03180837401753,1.03180837401567,-0.254686489465889,0.254686489466104,0.296991830853044,8.70399999999995,103,1093.5156689451,528.288902433715,721.049283817319,1051.16143497758,1135.86990291262,458.780717488789,597.797087378641,778.982062780269,663.116504854369,0.213592233009709
1347.1744,-0.0640687762273039,-0.123757322792252,-0.100899063190145,-0.963398609103938,-0.335206106019432,-0.33520610601918,,-0.102253753354978,-0.357928038035129,-0.137430889838913,0.820494435842289,-0.137430889837712,-0.866980921559116,-0.108103664966751,,-0.963190803142677,,-0.853171071952252,0.0588796845415786,0.208923402195729,0.0588796845420865,-0.729132321108171,0.514962331729153,-0.359612915689953,-0.692905962075277,-0.277502635602587,,,-1.09362795876035,-0.201575317665185,-0.34382493791361,0.924073784227572,0.334730972050046,-0.248159163030263,-0.741893588646144,-0.578028190096143,-1.02793844802995,1.09442742094271,1.09442742094102,0.24680624661288,-0.399293275864169,,,1.33173265939867,0.267587669000843,-0.775605827203903,1.04328037402756,1.0432803740257,-0.241700595596885,0.241700595597111,0.30630068164038,8.80640000000017,102,1078.70637914359,531.890934669832,667.197221489493,1030.9029543656,1126.50980392157,443.54265365339,620.239215686275,750.512090037809,583.882352941176,0
1347.2768,-0.0810242136461631,-0.132709682594552,-0.119382172852918,-0.953024423171605,-0.353957886942648,-0.353957886942409,,-0.0980994762743098,-0.356729144511084,-0.16819667295296,0.812203796211725,-0.168196672951771,-0.862205423593631,-0.0991701721025147,,-0.945541777159842,,-0.83670341730204,0.0580286035126115,0.200151466984646,0.0580286035131179,-0.724059843508414,0.517383766730326,-0.351779230698553,-0.676300907057057,-0.267671542334229,,,-1.08922478735418,-0.181243624460431,-0.326741886802025,0.934755573534454,0.356318505960747,-0.236298118766403,-0.73486412839182,-0.564015840878199,-0.99553024899738,1.10460156736451,1.10460156736285,0.252579961898949,-0.399077894728266,,,1.3324779032971,0.267084460006939,-0.778507028667763,1.05430989548407,1.0543098954822,-0.228729948613088,0.22872994861332,0.314403040556495,8.90880000000016,103,929.433495145631,474.11359223301,788.703883495146,952.872815533981,905.994174757282,493.982524271845,454.244660194175,743.805825242719,833.601941747573,0
1347.3792,-0.0979982852175715,-0.141789881506187,-0.137926347829387,-0.942706108817642,-0.372932344226885,-0.372932344226659,,-0.0940573480289908,-0.355168008229709,-0.198904513050248,0.803992818103138,-0.198904513049062,-0.856923082159327,-0.090207621402285,,-0.926903876884874,,-0.819546021285483,0.0568020217744906,0.191270662348942,0.0568020217749943,-0.718411957211792,0.519402028108017,-0.343658891860731,-0.660106516478072,-0.258046496227802,,,-1.08502050904436,-0.161230140054559,-0.309287039596653,0.945266778989072,0.378103680926651,-0.223972650324184,-0.727987238080249,-0.549659710276831,-0.964275178033226,1.1139354182998,1.11393541829817,0.258274206224885,-0.399076721753747,,,1.33237481323108,0.265636330738336,-0.782735753731523,1.06489032799102,1.06489032798914,-0.215799065893262,0.2157990658935,0.321266645471408,9.01120000000014,102,904.166176470588,503.651960784314,801.46568627451,930.83431372549,877.498039215686,531.257843137255,476.046078431373,754.970588235294,847.960784313726,0
1347.4816,-0.11494752679002,-0.150975141214251,-0.156484266754866,-0.9324224066106,-0.392090886253297,-0.392090886253082,,-0.0901211743298705,-0.353219493612612,-0.229469958006285,0.795855054050872,-0.229469958005104,-0.851132243424688,-0.0812278746857325,,-0.907282288618959,,-0.801705757131105,0.0551823030026224,0.182291168979082,0.0551823030031253,-0.712185186546409,0.521014721673611,-0.335250131166442,-0.644339812635041,-0.248640292917705,,,-1.08101600900306,-0.141569745100413,-0.291495911298883,0.95558365520728,0.400040578438302,-0.211195603901304,-0.721273116596191,-0.534976212703043,-0.934232131167832,1.12239356884473,1.12239356884312,0.263882497728787,-0.39929262733372,,,1.3313815736188,0.263241408859908,-0.788281247362288,1.07501455987693,1.07501455987503,-0.202931165758373,0.202931165758613,0.326861172991027,9.11360000000013,103,902.235025341938,505.310907280722,813.546389511115,927.625568813459,876.844481870418,532.496750166753,478.12506439469,766.208293189061,860.884485833168,0
1347.584,-0.131828313942751,-0.160241237698842,-0.175007963495048,-0.922150621221655,-0.411393733703838,-0.411393733703635,,-0.0862841323519794,-0.350859331191602,-0.259808322132014,0.78778291076687,-0.259808322130832,-0.844832808481438,-0.0722427431124912,,-0.886684040138836,,-0.783190289709569,0.05315280841725,0.173223284318631,0.0531528084177533,-0.705376847001491,0.522220577455185,-0.326551068659422,-0.629016767270179,-0.239464706721761,,,-1.07721117031307,-0.12229638532436,-0.273404701353381,0.9656821084527,0.422082468836191,-0.197979502944171,-0.714730238744821,-0.519980647222088,-0.905457478848008,1.12994337639877,1.12994337639718,0.269398879768384,-0.399727938059594,,,1.32945709298402,0.259899261909555,-0.795128932683392,1.08467486501835,1.08467486501644,-0.190147911770419,0.190147911770665,0.331158371749036,9.21600000000012,102,908.453120943034,500.734450459573,811.955237056655,929.569847328244,887.336394557823,524.565839694657,476.90306122449,767.177480916031,856.732993197279,0.127450980392157
1347.6864,-0.148597039696103,-0.169562490700976,-0.193448984825788,-0.911866710276677,-0.430799958708787,-0.430799958708596,,-0.0825388057599625,-0.348064296230937,-0.289835032568223,0.779767645268006,-0.289835032567046,-0.838026334060113,-0.0632639167928073,,-0.865118057463069,,-0.764008058421899,0.0506980940353193,0.164077222476602,0.0506980940358238,-0.697985001937858,0.523019390718727,-0.317559716311804,-0.614152219371769,-0.23053042271609,,,-1.07360484972264,-0.10344291266831,-0.255050146962621,0.97553775999735,0.444181977522952,-0.184336478354912,-0.708365221929795,-0.504687071062698,-0.878004775882161,1.13655515264577,1.13655515264419,0.274817989569272,-0.400384476787523,,,1.32656118198668,0.255610908774758,-0.803260367069085,1.09386281007294,1.09386281007102,-0.177469160236681,0.177469160236926,0.334132194381549,9.31840000000011,102,920.2522173755,495.981256815703,797.505634314795,937.278244274809,903.22619047619,512.76965648855,479.192857142857,756.666030534351,838.345238095238,0.784313725490196
1347.7888,-0.165210289206137,-0.17891177910733,-0.211758554325934,-0.901545400299955,-0.450267544430322,-0.450267544430143,,-0.0788772300825573,-0.344812378400323,-0.319465964776165,0.771799372902608,-0.319465964774993,-0.830716123296873,-0.054302900291103,,-0.842595215900013,,-0.744168262988108,0.047804120233047,0.154862916148582,0.0478041202335517,-0.69000841079412,0.523411943561374,-0.308273989623689,-0.599759826073541,-0.221846990044426,,,-1.07019486115325,-0.0850409652899194,-0.236469402848319,0.985125987882813,0.466291214336328,-0.170278214829947,-0.702182719990883,-0.489108200612011,-0.851924492410272,1.14220233772569,1.14220233772412,0.280135114686571,-0.401263585775384,,,1.32265473694908,0.250378842037757,-0.812653220554392,1.10256916516208,1.10256916516015,-0.1649126897048,0.164912689705042,0.335758921358046,9.4208000000001,103,931.869396905727,495.046110757354,783.42439806279,945.753990958275,917.98480285318,508.591884680946,481.500336833763,745.301044986289,821.547751139291,0
1347.8912,-0.181625012602357,-0.188260586921656,-0.229887745147843,-0.891160334768085,-0.469753466976525,-0.469753466976359,,-0.0752909535437082,-0.341082940844771,-0.348617767191417,0.763867088529543,-0.348617767190247,-0.822907306615936,-0.0453709577153145,,-0.819128384774668,,-0.723680856876104,0.044458455317846,0.145589830111801,0.0444584553183547,-0.68144648131643,0.52339991255216,-0.29869173612153,-0.585852048511513,-0.213422800389732,,,-1.06697797090677,-0.0671208919298605,-0.217699948127466,0.994421944309386,0.488361863648749,-0.155815920753166,-0.696185349634393,-0.473255349160651,-0.827263777568306,1.14686164316335,1.14686164316181,0.285346229381418,-0.402366135738804,,,1.31769993531722,0.244207073133203,-0.823281283513475,1.11078382108697,1.11078382108503,-0.152493927752139,0.152493927752382,0.336017281783733,9.52320000000009,102,933.520588235294,520.482843137255,775.348039215686,955.794117647059,911.24705882353,535.01568627451,505.95,731.441176470588,819.254901960784,0
1347.9936,-0.197798698756472,-0.197579074327076,-0.247787662298366,-0.880684242120499,-0.489213797856644,-0.489213797856489,,-0.0717711140634041,-0.336856869562141,-0.377208184584963,0.75595870174154,-0.3772081845838,-0.814606911079102,-0.0364790646517897,,-0.794732461485349,,-0.702556545691846,0.0406504555818266,0.136266796129792,0.0406504555823392,-0.672299236361912,0.522985774905429,-0.288810781488166,-0.572440153088578,-0.205265081643152,,,-1.06394990359154,-0.0497116988137521,-0.198779502907242,1.0034005574866,0.510345255795752,-0.140960317186403,-0.690373642494478,-0.457138394063341,-0.80406624710674,1.15051316614741,1.15051316614589,0.290448013155919,-0.403692523671101,,,1.3116604544408,0.237101201152022,-0.835114504847192,1.11849574126002,1.11849574125807,-0.140225724397589,0.14022572439783,0.334888589438339,9.62560000000008,103,937.538834951456,535.903398058252,784.393203883495,964.891262135922,910.18640776699,550.052427184466,521.754368932039,742.679611650485,826.106796116505,0
1348.096,-0.213689551017505,-0.206836166362054,-0.265409632787796,-0.870089104581827,-0.508603826152982,-0.508603826152843,,-0.0683085280519837,-0.332116714138921,-0.405156389587542,0.748061085943056,-0.405156389586383,-0.80582391337772,-0.0276378617198412,,-0.76942438815491,,-0.680806783238069,0.0363714180078239,0.126901881434759,0.0363714180083406,-0.662567299520589,0.522172724868906,-0.278628987706191,-0.559534205308616,-0.19737989332863,,,-1.06110535668741,-0.03284099062696,-0.179745932643831,1.01203653084856,0.5321924470208,-0.125721633671812,-0.684746012215363,-0.440765757207025,-0.78237177786957,1.15314048860181,1.1531404886003,0.295437862239884,-0.405242662366065,,,1.304501734335,0.229068501000827,-0.848119056835254,1.12569298643233,1.12569298643038,-0.128118225432959,0.128118225433197,0.332356915267586,9.72800000000007,102,938.332843137255,542.078431372549,806.03431372549,967.252941176471,909.412745098039,557.794117647059,526.362745098039,764.519607843137,847.549019607843,0
1348.1984,-0.229256663740756,-0.215999657230398,-0.282705401898753,-0.859346317049158,-0.527878201767188,-0.527878201767061,,-0.0648937840190863,-0.326846818933379,-0.43238332420454,0.740160139951746,-0.432383324203382,-0.796569270293432,-0.0188576062272772,,-0.743223145366074,,-0.658443758281757,0.0316147139690662,0.117502300693712,0.0316147139695848,-0.652251894691586,0.52096460372984,-0.268144314742199,-0.547143050231172,-0.189772118033389,,,-1.05843802265076,-0.0165348960040494,-0.160637130550796,1.02030434671592,0.553854320892413,-0.110109601601068,-0.679298730719773,-0.42414438769435,-0.762216299622086,1.15473076982142,1.15473076981994,0.30031390085654,-0.407015961762564,,,1.29619129375602,0.220118028013383,-0.862257422303317,1.13236283150666,1.13236283150471,-0.116178866461187,0.116178866461418,0.328409300462937,9.83040000000005,102,938.350490196079,530.741176470588,828.117647058824,962.86568627451,913.835294117647,538.289215686275,523.193137254902,787.049019607843,869.186274509804,0
1348.3008,-0.244460197270043,-0.225036335685036,-0.299627335328996,-0.848426843455362,-0.546991100862743,-0.54699110086263,,-0.0615173358165937,-0.321033441681729,-0.458812044463488,0.732240859861384,-0.458812044462329,-0.786855923496544,-0.0101481230484848,,-0.71614972292331,,-0.635480371171487,0.0263759058138732,0.108074372619729,0.0263759058143971,-0.641354849397014,0.519365837728078,-0.257354879396917,-0.535274296390245,-0.182445455708679,,,-1.05594061908632,-0.000817996677739464,-0.141490888437657,1.02817827117476,0.57528170027813,-0.0941334473171001,-0.6740259166378,-0.407279750110698,-0.743631593045216,1.15527482811136,1.1552748281099,0.305074991758785,-0.409011302461161,,,1.28669907854077,0.210260738348078,-0.877488504570813,1.13849195805496,1.138491958053,-0.104412468682608,0.104412468682826,0.323035989415332,9.93280000000004,103,935.315048543689,533.854854368932,807.752427184466,959.039805825243,911.590291262136,546.15145631068,521.558252427185,765.26213592233,850.242718446602,0
1348.4032,-0.259261549548475,-0.233912137718131,-0.316128627704208,-0.837301387421767,-0.565896410524387,-0.565896410524285,,-0.0581695941879415,-0.314664856999479,-0.484368059492448,0.724287418616767,-0.484368059491292,-0.776698780765977,-0.00151875940943993,,-0.68822707341264,,-0.611930205930559,0.0206528340689409,0.0986235155335236,0.0206528340694699,-0.629878596005902,0.51738137702847,-0.246259010872992,-0.523934324766426,-0.175402432658139,,,-1.05360492862972,0.0142867120295598,-0.122344773134549,1.03563235348873,0.596425450926517,-0.0778018937634234,-0.668919542680326,-0.390175829535674,-0.726645114930213,1.15476720121111,1.15476720120966,0.309720741354417,-0.411227002356771,,,1.27599780565602,0.199509622277799,-0.893767764689083,1.14406668424548,1.14406668424353,-0.0928214004612663,0.0928214004614749,0.316230653110868,10.0352,102,937.949019607843,539.354901960784,770.950980392157,962.006862745098,913.891176470588,560.08137254902,518.628431372549,732.637254901961,809.264705882353,0
1348.5056,-0.27362352512351,-0.24259232446282,-0.332163517432446,-0.825940584183922,-0.584547924037358,-0.584547924037267,,-0.0548410164426095,-0.307731445585146,-0.508979663200997,0.716283250632089,-0.508979663199842,-0.766114678272999,0.00702165412055213,,-0.65948005450474,,-0.587807501830956,0.014445663782746,0.0891542738195775,0.0144456637832793,-0.617826173336779,0.515016636411538,-0.234855305241061,-0.513128326794966,-0.16864442791232,,,-1.0514218479933,0.0287578218021966,-0.103236011424974,1.04264042038234,0.617236574426804,-0.0611231736550536,-0.663969461125795,-0.372835155570288,-0.711279863404816,1.15320618407572,1.15320618407428,0.31425149089282,-0.413660770047274,,,1.26406327799953,0.187879842815496,-0.911047388741818,1.14907320212207,1.14907320212012,-0.0814057758697247,0.0814057758699229,0.307990583481397,10.1376,103,931.746841870327,537.698577167727,741.582133690436,953.05970315813,910.433980582524,555.369969869434,520.027184466019,708.271063497378,774.893203883495,0
1348.608,-0.287510503821632,-0.251041672586029,-0.347687505572552,-0.814315202555007,-0.602899534432632,-0.602899534432553,,-0.0515221934727364,-0.300225774180492,-0.532578264721716,0.708211137947055,-0.532578264720566,-0.755122328225101,0.0154648395567354,,-0.629935362509111,,-0.563127122098568,0.00775689484401239,0.0796703661616408,0.00775689484454504,-0.605201235422998,0.512277447968726,-0.22314267727027,-0.502860352691226,-0.162171706021645,,,-1.04938144158419,0.0425754941622188,-0.0842013660570494,1.04917607660787,0.637666312918506,-0.0441050457001011,-0.659163434910514,-0.355258831785856,-0.697554276073768,1.15059385861146,1.15059385861003,0.318668288290417,-0.416309633785648,,,1.25087466383329,0.175388869324911,-0.929276480483079,1.15349781235693,1.153497812355,-0.0701636739828135,0.0701636739830013,0.298316855669308,10.24,102,950.782054185452,509.549913329731,716.453764326483,969.207279693487,932.356828677417,515.079310344828,504.020516314634,684.185823754789,748.721704898176,0.0490196078431373
1348.7104,-0.300888608678504,-0.259224658418088,-0.362657571863689,-0.802396334165468,-0.620905413050846,-0.620905413050781,,-0.0482039339610496,-0.292142674170794,-0.55509872506709,0.700053293991485,-0.555098725065941,-0.743742255413633,0.0238031093752584,,-0.599621458366242,,-0.537904514902679,0.000591353746928824,0.0701747476580858,0.00059135374746461,-0.592008073297592,0.509170040621062,-0.211120403025151,-0.493133338734623,-0.15598343943829,,,-1.04747299387928,0.0557214636045377,-0.0652769751900522,1.0552127310321,0.657666301801189,-0.0267547975825259,-0.654487157156591,-0.337446547753063,-0.685482140920813,1.1469361424617,1.14693614246028,0.322972846529365,-0.419169842645794,,,1.23641474861175,0.162056595532749,-0.948401264524456,1.15732715221047,1.15732715220854,-0.0590913653026009,0.0590913653027776,0.28721446816906,10.3424,102,1008.50020266572,471.259665823459,695.653212325626,1022.74750957854,994.252895752896,477.796551724138,464.72277992278,665.818007662835,725.488416988417,0.568627450980392
1348.8128,-0.313725868325055,-0.267105621186925,-0.377032378505857,-0.790155551137724,-0.638520164739676,-0.638520164739626,,-0.0448773458776932,-0.283479324464863,-0.576479700499658,0.691791442542076,-0.576479700498509,-0.731996724776451,0.0320294088306338,,-0.568568487306445,,-0.512155663433696,-0.0070438186529617,0.0606696816032472,-0.00704381865242282,-0.57825165238243,0.505701057635777,-0.198788146201227,-0.483949090615719,-0.150077710171724,,,-1.04568505726593,0.0681790900622731,-0.0464981372668517,1.06072366362514,0.677188795985603,-0.00907922161873183,-0.649924248648599,-0.319396555983996,-0.6750725026282,1.14224288034746,1.14224288034605,0.327167501264364,-0.4222367475152,,,1.2206701759248,0.147905435705206,-0.968365281987882,1.1605484048867,1.16054840488478,-0.0481835279338578,0.0481835279340205,0.27469247225503,10.4448,103,1057.85373872366,444.236596874746,678.57891855699,1069.04332105792,1046.6641563894,457.864613324406,430.608580425085,650.734851021091,706.422986092889,0
1348.9152,-0.325992366903293,-0.274648907044797,-0.390772455987036,-0.777565033814773,-0.655698963722995,-0.655698963722957,,-0.0415339149952829,-0.274235336585067,-0.596663981270832,0.683406892529867,-0.596663981269684,-0.719909660529194,0.0401373600632843,,-0.536808192984691,,-0.48589702647295,-0.0151391813221485,0.051156817894961,-0.0151391813216066,-0.563937665844249,0.501877613165519,-0.186145967695549,-0.475308231338375,-0.144451497262384,,,-1.04400549679881,0.0799334525080077,-0.0278990534435977,1.06568212896616,0.696186956516915,0.00891543490641873,-0.645456240193336,-0.301105618907996,-0.666329564683787,1.13652797508788,1.13652797508649,0.331255179382805,-0.425504676082881,,,1.2036316901778,0.132960399959569,-0.989109571052587,1.16314947400986,1.16314947400796,-0.0374334346437172,0.0374334346438607,0.260764092999761,10.5472,102,1059.24803921569,452.552450980392,689.397058823529,1069.1637254902,1049.33235294118,470.920588235294,434.18431372549,661.21568627451,717.578431372549,0
1349.0176,-0.337660376263881,-0.281819011192432,-0.403840372169515,-0.764597690771924,-0.672397683979205,-0.672397683979177,,-0.0381655805526452,-0.264412833697146,-0.615598807537971,0.674880612613164,-0.615598807536827,-0.70750655764582,0.0481213006285811,,-0.50437382709032,,-0.459145476923572,-0.0236830161064901,0.0416372738829469,-0.0236830161059472,-0.549072601547473,0.497707375782919,-0.173194326437742,-0.46721014982385,-0.139100670510135,,,-1.04242153749333,0.090971441043715,-0.0095125660536871,1.07006147203804,0.714615148833829,0.0272235237018712,-0.64106256273715,-0.282568955704761,-0.659252607191422,1.12980952410941,1.12980952410802,0.335239385179775,-0.42896681890547,,,1.18529437398737,0.117249150118872,-1.01057284052816,1.16511911202998,1.16511911202809,-0.0268330966288412,0.0268330966289652,0.245446833919509,10.6496,102,1055.1796128271,441.385269590287,724.255578606111,1065.64313390885,1044.71609174534,453.206856053001,429.563683127572,688.522050458409,759.989106753813,0
1349.12,-0.348704470717389,-0.288580734040357,-0.416200890387051,-0.75122729305049,-0.688573033900823,-0.688573033900808,,-0.0347648067175279,-0.254016516124643,-0.633236151537889,0.666193310475955,-0.633236151536747,-0.694814386412738,0.0559763104646033,,-0.471300055218751,,-0.431918245656304,-0.0326613656721043,0.032111716948407,-0.0326613656715593,-0.53366381511101,0.493198659183947,-0.159934080693682,-0.459652980851879,-0.134020006093314,,,-1.0409198189053,0.101281809129076,0.00863007542152115,1.0738352343721,0.732429211366095,0.0458400309671707,-0.636720564538609,-0.263780218667863,-0.653835942057648,1.1221099195735,1.12210991957212,0.339124201522458,-0.432615140461205,,,1.16565785410852,0.100802029517155,-1.03269165118863,1.16644700524004,1.16644700523816,-0.016373364876154,0.0163733648762633,0.228762550464797,10.752,103,1035.17675810054,453.849812497367,759.991277967387,1045.3819112628,1024.97160493827,467.363822525597,440.335802469136,718.204778156997,801.777777777778,0.0679611650485437
1349.2224,-0.359101629976122,-0.294899352800428,-0.427821122150949,-0.737428626022543,-0.704182693382083,-0.704182693382082,,-0.0313246457998779,-0.24305371132863,-0.649532969664459,0.657325518929712,-0.649532969663325,-0.681861489294289,0.0636982283313,,-0.437622858587449,,-0.404232870647279,-0.0420580855123379,0.0225804537074724,-0.0420580855117898,-0.51771959930499,0.488360504289562,-0.146366492907246,-0.452633617768784,-0.129203221822936,,,-1.03948645653239,0.110855182020546,0.0264994205284494,1.07697724835942,0.749586692704536,0.064760588110239,-0.632405555350602,-0.244731504743728,-0.65006890976417,1.1134558902935,1.11345589029213,0.342914299713937,-0.436440323919701,,,1.14472644866021,0.0836520559068378,-1.05540061372338,1.16712383071495,1.16712383071308,-0.00604400521431456,0.00604400521440925,0.210737479433227,10.8544000000002,102,998.983726509502,456.867684500485,792.690604854001,1004.34692832765,993.620524691358,467.29385665529,446.441512345679,743.742320819113,841.638888888889,1
1349.3248,-0.368831335517322,-0.300740797461308,-0.438670675398371,-0.723177643988186,-0.719185445513002,-0.719185445513013,,-0.0278387906434303,-0.231534411945616,-0.664451435116712,0.648257686878173,-0.664451435115588,-0.668677469749817,0.0712836633462431,,-0.403379431234024,,-0.376107146792205,-0.0518549025781742,0.0130435289092608,-0.051854902577625,-0.501249243831063,0.483202746857966,-0.132493236635169,-0.446147735318989,-0.124643017928016,,,-1.03810710612478,0.119684047907056,0.044068017397212,1.07946173169737,0.766047083291787,0.0839814677072725,-0.628090864289289,-0.225413386871123,-0.647935903270775,1.10387849144769,1.10387849144632,0.346614957217256,-0.440431754928097,,,1.12250924766545,0.0658348725021803,-1.07863260022016,1.16714129935298,1.16714129935112,0.0041662394315095,-0.00416623943143193,0.191402228034753,10.9568000000002,103,963.218590143624,460.166104235469,825.939038735545,964.167735842805,962.269444444444,467.784986248716,452.547222222222,770.378077471089,881.5,0.135922330097087
1349.4272,-0.377875660485697,-0.306071817565209,-0.448721793699136,-0.70845160570269,-0.733541297522362,-0.733541297522382,,-0.0243016180438984,-0.219471307934329,-0.677959157780583,0.63897027255975,-0.677959157779468,-0.655293073947205,0.0787300063956463,,-0.368608072314814,,-0.3475590724867,-0.0620314715089825,0.00350083064396243,-0.0620314715084342,-0.484263083412846,0.477736070933309,-0.118316402962528,-0.440189795764786,-0.120331110057178,,,-1.03676702731125,0.127762765242409,0.0613106251140652,1.08126339330461,0.781772065642549,0.103499579685712,-0.623747899413922,-0.205814945939865,-0.647416398379483,1.09341306409845,1.09341306409708,0.350232082734431,-0.444577540769941,,,1.09902014010919,0.0473886589944922,-1.10231895764232,1.16649218941985,1.166492189418,0.0142696005601799,-0.0142696005601234,0.17079174282422,11.0592000000001,102,946.325426652142,485.537590777052,853.207516339869,957.908823529412,934.742029774873,501.999019607843,469.07616194626,799.352941176471,907.062091503268,0
1349.5296,-0.386219349077356,-0.310860134965116,-0.457949481072464,-0.693229178463447,-0.747211592586837,-0.747211592586867,,-0.0207082273972369,-0.206879815529558,-0.690029388494829,0.629443839001958,-0.690029388493728,-0.641740064637362,0.08603544263947,,-0.333348070938721,,-0.318606790315848,-0.0725654278282227,-0.00604780193160827,-0.0725654278276779,-0.466772531228477,0.471972048644748,-0.103838502617017,-0.434753030009854,-0.116258251175265,,,-1.03545114548058,0.135087598672288,0.0782044397246407,1.08235755192737,0.796725784602837,0.12331247578808,-0.619346207164073,-0.185923795248615,-0.648484979921215,1.08209917975296,1.0820991797516,0.35377224420728,-0.448864553446019,,,1.07427780178245,0.0283540052719022,-1.12638971418977,1.16517036742919,1.16517036742735,0.0242792589316976,-0.0242792589316644,0.148945272189845,11.1616000000001,103,944.52572815534,483.666990291262,877.888349514563,961.03786407767,928.01359223301,486.259223300971,481.074757281553,823.038834951456,932.73786407767,0
1349.632,-0.393849880795713,-0.315074592086314,-0.4663316115186,-0.677490520663692,-0.760159120163717,-0.760159120163755,,-0.0170544796220911,-0.193778099125504,-0.700641196046186,0.619659153746612,-0.700641196045098,-0.628051084976799,0.0931989614356909,,-0.297639581652338,,-0.289268523111703,-0.0834324499442951,-0.0156024673576505,-0.0834324499437513,-0.448790091518378,0.46592316157207,-0.0890624611208631,-0.429829414220827,-0.112414253170934,,,-1.0341441149698,0.141656760419756,0.0947293125500555,1.08272025664013,0.810875112421281,0.143418354918142,-0.614853542164037,-0.165726109135599,-0.651111374586839,1.06998056115492,1.06998056115356,0.357242699389268,-0.453278493746753,,,1.04830564199616,0.00877374931293433,-1.15077378057734,1.1631707867495,1.16317078674767,0.0342093513719377,-0.0342093513719269,0.125906313330486,11.2640000000001,102,946.802941176471,493.139705882353,902.769607843137,965.641176470588,927.964705882353,497.897058823529,488.382352941177,846.303921568627,959.235294117647,0
1349.7344,-0.400757517400921,-0.318685310830612,-0.473849026515971,-0.661217367534331,-0.772348231493342,-0.772348231493391,,-0.0133370422225143,-0.180187079860235,-0.70977960429961,0.609597295498897,-0.70977960429853,-0.614259512705011,0.100220356780417,,-0.261523494365876,,-0.259562512790139,-0.0946063441005731,-0.0251630856888957,-0.0946063441000299,-0.430329343537024,0.459602791823089,-0.0739916087339473,-0.425409673705177,-0.108788025773822,,,-1.03283038910891,0.147470417638744,0.110867931979377,1.08232839379349,0.824189873935473,0.16381605124381,-0.610235962858946,-0.145206679456871,-0.655260515927404,1.0571049556353,1.05710495563394,0.360651432664156,-0.457803985329696,,,1.02113169910824,-0.0113072210969673,-1.17539915714518,1.16048945030965,1.16048945030782,0.0440750111564273,-0.0440750111564421,0.101722520582699,11.3664000000001,102,947.291988138658,486.751016046323,903.476093394432,964.080948595655,930.503027681661,495.311446740859,478.190585351788,849.023582405935,957.92860438293,0
1349.8368,-0.40693533314404,-0.321663868607219,-0.480485623259793,-0.64439313631143,-0.783744960255617,-0.783744960255676,,-0.00955344555288967,-0.166130428712244,-0.717435685231142,0.599239770549378,-0.717435685230072,-0.600399307870501,0.107100213175162,,-0.225041304870226,,-0.22950696961254,-0.106059158439014,-0.0347292797340955,-0.106059158438472,-0.411404892745069,0.453025171234908,-0.0586296708811614,-0.42148332894785,-0.105367642551977,,,-1.03149430056818,0.152530644866885,0.126605953528343,1.08115977204111,0.836643013425685,0.184504993795529,-0.605457960937534,-0.124349013829334,-0.660892660854318,1.04352394843106,1.0435239484297,0.364007197572458,-0.462424704705072,,,0.992788487597636,-0.0318422028713603,-1.20019315645207,1.15712333127089,1.15712333126907,0.0538924322664514,-0.0538924322664943,0.0764455584951407,11.4688000000001,103,947.076748807631,458.519693958665,868.887281399046,957.927027027027,936.226470588235,464.27027027027,452.769117647059,819.621621621622,918.152941176471,0.970873786407767
1349.9392,-0.412379229330455,-0.323983485153549,-0.486228432401897,-0.62700304555814,-0.794317143661519,-0.79431714366159,,-0.00570215265397806,-0.151634547071079,-0.723606613359169,0.588568641625189,-0.723606613358108,-0.58650485689212,0.113839876309603,,-0.188234987800725,,-0.199120033751017,-0.117761323970659,-0.0443002574381543,-0.117761323970118,-0.39203229444031,0.446205287590448,-0.0429807658729848,-0.418038771795009,-0.102140429557434,,,-1.03012015125705,0.156841334176008,0.141932084199218,1.0791931890791,0.848210710666554,0.205485143079254,-0.600482621092011,-0.103135469032865,-0.667963557716345,1.02929272594629,1.02929272594492,0.367319561729071,-0.467123543679259,,,0.96331281619953,-0.0527829410685766,-1.22508264235229,1.15307026198909,1.15307026198729,0.0636789381071385,-0.063678938107205,0.0501309050643992,11.5712000000001,102,946.847250927398,430.222876921039,834.215447800742,951.74009009009,941.954411764706,433.150900900901,427.294852941176,790.072072072072,878.358823529412,0.382352941176471
1350.0416,-0.417087933722763,-0.32561920648283,-0.491067681036245,-0.609034227667156,-0.804034538993918,-0.804034538993997,,-0.00178264167464622,-0.136728539671967,-0.728295691874869,0.577566670530875,-0.72829569187382,-0.572610814011551,0.12044141225993,,-0.151146869815404,,-0.168419745933273,-0.129681811733356,-0.0538746985019073,-0.129681811732819,-0.372227961624367,0.439158758293796,-0.0270494138621416,-0.41506334269247,-0.0990930613448569,,,-1.02869230734882,0.160408098557898,0.156838141888765,1.07640849167427,0.858872471451746,0.2267569199401,-0.595271800142869,-0.0815474006416797,-0.676424647886571,1.01446981235687,1.0144698123555,0.370598953349691,-0.4718827965008,,,0.932745600368409,-0.0740799082829604,-1.2499942791611,1.14832881510112,1.14832881509933,0.0734530324167572,-0.0734530324168433,0.0228376300046396,11.6736000000001,103,946.007646483153,411.295628893546,811.522555826481,954.062565730779,937.952727235527,421.007560220415,401.583697566678,763.411613749672,859.63349790329,0
1350.144,-0.42106298562362,-0.326548075030241,-0.494996837918969,-0.590475812845143,-0.812868934878712,-0.812868934878799,,0.00220450264180636,-0.121444182619671,-0.731512359125564,0.566217473929233,-0.73151235912453,-0.558751939130975,0.126907562220675,,-0.113819499617749,,-0.137424021178268,-0.141788287430383,-0.0634506482919664,-0.141788287429846,-0.352009067173693,0.431901685630757,-0.0108405557722439,-0.412543383619223,-0.0962116469549913,,,-1.02719529313293,0.163238201887558,0.171319110312168,1.07278663856966,0.868611216288656,0.248321138887211,-0.589786313792429,-0.0595653123049397,-0.686223274728985,0.999116799541714,0.999116799540336,0.373856711584703,-0.476684364204355,,,0.901131690607324,-0.0956825907436437,-1.27485478419268,1.14289820607901,1.14289820607723,0.0832344135809022,-0.0832344135810069,-0.00537182564773555,11.7760000000001,102,975.761740654206,427.382593457944,813.792250778816,992.2375,959.285981308411,447.525,407.240186915888,758.958333333333,868.626168224299,0.176470588235294
1350.2464,-0.424308706535089,-0.326749288296568,-0.498012641622961,-0.571318979068728,-0.820794264873997,-0.820794264874093,,0.00625749122721876,-0.105815884431832,-0.733272174869079,0.554505689836373,-0.733272174868059,-0.544962929538596,0.133241697728786,,-0.0762955117143473,,-0.106150621013913,-0.154047247233645,-0.07302542211371,-0.154047247233109,-0.331393442600701,0.424450500588236,0.00564042143350695,-0.410464267752241,-0.0934818009934454,,,-1.02561388056932,0.165340517974899,0.18537318959994,1.06830976266276,0.87741336496101,0.270178946023004,-0.583986129547002,-0.0371690038487956,-0.697302885485263,0.983298072423457,0.983298072422081,0.377105144365056,-0.481509973450094,,,0.868519734359551,-0.117539776172493,-1.29959118275457,1.13677823806736,1.1367782380656,0.0930439439795961,-0.0930439439797124,-0.034431856180472,11.8784000000001,102,1020.80681542056,427.907845794393,820.51757788162,1037.0155,1004.59813084112,446.097,409.718691588785,765.418333333333,875.616822429907,1
1350.3488,-0.426832154126511,-0.326204360258964,-0.50011511449636,-0.55155698495628,-0.827786734225591,-0.827786734225696,,0.010373226413513,-0.0898806353079777,-0.73359677528276,0.542417151403469,-0.733596775281748,-0.531278244652034,0.139447772969647,,-0.0386174839242419,,-0.0746171269463993,-0.166424133815717,-0.0825955230711753,-0.166424133815185,-0.3103994670097,0.416821789648654,0.0223876553503117,-0.408810434689033,-0.0908887146793344,,,-1.02393317829317,0.166725485666684,0.199001818235401,1.06296121632302,0.885268885590909,0.292331749330318,-0.577830578261294,-0.0143377351557792,-0.709603239061365,0.967080513668403,0.967080513667021,0.380357593835935,-0.486341410179907,,,0.834962071013031,-0.13959983958061,-1.32413107101899,1.12996928424762,1.12996928424587,0.102903580689081,-0.102903580689213,-0.0642738902732088,11.9808,103,1065.76298233675,429.085775337991,827.377641169888,1081.4113592233,1050.1146054502,445.931844660194,412.239706015788,772.115533980583,882.639748359193,0
