time,S1-D1,S1-D8,S1-D9,S1-D15,S2-D1,S2-D2,S2-D3,S2-D9,S3-D1,S3-D2,S3-D16,S4-D2,S4-D3,S4-D5,S5-D3,S5-D4,S5-D5,S6-D2,S6-D5,S6-D17,S7-D6,S7-D7,S8-D6,S8-D7,S8-D18,S9-D3,S9-D4,S9-D9,S9-D11,S9-D19,S10-D8,S10-D9,S10-D10,S10-D11,S11-D8,S11-D10,S11-D20,S12-D10,S12-D11,S12-D12,S13-D4,S13-D11,S13-D12,S14-D10,S14-D12,S14-D21,S15-D13,S15-D14,S16-D13,S16-D14,S16-D22,t_rel_s,eye_n,xp,yp,ps,xpl_i,xpr_i,ypl_i,ypr_i,psl_i,psr_i,blink_prop
1095.168,-2.70938757401212,-1.35023085493855,-3.44086848196403,2.52908068292125,-0.305289706222813,-0.305289706222707,,-1.08410277709865,-4.12833124392711,-4.70538165637488,-0.11552047502688,-4.70538165637634,-4.72534688706438,-2.19607142118494,-5.75772075245649,-1.60446018279691,0.118932526760373,-2.08840453477176,-0.296514704444735,,-0.517442678656046,-0.852821220464418,-0.798247335084857,-1.98288592706249,,-0.19157107757165,0.039969181024701,0.177590358158335,-0.177590358158048,-0.27034407773977,-0.12872903105372,0.194589474718276,-0.049033312312806,,-0.506530812966269,-0.669355488701641,0.108747063755204,-0.613337031194328,-0.613337031193705,,0.130130637339649,-0.732806262050592,,0.89200152398988,,-0.029595572741604,-1.75782266410841,-1.75782266410877,-1.69859940690426,1.46453703524241,,0,103,986.816019417476,438.794174757282,868.140776699029,980.480582524272,993.15145631068,441.685436893204,435.902912621359,827.553398058253,908.728155339806,0
1095.2704,-2.74569985029805,-1.34815435966349,-3.47140912191521,2.53743737496641,-0.348186183480519,-0.348186183480412,,-1.06355429043253,-4.15618124433125,-4.73900623734098,-0.111990814333495,-4.73900623734245,-4.75535613893125,-2.22062942339138,-5.79946552358595,-1.59241998729256,0.170002799292895,-2.0193136685607,-0.315886237103148,,-0.530323339891791,-0.88885559846757,-0.786602185289608,-2.01476977722242,,-0.227057390729043,0.0236612794508247,0.160071539491632,-0.160071539491358,-0.270251606651101,-0.144189628320613,0.199635816981096,-0.0603235103397856,,-0.47995668166966,-0.607398516623998,0.11709983987373,-0.57925918431429,-0.57925918431367,,0.15396327231986,-0.660451050998143,,0.931614677076698,,0.000675185522629635,-1.71383088511187,-1.71383088511224,-1.72428895139042,1.51257753392534,,0.102400000000216,102,987.540196078431,445.96862745098,874.666666666667,981.508823529412,993.571568627451,445.786274509804,446.150980392157,830.607843137255,918.725490196078,0
1095.3728,-2.77720090003799,-1.34760898019805,-3.49887298956049,2.54320777388592,-0.394421242047722,-0.394421242047605,,-1.04452871031509,-4.17958584087835,-4.76776612841147,-0.108486469103348,-4.76776612841295,-4.78058557863559,-2.24554242738851,-5.83664369277232,-1.57853023003752,0.219889545990138,-1.94889111917382,-0.335525709137956,,-0.543427503838645,-0.923870742575223,-0.774456846308641,-2.04480290812295,,-0.264845911555343,0.00615461892744478,0.143947082906797,-0.143947082906533,-0.270820819205559,-0.159958208219556,0.20402580724289,-0.072061710170695,,-0.455370237837334,-0.547095415835231,0.125885892562494,-0.544975979331451,-0.544975979330838,,0.178511021727707,-0.585925120831514,,0.972383576333216,,0.0317320871347242,-1.6678418308425,-1.66784183084287,-1.74926703335844,1.56060294623267,,0.204800000000205,103,988.115533980583,446.855339805825,856.402912621359,985.391262135922,990.839805825243,438.954368932039,454.756310679612,811.766990291262,901.038834951456,0
1095.4752,-2.80382747079811,-1.34858155205709,-3.52319392923647,2.54638310841559,-0.44384413639285,-0.443844136392723,,-1.02703280877028,-4.19854315672104,-4.79162447587278,-0.10502474539792,-4.79162447587427,-4.8009515011567,-2.27074227053185,-5.86913898559156,-1.56281912291091,0.268512261151139,-1.8772585196502,-0.355428917520499,,-0.556725420175226,-0.95782596793523,-0.761802032413596,-2.07292366087166,,-0.304849951553339,-0.0124852118257059,0.129273405496328,-0.129273405496071,-0.272071617268928,-0.175938112551442,0.207778441640411,-0.0841624279022,,-0.432811068295765,-0.488500579120506,0.135104207228043,-0.510534252325436,-0.510534252324825,,0.203704076954989,-0.509338349896323,,1.01422643370344,,0.063478705029871,-1.62001771423707,-1.62001771423745,-1.77353918352015,1.60853267643559,,0.307200000000194,102,829.588235294118,667.382843137255,757.627450980392,831.201960784314,827.974509803922,666.530392156863,668.235294117647,710.401960784314,804.85294117647,0
1095.5776,-2.82553268453089,-1.35105029325679,-3.54431362651716,2.54696108708782,-0.496289488538026,-0.496289488537888,,-1.01106533780145,-4.2130655894516,-4.810558210103,-0.101626735771399,-4.8105582101045,-4.81637915393197,-2.29615422467967,-5.89684080077886,-1.54531643323316,0.315793704190359,-1.80453628953729,-0.375590198396237,,-0.570185755109513,-0.990681686539375,-0.748629394366608,-2.09907282370525,,-0.346971505871745,-0.0321863521799147,0.116101496190535,-0.11610149619029,-0.274018751885822,-0.192030306529086,0.210916123401605,-0.0965372111968468,,-0.41231069670215,-0.4316590337377,0.144751652284519,-0.475984248578474,-0.475984248577868,,0.22946907933232,-0.430811845268728,,1.05705603734908,,0.0958131761424122,-1.57052749533119,-1.57052749533158,-1.7971122172439,1.65628399794071,,0.409600000000182,103,786.146601941748,818.111650485437,626.902912621359,795.728155339806,776.565048543689,830.481553398058,805.741747572816,584.796116504854,669.009708737864,0
1095.68,-2.84228570298341,-1.35498485942853,-3.56218135458391,2.54494561501964,-0.551578286552963,-0.551578286552822,,-0.996617195916534,-4.22317941708658,-4.82455798664143,-0.098317186888422,-4.82455798664292,-4.82680289168289,-2.32169749486724,-5.91964460715405,-1.52605317247031,0.361660018805823,-1.73084308347118,-0.396002437039894,,-0.583775788713376,-1.02239925598136,-0.734931693520008,-2.12319364140085,,-0.391101652125804,-0.0528709165145888,0.104476682310033,-0.104476682309794,-0.2766716730578,-0.208133690556939,0.213464666746341,-0.109094895808392,,-0.393892646272627,-0.376606446268874,0.154822974583517,-0.441379669649668,-0.441379669649065,,0.255729377333722,-0.350477565994721,,1.10078003239284,,0.128628740882922,-1.51954575949901,-1.51954575949942,-1.81999400626979,1.7037723537354,,0.512000000000171,102,800.218137254902,899.510294117647,531.014705882353,817.459803921569,782.976470588235,918.573529411765,880.44705882353,497.990196078431,564.039215686274,0
1095.7824,-2.85407134628686,-1.36034643744629,-3.57675370888695,2.54034650945639,-0.609518934770659,-0.609518934770512,,-0.983671635991238,-4.22892432527164,-4.83362805757889,-0.0951242890580243,-4.83362805758038,-4.83216629994784,-2.34728574958447,-5.93745232494029,-1.5050612943804,0.406040849990163,-1.65629525498374,-0.416657087325702,,-0.597461631068793,-1.05294080458076,-0.720702974495491,-2.14523179341461,,-0.437121002697516,-0.074455267981361,0.0944384283679455,-0.0944384283677165,-0.280034451317262,-0.22414541832469,0.215453264066053,-0.121741878149178,,-0.377572547359917,-0.323369192325594,0.165310804501265,-0.406777654709541,-0.406777654708935,,0.282405306172667,-0.268477836931423,,1.14530126029433,,0.161814326635869,-1.46725157600092,-1.46725157600134,-1.84219323825442,1.75091167818145,,0.61440000000016,102,810.440196078431,970.948529411765,483.490196078431,832.603921568628,788.276470588235,1001.28921568627,940.607843137255,458.058823529412,508.921568627451,0
1095.8848,-2.8608896664436,-1.36708787234376,-3.58799432758457,2.53317920687463,-0.669908348384482,-0.669908348384332,,-0.972204514892964,-4.23035285507164,-4.83778608528855,-0.0920794038111988,-4.83778608529003,-4.83242228976491,-2.37282767114914,-5.9501726882821,-1.48237340903475,0.448869459942926,-1.58100634331246,-0.437544197423366,,-0.611208449592393,-1.08226904200776,-0.705938731337614,-2.16513534636712,,-0.484900204275963,-0.0968503139314872,0.0860201669130682,-0.086020166912847,-0.284105767659467,-0.239961218045689,0.216914419356433,-0.134382400403757,,-0.363358282344356,-0.271964489755834,0.17620567560026,-0.372238697134602,-0.372238697133987,,0.309414500106525,-0.184964755022623,,1.19051815378834,,0.195255169977749,-1.4138273523969,-1.41382735239732,-1.86371917483178,1.79761474024988,,0.716800000000148,103,940.161650485437,578.454368932039,461.087378640777,953.002912621359,927.320388349515,589.217475728155,567.691262135922,441.621359223301,480.553398058252,0
1095.9872,-2.86275548344787,-1.37515382060375,-3.59587359926713,2.52346446927821,-0.732533086201936,-0.732533086201784,,-0.962184575517827,-4.22752977150503,-4.83706291132295,-0.0892167450490194,-4.83706291132442,-4.82753316379798,-2.39822751354012,-5.95772158308639,-1.45802250966159,0.490082840027937,-1.50508658194276,-0.458652443846835,,-0.624980704900971,-1.11034706640676,-0.690636059275422,-2.18285468567529,,-0.534300482443846,-0.119961823389472,0.0792491598088762,-0.0792491598086668,-0.288878965807464,-0.255475721262668,0.217883851711091,-0.146918850721398,,-0.351250163545535,-0.222400588119549,0.187496061026809,-0.337826491044174,-0.337826491043558,,0.336672251574262,-0.100099479938732,,1.23632519299383,,0.22883347484531,-1.35945769385853,-1.35945769385897,-1.88458141485805,1.84379350519355,,0.819200000000137,102,976.576470588235,442.922549019608,463.617647058824,995.720588235294,957.432352941176,446.538235294118,439.306862745098,451.186274509804,476.049019607843,0
1096.0896,-2.8596978963005,-1.38448092401409,-3.60036836433625,2.51122810734907,-0.797170514299532,-0.797170514299391,,-0.953573747256898,-4.22053136266995,-4.83150229804864,-0.0865730237895638,-4.8315022980501,-4.81747065950399,-2.42338565956656,-5.96002236177241,-1.43204170935699,0.529621821481191,-1.42864242203048,-0.479969180908012,,-0.638742398295483,-1.13713817396258,-0.674793789654047,-2.1983424309976,,-0.585174229973019,-0.143690768697744,0.0741463886998349,-0.0741463886996359,-0.294342163248725,-0.270582806134239,0.21840037287186,-0.159252083023449,,-0.341241142018016,-0.174677001830226,0.199168424479449,-0.303607701250659,-0.303607701250051,,0.364091926437034,-0.0140513977308656,,1.28261343260757,,0.262429105623367,-1.30432827129503,-1.30432827129547,-1.90478966420746,1.88935951174996,,0.921600000000126,103,977.477184466019,443.66213592233,464.728155339806,995.863106796117,959.091262135922,452.717475728155,434.606796116505,457.776699029126,471.679611650485,0
1096.192,-2.85175977899812,-1.39499800239669,-3.6014616176551,2.49650072901848,-0.863589993765206,-0.863589993765074,,-0.946327457277401,-4.20944469180855,-4.8211606645146,-0.084187064512802,-4.82116066451605,-4.80221598176382,-2.44819917566367,-5.95700614641492,-1.40446399458671,0.56743119710567,-1.35177606766446,-0.501480509587659,,-0.652457331585372,-1.16260568020213,-0.658412605781503,-2.21155334457169,,-0.637365631537422,-0.167933687861185,0.0707264744817136,-0.0707264744815258,-0.300478421570892,-0.285175957713717,0.218505746514989,-0.171281756237767,,-0.33331704389598,-0.128784778229156,0.211207283995876,-0.269651656634958,-0.269651656634362,,0.391585437369706,0.0730028397069899,,1.32927110252186,,0.295920309594711,-1.24862470253422,-1.24862470253466,-1.92435351255105,1.93422426441284,,1.02400000000011,102,1008.7818627451,514.212745098039,460.436274509804,1031.22549019608,986.338235294118,520.859803921569,507.56568627451,458.578431372549,462.294117647059,0
1096.2944,-2.83899726329196,-1.40662627101903,-3.59914221854415,2.47931750546774,-0.93155408879564,-0.931554088795523,,-0.940394955262349,-4.19436682819931,-4.80610682688306,-0.0820994067776924,-4.8061068268845,-4.78175983356869,-2.47256236646118,-5.9486121298482,-1.37532201072434,0.603459862976867,-1.27458503469794,-0.523171364606991,,-0.666089371226251,-1.18671277691809,-0.641495131303049,-2.22244425281472,,-0.690711315836184,-0.192583061451602,0.0689976286895349,-0.0689976286893538,-0.307265973690747,-0.299148646356144,0.218244537946553,-0.182906691342418,,-0.327456832610856,-0.0847068027196563,0.223595291111409,-0.236029976290348,-0.236029976289766,,0.419063768248232,0.160880376181077,,1.37618426448842,,0.329184452745389,-1.19253145876724,-1.1925314587677,-1.94328221719216,1.97829963717893,,1.1264000000001,102,1121.60637254902,942.522549019608,461.210784313726,1153.79607843137,1089.41666666667,957.739215686274,927.305882352941,463.56862745098,458.852941176471,0
1096.3968,-2.82147920086522,-1.41927959726597,-3.59340461287044,2.45971793861643,-1.0008197956742,-1.00081979567411,,-0.935719661126534,-4.17540407491618,-4.78642173153897,-0.0803519127997618,-4.78642173154039,-4.75610244080422,-2.49636733340245,-5.93478787289409,-1.34464789306399,0.637660975430663,-1.19716175652567,-0.545025618325368,,-0.679602702931239,-1.2094224569597,-0.624045981704585,-2.23097401088683,,-0.745041033980438,-0.217527703396924,0.0689616438031253,-0.0689616438029436,-0.314678497622091,-0.31239473149165,0.217663959751012,-0.194025250566628,,-0.323632901544961,-0.042418150569276,0.236313329267495,-0.2028161427018,-0.20281614270124,,0.446437533083012,0.249393284065515,,1.42323749055171,,0.362098745107243,-1.13623081770094,-1.13623081770141,-1.96158448720801,2.02149827393383,,1.22880000000009,103,1121.79708737864,959.409223300971,467.572815533981,1151.14466019417,1092.44951456311,975.539805825243,943.278640776699,473.067961165049,462.077669902913,0
1096.4992,-2.79928659563685,-1.43286481156894,-3.58424857058424,2.43774561723219,-1.07113979436647,-1.07113979436639,,-0.932239545861774,-4.15267119812331,-4.76219815910004,-0.0789873983140012,-4.76219815910146,-4.72525355963474,-2.51950454152381,-5.91548958831851,-1.3124731449422,0.669992112006017,-1.11959325070363,-0.567026202034404,,-0.692962065504303,-1.23069753161645,-0.606071772765493,-2.23710353416696,,-0.800178367899311,-0.242653168693798,0.0706139290186305,-0.0706139290184476,-0.322685425457174,-0.324808901754411,0.216813718166463,-0.204535746424166,,-0.32181140408228,-0.0018864940695686,0.249340632410388,-0.170085029943568,-0.170085029943018,,0.473617552719826,0.338349753884665,,1.47031453308943,,0.394540935710763,-1.07990188198672,-1.0799018819872,-1.97926825606285,2.06373396674104,,1.33120000000008,102,781.154411764706,674.886764705882,500.171568627451,791.159803921569,771.149019607843,689.23431372549,660.539215686275,501.862745098039,498.480392156863,0
1096.6016,-2.77251200490899,-1.44728207644679,-3.57167894054334,2.41344795806678,-1.14226371907516,-1.14226371907509,,-0.929887549332833,-4.12629065297192,-4.73354038655958,-0.0780492898327513,-4.73354038656098,-4.68923245836024,-2.54186339472738,-5.8906824036194,-1.27882855202946,0.700415426724076,-1.04196084122655,-0.589155244087783,,-0.706132959832221,-1.25050075151166,-0.587581079436913,-2.2407959028735,,-0.855941468278184,-0.267842178235963,0.0739435919724898,-0.0739435919723101,-0.331252282225496,-0.336287155460695,0.215745864135726,-0.214336882715612,,-0.321952622246132,0.0369274335310886,0.262654922589388,-0.137912384219062,-0.137912384218519,,0.50051543695917,0.427555341617746,,1.51729897509599,,0.426389970648806,-1.02371966809617,-1.02371966809667,-1.99634043908994,2.10492200503027,,1.43360000000007,103,585.558737864078,474.172815533981,518.325242718447,603.593203883495,567.52427184466,482.715533980583,465.630097087379,511,525.650485436893,0
1096.704,-2.74125891838405,-1.46242530684044,-3.55570542535073,2.38687593601808,-1.21393943442705,-1.213939434427,,-0.928592029355407,-4.09639180421721,-4.70056380512604,-0.0775813005407963,-4.70056380512742,-4.64806787553798,-2.56333281661544,-5.86034060299223,-1.24374412170616,0.728897790466646,-0.96433993068579,-0.611394219994372,,-0.719081833680698,-1.26879502427905,-0.568584344230679,-2.24201653034497,,-0.912143818051352,-0.29297506030564,0.0789335605495413,-0.0789335605493603,-0.34034105165414,-0.346727312454444,0.214514645018144,-0.223328221260056,,-0.324011366154145,0.0740693259489322,0.27623256345714,-0.106374259830835,-0.106374259830313,,0.52704415607096,0.516814259310359,,1.56407486040771,,0.457526617392386,-0.967854263515725,-0.967854263516247,-2.01280668483256,2.14497949741893,,1.53600000000006,102,584.413725490196,476.227941176471,516.220588235294,601.223529411765,567.603921568627,485.48431372549,466.971568627451,507.21568627451,525.225490196079,0
1096.8064,-2.7056411287996,-1.47818263363243,-3.53634238211497,2.358083807951,-1.28591429632958,-1.28591429632955,,-0.928277230253753,-4.06311015247928,-4.66339449305529,-0.0776271181690418,-4.66339449305665,-4.60179796685626,-2.58380183444856,-5.82444785966619,-1.20724905169713,0.755410910132571,-0.886799834557221,-0.633724104987683,,-0.731776243737762,-1.28554369636419,-0.549093756209835,-2.2407333781365,,-0.968595019485608,-0.317930213058629,0.0855607349442274,-0.0855607349440475,-0.349910561987036,-0.356029538683405,0.213176345115496,-0.231410662445272,,-0.327937389185841,0.109590761136265,0.290048722162662,-0.0755464341638131,-0.0755464341633041,,0.553118578520376,0.605930658630211,,1.61052730032783,,0.487834056640551,-0.912470052677298,-0.912470052677844,-2.02867113273185,2.18382566408928,,1.63840000000005,102,729.43431372549,434.586274509804,507.46568627451,746.08431372549,712.78431372549,438.817647058824,430.354901960784,501.401960784314,513.529411764706,0
1096.9088,-2.66578210700462,-1.4944369050957,-3.51360865642694,2.32712883154362,-1.35793637593814,-1.35793637593813,,-0.928863759755591,-4.02658658587074,-4.62216874535122,-0.078230104314092,-4.62216874535256,-4.55047025980214,-2.60316016495907,-5.78299747687488,-1.169371748208,0.779931430372008,-0.809403701604703,-0.65612551710542,,-0.744184995518708,-1.30071084862055,-0.52912314307656,-2.23691720340221,,-1.02510160260214,-0.342584593126738,0.0937961578738567,-0.0937961578736747,-0.359916881440783,-0.364096862433971,0.211789108799156,-0.238486924012533,,-0.33367580025174,0.143548646885001,0.304077531534974,-0.0455038321711579,-0.0455038321706608,,0.578655954687343,0.694709847542683,,1.6565430462403,,0.517198436672571,-0.857725011866412,-0.857725011866978,-2.04393618790846,2.22138209819018,,1.74080000000004,103,777.711165048544,420.680582524272,508.509708737864,795.86213592233,759.560194174757,426.343689320388,415.017475728155,505.650485436893,511.368932038835,0
1097.0112,-2.62181439068019,-1.51106622210491,-3.48752745448231,2.29407097785746,-1.42975563108008,-1.4297556310801,,-0.93026906855769,-3.98696667432576,-4.57703257071306,-0.0794330092873925,-4.57703257071437,-4.4941416349111,-2.62129879985921,-5.73599265503769,-1.13013991420315,0.802441028046286,-0.732208538404676,-0.678578839252307,,-0.756278259560915,-1.31426156781928,-0.50868791377448,-2.2305418338417,,-1.08146784685268,-0.366814229094158,0.10360519149737,-0.10360519149719,-0.370313713546665,-0.370835665579086,0.210412754137294,-0.244462001990768,,-0.341167456549798,0.17600466470326,0.318292252125461,-0.0163199768823921,-0.0163199768819105,,0.60357633628201,0.782959407602287,,1.70201101589039,,0.545509383136737,-0.803770067252588,-0.803770067253182,-2.05860232233821,2.25757300247825,,1.84320000000002,102,890.79068627451,318.51568627451,508.823529411765,905.454901960784,876.126470588235,323.623529411765,313.407843137255,508.009803921569,509.637254901961,0
1097.1136,-2.5738789923528,-1.52794450348377,-3.45812625554976,2.2589726370694,-1.50112501582832,-1.50112501582837,,-0.932407931281936,-3.9444000152644,-4.52814116967734,-0.0812777097786318,-4.52814116967863,-4.43287834641982,-2.63811058729159,-5.68344679603457,-1.08958071423623,0.822926502791309,-0.655265343352787,-0.701064312805962,,-0.768027660667919,-1.32616218892289,-0.487805059939153,-2.22158447328274,,-1.13749660478555,-0.390494754821991,0.114947693723043,-0.114947693722865,-0.381052783475843,-0.376156141868237,0.209108589605501,-0.249243603483297,,-0.350349326726434,0.207024709299868,0.332665441802682,0.0119335313636831,0.0119335313641533,,0.62780292442643,0.870490207609422,,1.74682276356641,,0.572660460604974,-0.750748510004009,-0.750748510004626,-2.07266790752591,2.29232540698484,,1.94560000000001,103,1005.85145631068,226.256796116505,510.752427184466,1021.88155339806,989.821359223301,233.956310679612,218.557281553398,512.679611650485,508.825242718447,0
1097.216,-2.52212483064537,-1.54494207987383,-3.42543676703058,2.22189832333698,-1.57180152236787,-1.57180152236794,,-0.935192927380964,-3.89903963207085,-4.47565839824402,-0.0838049764308553,-4.47565839824529,-4.36675608519852,-2.65349080590283,-5.62538384580672,-1.04772100787523,0.841379855511311,-0.578619347589946,-0.723562103340042,,-0.779406340113356,-1.33638052502053,-0.466493200667087,-2.21002604133446,,-1.19299012220421,-0.413501961661253,0.127778191584929,-0.127778191584751,-0.392084204046727,-0.379972722685727,0.207939237063495,-0.252742550721244,,-0.361154822252687,0.236678315158015,0.347169141106553,0.0391875056075184,0.0391875056079806,,0.651262334707512,0.957117314798066,,1.79087288801494,,0.598549589523381,-0.698795472084663,-0.698795472085308,-2.08612907745409,2.32556936614948,,2.048,102,1004.98039215686,223.997058823529,521.338235294118,1021.27254901961,988.688235294118,232.557843137255,215.436274509804,524.754901960784,517.921568627451,0
1097.3184,-2.46670818674208,-1.56192631628519,-3.3894949239826,2.18291439159629,-1.64154715221176,-1.64154715221185,,-0.938534918723396,-3.85104142474537,-4.41975620758452,-0.0870542742841374,-4.41975620758576,-4.29586007587256,-2.66733773135542,-5.56183866716991,-1.00458763887921,0.857798343828809,-0.502310356434125,-0.746052347316408,,-0.79038899703394,-1.34488610024252,-0.444772652923813,-2.19585154610457,,-1.24775085818839,-0.435712372686869,0.142046053541768,-0.142046053541592,-0.403356810617226,-0.38220447457467,0.206968452612018,-0.25487316240714,,-0.373514101445907,0.265038064167622,0.361775076043808,0.0653756261236422,0.065375626124088,,0.673884765821174,1.04266079689264,,1.83405937502794,,0.623079429022735,-0.648037472479764,-0.648037472480433,-2.09897961634587,2.35723812983038,,2.15040000000022,102,923.080882352941,231.831862745098,527.960784313726,936.192156862745,909.969607843137,239.769607843137,223.894117647059,530.627450980392,525.294117647059,0
1097.4208,-2.40779218450682,-1.57876226264418,-3.35034093119874,2.14208877550324,-1.71012981627558,-1.71012981627569,,-0.942343520625537,-3.80056367324047,-4.36061404914925,-0.0910635958507611,-4.36061404915047,-4.22028519600941,-2.67955319719366,-5.49285743175323,-0.960207770848393,0.872184510991829,-0.426373182131082,-0.768515189606715,,-0.800951916631837,-1.35165038908411,-0.422665518672721,-2.17905048408218,,-1.30158230929907,-0.457003838815097,0.157695664937416,-0.157695664937245,-0.414818461338243,-0.382775470222213,0.206260934823777,-0.255553616846736,,-0.387354352885011,0.292178973762173,0.376454872336775,0.0904348484932962,0.0904348484937239,,0.695604063805941,1.12694640731389,,1.87628387174778,,0.64615773435776,-0.598592037313188,-0.598592037313885,-2.11121086468785,2.38726828073962,,2.25280000000021,103,708.596601941748,263.491262135922,533.296116504854,728.561165048544,688.632038834952,271.469902912621,255.512621359223,530.95145631068,535.640776699029,0
1097.5232,-2.34554629086331,-1.59531333001375,-3.30801934304298,2.09949074394252,-1.77732416381023,-1.77732416381036,,-0.946527564757151,-3.74776659477051,-4.29841824592186,-0.0958693255090011,-4.29841824592305,-4.14013611080791,-2.69004315019899,-5.41849802462094,-0.914609265373214,0.884546192830151,-0.350838157727589,-0.79093081374278,,-0.811072986930928,-1.35664706047475,-0.400195786349203,-2.15961726238212,,-1.35428983498745,-0.477256151036144,0.174666610093303,-0.174666610093134,-0.426416306020516,-0.381615129878505,0.205882116766988,-0.254706295422606,,-0.40260006201146,0.3181778700647,0.391180272016624,0.114305761892882,0.114305761893291,,0.716357678247313,1.20980615636709,,1.91745188855714,,0.66769768726888,-0.550567387816441,-0.550567387817167,-2.12281163708602,2.41559982764867,,2.3552000000002,102,708.530392156863,262.185294117647,538.269607843137,728.633333333333,688.427450980392,266.916666666667,257.453921568627,534.764705882353,541.774509803922,0
1097.6256,-2.2801458335235,-1.6114419895857,-3.26257917622498,2.05519066972373,-1.84291234178951,-1.84291234178966,,-0.95099555351386,-3.69281195203289,-4.2333613369603,-0.101506129687344,-4.23336133696146,-4.05552741906351,-2.69871819779495,-5.33883045619572,-0.867821097544341,0.894896508026576,-0.27573171957409,-0.813279461229754,,-0.820731702057648,-1.35985222964466,-0.377389443296979,-2.13755164330965,,-1.40568147745026,-0.496351663153346,0.192893862698017,-0.192893862697856,-0.438097029212289,-0.378658532032716,0.205897942605524,-0.252258105205928,,-0.419173262367953,0.343112753951074,0.405923344431283,0.136932900388218,0.136932900388605,,0.7360865112037,1.29107878344515,,1.95747293065877,,0.687618191504358,-0.504062187077029,-0.504062187077779,-2.13376814660726,2.4421762451955,,2.45760000000018,103,644.273786407767,269.046601941748,552.480582524272,659.854368932039,628.693203883495,271.511650485437,266.581553398058,549.747572815534,555.21359223301,0
1097.728,-2.21177153240359,-1.62701048987342,-3.2140740487436,2.00925981326689,-1.90668469054898,-1.90668469054916,,-0.955656104708897,-3.6358626986364,-4.1656413956474,-0.10800686028865,-4.16564139564854,-3.96658379602235,-2.70549414446847,-5.25393726573571,-0.819873795355624,0.903253832201785,-0.201077039387894,-0.835541441140163,,-0.829909155028648,-1.36124472236919,-0.354274590279205,-2.11285920682565,,-1.45556877442738,-0.514175923603596,0.212307986480922,-0.212307986480768,-0.449807074697721,-0.37384670060958,0.206374624229352,-0.24814078804952,,-0.436993775888524,0.367062168884247,0.420656684848173,0.158265012233625,0.158265012233986,,0.754734676925209,1.37061014985815,,1.99626057185091,,0.705844132686016,-0.459165338219732,-0.459165338220501,-2.14406393615964,2.466944465285,,2.56000000000017,102,439.975980392157,304.762254901961,574.607843137255,460.617647058824,419.33431372549,304.461764705882,305.062745098039,570.235294117647,578.980392156863,0
1097.8304,-2.14060903846879,-1.64188158529729,-3.16256233420243,1.96177013104055,-1.96844038411338,-1.96844038411358,,-0.960418384342324,-3.57708264068476,-4.09546131374147,-0.115402457887175,-4.09546131374259,-3.87344010805005,-2.71029251375882,-5.16391388981774,-0.770799883040982,0.909641752685322,-0.126894681591714,-0.857697136829363,,-0.838588028750031,-1.36080634336854,-0.330881552688831,-2.08555181444922,,-1.50376756918781,-0.530618316686264,0.232835349644494,-0.232835349644346,-0.461492859531783,-0.367126881342842,0.207378367404781,-0.242291229720245,,-0.455979449952042,0.39010457947537,0.435353593294746,0.178255289275198,0.178255289275543,,0.772249212843859,1.44825356554571,,2.03373248583331,,0.722306610803607,-0.415955829938543,-0.415955829939338,-2.15367982509161,2.48985484148954,,2.66240000000016,102,440.625490196079,308.960784313725,590.779411764706,462.349019607843,418.901960784314,308.56862745098,309.352941176471,584.872549019608,596.686274509804,0
1097.9328,-2.06684847253859,-1.65591926964463,-3.1081073198541,1.9127941135218,-2.02798802214247,-2.02798802214267,,-0.965192526113344,-3.51663609697728,-4.02302804333295,-0.123721848535714,-4.02302804333405,-3.77624147655665,-2.71304105047287,-5.06886897084958,-0.720634307944034,0.914089000167588,-0.0532032617301289,-0.879727014013384,,-0.846752591740376,-1.35852212374257,-0.307242995786192,-2.05564805146693,,-1.55009882017473,-0.545572711479353,0.254398357034306,-0.25439835703416,-0.473100983713964,-0.358452817998649,0.208975061088669,-0.234651779765095,,-0.476046397302937,0.412317770530107,0.44998822589836,0.19686155538378,0.196861555384107,,0.788579786105181,1.5238700545771,,2.06981044849498,,0.736943152042519,-0.37450262806552,-0.37450262806633,-2.16259387822999,2.51086110641224,,2.76480000000015,103,411.455825242718,306.215533980583,600.466019417476,432.414563106796,390.497087378641,306.526213592233,305.904854368932,592.184466019418,608.747572815534,0
1098.0352,-1.9906839586311,-1.66898950802549,-3.05077735864913,1.86240464886159,-2.08514617604303,-2.08514617604323,,-0.969890037537545,-3.45468754780362,-3.94855179639826,-0.132991836050977,-3.94855179639934,-3.67514328010669,-2.71367419501095,-4.96892459067152,-0.669414832807606,0.916629353816496,0.0199799154804241,-0.901611629535825,,-0.854388698668131,-1.3543805192644,-0.283394053186421,-2.02317362265162,,-1.59438940534495,-0.558938112099675,0.276915702634024,-0.276915702633882,-0.484578438263393,-0.347785032591927,0.211229934762186,-0.225170584103835,,-0.497109240523636,0.433778276448358,0.46453571367493,0.214046414887072,0.21404641488737,,0.80367842539398,1.5973285658172,,2.10442032390194,,0.749697897993395,-0.334864610620695,-0.334864610621515,-2.17078139905842,2.52992032810529,,2.86720000000014,102,492.891176470588,288.707843137255,596.230392156863,507.592156862745,478.190196078431,289.964705882353,287.450980392157,588.862745098039,603.598039215686,0
1098.1376,-1.91231315018711,-1.68096095678228,-2.99064600568102,1.81067490672341,-2.1397438876427,-2.13974388764291,,-0.974424191092885,-3.39140126675739,-3.87224521160572,-0.143236995734964,-3.87224521160679,-3.57031109245014,-2.71213351903985,-4.86421642174867,-0.617182380297205,0.917301517341637,0.0926382540483627,-0.923331639357468,,-0.861483791736842,-1.34837354470658,-0.259372462171309,-1.98816167554244,,-1.63647290996091,-0.570619297839142,0.300302641761857,-0.300302641761722,-0.495872811519576,-0.335091105433136,0.214207196955288,-0.213801923025644,,-0.519081359649278,0.454560849688666,0.478972250620581,0.229777367506413,0.229777367506682,,0.817499292908843,1.6685061426851,,2.13749204503376,,0.760521764112124,-0.297090539011538,-0.29709053901237,-2.1782149527668,2.54699286804098,,2.96960000000013,103,1019.16601941748,212.18932038835,563.485436893204,1034.55145631068,1003.78058252427,217.397087378641,206.981553398058,568.504854368932,558.466019417476,0
1098.24,-1.83193675084154,-1.69170565759649,-2.92779212988272,1.75767824402099,-2.19162111904977,-2.19162111904997,,-0.978710396210998,-3.32694093420931,-3.79432250295003,-0.154479573547561,-3.79432250295107,-3.46192055630856,-2.70836811189055,-4.75489379060487,-0.563981323653857,0.916148964717607,0.164755307636936,-0.94486780605995,,-0.868026899313115,-1.34049684809958,-0.235218684238703,-1.95065303148634,,-1.67619038695506,-0.580527441776639,0.324471280401517,-0.324471280401385,-0.506932490907816,-0.320345945993081,0.217969667079149,-0.200506543569722,,-0.541875141842171,0.474737975897206,0.493275159183137,0.244026898637668,0.244026898637899,,0.829998503319032,1.73728807097628,,2.16895959810547,,0.769372559689673,-0.261219056334276,-0.261219056335116,-2.18486443265717,2.56204234787051,,3.07200000000012,102,1026.96666666667,215.393137254902,546.088235294118,1044.09117647059,1009.84215686275,223.277450980392,207.508823529412,554.509803921569,537.666666666667,0
1098.3424,-1.74975803202739,-1.70109969710738,-2.86229999629113,1.70348814232629,-2.24062915613852,-2.24062915613872,,-0.982666547502047,-3.26146923751281,-3.71499860173483,-0.166739388234122,-3.71499860173587,-3.35015719226492,-2.70233491251015,-4.64111965032878,-0.509859721389826,0.913219754697289,0.236314265508815,-0.966201007346796,,-0.874008631483632,-1.33074973977638,-0.210975990591466,-1.91069631985764,,-1.713391084395,-0.588580701904812,0.349330881242317,-0.349330881242187,-0.517706856451173,-0.30353204731471,0.222578403908409,-0.185251979295551,,-0.565402234635356,0.494379441177076,0.507422940407249,0.256772550452091,0.256772550452297,,0.841133991567881,1.8035680203605,,2.19876101568447,,0.77621506772942,-0.227278710380071,-0.227278710380916,-2.19069717860891,2.57503562745277,,3.17440000000011,102,1025.43970588235,214.768137254902,544.044117647059,1041.1637254902,1009.71568627451,225.305882352941,204.230392156863,551.833333333333,536.254901960784,0
1098.4448,-1.6659823460345,-1.70902383138085,-2.79425931714951,1.64817818455776,-2.28663096957103,-2.28663096957124,,-0.98621334722959,-3.19514746740096,-3.63448829843014,-0.180033733324319,-3.63448829843116,-3.23521614230169,-2.69399898820462,-4.52307046230383,-0.4548694942367,0.908566313021298,0.307297484827779,-0.987312246512071,,-0.879421173405738,-1.31913519247867,-0.186690501198703,-1.86834802287033,,-1.74793313848729,-0.594704780534062,0.374788190350127,-0.374788190349999,-0.528146463546419,-0.284639719496549,0.22809232675013,-0.168012854912242,,-0.589573806313732,0.513551952698736,0.521395310871333,0.267996972702004,0.267996972702189,,0.850865425930335,1.86724818131138,,2.22683837753776,,0.781021087530552,-0.195288009354638,-0.195288009355487,-2.19567814485002,2.58594278524464,,3.27680000000009,103,997.897572815534,253.715048543689,566.339805825243,1009.57087378641,986.22427184466,264.254368932039,243.17572815534,572.533980582524,560.145631067961,0
1098.5472,-1.58081662862239,-1.71536407615244,-2.72376526733745,1.5918220690992,-2.3295015355724,-2.32950153557261,,-0.989274604131052,-3.12813511669497,-3.55300538752957,-0.194377283953283,-3.55300538753057,-3.11730184546208,-2.68333376210032,-4.40093598559925,-0.399066541995516,0.902245181436827,0.37768607164429,-1.00818266554124,,-0.884258275074705,-1.30565982996849,-0.162411164774301,-1.82367243839075,,-1.77968423178248,-0.598833444971667,0.400747792302602,-0.400747792302471,-0.538203214090824,-0.263667299446854,0.234567823863762,-0.148771175054317,,-0.61430081881193,0.532318810468524,0.535173225601436,0.277687947591681,0.277687947591848,,0.859154158538464,1.92823938997994,,2.25313781613993,,0.783769440408052,-0.165255522367372,-0.165255522368222,-2.19977010750023,2.59473708409195,,3.37920000000008,102,813.54362745098,697.00637254902,626.740196078431,824.735294117647,802.351960784314,705.51862745098,688.494117647059,626.401960784314,627.078431372549,0
1098.6496,-1.49446888552358,-1.72001226079162,-2.65091845753039,1.5344936537607,-2.36912811771351,-2.36912811771373,,-0.991777513305549,-3.06058947709617,-3.4707618137849,-0.209782016503079,-3.47076181378588,-2.99662763715758,-2.67032118827993,-4.27491896510624,-0.342510797029438,0.894316733820238,0.447459515358544,-1.02879356439719,,-0.888515236918907,-1.290333919778,-0.138189663301758,-1.77674156163593,,-1.80852221737204,-0.600909004321123,0.427112502252699,-0.427112502252567,-0.547830516919078,-0.240621338418631,0.24205834249716,-0.127516600112957,,-0.639494319734886,0.550739628024739,0.548738885583339,0.285838385109698,0.285838385109849,,0.865963205579202,1.98646124031832,,2.27760953086519,,0.784445938546603,-0.137180033156029,-0.13718003315688,-2.20293389616592,2.6013949024682,,3.48160000000007,103,805.340776699029,761.896116504854,672.854368932039,811.52427184466,799.157281553398,772.591262135922,751.200970873787,667.310679611651,678.398058252427,0
1098.752,-1.40714766217406,-1.72286654316719,-2.57582486232361,1.47626702054289,-2.40541051129158,-2.4054105112918,,-0.993652921839938,-2.99266522310348,-3.38796681407231,-0.226257142752712,-3.38796681407326,-2.87341525967151,-2.65495187316321,-4.1452347053754,-0.285266216293855,0.884844865149492,0.516595379957324,-1.04912643367738,,-0.892188895311389,-1.27317137099269,-0.114080239977504,-1.72763488559057,,-1.83433570952857,-0.600882743250252,0.453783796423887,-0.453783796423756,-0.55698344062792,-0.215516771940616,0.250613955930895,-0.104246714295116,,-0.665065755475548,0.568870101890247,0.562075730144649,0.292446290541871,0.292446290542007,,0.871257255083325,2.04184218746596,,2.30020782434021,,0.783043324025496,-0.111050751508518,-0.111050751509372,-2.20512863243263,2.6058956246323,,3.58400000000006,102,810.288235294118,725.50637254902,704.377450980392,816.071568627451,804.504901960784,736.919607843137,714.093137254902,696.558823529412,712.196078431373,0
1098.8544,-1.31906150038623,-1.72383188472084,-2.49859570607492,1.41721655194654,-2.43826125227388,-2.43826125227411,,-0.994835583258556,-2.92451397779284,-3.30482605042712,-0.24380905629401,-3.30482605042806,-2.74789427494845,-2.63722514384792,-4.01211052166891,-0.227400728491895,0.873896669814335,0.58506904611924,-1.06916300725226,,-0.895277613388778,-1.25418971879345,-0.0901394766185938,-1.67643912700969,,-1.857024638755,-0.598715315963777,0.480662271182407,-0.480662271182277,-0.565618860584717,-0.188377072447383,0.260280907975929,-0.0789672860298502,,-0.690927297252184,0.586761832083283,0.575168420035647,0.297514707027729,0.297514707027857,,0.875002709793551,2.09431963497806,,2.32089117632895,,0.779561189101932,-0.0868475840842989,-0.0868475840851421,-2.20631197223769,2.60822151588403,,3.68640000000005,102,892.961274509804,267.180392156863,667.191176470588,900.069607843137,885.852941176471,274.483333333333,259.877450980392,662.323529411765,672.058823529412,0
1098.9568,-1.23041838658774,-1.72282048676266,-2.41934731134108,1.35741701444777,-2.46760579303881,-2.46760579303903,,-0.995264400595683,-2.85628386640583,-3.22154073454147,-0.262441290255318,-3.22154073454239,-2.62030138028567,-2.61714906519111,-3.87578506970704,-0.168986161483989,0.86154213288882,0.652853493852124,-1.08888533759941,,-0.897781280190498,-1.23341007126649,-0.066426057483214,-1.62324788954638,,-1.87650076819224,-0.594377102598177,0.507648115982205,-0.507648115982072,-0.57369559721581,-0.159234377317059,0.271101139557536,-0.0516925133301166,,-0.71699216655143,0.604462197006028,0.588002820099832,0.301051633802368,0.301051633802484,,0.877167776878454,2.14383998789361,,2.33962236508943,,0.774005884152249,-0.064541461108582,-0.0645414611094195,-2.20644036819559,2.60835763187761,,3.78880000000004,103,898.364563106796,252.758737864078,645.019417475728,909.225242718447,887.503883495146,262.140776699029,243.376699029126,642.47572815534,647.563106796117,0
1099.0592,-1.14142519605053,-1.71975218848127,-2.33820091420516,1.296943652559,-2.49338264602984,-2.49338264603006,,-0.994882653228294,-2.78811906884275,-3.13830674957995,-0.282154483938014,-3.13830674958086,-2.49087963803954,-2.59474040725586,-3.73650756592279,-0.110098166762717,0.847853854076766,0.71991912276257,-1.10827589178208,,-0.89970131951472,-1.21085700690343,-0.0430005405168904,-1.56816127351593,,-1.89268816901474,-0.587848528749639,0.534641590061009,-0.534641590060869,-0.581174541113083,-0.128129581333507,0.283111803288376,-0.0224452432929153,,-0.743174951027399,0.622014283930949,0.600565984228129,0.303069920672796,0.303069920672911,,0.877722607761125,2.19035865871219,,2.35636863944565,,0.766390414730024,-0.0440947106131188,-0.0440947106139539,-2.20546937154981,2.60629179893736,,3.89120000000003,102,950.624019607843,218.072549019608,643.573529411765,963.349019607843,937.899019607843,229.450980392157,206.694117647059,639.460784313726,647.686274509804,0
1099.1616,-1.05228713682329,-1.71455482501344,-2.25528244850359,1.23587229542975,-2.51554349220917,-2.51554349220938,,-0.993638200152989,-2.72015938123937,-3.05531378241473,-0.302946353724191,-3.05531378241562,-2.35987763767539,-2.57002456515788,-3.59453691739236,-0.050816145612688,0.832906812373251,0.786233611860916,-1.12731765967063,,-0.901040706791945,-1.18655843415443,-0.0199251311891899,-1.51128544101976,,-1.90552364995599,-0.579120343506147,0.561543498394777,-0.561543498394629,-0.588018764162934,-0.0951123823409691,0.296344776454142,0.00874284661746503,,-0.769391909082916,0.639456872662527,0.612846136778436,0.303587138251362,0.303587138251474,,0.876639475131685,2.23384002248148,,2.3711019330678,,0.756734327863861,-0.0254614727398411,-0.0254614727406691,-2.20335397926872,2.60201466819342,,3.99360000000002,103,952.32427184466,217.096601941748,664.645631067961,965.952427184466,938.696116504854,226.706796116505,207.48640776699,657.04854368932,672.242718446602,0
1099.264,-0.963207193705153,-1.70716454245645,-2.1707222968456,1.17427946536106,-2.53405324607119,-2.53405324607139,,-0.991483654232051,-2.65253979482453,-2.97274448583179,-0.324811668813009,-2.97274448583266,-2.22754861022142,-2.5430354342564,-3.45014078277198,0.00877682345934951,0.816778167948312,0.851761815881437,-1.14599426072531,,-0.901803985957803,-1.16054543698243,0.00273655693830875,-1.4527321483313,,-1.91495712987531,-0.56819384198743,0.588255663208038,-0.588255663207876,-0.594193618502538,-0.0602412688295008,0.310826191344882,0.0418311203911636,,-0.795561263185398,0.656824467659346,0.624832644503183,0.302625418656762,0.30262541865687,,0.873892966136352,2.2742573171463,,2.38379909488258,,0.745063584625615,-0.00858814952298567,-0.00858814952381062,-2.20004901595433,2.5955198204379,,4.096,102,967.064705882353,249.871078431373,692.004901960784,978.78137254902,955.348039215686,259.403921568627,240.338235294118,681.509803921569,702.5,0
1099.3664,-0.874385568809855,-1.69752606754962,-2.08465500361519,1.11224246757042,-2.54889006770482,-2.54889006770502,,-0.988376526175833,-2.58539009597388,-2.89077368978824,-0.347742240182665,-2.89077368978909,-2.09414951115183,-2.51381524349401,-3.30359458150099,0.0685940599138991,0.799547092556572,0.916465694537162,-1.16429003658132,,-0.901997274481589,-1.13285212223358,0.0249197611037466,-1.39261825830174,,-1.92095193837822,-0.555081013818783,0.614681385984495,-0.614681385984318,-0.599666823644476,-0.0235834396215022,0.326576006392376,0.0767699234384425,,-0.82160347951445,0.674147372895177,0.636515979434548,0.300211261088432,0.30021126108854,,0.869460180719685,2.31159248343723,,2.39444210331012,,0.731410411254108,0.00658611498822001,0.00658611498739577,-2.19550953540796,2.58680389513861,,4.19840000000022,102,998.783333333333,305.227450980392,718.544117647059,1010.61862745098,986.948039215686,310.261764705882,300.193137254902,708.980392156863,728.107843137255,0
1099.4688,-0.786019116066285,-1.68559293084986,-1.99721894669856,1.0498394434855,-2.56004531532971,-2.56004531532991,,-0.984279340413472,-2.51883448268414,-2.80956767215887,-0.371726929550042,-2.80956767215971,-1.95994008000127,-2.48241434750484,-3.15518045980641,0.128545369773087,0.78129461959408,0.980304280442272,-1.18219012292509,,-0.901628247867932,-1.1035154704465,0.0465588419279365,-1.33106524141943,,-1.92348503212635,-0.539804604957521,0.640725894272519,-0.640725894272324,-0.60440854010759,0.0147853496782166,0.343607636532382,0.113500600539776,,-0.84744153060777,0.691451803381986,0.647887676789485,0.296375305137607,0.296375305137707,,0.863320939507697,2.34583594626516,,2.40301824597598,,0.715813121039366,0.0201289316522436,0.0201289316514204,-2.18969122941047,2.57586672617992,,4.30080000000021,103,998.12281553398,305.038349514563,752.543689320388,1006.98058252427,989.265048543689,305.318446601942,304.758252427185,739.155339805825,765.932038834951,0
1099.5712,-0.6983007726295,-1.67132764167102,-1.90855596923414,0.98714938328336,-2.56752343502827,-2.56752343502846,,-0.979159724404806,-2.45299118611247,-2.72928349005581,-0.396751675369353,-2.72928349005662,-1.82518187917108,-2.44889097549675,-3.0051862149753,0.188537161637289,0.76210350457851,1.04323369553312,-1.19968050020643,,-0.900706101936447,-1.07257518877186,0.0675875636866048,-1.26819867072127,,-1.92254712103348,-0.522398091766251,0.666296766327715,-0.666296766327503,-0.608391426122265,0.0547810136934728,0.361927652579538,0.151955594851,,-0.87300113910663,0.708760028593153,0.658940290712978,0.291152083662057,0.291152083662166,,0.855458009318623,2.37698635092612,,2.40952026553377,,0.698315904320483,0.0321141474355823,0.0321141474347609,-2.18255083465996,2.56271147347828,,4.4032000000002,102,1022.99068627451,360.245098039216,793.156862745098,1032.12156862745,1013.85980392157,359.962745098039,360.527450980392,775.735294117647,810.578431372549,0
1099.6736,-0.611418995806213,-1.6547018129212,-1.81881097756068,0.924252107477402,-2.57134178654162,-2.57134178654181,,-0.972990468528953,-2.38797209006606,-2.65006837055458,-0.422799525727829,-2.65006837055537,-1.6901373147539,-2.41331093499891,-2.85390417976651,0.248472596030271,0.742058088051751,1.10520721590054,-1.21674802521839,,-0.899241496421427,-1.04007356908344,0.0879393803064617,-1.20414771666979,,-1.91814270381466,-0.502905574499204,0.691304326061694,-0.69130432606147,-0.611590672368666,0.0963114348444922,0.381535555595883,0.192058627326118,,-0.898211001222929,0.7260905451042,0.669667348936142,0.284579769481093,0.284579769481203,,0.845857348812012,2.40505027060163,,2.413946479656,,0.678968589402058,0.0426213155691099,0.0426213155682933,-2.17404653271979,2.54734474150124,,4.50560000000019,103,1040.45825242718,400.903398058252,825.339805825243,1049.11262135922,1031.80388349515,399.536893203884,402.269902912621,807.067961165049,843.611650485437,0
1099.776,-0.525557215456949,-1.63569623657405,-1.72813151475044,0.861228232857997,-2.57153040670469,-2.57153040670487,,-0.965749551487488,-2.32388235377001,-2.57205916282662,-0.449850666147588,-2.57205916282739,-1.55506864619489,-2.3757472720691,-2.70163007450112,0.308251761896068,0.72124415788013,1.16617537341324,-1.23338044537298,,-0.897246485471157,-1.00605535596791,0.107547727131695,-1.1390446478222,,-1.91029001501635,-0.48138159928499,0.715662005284377,-0.715662005284146,-0.613984012623121,0.13927682658019,0.402423628700694,0.23372495323596,,-0.923002988829966,0.743458276040361,0.680063305687852,0.276699927010895,0.276699927011023,,0.83450837096362,2.43004189720222,,2.41630087816387,,0.657826381091584,0.051735157042671,0.0517351570418582,-2.16413834226522,2.52977668046988,,4.60800000000018,102,1042.65294117647,402.964705882353,845.607843137255,1049.91960784314,1035.3862745098,402.888235294118,403.041176470588,826.921568627451,864.294117647059,0
1099.8784,-0.440893308982786,-1.61430091472052,-1.63666731983858,0.798159132703058,-2.5681317152418,-2.56813171524196,,-0.95742013008928,-2.26082005172395,-2.49538185518929,-0.477882432466829,-2.49538185519004,-1.4202369938362,-2.33627989353982,-2.54866183852573,0.367771872426761,0.699748811323455,1.22608608373833,-1.24956639627863,,-0.894734440165571,-0.970567629209763,0.126346322632821,-1.07302433831094,,-1.89902088730491,-0.457890915556045,0.73928667785235,-0.739286677852109,-0.615551714824305,0.183570155246354,0.42457686162397,0.276861688589137,,-0.947312331302772,0.760874792862009,0.69012348896893,0.267557275288126,0.267557275288274,,0.821404216177439,2.451982720901,,2.41659319414125,,0.634949585246423,0.0595450150244614,0.0595450150236554,-2.15278850717437,2.51002107608101,,4.71040000000016,102,1054.86274509804,383.060784313726,857.774509803922,1060.76470588235,1048.96078431373,383.488235294118,382.633333333333,839.156862745098,876.392156862745,0
1099.9808,-0.357599101736789,-1.59051505230201,-1.5445698799731,0.735126890737542,-2.56120016778982,-2.56120016778996,,-0.947990496162541,-2.19887584259988,-2.42015115890836,-0.506869307463459,-2.42015115890908,-1.28590135269299,-2.2949951573398,-2.39529845227345,0.426927480212653,0.677660315894297,1.28488479974097,-1.26529538200762,,-0.891719965100405,-0.933659705372941,0.144269488444617,-1.00622377831503,,-1.88438053258326,-0.432508171289286,0.76209897285621,-0.762098972855965,-0.616276559346688,0.229077614169913,0.44797294072526,0.321368199004194,,-0.971077780112172,0.77834855210878,0.699844036821923,0.257199464715481,0.257199464715649,,0.806542031524311,2.47090119595779,,2.41483894585713,,0.610403324867059,0.0661443042016266,0.0661443042008223,-2.13996188683642,2.48809544073255,,4.81280000000015,103,1031.97766990291,346.88640776699,868.592233009709,1034.13009708738,1029.82524271845,348.887378640777,344.885436893204,845.572815533981,891.611650485437,0
1100.0832,-0.275839892835871,-1.56434701442845,-1.45199197770601,0.672214240635229,-2.55080185766654,-2.55080185766667,,-0.937454002337137,-2.13813267294069,-2.34647015875458,-0.536782912295362,-2.34647015875529,-1.15231761866322,-2.25198543395051,-2.24183875756631,0.485610715059723,0.655067965563835,1.34251469133189,-1.2805577379188,,-0.888218806878144,-0.895383062099965,0.161252496920223,-0.938781581556254,,-1.86642724424729,-0.405317543952833,0.784023569926175,-0.784023569925928,-0.616143807187554,0.275679147844913,0.47258229868318,0.367136547577483,,-0.994241758667737,0.795885138103522,0.70922182047906,0.245676865017966,0.245676865018157,,0.789923254157261,2.48683238409329,,2.41105944532143,,0.584257247317701,0.0716299559437304,0.0716299559429284,-2.1256263513559,2.4640211140024,,4.91520000000014,102,1020.48970588235,327.35,861.725490196078,1022.4931372549,1018.4862745098,329.675490196078,325.024509803922,831.117647058824,892.333333333333,0
1100.1856,-0.195774006752855,-1.535814249878,-1.35908723499432,0.609504480400368,-2.53701406566664,-2.53701406566676,,-0.925808958790769,-2.07866551847197,-2.27443002918225,-0.567592010319064,-2.27443002918292,-1.01973763012495,-2.20734864042524,-2.08858027978491,0.54371154211396,0.632061929785252,1.39891684591051,-1.29534457674413,,-0.884247749686468,-0.855791289356413,0.177231953943367,-0.870837486268175,,-1.84523202454495,-0.376412306409364,0.804989475632883,-0.804989475632634,-0.615141156102204,0.323249025087271,0.498368216400041,0.414051998612841,,-1.01675049815001,0.813487504094019,0.718254356697724,0.233042357252141,0.233042357252355,,0.771553895945911,2.49981756595816,,2.40528176353815,,0.556585218202797,0.0761018539098921,0.0761018539090863,-2.10975317582813,2.4378233674644,,5.01760000000013,103,1011.91504854369,321.073300970874,836.5,1019.11747572816,1004.71262135922,326.602912621359,315.543689320388,802.339805825243,870.660194174757,0
1100.288,-0.117552374302396,-1.50494318300715,-1.26600965883069,0.547081353839484,-2.51992475778005,-2.51992475778016,,-0.913058506630403,-2.02054116547774,-2.20410981514287,-0.599262535093877,-2.20410981514351,-0.888408225569184,-2.16118774918227,-1.93581805362743,0.601118033174449,0.608733097505731,1.45403048182809,-1.30964771704575,,-0.879824494149631,-0.814940070911086,0.192146217300796,-0.802531853420244,,-1.8208781429792,-0.345894332706989,0.824930277482319,-0.82493027748207,-0.613258682071349,0.371656455595379,0.525286971224172,0.4619935708772,,-1.03855415775559,0.831156209148066,0.726939712696016,0.219351123742112,0.219351123742356,,0.751444826821912,2.50990381865683,,2.39753864337742,,0.527464998479675,0.0796622501479326,0.0796622501471245,-2.092317426345,2.40953150623248,,5.12000000000012,102,1008.26862745098,323.372549019608,819.063725490196,1017.74901960784,998.788235294118,324.632352941176,322.112745098039,784.676470588235,853.450980392157,0
1100.3904,-0.0413181493522046,-1.47176907210075,-1.17291319258707,0.485028900881428,-2.49963203159036,-2.49963203159046,,-0.899210472631467,-1.96381803379634,-2.13557627818081,-0.631757639791677,-2.13557627818143,-0.758570319828677,-2.11361027349842,-1.78384345593695,0.657716648622996,0.585172921267774,1.50779317657035,-1.32345959112647,,-0.874967520641556,-0.772887189469355,0.205935837656503,-0.734005168761584,,-1.79346062936234,-0.313873551358987,0.84378436933769,-0.843784369337449,-0.610488767266975,0.420766241963071,0.553288033310494,0.510834634345461,,-1.05960692638761,0.848889653397213,0.735276404957215,0.204660435891168,0.204660435891447,,0.729612056660744,2.51714356837785,,2.38786836425151,,0.49697790679294,0.0824151594863125,0.0824151594854998,-2.07329833519431,2.3791789678405,,5.22240000000011,102,933.698039215686,322.198529411765,817.03431372549,941.462745098039,925.933333333333,325.504901960784,318.892156862745,778.901960784314,855.166666666667,0
1100.4928,0.0327936332910719,-1.43633582801863,-1.07995127315175,0.42343128933216,-2.47624351295722,-2.47624351295732,,-0.884277205304756,-1.90854604325032,-2.06888380949031,-0.665037752708419,-2.0688838094909,-0.630458006479614,-2.06472773126501,-1.63294305387346,0.713392535054024,0.561473262836393,1.5601411181412,-1.33677313061192,,-0.86969594327769,-0.729692538549098,0.218544003539268,-0.665397548732534,,-1.76308570316111,-0.280467353307085,0.861495142906789,-0.861495142906559,-0.606826020403561,0.470439460978619,0.582314312337679,0.56044354599225,,-1.07986710458335,0.866684314379974,0.743263290286124,0.189029441842163,0.189029441842479,,0.706077009426431,2.52159412980468,,2.37631457365064,,0.465208473909765,0.0844657411010089,0.0844657411001985,-2.0526796607079,2.34680341957501,,5.3248000000001,103,918.81213592233,313.149514563107,811.155339805825,924.949514563107,912.674757281553,319.884466019417,306.414563106796,768.106796116505,854.203883495146,0
1100.5952,0.104656356860622,-1.39869579022105,-0.987276393342778,0.362372642961976,-2.44987570678593,-2.44987570678603,,-0.868275390909426,-1.85476652721298,-2.00407441164034,-0.69906062317468,-2.00407441164091,-0.504297697250245,-2.0146550904594,-1.48339748085915,0.76802984492249,0.537726235380713,1.61100938324114,-1.34958163227824,,-0.864029361612575,-0.685418129237469,0.229916980591389,-0.596848246518592,,-1.72987014374828,-0.245799961071949,0.878011145461509,-0.878011145461284,-0.602267196558155,0.520534169746495,0.612302446297729,0.610684318500005,,-1.09929716831005,0.884534982311711,0.750899446703882,0.172518951944547,0.172518951944901,,0.680866773595313,2.52331723736283,,2.36292609589647,,0.432244096573074,0.0859196762478256,0.0859196762470119,-2.0304500222311,2.31244684753506,,5.42720000000008,102,927.96568627451,203.047058823529,800.612745098039,934.046078431373,921.885294117647,213.316666666667,192.777450980392,758.06862745098,843.156862745098,0
1100.6976,0.174152079942158,-1.35890946140003,-0.895039669244456,0.301936874962435,-2.4206533085338,-2.42065330853391,,-0.851225849160936,-1.80251219623458,-1.9411777494066,-0.733781351938606,-1.94117774940715,-0.380307307185935,-1.96351020088557,-1.33548035119607,0.821512080733032,0.514024037163772,1.66033224052965,-1.36187861122753,,-0.85798771453562,-0.640128092571138,0.240004544347075,-0.528495160015067,,-1.69394060970852,-0.2100017639494,0.893286208121698,-0.893286208121482,-0.596811120698814,0.570906131711916,0.643183117488842,0.661417313434402,,-1.11786381671256,0.902434989800974,0.75818404414923,0.15519121722851,0.1551912172289,,0.654014317176944,2.52237857194457,,2.34775671748055,,0.398174694763477,0.0868825469107681,0.0868825469099554,-2.00660320519693,2.27615563021198,,5.52960000000007,103,927.194660194175,201.53932038835,805.257281553398,930.502912621359,923.88640776699,208.234951456311,194.843689320388,763.592233009709,846.922330097087,0
1100.8,0.241171756431847,-1.31704520104011,-0.803390408900401,0.242207528944437,-2.38870848446386,-2.38870848446398,,-0.833153309020683,-1.75180715008529,-1.88021126734938,-0.769152409436878,-1.88021126734991,-0.258695488772396,-1.91141321580086,-1.18945721829638,0.873722463969908,0.490458778078664,1.70804348062188,-1.3736576497367,,-0.851591137852744,-0.593888678533514,0.248760402332149,-0.460474347762365,,-1.65543291502965,-0.173208621574054,0.907279549066906,-0.907279549066696,-0.59045861551584,0.621409555628135,0.67488138625097,0.712499950346295,,-1.13553800548566,0.920376433363946,0.765116207456005,0.137109697698681,0.137109697699115,,0.625558669522949,2.51884729354389,,2.33086494505751,,0.363092371439244,0.0874592213339677,0.0874592213331488,-1.98113843759722,2.23798059314458,,5.63200000000006,102,927.538035611783,201.980398326441,806.776350892985,929.710684513326,925.36538671024,211.556757074087,192.404039578794,765.886579781613,847.666122004357,0
1100.9024,0.305615423486212,-1.27317887730837,-0.712475677166795,0.183267623364241,-2.35418012732398,-2.35418012732413,,-0.814086166599494,-1.70266693271896,-1.82118037252298,-0.805123650011867,-1.82118037252349,-0.139660915604104,-1.85848600754442,-1.04558457911631,0.924544330709161,0.46712230161981,1.75407677815609,-1.38491224706967,,-0.844859824634625,-0.546768245357408,0.256142596070121,-0.392919555703341,,-1.61449126710066,-0.135561135876171,0.919955854403346,-0.91995585440314,-0.583212432696291,0.671897838854842,0.707317044097742,0.76378742517042,,-1.1522949675001,0.938350384165407,0.771694873583717,0.118338821877781,0.118338821878259,,0.595545076211499,2.51279559291866,,2.31231373566219,,0.327091070384796,0.0877532532824421,0.0877532532816168,-1.95406063685964,2.19797703887195,,5.73440000000005,102,923.176814426702,204.681936589783,807.316672211133,925.787425149701,920.566203703704,216.995508982036,192.368364197531,775.679640718563,838.953703703704,0.57843137254902
1101.0048,0.367392359705591,-1.22739347801858,-0.622439855316569,0.125199489219588,-2.31721309181834,-2.31721309181852,,-0.794056229329633,-1.65509862525185,-1.7640786879572,-0.841642332919673,-1.76407868795769,-0.0233916188784859,-1.80485158243823,-0.90410893061922,0.97386155749709,0.444105998902832,1.79836608738865,-1.39563567010302,,-0.83781388499352,-0.498837236686368,0.262113881910097,-0.325961752933835,,-1.57126746850988,-0.0972038906354676,0.9312853357747,-0.931285335774499,-0.575077187538945,0.722224307259804,0.740404997397221,0.815133434821278,,-1.16811421843592,0.95634708518467,0.777918644909736,0.0989437440980144,0.0989437440985356,,0.564025126265096,2.50429826848112,,2.2921702005218,,0.290266227933012,0.0878662981270322,0.0878662981262038,-1.92538062295327,2.15620474369993,,5.83680000000004,103,916.398322798847,205.868658054262,813.312319804835,919.158682634731,913.637962962963,219.020958083832,192.716358024691,797.161676646707,829.462962962963,1
1101.1072,0.426421210329194,-1.17977867839434,-0.533424196490192,0.0680845912413926,-2.27795741303362,-2.27795741303381,,-0.773098448705959,-1.60910097470062,-1.70888838854439,-0.878653160408919,-1.70888838854487,0.0899356168954924,-1.75063349686503,-0.765265885532867,1.02155901648953,0.421500610489119,1.84084606556822,-1.40582080071368,,-0.830473200205546,-0.450168155837257,0.266642103818369,-0.259728673008922,,-1.52592008307862,-0.0582846593719795,0.941243757449652,-0.94124375744946,-0.566059297173081,0.772242949145253,0.774055694355301,0.866390909614488,,-1.18297953778884,0.974356136634044,0.783785644838184,0.0789901064823708,0.0789901064829348,,0.531056845850063,2.49343232577159,,2.27050528036965,,0.252714416545532,0.0878975486637524,0.0878975486629248,-1.89511529642818,2.11272791704699,,5.93920000000003,102,909.02093865102,206.128497407871,822.910545466801,912.52994011976,905.51193718228,221.046407185629,191.210587630114,818.64371257485,827.177378358751,0.186274509803922
1101.2096,0.482630073326602,-1.13043035637371,-0.445566375258417,0.0120033327882779,-2.23656751009999,-2.23656751010019,,-0.751250638132565,-1.56466455696872,-1.65558062668643,-0.91609833485715,-1.6555806266869,0.200155792614617,-1.69595527047177,-0.629279351729731,1.06752305054585,0.399396020395064,1.88145251576985,-1.41545997613659,,-0.822857268107693,-0.400835549504864,0.269700571557671,-0.194344360931338,,-1.47861356697078,-0.0189535855055065,0.949812422212249,-0.949812422212057,-0.556166921701441,0.821809147799888,0.808175598473535,0.917412758250939,,-1.19687891343214,0.99236667628603,0.789293385637674,0.058543807594458,0.0585438075950639,,0.496704754427577,2.48027659443108,,2.24739338722143,,0.214532981899393,0.0879432013114949,0.0879432013106614,-1.86328778596675,2.06761512773637,,6.04160000000002,103,901.537352479507,217.485808964595,830.9317190861,908.841695250276,894.233009708738,226.992006278705,207.979611650485,810.232370211034,851.631067961165,0
1101.312,0.535956541396314,-1.07945004601818,-0.359000028427461,-0.0429651481619635,-2.19320137500278,-2.193201375003,,-0.728553170138397,-1.52177197316324,-1.6041160440689,-0.953917626169943,-1.60411604406934,0.30711616175154,-1.64093979222935,-0.496360779070018,1.11164195527225,0.377881055185103,1.92012284453027,-1.42454482024095,,-0.814985041742159,-0.350916009739776,0.27126844511099,-0.129928735920392,,-1.42951736624901,0.020637659136132,0.956978109056182,-0.956978109055996,-0.545409907927852,0.87078041876567,0.842667700546791,0.968052628057489,,-1.2098044433778,1.01036755817729,0.79443865407079,0.0376707747711243,0.0376707747717768,,0.461039879945743,2.46491135908448,,2.22291201162056,,0.175819680483478,0.0880959690112605,0.0880959690104213,-1.82992757425085,2.02093920618524,,6.14400000000001,102,903.034803921569,225.396568627451,833.916666666667,910.656862745098,895.412745098039,241.517647058824,209.275490196078,788.107843137255,879.725490196078,0
1101.4144,0.58634769676352,-1.02694432757163,-0.273854288714731,-0.0967431905444777,-2.1480197432156,-2.14801974321584,,-0.705048651129245,-1.48039808116791,-1.55444536179126,-0.992048439402982,-1.55444536179169,0.410676617108914,-1.58570872103631,-0.36670848332571,1.15380645858695,0.357043299047063,1.95679653249891,-1.43306606426465,,-0.806874765690081,-0.300488203043834,0.271331119609954,-0.0665971876217454,,-1.37880498025439,0.0603367337949391,0.962732960282705,-0.962732960282526,-0.533799737249817,0.919017152611083,0.877432062244853,1.01816567908816,,-1.22175219307303,1.02834752384276,0.799217413074068,0.016436735864204,0.016436735864904,,0.424139723380845,2.44741799989504,,2.19714130014621,,0.136672328241164,0.0884446518324009,0.0884446518315583,-1.79507060849148,1.97277712620892,,6.24639999999999,102,822.875980392157,210.354901960784,853.705882352941,831.198039215686,814.553921568627,223.064705882353,197.645098039216,804.529411764706,902.882352941177,0
1101.5168,0.633760056549848,-0.973024160655877,-0.190253318274891,-0.149254837286553,-2.10118524328238,-2.10118524328264,,-0.680781576526684,-1.44051026905872,-1.50651004911902,-1.03042588360507,-1.50651004911943,0.510709983116647,-1.53038188808709,-0.240507064633372,1.19391019512202,0.33696892278872,1.99141561228613,-1.44101335681999,,-0.798543812230253,-0.249632934628665,0.269880607527679,-0.00446021955699554,,-1.32665298830845,0.0999915077555394,0.967074316015619,-0.96707431601544,-0.521349479650822,0.966383359817664,0.912366395781436,1.06760937060895,,-1.23272200631268,1.04629535428276,0.803624715879811,-0.00509301196373594,-0.00509301196299244,,0.3860881601218,2.42787863775464,,2.17016360646476,,0.0971884676669231,0.0890737661775547,0.089073766176709,-1.75875939425649,1.92320986342102,,6.34880000000021,103,812.507766990291,211.077184466019,870.800970873786,822.525242718447,802.490291262136,218.388349514563,203.766019417476,819.349514563107,922.252427184466,0
1101.6192,0.678159468388506,-0.917804171900204,-0.10831585108798,-0.200426088003983,-2.05286152935608,-2.05286152935636,,-0.655797971985527,-1.40206878131224,-1.46024307952924,-1.06898285663657,-1.46024307952962,0.607102198686605,-1.47507671068917,-0.117926940063047,1.23185017582242,0.317742514003405,2.0239251408959,-1.44837506613032,,-0.79000851583031,-0.198433250375476,0.266915916402682,0.0563768550202334,,-1.27324004025707,0.139450961502752,0.970004495457852,-0.970004495457682,-0.508073755024427,1.01274741308649,0.947366692060674,1.11624425973938,,-1.24271726817674,1.06419999251737,0.807654630987192,-0.0268538346289593,-0.0268538346281685,,0.346975276504982,2.40637578210578,,2.14206301401657,,0.0574650516779704,0.0900632291374094,0.0900632291365642,-1.72104306702701,1.87232222918056,,6.4512000000002,102,811.749509803922,206.58137254902,879.053921568628,824.441176470588,799.057843137255,211.608823529412,201.553921568627,826.21568627451,931.892156862745,0
1101.7216,0.719520958470013,-0.861401908693978,-0.0281547513003394,-0.250185186006375,-2.0032124077889,-2.00321240778921,,-0.630145027425869,-1.36502710617563,-1.41556977988749,-1.10765016649547,-1.41556977988784,0.699752383866615,-1.41990762600961,0.000875998856025749,1.26752724999591,0.299446898819393,2.0542736531049,-1.45513808076752,,-0.781284003065931,-0.146974576347606,0.262443419870238,0.115814162504506,,-1.21874581674997,0.178566109222903,0.971530529201551,-0.971530529201386,-0.49398870409591,1.05798278027393,0.982327906222222,1.16393480926825,,-1.25174462242433,1.08205063133127,0.811300177990582,-0.0487819876340975,-0.0487819876332606,,0.306897152773372,2.38299198506744,,2.11292482803137,,0.0175981351150371,0.0914880977219726,0.0914880977211249,-1.68197743608769,1.82020268167329,,6.55360000000019,103,852.872815533981,244.732038834951,883.577669902913,866.86213592233,838.883495145631,245.66213592233,243.801941747573,830.873786407767,936.281553398058,0
1101.824,0.757828534236824,-0.803937065330386,0.0501234096059111,-0.298462948812384,-1.95240096858062,-1.95240096858094,,-0.603870728373886,-1.32933242109485,-1.37240876967765,-1.14635670504236,-1.37240876967798,0.788572794700694,-1.36498554789401,0.115760606488898,1.30084655451637,0.282162954679396,2.08241358791991,-1.46128761555518,,-0.772384015458588,-0.0953448975850566,0.256477220077419,0.173757459185476,,-1.16334996596071,0.217190939332248,0.971663848836241,-0.971663848836082,-0.479111972166904,1.10196874042612,1.01714470121565,1.21055019860555,,-1.25981364874468,1.09983676348768,0.814553276627874,-0.0708148274927061,-0.070814827491824,,0.265955603544749,2.35780950869402,,2.08283503532702,,-0.022317434968512,0.0934183689345443,0.0934183689337014,-1.64162499509245,1.76694311092986,,6.65600000000018,102,889.160784313726,282.476470588235,874.813725490196,905.240196078431,873.08137254902,281.86568627451,283.087254901961,824,925.627450980392,0
1101.9264,0.793074943019964,-0.745530683575764,0.126418756388741,-0.345193149670608,-1.90058872772878,-1.90058872772914,,-0.577023485871372,-1.29492608262477,-1.33067297883952,-1.18502967955216,-1.33067297883983,0.873488677761927,-1.31041734449827,0.226600593801058,1.33171794646357,0.265969416714945,2.10830168562905,-1.46680702502334,,-0.763320723094985,-0.0436349762658581,0.249039499105063,0.230118259536356,,-1.10723102215579,0.255183367700089,0.970419937738584,-0.970419937738433,-0.463462705839866,1.14459107740372,1.05171224168505,1.2559651310429,,-1.26693650483561,1.11754819327395,0.817404715477989,-0.0928910024466398,-0.0928910024457116,,0.224257880924225,2.33091001011576,,2.05187972895137,,-0.0621883332023743,0.0959188480521438,0.095918848051299,-1.60005489458431,1.71263859354042,,6.75840000000017,102,886.23431372549,284.389705882353,865.754901960784,904.867647058824,867.600980392157,280.003921568627,288.775490196078,821.607843137255,909.901960784314,0
1102.0288,0.825261390264183,-0.686304336475486,0.200638490792355,-0.390312944787408,-1.84793478692688,-1.84793478692725,,-0.549651767298317,-1.26174414453715,-1.29027071829508,-1.22359489422932,-1.29027071829537,0.954438044675101,-1.25630533449361,0.333284550657644,1.36005641616924,0.250942680671121,2.13189935430967,-1.47167762229543,,-0.754104529229627,0.00806140091772513,0.240160853960918,0.284813909061841,,-1.05056531996655,0.292406188358594,0.967817950637301,-0.967817950637157,-0.447061556091612,1.18574274300937,1.08592701441656,1.30006062363864,,-1.27312754047615,1.13517501311928,0.819844148520427,-0.114950619922178,-0.114950619921211,,0.181916347729218,2.30237424992145,,2.02014450097816,,-0.101923070322529,0.0990490814661125,0.0990490814652713,-1.55734287446201,1.65738712234423,,6.86080000000015,103,906.647087378641,313.369417475728,863.315533980583,929.168932038835,884.125242718447,310.196116504854,316.542718446602,824.436893203884,902.194174757282,0
1102.1312,0.854397224466591,-0.626379317249043,0.272697238898636,-0.433763318567276,-1.79459502395844,-1.79459502395883,,-0.521803734490086,-1.22971788957092,-1.25110675951537,-1.26197705886325,-1.25110675951565,1.03137139761363,-1.20274680528751,0.435715908761121,1.385782478446,0.237156605426685,2.15317300586027,-1.47587850455801,,-0.744743874266981,0.059647168086469,0.229880605117017,0.337767617732065,,-0.993525934654952,0.328727991103821,0.963880319914041,-0.963880319913905,-0.429930676957389,1.22532447230153,1.11968763313779,1.34272475297427,,-1.27840289819558,1.15270755525244,0.821860122702364,-0.136935386404362,-0.136935386403355,,0.139048132710341,2.27228183856511,,1.98771382134181,,-0.141432296097297,0.102863333984257,0.102863333983412,-1.51357115445566,1.60128932292006,,6.96320000000014,102,929.488235294118,342.949019607843,857.264705882353,953.951960784314,905.024509803922,340.472549019608,345.425490196078,820.696078431373,893.833333333333,0
1102.2336,0.880499595075052,-0.565875857595841,0.342517351834649,-0.475489505683647,-1.74072132971295,-1.74072132971336,,-0.493526895059223,-1.19877436299554,-1.2130833789652,-1.30010009255749,-1.21308337896547,1.10425143353106,-1.14983356235275,0.533812868317943,1.40882254503533,0.224682313307191,2.17209436388652,-1.47938639701924,,-0.735245058361522,0.111021738741095,0.218247067080546,0.388908466598342,,-0.93628168250517,0.364024012047446,0.958632368785618,-0.95863236878549,-0.412093713957004,1.26324533006517,1.1528955884014,1.38385332782746,,-1.28278011995313,1.1701363277312,0.82344012852728,-0.158788714041534,-0.158788714040509,,0.095774771092371,2.24071104258409,,1.95467042698785,,-0.180629069548953,0.107410586567852,0.107410586567012,-1.46882827839848,1.54444816292588,,7.06560000000013,103,928.055447416661,347.94298951049,843.762653608527,951.559236879625,904.551657953697,336.598275510897,359.287703510082,814.510183990767,873.015123226288,0
1102.336,0.903593086094118,-0.504912388024709,0.410029152530128,-0.51544135849428,-1.68646090051913,-1.68646090051954,,-0.464867767384738,-1.16883689937863,-1.17610134287559,-1.33788739634445,-1.17610134287585,1.17305273737554,-1.09765151865598,0.627508294208451,1.42910928412213,0.213587982065851,2.18864074520145,-1.48217553282702,,-0.725612103342114,0.162080784780556,0.205317772235539,0.438171386614555,,-0.87899620005117,0.398176898231832,0.952101942478534,-0.952101942478415,-0.393575786560164,1.29942317573035,1.18545592751991,1.42335047382723,,-1.28627777590188,1.18745193698018,0.824570657212814,-0.180455790838888,-0.180455790837841,,0.0522218178305763,2.20773866556556,,1.92109473809776,,-0.219429076760149,0.112734541659247,0.11273454165841,-1.42320890716777,1.48696865200772,,7.16800000000012,102,936.792534965035,364.928347902098,796.896416083916,949.814685314685,923.770384615385,320.884965034965,408.971730769231,807.263986013986,786.528846153846,0.53921568627451
1102.4384,0.923709327396667,-0.443604842589706,0.475171128454331,-0.553573650422486,-1.63195558826554,-1.63195558826596,,-0.435871558339163,-1.13982563843635,-1.14006082723028,-1.37526208589335,-1.14006082723054,1.2377614627827,-1.04628032918474,0.716749577728178,1.44658196718494,0.203938625827288,2.20279531253002,-1.48421757869712,,-0.715846662138742,0.212716038632439,0.191159640436432,0.485497104401667,,-0.821827105537303,0.431077384164785,0.944319061970109,-0.944319061970002,-0.374403474401841,1.33378504405426,1.21727786567225,1.46112912820279,,-1.28891512456556,1.20464499599329,0.825237251437043,-0.201883615240882,-0.201883615239824,,0.00851842127018718,2.17344000387047,,1.88706431027793,,-0.257750792415324,0.11887363506525,0.118873635064406,-1.37681355687503,1.42895752984254,,7.27040000000011,102,947.195821678322,386.089781468532,744.380681818182,948.102797202797,946.288846153846,303.694755244755,468.484807692308,798.347902097902,690.413461538462,0.450980392156863
1102.5408,0.940886588083949,-0.382066012583399,0.537890070662433,-0.589846319689988,-1.57734131445577,-1.57734131445618,,-0.406581859032351,-1.1116580329162,-1.1048622764498,-1.41214719027961,-1.10486227645005,1.29837499864754,-0.99579307471318,0.801498460293634,1.46118679717803,0.195795866782705,2.21454729198439,-1.48548160561387,,-0.705947970252219,0.262815131455214,0.175849084347642,0.530832059768002,,-0.764925244691762,0.462624882581304,0.935315606290204,-0.935315606290104,-0.354604814133492,1.36626744229289,1.24827532615037,1.49711144462753,,-1.29071181023494,1.22170602132883,0.825424548569617,-0.223021000104028,-0.223021000102974,,-0.0352031357924471,2.13788886491276,,1.85265333274129,,-0.295515596050169,0.125861057248363,0.125861057247513,-1.32974828274343,1.37052294509463,,7.3728000000001,103,943.874044062733,320.036387229276,792.142550410754,945.381702763256,942.366385362211,296.292681105302,343.780093353249,796.675130694548,787.60997012696,0
1102.6432,0.955169358822941,-0.320404960206626,0.598141156777279,-0.62422466030652,-1.52274755887696,-1.52274755887737,,-0.377040369221675,-1.0842493590028,-1.07040720826407,-1.44846582963959,-1.07040720826431,1.35490161947057,-0.946256001837144,0.881730813593999,1.47287720894022,0.189217701498472,2.22389214673483,-1.48593410295047,,-0.695912830510414,0.312261486825757,0.159472039236556,0.574128306421927,,-0.708434025961747,0.492727990891375,0.925125030006837,-0.925125030006747,-0.334209307063348,1.39681656698828,1.27836740360646,1.53122910893189,,-1.29168760196034,1.23862532432401,0.825116324375539,-0.243818554873633,-0.243818554872575,,-0.0788079087992663,2.10115762952945,,1.81793218531241,,-0.332647857704455,0.133724785883111,0.133724785882252,-1.28212431256089,1.31177413021315,,7.47520000000009,102,938.683333333333,291.693137254902,842.490196078432,944.528431372549,932.838235294118,297.263725490196,286.122549019608,818.725490196079,866.254901960784,0
1102.7456,0.966607929963635,-0.258726500930373,0.655887977199061,-0.656679468667799,-1.46829692820593,-1.46829692820634,,-0.347286658370298,-1.05751324062757,-1.03659897559375,-1.4841413861431,-1.03659897559398,1.40736011331143,-0.897728325830726,0.957436366875534,1.4816141273942,0.184258272321588,2.23083169776298,-1.48553903814681,,-0.685735625782292,0.360934282158055,0.142123909008674,0.615343401846848,,-0.652488846316054,0.521304917883611,0.913782116228597,-0.913782116228516,-0.313247932562414,1.42538844962985,1.30747875000793,1.56342357325054,,-1.29186217313222,1.25539290059657,0.824295547667644,-0.26422865440346,-0.2642286544024,,-0.122158767887724,2.06331733877803,,1.78296706216304,,-0.369075004785448,0.142487631597861,0.142487631596985,-1.23405763432602,1.252821075029,,7.57760000000008,103,967.192718446602,243.704368932039,830.558252427185,974.484466019418,959.900970873786,247.693203883495,239.715533980583,793.223300970874,867.893203883495,0
1102.848,0.975257969085321,-0.197130754181565,0.71110250805729,-0.687187153190033,-1.41410480076989,-1.41410480077029,,-0.317357964088434,-1.03136218815178,-1.00334349131665,-1.51909767535364,-1.00334349131687,1.4557793831763,-0.850262096813404,1.028618376981,1.48736616858726,0.180967659899022,2.23537418756594,-1.48425796408385,,-0.675408358574431,0.408708482476347,0.123909424543566,0.654440287630013,,-0.597216604865679,0.548283834725844,0.901322758525282,-0.901322758525209,-0.291753160338112,1.4519490420682,1.33553988625295,1.59364621846512,,-1.29125491422152,1.27199832303085,0.822944453702859,-0.284205398207276,-0.284205398206202,,-0.16511688495371,2.02443778873632,,1.74781966097977,,-0.404727574972753,0.152167300636418,0.152167300635528,-1.18566854147951,1.1937742013783,,7.68000000000006,102,969.119607843137,243.5,822.132352941176,977.210784313726,961.028431372549,242.439215686275,244.560784313726,782.235294117647,862.029411764706,0
1102.9504,0.981180099908692,-0.135712758661039,0.76376503546996,-0.715729804209667,-1.36027904146149,-1.36027904146189,,-0.287289023795653,-1.00570813839253,-0.970549906397175,-1.55325911002706,-0.970549906397394,1.50019802671136,-0.803902125537461,1.09529324777697,1.49010978393948,0.179391702937083,2.23753429361356,-1.48205017362052,,-0.664920719916475,0.455454951570337,0.104942411601292,0.691387163429053,,-0.542735307373709,0.573603144624109,0.887783765742479,-0.887783765742418,-0.269758953692236,1.47647424464823,1.36248743555838,1.62185844624813,,-1.28988477292514,1.28843064626067,0.821044637798947,-0.303704562142723,-0.303704562141638,,-0.207542251841478,1.98458762172289,,1.71254693133194,,-0.439539251671249,0.162776476595068,0.162776476594165,-1.13708113656662,1.13474404108553,,7.78240000000005,102,950.757843137255,233.392647058824,790.186274509804,958.242156862745,943.273529411765,235.352941176471,231.432352941177,754.617647058824,825.754901960784,0
1103.0528,0.984439486640288,-0.0745621524565369,0.81386403458388,-0.742295211869032,-1.30691978379891,-1.30691978379929,,-0.257111934994844,-0.980462984324701,-0.938131222040772,-1.58655084214912,-0.938131222040978,1.54066390340669,-0.758685967233211,1.15749010885912,1.489829364752,0.179571834927744,2.23733310449323,-1.47887289912904,,-0.654260189953511,0.501040645410837,0.0853454644640771,0.726157356309189,,-0.489153770522575,0.597211660921695,0.873202688786653,-0.873202688786599,-0.247300755956195,1.49894987415324,1.38826427111909,1.64803169609359,,-1.28777012248624,1.30467832987168,0.81857716499522,-0.32268354847445,-0.322683548473359,,-0.249294252249605,1.94383440479709,,1.6772008778986,,-0.473446877957081,0.174322919654959,0.174322919654048,-1.08842279267933,1.07584091670871,,7.88480000000004,103,892.019417475728,206.896116504854,765.101941747573,900.966990291262,883.071844660194,210.207766990291,203.584466019417,735.145631067961,795.058252427185,0
1103.1552,0.98510542934493,-0.0137629198785844,0.861396006861013,-0.766876824425115,-1.25411927747926,-1.25411927747965,,-0.226856041481539,-0.955539096805415,-0.906004823354959,-1.61889887778938,-0.906004823355156,1.5772336941329,-0.714643963915881,1.21525035812018,1.48651732035643,0.181544927393582,2.23479806643823,-1.47468155324901,,-0.643412168411769,0.545328888618124,0.0652495213280297,0.758729181886696,,-0.436571428848685,0.619068692539852,0.857617670636892,-0.857617670636839,-0.224415456365522,1.51937157247508,1.41281957840122,1.67214738819753,,-1.28492865963748,1.32072918465505,0.815522690328807,-0.341101342456062,-0.341101342454959,,-0.290232292841732,1.90224468904326,,1.64182842104935,,-0.506390453484011,0.186809582658842,0.186809582657925,-1.03982357565669,1.01717462215828,,7.98720000000003,102,893.021078431373,207.882843137255,760.205882352941,899.546078431373,886.496078431373,212.307843137255,203.457843137255,732.696078431373,787.71568627451,0
1103.2576,0.983250973384662,0.0466067955783564,0.906365278761859,-0.789473651188206,-1.20196179801856,-1.20196179801895,,-0.196547844693703,-0.930849846778719,-0.87409293586117,-1.65023016831213,-0.874092935861353,1.60997245202441,-0.671799342233065,1.26862716862878,1.48017412538353,0.185343142945977,2.22996289739585,-1.46943000504285,,-0.632360129411316,0.588179733029161,0.044793338386939,0.789085792584175,,-0.385078235907012,0.639144046107672,0.841067319334651,-0.8410673193346,-0.201141336764526,1.53774466200608,1.43610884157239,1.69419679994462,,-1.28137732901526,1.33657034418511,0.811861586030754,-0.358918477708837,-0.358918477707725,,-0.330216478911272,1.85988404989859,,1.60647132121591,,-0.538313125349479,0.200234747070862,0.200234747069941,-0.991415632230173,0.958854099159132,,8.08960000000002,103,894.534951456311,203.066990291262,754.480582524272,900.295145631068,888.774757281554,206.891262135922,199.242718446602,725.349514563107,783.611650485437,0
1103.36,0.978952532835812,0.106474814896282,0.948783763868603,-0.810090119055596,-1.15052361268658,-1.150523612687,,-0.166210940386373,-0.906310128736831,-0.842323014089029,-1.68047268196696,-0.842323014089198,1.63895314177,-0.630168360264733,1.31768496011941,1.47080832225584,0.190993807372523,2.22286745896438,-1.46307088690497,,-0.621085795701132,0.629450400394861,0.0241228586044876,0.817215010966281,,-0.334754646509189,0.657417956178146,0.823590602150643,-0.8235906021506,-0.177518001420626,1.5540839533522,1.45809376464701,1.71418088374674,,-1.27713226957838,1.35218826131668,0.80757407404286,-0.376097004204123,-0.376097004202996,,-0.369108320627618,1.81681711491042,,1.57116616591735,,-0.569161182542485,0.214592181690441,0.214592181689521,-0.943332539836779,0.900987098529612,,8.19200000000001,102,894.372549019608,202.160784313726,740.102941176471,899.807843137255,888.937254901961,208.116666666667,196.204901960784,710.882352941177,769.323529411765,0
1103.4624,0.972289528134984,0.165774986945033,0.988670691086049,-0.828735889354532,-1.09987299718603,-1.09987299718647,,-0.135865981072165,-0.881836876646752,-0.810628068910894,-1.70955545748732,-0.81062806891106,1.6642561681986,-0.589760497218492,1.362498838931,1.45843647337127,0.198519302099051,2.21355757995857,-1.45555593185361,,-0.60956933011468,0.668995819643284,0.00339046684125392,0.843109151715166,,-0.285671670764853,0.673880950824078,0.80522675916999,-0.805226759169951,-0.153586290481176,1.56841350679609,1.47874213408179,1.73211002939947,,-1.27220878254259,1.36756872661527,0.802640363770177,-0.392600451823005,-0.392600451821856,,-0.406771469234802,1.77310758614324,,1.535944407843,,-0.598884059820472,0.229871322708056,0.229871322707121,-0.895708601971218,0.843679809004004,,8.2944,102,894.084901960784,201.055150326797,727.519803921569,900.997058823529,887.172745098039,205.805882352941,196.304418300654,698.186274509804,756.853333333333,0
1103.5648,0.963344039691673,0.22444719482313,1.02605230291282,-0.845425639487082,-1.05007030073892,-1.05007030073937,,-0.105530664186713,-0.857349558794356,-0.778946932231163,-1.73740863914733,-0.778946932231324,1.68596890236763,-0.550578681612529,1.40315401668361,1.4430830717378,0.207936969536158,2.20208483597338,-1.44683634282738,,-0.597789543941041,0.706669276259357,-0.0172458795933956,0.866764841760316,,-0.237890996201062,0.688533653781191,0.786015234504474,-0.786015234504432,-0.129388177111543,1.58076634484372,1.49802762735637,1.74800377008945,,-1.26662132321379,1.38269690630645,0.79704079518914,-0.408393787112142,-0.408393787110984,,-0.44307248707836,1.72881826156274,,1.50083244414813,,-0.627434353894026,0.246057469796978,0.246057469796032,-0.848678074875426,0.787036443855017,,8.39680000000021,103,915.184368932039,277.68172815534,675.228932038835,918.508737864078,911.86,296.85145631068,258.512,630.73786407767,719.72,0.0485436893203884
1103.6672,0.952200478525883,0.282437308872429,1.06096152761055,-0.860178811930417,-1.00116805894374,-1.0011680589442,,-0.0752197442016889,-0.83277063592335,-0.747224452267549,-1.76396349058175,-0.747224452267699,1.70418521817358,-0.512619552916719,1.43974522305924,1.42478042367694,0.219259022098041,2.18850629423858,-1.43686319470995,,-0.585724123025977,0.742323182774122,-0.0376236493550854,0.888182844822195,,-0.191465176223729,0.70138652011249,0.765995622646295,-0.765995622646256,-0.104966646967786,1.59118411354227,1.51592957048823,1.76189043101111,,-1.26038351745002,1.39755740034962,0.790755987721653,-0.423443360671242,-0.423443360670076,,-0.477881652791474,1.68401105529588,,1.46585173669646,,-0.654767850992424,0.263131991958092,0.26313199195713,-0.802374322762563,0.731158788273291,,8.4992000000002,102,920.206960784314,587.721065359477,486.763921568628,883.453921568628,956.96,799.032352941176,376.409777777778,320.774509803922,652.753333333333,0.186274509803922
1103.7696,0.938945274642828,0.339697091551687,1.09343762990483,-0.873019327560832,-0.953211150614468,-0.953211150614941,,-0.0449450634534158,-0.808025967172623,-0.715411609654486,-1.78915238331738,-0.715411609654627,1.71900505309507,-0.475873750310405,1.47237612927841,1.40356851332468,0.23249244670936,2.17288422875496,-1.42558786961131,,-0.573349872946633,0.775809961377632,-0.0575768578821169,0.907367886602713,,-0.146437883738974,0.712459502578401,0.745207628740045,-0.745207628740006,-0.0803655538577624,1.59971669512789,1.53243264274965,1.77380672219641,,-1.25350820283064,1.41213432357872,0.783766997219453,-0.437716841461915,-0.43771684146073,,-0.511073804408221,1.63874701252351,,1.43101897876096,,-0.680843562680826,0.28107253737472,0.281072537373748,-0.756928905672923,0.676145711463768,,8.60160000000019,103,978.00281553398,345.096194174757,682.009514563107,976.390291262136,979.615339805825,329.426213592233,360.766174757282,673.844660194175,690.174368932039,0
1103.872,0.92366658634293,0.396184060863798,1.12352584821791,-0.883975256224059,-0.906236989927796,-0.906236989928275,,-0.0147155937445657,-0.783045154684349,-0.683465544093783,-1.81290875716504,-0.68346554409392,1.73053400203289,-0.440326223343631,1.50115879370644,1.37949485516036,0.247638897990398,2.15528580729611,-1.41296252525027,,-0.560642983392061,0.806983020498765,-0.076937298243455,0.924328471998786,,-0.102844228188778,0.721781650975879,0.723691044012026,-0.723691044011986,-0.0556294431313373,1.60642177958461,1.54752652555459,1.78379728092995,,-1.24600749705929,1.42641141227793,0.776055483528472,-0.451183141616412,-0.451183141615219,,-0.542529225214138,1.59308631229831,,1.39634631437578,,-0.705623768819348,0.299853243085818,0.299853243084838,-0.712470606167855,0.622092640939558,,8.70400000000018,102,973.882352941176,344.662254901961,709.21568627451,981.143137254902,966.621568627451,346.38137254902,342.943137254902,681.705882352941,736.725490196078,0
1103.9744,0.90645403544037,0.451861318453415,1.15127702755824,-0.893078445340722,-0.860275744532156,-0.860275744532642,,0.0154625163539457,-0.757761831626922,-0.651349490649977,-1.83516705932859,-0.651349490650108,1.73888294173433,-0.40595656304856,1.5262131278071,1.35261433858143,0.264694578868411,2.13578275452452,-1.39894059109732,,-0.547579308111512,0.835697798349049,-0.0955358579994585,0.939076687936566,,-0.0607111294973716,0.729390654904742,0.701485736032913,-0.701485736032874,-0.0308033403977987,1.61136440463615,1.56120550364946,1.79191417401599,,-1.23789289414243,1.44037215460625,0.767603887673292,-0.463812344595633,-0.463812344594421,,-0.572134566841835,1.54708825157662,,1.36184161208015,,-0.729074068969958,0.31944494257834,0.319444942577343,-0.669124410206715,0.569091000843319,,8.80640000000017,102,906.749509803922,366.678431372549,716.137254901961,914.755882352941,898.743137254902,370.76568627451,362.591176470588,684.264705882353,748.009803921569,0
1104.0768,0.887398471311147,0.506697345613588,1.1767472531529,-0.900364122830333,-0.815350575049291,-0.815350575049787,,0.0455858861747713,-0.7321139111653,-0.619032640965365,-1.85586268600383,-0.619032640965492,1.74416767191092,-0.372739355422755,1.54766636773097,1.32298906516643,0.283650115481089,2.11445099916558,-1.38347727883536,,-0.534134652272572,0.861812824994727,-0.113203868753906,0.951627992055675,,-0.0200577368438069,0.735332345708951,0.678631647879598,-0.678631647879562,-0.00593251271621743,1.61461647085615,1.57346804387631,1.79821637287108,,-1.22917538051389,1.45399993809352,0.75839561562186,-0.475575651464198,-0.475575651462963,,-0.599783779318512,1.50081120697395,,1.32750878625921,,-0.751163441820139,0.33981536963412,0.339815369633103,-0.627010475982702,0.517227634228157,,8.90880000000016,103,883.716990291262,372.218446601942,711.820388349515,891.718446601942,875.715533980583,377.165048543689,367.271844660194,677.650485436893,745.990291262136,0
1104.1792,0.866591762619107,0.56066576783089,1.19999748428974,-0.905870498388407,-0.771477896124529,-0.771477896125038,,0.0756538325112893,-0.706043815602974,-0.586489954657209,-1.87493195760986,-0.586489954657339,1.74650855568603,-0.340644559754233,1.56565253311444,1.29068817566741,0.304490437552984,2.09137031265672,-1.36653008999822,,-0.520285057901707,0.885190743290361,-0.12977441552057,0.962000995751719,,0.019104121269265,0.739660171971677,0.655168796490494,-0.655168796490455,0.018937785912315,1.61625623300989,1.58431638393242,1.80276921191937,,-1.21986555697468,1.46727820451872,0.74841522692392,-0.486445356844001,-0.486445356842739,,-0.625379000619223,1.45431257524265,,1.2933481541072,,-0.771864308166106,0.360929355271693,0.360929355270654,-0.586243132650942,0.466584239260545,,9.01120000000014,102,882.399509803922,360.391666666667,686.014705882353,894.117647058824,870.68137254902,367.166666666667,353.616666666667,654.323529411765,717.705882352941,0
1104.2816,0.844126611999323,0.613745087454445,1.22109318387022,-0.909638383595969,-0.728667659730501,-0.728667659731025,,0.105668276664477,-0.679498697692191,-0.553701946826924,-1.89231214837129,-0.553701946827051,1.74603014418771,-0.309637912743087,1.58031185756564,1.25578766064539,0.327194674835171,2.06662394177303,-1.34805930703696,,-0.506007080589896,0.90569925267986,-0.145083554942508,0.970217254715008,,0.0567694679738866,0.742434658202795,0.63113726138333,-0.631137261383286,0.0437625746226369,1.61636776601086,1.59375615623794,1.8056438363563,,-1.2099737527043,1.48019060396155,0.737648627778304,-0.496394861890911,-0.496394861889622,,-0.64883136892403,1.40764869733188,,1.25935681701914,,-0.791152593459,0.382749014543963,0.382749014542906,-0.546929934793132,0.417236836818878,,9.11360000000013,103,882.49854368932,356.97572815534,661.155339805825,895.209708737864,869.787378640777,365.900970873786,348.050485436893,634.04854368932,688.26213592233,0
1104.384,0.820096387947505,0.665918384749714,1.2401039387834,-0.911710845584319,-0.686923661207037,-0.686923661207581,,0.135633622218037,-0.652430658020555,-0.520654473114579,-1.9079415764463,-0.520654473114709,1.74286077507488,-0.279681357070698,1.59179018136917,1.21837014763017,0.351736078349889,2.04029823440753,-1.32802845929053,,-0.491278052726057,0.923211977341574,-0.158971432560424,0.976301080031471,,0.0929397008488632,0.743722852708512,0.606577159126599,-0.606577159126548,0.0684974042497821,1.61504040545532,1.60179605886418,1.80691664277344,,-1.19951012150667,1.49272114417753,0.726083268146718,-0.505398725589003,-0.505398725587689,,-0.670061742342947,1.36087477616432,,1.22552905596902,,-0.80900779142097,0.405233922470477,0.405233922469402,-0.509170777533454,0.369255271025734,,9.21600000000012,102,839.352941176471,367.797549019608,650,851.955882352941,826.75,377.708823529412,357.886274509804,625.843137254902,674.156862745098,0
1104.4864,0.794594970056133,0.717172991287734,1.25710307073498,-0.912132903902986,-0.646243870304369,-0.646243870304928,,0.165556599821261,-0.62479695448905,-0.487338524368097,-1.92175975269352,-0.487338524368231,1.73713214433093,-0.250733489466612,1.60023830816513,1.17852466088844,0.378081973989414,2.01248226087132,-1.30640476002114,,-0.476076330458861,0.937609274623629,-0.171283307762712,0.980279379975568,,0.12762211463472,0.743597769000158,0.581528604205445,-0.581528604205381,0.0930986079566426,1.61236816566471,1.6084475726983,1.80666871482281,,-1.18848471462082,1.50485433541985,0.713708343228365,-0.513432745839856,-0.513432745838501,,-0.689001317426942,1.31404480501969,,1.1918567289482,,-0.825413029944123,0.42834128361598,0.428341283614891,-0.473057075858127,0.322702746941541,,9.31840000000011,102,818.837254901961,371.18431372549,640.348039215686,833.63431372549,804.040196078431,378.466666666667,363.901960784314,619.294117647059,661.401960784314,0
1104.5888,0.767716605031709,0.767500145103128,1.27216724254378,-0.910951270789756,-0.606620789875909,-0.606620789876488,,0.195446083001294,-0.596560194107566,-0.453750031411426,-1.93370757993805,-0.453750031411559,1.72897886021879,-0.222750019701699,1.6058113386058,1.13634635460266,0.406193754343328,1.98326743785831,-1.28315951669495,,-0.460381526765724,0.948778993967987,-0.181870493733733,0.982181536919923,,0.16082942671953,0.742137823172151,0.556031659890775,-0.556031659890699,0.117523538079944,1.60844914125527,1.61372471306518,1.80498525542356,,-1.17690752788216,1.51657533428436,0.70051500024754,-0.520474052898134,-0.520474052896742,,-0.705592135687787,1.26721152667721,,1.15832966012367,,-0.840355130682835,0.452026106113767,0.452026106112657,-0.438671024273208,0.277635424233264,,9.4208000000001,103,816.983980582524,373.160679611651,627.650485436893,831.245631067961,802.722330097087,379.192233009709,367.129126213592,608.883495145631,646.417475728155,0
1104.6912,0.739555770270311,0.816894639881427,1.28537606651887,-0.908214123645058,-0.568041842265349,-0.568041842265955,,0.225312885995433,-0.567688500524445,-0.419889674528383,-1.94372758847231,-0.419889674528513,1.71853798911264,-0.195684231733232,1.60866799490668,1.09193622263768,0.436026911992311,1.95274716278033,-1.25826852042226,,-0.444174737803317,0.956617195776051,-0.190591223926053,0.982039318036566,,0.192579303177594,0.739426266542695,0.530126282423866,-0.530126282423779,0.141730785041885,1.60338490072407,1.6176438006049,1.80195501804633,,-1.1647885242371,1.52787009362919,0.686496548847333,-0.526501200237303,-0.526501200235878,,-0.719787470943441,1.22042643759796,,1.12493601879717,,-0.853824648792726,0.476241394289866,0.47624139428874,-0.406084959716035,0.234102093390979,,9.52320000000009,102,826.244855847477,391.369290087577,600.936603890568,831.944117647059,820.545594047896,381.911764705882,400.826815469271,601.627450980392,600.245756800744,0
1104.7936,0.710207042729002,0.865354478070153,1.29681172055425,-0.903970894588234,-0.530489780534539,-0.530489780535175,,0.255169554859941,-0.538155658490902,-0.385762693612502,-1.95176419272794,-0.385762693612634,1.70594859782507,-0.169487441229901,1.60896994368883,1.04540078912429,0.467531114231294,1.92101646426176,-1.23171241759407,,-0.427438768077304,0.961028843935764,-0.197311463345289,0.979886816081991,,0.222893882554207,0.735550612269417,0.503852261400337,-0.503852261400238,0.165680375108484,1.59727987972963,1.62022324416411,1.79766974128617,,-1.15213763620245,1.53872552550792,0.671648668124774,-0.531494250677526,-0.531494250676065,,-0.731552096344499,1.17373983663861,,1.09166269577915,,-0.865815887793652,0.500938370566551,0.500938370565407,-0.375360844952081,0.192143953625638,,9.62560000000008,103,841.894610052762,667.259073440528,382.741268946934,810.154042239912,873.635177865613,821.597593521373,512.920553359684,286.162379791101,479.320158102767,0.504854368932039
1104.896,0.679764974128013,0.91288053048,1.30655857483838,-0.898272068178637,-0.493943120177635,-0.49394312017831,,0.285030157323006,-0.507941237948926,-0.351378696348829,-1.95776396084547,-0.351378696348958,1.69135129553917,-0.144109447044053,1.60688112138396,0.996851785870174,0.500650315111275,1.88817167284927,-1.20347706225049,,-0.410158354197912,0.961928481352136,-0.201905678494917,0.975760416146291,,0.251799297968864,0.730602058071116,0.477249160592472,-0.477249160592365,0.18933394587698,1.59024077690105,1.62148334055664,1.79222359049777,,-1.13896475506013,1.54912967785631,0.655969601525613,-0.535434863418307,-0.535434863416815,,-0.740862434722953,1.12720090434845,,1.05849568357922,,-0.876326894927828,0.526066725957467,0.526066725956309,-0.346549878051266,0.151794494126566,,9.72800000000007,102,879.405524680509,557.282310921484,445.778339050436,851.456872037915,907.354177323103,546.566113744076,567.998508098892,472.478672985782,419.07800511509,0.0980392156862745
1104.9984,0.648323974539032,0.959476196732825,1.31470282664109,-0.891168988367209,-0.458376586448928,-0.458376586449644,,0.314910069449042,-0.4770306980005,-0.316751461776014,-1.96167589937753,-0.316751461776142,1.67488777897796,-0.119498976785018,1.60256706572889,0.946405823859045,0.535322897558168,1.85431011449575,-1.17355384761452,,-0.392320383572286,0.959240887301681,-0.204257569022948,0.969698783407217,,0.279325201215902,0.724674909921124,0.450356263987327,-0.450356263987206,0.212654902714681,1.58237595026935,1.62144610171808,1.78571260801931,,-1.12527971183933,1.55907191808648,0.639460334858058,-0.538306384144782,-0.538306384143255,,-0.747706598492248,1.08085779608229,,1.0254204550595,,-0.885359443329061,0.551574885231971,0.551574885230797,-0.319692222954014,0.113079465818163,,9.83040000000005,102,877.442317163832,340.137766006877,648.531618808661,882.993457857076,871.891176470588,347.640237896106,332.635294117647,633.50441408791,663.558823529412,0
1105.1008,0.61597820297485,1.00514705952151,1.32133213652028,-0.882713682096311,-0.423761571741909,-0.423761571742665,,0.344825753321932,-0.445415470823261,-0.281898741581674,-1.96345176081322,-0.281898741581797,1.65670038046475,-0.0956041272694892,1.59619425262707,0.894184064938433,0.571481838446508,1.81952982790273,-1.14194001646106,,-0.373914104367496,0.952901708057753,-0.204260756504336,0.9617428663827,,0.305504294822241,0.717866011512912,0.42321252862435,-0.423212528624216,0.235608561130745,1.57379481243209,1.62013511582863,1.77823417236197,,-1.11109225058692,1.56854311420985,0.622124757638858,-0.540093933587002,-0.540093933585435,,-0.752084323833194,1.0347577371583,,0.992422328628672,,-0.892919003750488,0.577410269324484,0.577410269323302,-0.294816849831328,0.0760169273207924,,9.93280000000004,103,873.472330097087,354.268446601942,701.432038834951,887.979611650485,858.965048543689,358.54854368932,349.988349514563,684.009708737864,718.854368932039,0
1105.2032,0.582821461154285,1.04990053198387,1.32653526202279,-0.872958708707338,-0.390066597544341,-0.390066597545136,,0.37479452109303,-0.413093023871107,-0.246842068215771,-1.96304637971635,-0.246842068215893,1.63693161582437,-0.0723727982935834,1.58792943611204,0.840311896234941,0.609054892608137,1.78392930508608,-1.10863894798015,,-0.354931322916145,0.942858051114486,-0.201819423277383,0.951935911648378,,0.330371879808756,0.710274184260889,0.395856541351416,-0.395856541351269,0.258162276762358,1.56460722580106,1.61757544179878,1.76988646730192,,-1.09641199163063,1.57753580603486,0.603969809579776,-0.540784487351349,-0.540784487349749,,-0.754006801002601,0.988947114897092,,0.959486811745538,,-0.899014709321119,0.603519546804898,0.603519546803707,-0.271941474572041,0.0406173539026243,,10.0352,102,934.866666666667,355.507352941177,730.71568627451,947.482352941176,922.250980392157,365.255882352941,345.758823529412,697.539215686275,763.892156862745,0
1105.3056,0.548947089589915,1.09374550467604,1.33040169313231,-0.861957044359269,-0.357257777133143,-0.357257777133973,,0.404834284921783,-0.380066892594426,-0.211606575436651,-1.96041804323735,-0.21160657543677,1.61572373523754,-0.0497531142986819,1.57793899714799,0.784918603773385,0.64796479695725,1.74760725152517,-1.07366041704384,,-0.335366583700692,0.929069037161695,-0.196848895893247,0.940323488908015,,0.353965426070655,0.701999683665375,0.368326475169534,-0.368326475169372,0.280285561516854,1.55492290198922,1.61379353442844,1.76076796343465,,-1.08124838326931,1.58604436081445,0.585005614213651,-0.540366940888876,-0.540366940887242,,-0.753496398653467,0.943471566746276,,0.92659991680164,,-0.903659319152585,0.629848875794849,0.629848875793653,-0.251072593103286,0.00688380462028472,,10.1376,103,941.405825242719,369.231553398058,751.631067961165,951.846601941748,930.965048543689,376.040776699029,362.422330097087,712.135922330097,791.126213592233,0
1105.408,0.514447868727187,1.13669200330106,1.33302130049267,-0.849762005582315,-0.325299275115218,-0.325299275116091,,0.434963299038624,-0.34634667134203,-0.176220824981295,-1.95552890402662,-0.176220824981411,1.59321828683509,-0.0276938249965648,1.56638831533343,0.728137034273047,0.688129502942706,1.71066235914319,-1.0370208247076,,-0.315217328041225,0.911506306178243,-0.189276168460148,0.926953527256915,,0.376324168531353,0.693143677120205,0.340660041587473,-0.340660041587291,0.301950187638768,1.54485081217334,1.60881719961295,1.75097691765668,,-1.06561064172931,1.59406511049044,0.565245603628114,-0.538832154687229,-0.538832154685567,,-0.750586276421036,0.898376062105528,,0.893748441236017,,-0.906869184386112,0.65634413881283,0.656344138811631,-0.232205611613204,-0.025187853717905,,10.24,102,943.257352941177,365.091176470588,742.553921568627,952.755882352941,933.758823529412,370.928431372549,359.253921568627,702.745098039216,782.362745098039,0
1105.5104,0.479415927273524,1.17875086955942,1.33448400784804,-0.836427203136978,-0.294153758515108,-0.294153758516022,,0.465199905913852,-0.311947953763685,-0.140716625901843,-1.94834543666539,-0.140716625901955,1.56955570022206,-0.00614467523609243,1.55344117538066,0.670103230272495,0.729462452041946,1.67319308678665,-0.998743401689664,,-0.294484031046153,0.890154470345752,-0.179040356764711,0.911876363911983,,0.397488727352,0.683807742992188,0.312894436673915,-0.312894436673712,0.323130287574853,1.53449861743388,1.60267557791026,1.74061089751765,,-1.04950768011318,1.60159647455896,0.544706639342545,-0.536172978487523,-0.536172978485834,,-0.74531988269745,0.853704971526158,,0.860920206141843,,-0.908664215995502,0.682951171645025,0.682951171643821,-0.215325074033358,-0.055608666834514,,10.3424,102,943.652450980392,370.980882352941,732.446078431373,953.66568627451,933.639215686275,374.170588235294,367.791176470588,692.186274509804,772.705882352941,0
1105.6128,0.443942656774353,1.21993347374476,1.3348794945231,-0.82200650902868,-0.26378283481301,-0.263782834813968,,0.495562296720144,-0.276892224534646,-0.105128837620895,-1.93883892537628,-0.105128837621016,1.544874889521,0.0149432622024532,1.53925921104569,0.61095602738762,0.771872908887851,1.63529744777916,-0.958858383997062,,-0.273170319009591,0.865011504303821,-0.166093071276655,0.895144807121978,,0.417500748696257,0.674093386356754,0.285066280405798,-0.285066280405575,0.34380245727269,1.52397212728623,1.59539915061578,1.72976633550578,,-1.0329480279265,1.6086390782328,0.523409130746767,-0.53238426100258,-0.532384261000867,,-0.73775034074353,0.809502119219317,,0.828104253798559,,-0.909067851186204,0.709615987139707,0.709615987138502,-0.200404986152407,-0.0843962604654542,,10.4448000000002,103,896.943689320388,375.008737864078,737.54854368932,905.716504854369,888.170873786408,381.145631067961,368.871844660194,697.155339805825,777.941747572816,0
1105.7152,0.408118628471873,1.26025146177778,1.33429692651321,-0.806554025670052,-0.234147472297136,-0.234147472298139,,0.526068288476602,-0.2412067110397,-0.069495159433173,-1.92698596461683,-0.0694951594333015,1.51931287088346,0.0356172917475569,1.52400138192058,0.550836613392119,0.815266353836821,1.59707280598024,-0.917403156218075,,-0.251283069658754,0.836089069221121,-0.150398703134881,0.876814215585899,,0.436402566318737,0.664101570493751,0.257211549289962,-0.257211549289727,0.363945865060772,1.51337479235807,1.5870197605371,1.7185381158868,,-1.01593974351631,1.6151958714491,0.501377147686671,-0.527462855382167,-0.527462855380429,,-0.727939733176385,0.765810821176026,,0.79529100335626,,-0.908107012434951,0.736284991776263,0.73628499177506,-0.187409234481807,-0.11157446136548,,10.5472000000002,102,878.634803921569,374.610784313726,737.441176470588,887.909803921569,869.359803921569,375.620588235294,373.600980392157,701.303921568627,773.578431372549,0
1105.8176,0.372033509386507,1.29971653337549,1.33282471092593,-0.790124053920887,-0.20520839712456,-0.205208397125599,,0.556735113881554,-0.204924200139409,-0.0338559146037902,-1.9127689543343,-0.0338559146039253,1.49300439226399,0.0559228323625133,1.5078234780951,0.489888064426178,0.859544914912051,1.55861568080933,-0.874422360630307,,-0.228832498342344,0.803412777690312,-0.131934630089155,0.856942595193535,,0.454236884129009,0.653932269083387,0.229365502302201,-0.229365502301949,0.383542365403576,1.50280723280483,1.5775706366687,1.70701919222882,,-0.998490326677398,1.62127224156807,0.478638521672119,-0.521407627485262,-0.521407627483504,,-0.715958309341131,0.722673913965933,,0.762472357956772,,-0.905812047886999,0.762905187607681,0.762905187606484,-0.176292094289473,-0.137172881268811,,10.6496000000002,103,881.338834951456,375.492718446602,723.009708737864,890.889320388349,871.788349514563,371.729126213592,379.256310679612,690.339805825243,755.679611650485,0
1105.92,0.335775981809179,1.33834024147463,1.33055026985178,-0.772771056033045,-0.176926465782276,-0.176926465783354,,0.587579217244917,-0.16808281931244,0.00174616935020972,-1.89617657180994,0.00174616935006826,1.46608158213647,0.0759031736639368,1.49087765277455,0.428254884353475,0.904607804674587,1.52002156167364,-0.829967976913827,,-0.205832235825518,0.767022413686704,-0.110691362452055,0.835590708012679,,0.471046470357524,0.643684043532248,0.201562604585604,-0.201562604585338,0.402576616523225,1.49236679650918,1.56708640571177,1.69530022566508,,-0.980606648396795,1.62687610121676,0.455224928123743,-0.514219471219734,-0.514219471217955,,-0.70188365509544,0.680133778662036,,0.729641759644257,,-0.902216636737272,0.789424350854199,0.789424350853003,-0.16699881259392,-0.161226473602829,,10.7520000000002,102,884.271568627451,374.44068627451,706.764705882353,894.31568627451,874.227450980392,373.212745098039,375.66862745098,673.637254901961,739.892156862745,0
1106.0224,0.299433675313846,1.37613380199765,1.32755983330351,-0.75454961072918,-0.149263017656908,-0.149263017658027,,0.618616051154389,-0.130725781235193,0.0372661870953231,-1.87720420559669,0.0372661870951817,1.43867362716987,0.0955992369655405,1.47331198601915,0.366082567491411,0.950351734508005,1.48138473138079,-0.784099377354475,,-0.182299402654114,0.726972116771103,-0.0866726500912198,0.812822180984861,,0.486873851948234,0.633453648697295,0.173836456959988,-0.173836456959711,0.421036199560382,1.48214713765857,1.55560307726807,1.68346923223873,,-0.9622949161333,1.63201793206913,0.431171939625339,-0.505901332149227,-0.505901332147423,,-0.685799858001453,0.638232362549844,,0.696794199704195,,-0.897357645680383,0.815791185011389,0.815791185010194,-0.159466245449546,-0.183775069914446,,10.8544000000002,102,888.849509803922,374.079901960784,697.03431372549,899.885294117647,877.813725490196,374.106862745098,374.052941176471,662.803921568627,731.264705882353,0
1106.1248,0.26309311441658,1.41310791212746,1.32393825257535,-0.73551436417101,-0.122180210964242,-0.122180210965402,,0.649859873885868,-0.0929010916692868,0.0726572849433297,-1.85585434389723,0.0726572849431831,1.41090648075794,0.115049339730467,1.45527008074303,0.303517187186077,0.996671298037859,1.44279809343092,-0.736883353860593,,-0.158254678538222,0.683330521687374,-0.0598955540411712,0.788703599134315,,0.501761012169448,0.623335673111784,0.146219735081911,-0.146219735081624,0.438911736196177,1.47223781147911,1.54315800706919,1.67161123712595,,-0.943560681110612,1.63671077505871,0.40651904213488,-0.496458231331631,-0.496458231329806,,-0.667796677217029,0.59701119821851,,0.66392619999788,,-0.89127493487268,0.841955455715052,0.841955455713857,-0.153623530911815,-0.20486290001434,,10.9568000000002,103,896.303511051783,375.463147332319,682.118751122227,900.569451119869,892.037570983697,372.347543977699,378.578750686939,658.301066999904,705.93643524455,0
1106.2272,0.226839677056348,1.4492725841383,1.31976883519233,-0.715719981230902,-0.0956413400854813,-0.095641340086685,,0.681323552661623,-0.0546612180540496,0.107870885864497,-1.83213691140299,0.10787088586435,1.38290259748434,0.134288974451833,1.43689069147412,0.240705002725374,1.04345932361187,1.40435299276924,-0.688394107036702,,-0.133722360060914,0.636180827520735,-0.0303904660242515,0.76330456999609,,0.515749104384097,0.613422219761181,0.118744137193077,-0.118744137192789,0.456197003902503,1.46272388652725,1.52978985170977,1.65980794086579,,-0.924408885069633,1.64097016545861,0.381309612254977,-0.485897274111844,-0.48589727411,,-0.647968718112001,0.55651141917289,,0.631035782682838,,-0.88401112246058,0.867868117079327,0.86786811707813,-0.149392783889964,-0.224538101086448,,11.0592000000001,102,943.299032318326,413.475420636403,620.714845258111,910.30297029703,976.295094339623,349.616501650165,477.334339622642,658.556105610561,582.87358490566,0.549019607843137
1106.3296,0.190757560382619,1.48463700176057,1.31513320372604,-0.695221094253757,-0.0696111317274137,-0.0696111317286633,,0.713018378199477,-0.0160627132844833,0.142856912038409,-1.80606954307326,0.142856912038265,1.35478069264196,0.153350613800325,1.41830739077936,0.177792083223785,1.09060718800065,1.36613902005622,-0.638713189076212,,-0.108730401395269,0.585620769489353,0.00179894395171452,0.736697748168539,,0.528878188329523,0.603802627052499,0.0914403402633944,-0.0914403402631087,0.472889051468698,1.45368557544262,1.51553851938146,1.64813739966868,,-0.904843945017446,1.64481401202136,0.355590859172826,-0.474227633618611,-0.474227633616758,,-0.626414622250461,0.516773776503374,,0.598122442572596,,-0.875611314340947,0.893481436913709,0.893481436912509,-0.146689802726642,-0.242852222806831,,11.1616000000001,103,996.635030823837,457.700988853602,550.826682856965,921.669306930693,1071.60075471698,326.207260726073,589.194716981132,656.864686468647,444.788679245283,0.621359223300971
1106.432,0.154929754392967,1.51920940344472,1.3101111823276,-0.674072239975043,-0.0440560185033001,-0.0440560185045875,,0.744953894721501,0.0228342096698085,0.177564017417266,-1.77767777879194,0.177564017417127,1.32665553074776,0.172263550560437,1.39964828142266,0.114923953708241,1.13800508066778,1.32824379571128,-0.587929394424081,,-0.0833104359028993,0.531762480760631,0.0366158597986002,0.708958813185996,,0.54118698720949,0.594563222288258,0.0643379643815339,-0.0643379643812508,0.488988317029672,1.44519788485283,1.50044511227125,1.63667371909632,,-0.884869872098248,1.64826242441931,0.329413738270061,-0.461460508978727,-0.46146050897687,,-0.603236288601345,0.477838665694368,,0.565187126171197,,-0.866122798812165,0.918749129940527,0.91874912993932,-0.145424785349037,-0.259859729255907,,11.2640000000001,102,955.096361670018,359.750500666049,628.041236115843,932.891225004854,977.301498335183,307.565411247007,411.935590085091,658.462790396687,597.619681834998,0
1106.5344,0.119438020885491,1.55299699495983,1.30478071061452,-0.652327774943415,-0.0189443871026866,-0.0189443871040162,,0.777137749971851,0.0619661468906395,0.211939839963285,-1.74699516676201,0.211939839963144,1.29863774327896,0.191053779853152,1.38103575813941,0.0522452620322049,1.18554222341875,1.29075273678233,-0.536138592615017,,-0.0574977765571847,0.474732245649605,0.0739905285395739,0.68016639919296,,0.552712663321659,0.58578709601454,0.0374655422439864,-0.0374655422437026,0.504498742511909,1.43733029213132,1.48455185749338,1.62548676655495,,-0.864490410193043,1.65133750827625,0.302832842515375,-0.447609064016546,-0.447609064014673,,-0.578538136383321,0.439746166519132,,0.53223220984658,,-0.855594709470926,0.943626509017627,0.943626509016416,-0.145503060093592,-0.27561749154227,,11.3664000000001,102,941.224509803922,297.644607843137,708.642156862745,939.861764705882,942.587254901961,306.654901960784,288.63431372549,691.078431372549,726.205882352941,0
1106.6368,0.0843628690145697,1.58600588687794,1.29921777376468,-0.630041766203246,0.00575320284719562,0.00575320284583489,,0.80957556823433,0.101266996172137,0.245931271449696,-1.71406327205338,0.245931271449553,1.27083366968106,0.209743926279529,1.36258631441318,-0.0101005441956878,1.23310706845092,1.25374881540948,-0.483443499724466,,-0.0313313915007729,0.414670146165554,0.113840541240947,0.650401972885513,,0.563490609979817,0.577553884566394,0.0108504910501619,-0.0108504910498762,0.519427866506263,1.4301464628774,1.46790202474319,1.61464191353025,,-0.843709174088933,1.6540631582167,0.275906269418072,-0.432688355343015,-0.432688355341127,,-0.552426419449924,0.402536083701493,,0.499261466710858,,-0.844077670229348,0.968070653953901,0.968070653952683,-0.146825831064191,-0.290184271167091,,11.4688000000001,103,935.432524271845,303.195631067961,709.71359223301,936.704854368932,934.160194174757,309.195145631068,297.196116504854,682.766990291262,736.660194174757,0
1106.7392,0.0497835182447718,1.6182410451079,1.29349633153063,-0.607267864231096,0.0300638321365572,0.0300638321351572,,0.842270844831635,0.140668447018065,0.279484735106987,-1.67893159341706,0.279484735106841,1.2433452145625,0.228353210459978,1.34441038453222,-0.0719715401554891,1.28058750051753,1.21731232224481,-0.42995338724586,,-0.00485385028702444,0.351729596580684,0.156071183484092,0.619749650521925,,0.573554257562358,0.569939550938477,-0.0154809121275799,0.0154809121278663,0.533786873433601,1.42370401683633,1.45053982702808,1.60419981286804,,-0.822529773263168,1.65646487302595,0.248695451607541,-0.416715261463523,-0.416715261461614,,-0.525008603736609,0.366247966006468,,0.466280017121153,,-0.831623438204041,0.992040581914866,0.992040581913646,-0.149290928163934,-0.303620204499981,,11.5712000000001,102,935.778921568627,308.880392156863,728.495098039216,937.449019607843,934.108823529412,312.272549019608,305.488235294118,702.009803921569,754.980392156863,0
1106.8416,0.0157778456056799,1.64970624460103,1.2876882358057,-0.584059173941348,0.0540120693374173,0.0540120693359857,,0.875224858617954,0.180100449445646,0.31254646176849,-1.64165739988418,0.312546461768338,1.21626971680045,0.246897446342362,1.32661221247511,-0.133227649159195,1.32787106162879,1.18152064918377,-0.37578372858647,,0.021888763979485,0.286076759892974,0.200575858853129,0.588295950290756,,0.582934895837058,0.563016163122778,-0.0415035485945656,0.0415035485948524,0.547590583661125,1.41805433898584,1.43251030283117,1.59421620791078,,-0.800955918264782,1.65856959948335,0.221264937782992,-0.399708423941921,-0.399708423939993,,-0.496392811239509,0.330921087928055,,0.433294265736709,,-0.818284554439309,1.01549739893779,1.01549739893656,-0.152793551842466,-0.315986299303428,,11.6736000000001,103,935.443203883495,314.088834951456,749.456310679612,937.514563106796,933.371844660194,315.855339805825,312.322330097087,717.611650485437,781.300970873786,0
1106.944,-0.0175776800441352,1.68040402354822,1.28186313707021,-0.560468140164728,0.0776198525484438,0.0776198525469749,,0.90843660059417,0.219491655228956,0.345062758712841,-1.60230550490631,0.345062758712686,1.1896998296287,0.265389063270132,1.30928974377169,-0.193730974270768,1.37484521140088,1.1464481000953,-0.321055784895745,,0.0488469816319061,0.217889845001716,0.24723659479153,0.5561294892527,,0.591661518588367,0.556851678225466,-0.0671934673959134,0.067193467396205,0.56085737822742,1.41324243120778,1.41385918078797,1.58474177002163,,-0.778991513540147,1.66040559863164,0.193682116731163,-0.381688206403793,-0.381688206401853,,-0.466687323242362,0.296594393181449,,0.400311833182901,,-0.804114009051681,1.03840442192581,1.03840442192458,-0.157227007192698,-0.327343950722678,,11.7760000000001,102,935.659803921569,314.221078431373,764.911764705882,937.96568627451,933.353921568627,319.306862745098,309.135294117647,726.186274509804,803.637254901961,0
1107.0464,-0.0502080745958904,1.71033563892407,1.2760883822793,-0.536546452972567,0.10090640378603,0.10090640378453,,0.941902718162708,0.258769835018034,0.376980268477566,-1.56094798525368,0.376980268477412,1.16372341294883,0.283837151111594,1.29253454074085,-0.253346143351935,1.42139763022569,1.11216572707429,-0.265896131590965,,0.0759681159727301,0.147358280849537,0.295924644640224,0.523340635955799,,0.599760694879491,0.551509741202214,-0.0925278838773099,0.0925278838776007,0.573609058978224,1.40930680546733,1.39463272437794,1.57582196452246,,-0.7566407425287,1.66200232396113,0.166016884336346,-0.362676669901995,-0.362676669900044,,-0.436000131718317,0.263306405792013,,0.367341487531069,,-0.789164922517599,1.06072727332645,1.06072727332522,-0.162483422165719,-0.337754485108019,,11.8784000000001,102,934.846078431373,314.154411764706,771.18137254902,937.927450980392,931.764705882353,324.855882352941,303.452941176471,728.470588235294,813.892156862745,0
1107.1488,-0.0820399270518179,1.73950102589501,1.27042890530452,-0.512344965399728,0.123888173854936,0.123888173853399,,0.975617476503048,0.297862280812767,0.408246218446023,-1.51766383492427,0.408246218445865,1.13842343988905,0.302247531179055,1.27643172444438,-0.31194067288059,1.46741656283424,1.07874118235435,-0.210436124271187,,0.1031964760417,0.0746817558909746,0.34650120106043,0.490021121511975,,0.607256467852626,0.547049502791631,-0.117485166366777,0.117485166367074,0.585870652949932,1.40627942151412,1.37487754980563,1.56749694552504,,-0.73390815098267,1.6633902993246,0.13834125997791,-0.34269755898541,-0.342697558983444,,-0.404438527668025,0.231095109441574,,0.334393074316623,,-0.773490235591762,1.08243395731096,1.08243395730973,-0.168454444558001,-0.34727874151282,,11.9808,103,933.258737864078,311.753398058252,755.242718446602,937.505825242718,929.011650485437,315.654368932039,307.852427184466,713.417475728155,797.067961165049,0
1107.2512,-0.113001498957751,1.76789876813998,1.26494711600021,-0.487913614129666,0.146578818297037,0.146578818295458,,1.00957274419335,0.336696206085278,0.438808668138175,-1.47253854640941,0.438808668138014,1.11387792170548,0.32062285893391,1.2610599503441,-0.369385349773994,1.51279119582603,1.04623858033098,-0.154811301975941,,0.130473622871278,6.91100232639523e-05,0.398818233636258,0.456263607632215,,0.61417028059732,0.543525460504234,-0.142044811507727,0.142044811508033,0.597670176402183,1.40418567107853,1.35464041074497,1.5598014794215,,-0.710798733505959,1.66460098551996,0.110728962346908,-0.321776292830735,-0.321776292828755,,-0.372108715763672,0.199997787666155,,0.301477440647669,,-0.757142397892691,1.10349492708794,1.1034949270867,-0.175031917069721,-0.355976698183119,,12.0832,102,933.786764705882,307.047549019608,741.235294117647,939.972549019608,927.600980392157,310.688235294118,303.406862745098,699.735294117647,782.735294117647,0
1107.3536,-0.143022830293106,1.79552609094863,1.25970280114017,-0.463301339709778,0.16898920850555,0.168989208503927,,1.04375801644256,0.375199154837858,0.468616766072315,-1.42566362720652,0.468616766072153,1.09015985838145,0.338962765769854,1.24649142851567,-0.425554630135749,1.55741207125582,1.01471837333457,-0.0991607267414207,,0.157738671473613,-0.0762629297632756,0.452719459530007,0.422161210802206,,0.620520928205918,0.540987327244555,-0.166187410431447,0.166187410431757,0.609038373035873,1.4030444100962,1.33396794665886,1.55276489733206,,-0.687318024840755,1.6656666318982,0.083254953425963,-0.299939956182826,-0.299939956180825,,-0.339115446987024,0.170050813258573,,0.268606346915394,,-0.740173053006172,1.12388315223428,1.12388315223304,-0.18210853470452,-0.363907146993799,,12.1856,103,934.329126213592,306.4,733.830097087379,939.965048543689,928.693203883495,315.759223300971,297.040776699029,692.728155339806,774.932038834951,0
1107.456,-0.172035847767282,1.82237888772942,1.25475304901957,-0.438556007942377,0.191127481728034,0.191127481726372,,1.07816048816997,0.413299421323203,0.497621023046183,-1.37713606548917,0.497621023046022,1.06733722013518,0.357264045187574,1.23279199617893,-0.480327059492322,1.60117154839822,0.984237247322573,-0.0436262565472919,,0.18492864301928,-0.154091168604585,0.508041446420008,0.387806983487116,,0.6263245362496,0.53947992926525,-0.189894608806221,0.189894608806532,0.620008431538115,1.4028680390983,1.31290639935514,1.54641107799745,,-0.66347219129137,1.66662011994534,0.0559949540112309,-0.27721728526983,-0.277217285267816,,-0.305561663044691,0.141289378904835,,0.235792356822408,,-0.722632726767574,1.14357419373943,1.14357419373818,-0.189578490195601,-0.371127413238637,,12.288,102,939.756962114717,315.987375541606,706.964906921053,944.681133240698,934.832790988736,319.129110699398,312.845640383813,677.928979465802,736.000834376304,0
1107.5584,-0.199974476453919,1.84845178233349,1.25015219875516,-0.413724334391143,0.212999128261097,0.212999128259396,,1.1127651770256,0.450926466675938,0.525773592627664,-1.3270577522407,0.5257735926275,1.04547295549747,0.375520881171385,1.2200212371743,-0.533585715930871,1.64396431834731,0.954848040333355,0.0116482539587706,,0.211978872565483,-0.233187489604831,0.564614823961955,0.353293360624398,,0.631594569647546,0.539043131799963,-0.213149064555768,0.213149064556081,0.630615678778267,1.4036626292819,1.29150131635716,1.54075846453782,,-0.639268113092263,1.66749481270755,0.029024931326698,-0.253638645983487,-0.253638645981456,,-0.271548150933644,0.113747174376706,,0.203048696040488,,-0.704570529183172,1.16254629077528,1.16254629077402,-0.197338108990727,-0.377693112035582,,12.3904,102,968.066592394036,358.861557212263,613.235072876529,951.468503937008,984.664680851064,299.337795275591,418.385319148936,653.185039370079,573.285106382979,0.558823529411765
1107.6608,-0.226774762353679,1.87373822109067,1.24595180285188,-0.388851808865016,0.234607109187381,0.234607109185647,,1.14755507941972,0.488011308420915,0.553028532000617,-1.27553485732338,0.553028532000445,1.02462501090339,0.393725106874941,1.20823262765021,-0.58521866231353,1.68568795171531,0.926599682460952,0.0665178281139192,,0.238823476081641,-0.313320466954073,0.622265557437264,0.318711592852536,,0.636341879230079,0.539711792848348,-0.235934408269345,0.235934408269652,0.640897247430353,1.40542809227406,1.26979726674391,1.53582012099858,,-0.61471345018903,1.66832442531639,0.00242056445579863,-0.229236003822036,-0.229236003819991,,-0.237173219928357,0.087456029398663,,0.170389070678956,,-0.686033880218051,1.18078045608757,1.1807804560863,-0.205286460815065,-0.383657936039426,,12.4928000000002,103,990.383665231528,393.777327811817,521.012649010177,959.055118110236,1021.71221235282,273.833858267717,513.720797355918,626.551181102362,415.474116917992,0.0679611650485437
