time,S1-D1,S1-D8,S1-D9,S1-D15,S2-D1,S2-D2,S2-D3,S2-D9,S3-D1,S3-D2,S3-D16,S4-D2,S4-D3,S4-D5,S5-D3,S5-D4,S5-D5,S6-D2,S6-D5,S6-D17,S7-D6,S7-D7,S8-D6,S8-D7,S8-D18,S9-D3,S9-D4,S9-D9,S9-D11,S9-D19,S10-D8,S10-D9,S10-D10,S10-D11,S11-D8,S11-D10,S11-D20,S12-D10,S12-D11,S12-D12,S13-D4,S13-D11,S13-D12,S14-D10,S14-D12,S14-D21,S15-D13,S15-D14,S16-D13,S16-D14,S16-D22,t_rel_s,eye_n,xp,yp,ps,xpl_i,xpr_i,ypl_i,ypr_i,psl_i,psr_i,blink_prop
757.5552,0.367741562756036,-0.164854678442589,0.346908908707656,1.43417726928242,-1.62579505987646,-1.62579505987538,,-0.434509611871318,0.0825741291231168,1.58364649411979,-0.456551213790168,1.5836464941222,0.125736971814792,-0.651144492510104,-0.296240351147822,1.73596135338829,-0.0275723508902646,1.5362621482576,1.14792027554278,,0.977948016242964,-0.602322152475131,0.907477894648951,0.882402734303639,,1.82952878796695,0.434324210622935,-0.167196858629719,0.16719685862966,1.09582700742537,-0.165004799437337,-0.266977090873587,-0.86433531167472,,0.514992552998304,0.20897509592908,1.58128901712755,1.47328586151544,1.47328586151419,,-1.34856112764107,0.255682231126702,,0.00623488407052995,,0.635928105984648,2.28507142437823,2.28507142437764,-0.760833988307138,1.49902452328382,,0,103,988.008252427185,511.079126213592,495.383495145631,960.769902912621,1015.24660194175,467.081553398058,555.076699029126,514.165048543689,476.601941747573,0
757.6576,0.343735700532745,-0.181075182392188,0.302461795648637,1.46615502999053,-1.66802775657148,-1.66802775657042,,-0.460447879949059,0.0651712995478154,1.57606570199609,-0.466471731045582,1.57606570199851,0.122911401146,-0.645849751753864,-0.296109200190233,1.74352007008775,-0.0802561371818932,1.53207340303817,1.15284003027174,,0.981774278871801,-0.576822944352556,0.870044965866555,0.847697783149333,,1.85091502069594,0.451354473490636,-0.165289371845441,0.165289371845382,1.06725809146051,-0.170877322107391,-0.265999410724014,-0.87492486990207,,0.528087960390144,0.210290741297787,1.57980994360047,1.46923878442003,1.4692387844188,,-1.34300239928946,0.246187009806091,,0.0220755274975811,,0.661975791295181,2.27714718910287,2.2771471891023,-0.753279333571632,1.50904899546278,,0.102399999999989,102,971.25931372549,469.828431372549,555.803921568627,963.641176470588,978.877450980392,461.007843137255,478.649019607843,549.607843137255,562,0
757.76,0.320377060577231,-0.197186306523683,0.258948049033632,1.49615685536566,-1.7090399769818,-1.70903997698075,,-0.48657089239957,0.0476067189391242,1.56667970483399,-0.475267589896763,1.56667970483641,0.118855866399189,-0.640693732436852,-0.297628669835656,1.74947195769037,-0.133308348552142,1.5263811467594,1.15598509969368,,0.98349507819359,-0.552465576389593,0.83358299076987,0.812648444543242,,1.87148821215673,0.467854000692933,-0.16369595101312,0.163695951013061,1.03806926745176,-0.177041780505673,-0.265083160897653,-0.886252663876973,,0.540524830306133,0.211141032850688,1.57686948056528,1.46452523131211,1.4645252313109,,-1.33711179690929,0.236083215989694,,0.0375475127002196,,0.68712677587196,2.26837703846244,2.2683770384619,-0.74578914780529,1.51903160653994,,0.204799999999977,103,969.054368932039,483.58640776699,571.446601941748,960.009708737864,978.099029126214,477.433009708738,489.739805825243,572.660194174757,570.233009708738,0
757.8624,0.297705477824493,-0.213161004043052,0.216441529323384,1.52414113853314,-1.74877749887963,-1.7487774988786,,-0.512848327931008,0.0299081778461253,1.55552116250513,-0.482945554022615,1.55552116250755,0.113540389827991,-0.635680585921307,-0.300839528795194,1.75380027994939,-0.186651653794723,1.51918651694456,1.15733352419801,,0.983081304961913,-0.529298720370286,0.798175680938804,0.777353966651486,,1.89118007724832,0.483792071426045,-0.162409684193588,0.162409684193529,1.00831693959049,-0.183473734184684,-0.264228757507672,-0.89826759019811,,0.552297587269809,0.211542722872315,1.57250208949066,1.45917133141622,1.45917133141502,,-1.33090905068072,0.225380523778545,,0.0526093390555127,,0.711316403059148,2.25877552689659,2.25877552689609,-0.738386949239046,1.52899990375972,,0.307199999999966,102,965.652941176471,485.928921568628,590.289215686275,954.88137254902,976.424509803921,475.930392156863,495.927450980392,595.019607843137,585.558823529412,0
757.9648,0.275757272516978,-0.228973933831544,0.175010130164412,1.55007215346411,-1.78718950924954,-1.78718950924852,,-0.539249919923891,0.0121033963061683,1.54262742903454,-0.489516370414846,1.54262742903696,0.106940030742249,-0.63081486576894,-0.30577646413647,1.75649336352842,-0.240210040212572,1.51049487538638,1.15686958329345,,0.980510414376462,-0.507366139516027,0.763902305203602,0.741914354549876,,1.90992387386096,0.49913873308784,-0.161422899340402,0.161422899340345,0.978058967550379,-0.190148434058042,-0.263435743308233,-0.91091620884694,,0.563401112117741,0.211514067345486,1.56674718718592,1.45320436886414,1.45320436886295,,-1.32441432208772,0.214090754689346,,0.0672195236443328,,0.734484296976359,2.24835897736601,2.24835897736553,-0.731094230714556,1.53897825705229,,0.409599999999955,102,927.828921568628,486.711274509804,617.857843137255,913.211764705882,942.446078431373,471.970588235294,501.451960784314,622.28431372549,613.43137254902,0
758.0672,0.254565119537763,-0.244601515877928,0.134715563006781,1.57392029237885,-1.82422876747467,-1.82422876747366,,-0.565745584859857,-0.00578020874437147,1.52804055666291,-0.494994634064506,1.52804055666533,0.0990352565592613,-0.626101596045073,-0.312467660313578,1.75754488310099,-0.293908991415558,1.50031602459191,1.15458404796376,,0.975766782210716,-0.486706401259105,0.730837128628333,0.706429604153513,,1.92765462155813,0.51386511277587,-0.160727200299835,0.160727200299778,0.947354466550054,-0.197040851487656,-0.262702906572888,-0.924143033793423,,0.573830690827437,0.211074886724981,1.55964891764324,1.44665248167735,1.44665248167617,,-1.31764817781985,0.202227879799896,,0.0813368430330777,,0.756574598719188,2.23714552226487,2.23714552226443,-0.723930531242898,1.54898774407181,,0.511999999999944,103,893.141262135922,485.557766990291,651.733009708738,875.566019417476,910.716504854369,465.301941747573,505.81359223301,652.029126213592,651.436893203884,0
758.1696,0.234157947394624,-0.260021947602018,0.0956132120322954,1.59566227624267,-1.85985173838001,-1.85985173837903,,-0.592305540475972,-0.0237157298067603,1.51180721601851,-0.499398640270734,1.51180721602091,0.0898122333417212,-0.621546311001038,-0.320934459897169,1.75695406875287,-0.347675635247056,1.48866436139481,1.15047436418939,,0.968841993928357,-0.467352625104382,0.699048917253348,0.670999022258897,,1.94430933636404,0.527943718282048,-0.160313511861699,0.160313511861645,0.916263644140468,-0.204125715741664,-0.262028401247147,-0.93789084383149,,0.58358196767893,0.210246612437415,1.55125587072656,1.43954436426418,1.43954436426299,,-1.31063155094977,0.189808012110278,,0.0949205914248927,,0.777536160726911,2.22515511867523,2.22515511867482,-0.71691348418045,1.55904604134412,,0.614399999999932,102,893.907352941177,484.921078431373,685.039215686275,875.535294117647,912.279411764706,464.21568627451,505.626470588235,680.549019607843,689.529411764706,0
758.272,0.214560872745353,-0.275215184953758,0.0577520639449741,1.61528132863048,-1.89401868814835,-1.89401868814738,,-0.618900411833828,-0.0416769445149419,1.49397854131532,-0.502750200024239,1.49397854131771,0.0792630356535257,-0.617155054262955,-0.331191097920911,1.75472583591041,-0.401438858537801,1.47555896861609,1.14454476737245,,0.959735064540372,-0.449332284221811,0.668600517238393,0.63572060766516,,1.9598272894091,0.541348711993095,-0.160172138927225,0.160172138927172,0.884847675564149,-0.211377564511501,-0.261409859951672,-0.95210100738623,,0.59265090702811,0.209052307852183,1.54162074678323,1.43190899027526,1.43190899027407,,-1.30338568372665,0.176849382179176,,0.107930838483753,,0.797322698841015,2.21240953485576,2.21240953485539,-0.710058833290826,1.56916732070494,,0.716800000000035,103,895.669540746901,488.470437720299,712.427478198111,876.266005481488,915.073076012314,467.791420077113,509.149455363486,704.971106052864,719.883850343358,0
758.3744,0.195795173871078,-0.290162893103811,0.0211747131801854,1.63276730543364,-1.92669373889203,-1.92669373889107,,-0.645501323905747,-0.0596384576419944,1.47460990835137,-0.505074394305977,1.47460990835374,0.0673857745615922,-0.612934326855423,-0.34324450386659,1.75087083733146,-0.455129394308252,1.46102364319882,1.13680632835092,,0.948452587660908,-0.432667079018376,0.639548518560356,0.600690473432985,,1.97415030697684,0.554056147327448,-0.16029284104603,0.16029284104598,0.853168615132131,-0.218770812987891,-0.260844487309178,-0.966713808859259,,0.601033768700097,0.207516656345492,1.53079997304586,1.42377537422072,1.42377537421951,,-1.29593204409844,0.163372288339336,,0.120328682342624,,0.815892902808256,2.19893229884372,2.19893229884338,-0.703380406847099,1.57936214818736,,0.819200000000024,102,888.288998132804,560.996740673746,654.834787217489,858.14019138756,918.437804878049,581.844497607656,540.148983739837,621.33014354067,688.339430894309,0.196078431372549
758.4768,0.177878302064265,-0.304848369872934,-0.014082561359454,1.64811677613627,-1.95784488115573,-1.95784488115477,,-0.672079980153259,-0.0775758040458565,1.45376063970111,-0.506399256003633,1.45376063970347,0.05418463638206,-0.608890982403207,-0.357094179479439,1.74540542812418,-0.508679895190572,1.44508684994156,1.12727692566345,,0.935008807365672,-0.41737289197127,0.611943012428217,0.566002310899867,,1.98722312454965,0.566044167605134,-0.160664922956577,0.160664922956528,0.821289332565309,-0.226279845061169,-0.260329128823068,-0.981668774898456,,0.608727103420171,0.205665914543586,1.51885328348257,1.4151723855297,1.41517238552849,,-1.28829220834267,0.149399011369102,,0.132076505645306,,0.833210505497878,2.18474859646604,2.18474859646573,-0.69689003708277,1.58963738003335,,0.921600000000012,103,877.182261244246,672.541417320129,551.17886480997,829.676717610443,924.687804878049,759.142184233753,585.940650406504,476.934965392298,625.422764227642,0.242718446601942
758.5792,0.160823923530615,-0.319256445103176,-0.047989660291732,1.66133305596496,-1.98744395029293,-1.98744395029197,,-0.698608729244435,-0.0954655103196784,1.43149362198901,-0.506755385161237,1.43149362199136,0.0396698237163013,-0.605032077533521,-0.372732168700306,1.73835152829666,-0.562025012127194,1.42778158312155,1.11598113310831,,0.919425602198502,-0.403459822381563,0.585827444649386,0.531746904938985,,1.9989937944527,0.577293180485416,-0.161277344216726,0.161277344216679,0.789273462525971,-0.233879125365318,-0.259860322269214,-0.996905011272601,,0.615727775766492,0.20352783874864,1.50584326835903,1.40612861162793,1.40612861162673,,-1.28048770804433,0.134953683943054,,0.143138247259827,,0.849244311191078,2.16988510981843,2.16988510981814,-0.690597415827101,1.59999605265653,,1.024,102,871.845946915352,458.190062569743,686.560278176311,831.382352941177,912.309540889527,434.523529411765,481.856595727722,682.352941176471,690.767615176152,0
758.6816,0.144641979791148,-0.333373360451333,-0.0805224877707504,1.67242619350792,-2.01546657961355,-2.01546657961259,,-0.725060624390843,-0.113285126788468,1.40787482667674,-0.506175516827986,1.40787482667908,0.0238574011416107,-0.601364689061816,-0.39014312482226,1.72973637481135,-0.615101490777068,1.40914512630593,1.10295001692737,,0.901732376500255,-0.390932292286394,0.561238557780421,0.498011703868074,,2.0094141364007,0.587786026692006,-0.162118848662214,0.162118848662167,0.757185365784735,-0.241543326617863,-0.2594343419396,-1.01236155847032,,0.622033019485215,0.201131599878935,1.49183489034181,1.3966722458927,1.39667224589149,,-1.27253984803282,0.120062112711284,,0.153479699488389,,0.863968184713028,2.15436979418561,2.15436979418535,-0.684509890630497,1.61043727142058,,1.12639999999999,102,864.58137254902,418.114705882353,771.759803921569,832.172549019608,896.990196078431,399.545098039216,436.68431372549,767.470588235294,776.049019607843,0
758.784,0.129338756559363,-0.347186635781186,-0.11166275361009,1.68141292242693,-2.04189214430705,-2.0418921443061,,-0.751409476623595,-0.131013253377312,1.38297275057498,-0.504694070563099,1.38297275057729,0.00676906586712601,-0.597895711313625,-0.409304458547541,1.7195921792166,-0.667848279165088,1.38921872596514,1.08822085518906,,0.881965871213539,-0.379789208051287,0.538206404048949,0.464880435617797,,2.01844020941056,0.597508150179325,-0.163178107563241,0.163178107563195,0.725090105031322,-0.249247467670762,-0.259047239552416,-1.02797776362918,,0.627640521307406,0.198507696468557,1.4768949696526,1.38683097409173,1.38683097409052,,-1.26446950898807,0.10475156618662,,0.163068825373952,,0.877361008176013,2.13823160594765,2.13823160594742,-0.678632227510246,1.62095611309059,,1.22879999999998,103,941.078155339806,484.703398058252,804.752427184466,906.722330097087,975.433980582524,461.581553398058,507.825242718447,792.970873786408,816.533980582524,0
758.8864,0.114916958936046,-0.360684929386334,-0.141397762173039,1.68831658402236,-2.06670370304749,-2.06670370304654,,-0.777629896002426,-0.148629576617504,1.35685781807291,-0.502346716480251,1.35685781807521,-0.0115681259832972,-0.59463165042654,-0.430186539985366,1.70795572876747,-0.720206624988211,1.36804721703103,1.07183680727579,,0.860169918784781,-0.3700241598075,0.516754408435388,0.432432760880824,,2.02603277099372,0.606447757454115,-0.16444386356963,0.164443863569583,0.693053430187967,-0.256967060440594,-0.258694880109322,-1.04369366159543,,0.632548519011057,0.195687860068826,1.46109165863352,1.376631850895,1.37663185089377,,-1.2562969516385,0.08905055395896,,0.171876068844152,,0.889406616438999,2.1215002126368,2.12150021263659,-0.672966382211022,1.6315435600212,,1.33119999999997,102,950.992156862745,508.449019607843,827.857843137255,918.469607843137,983.514705882353,488.719607843137,528.178431372549,812.64705882353,843.068627450981,0
758.9888,0.101375797098373,-0.373857896629883,-0.169720186282805,1.69316702471477,-2.0898879343728,-2.08988793437185,,-0.803697314814805,-0.166114916228217,1.32960178983001,-0.499169988472933,1.32960178983229,-0.0311220509286479,-0.591578432562052,-0.452752932906711,1.69486796865634,-0.772120144855329,1.34567863748413,1.05384655986294,,0.836395163573739,-0.361625646954005,0.496899470449947,0.400743962899019,,2.03215768892449,0.614595945958064,-0.1659050595103,0.165905059510252,0.661141757619708,-0.264678262703965,-0.258372973221705,-1.05945035971797,,0.636755896844206,0.192704938242278,1.44449393297955,1.3661011748539,1.36610117485266,,-1.24804163503379,0.0729886199583527,,0.179874624707252,,0.90009372350718,2.10420571868446,2.10420571868428,-0.667511314795225,1.64218647696377,,1.43359999999996,102,959.961764705882,533.917647058824,846.014705882353,929.361764705882,990.561764705882,510.239215686275,557.596078431373,828.392156862745,863.637254901961,0
759.0912,0.0887110894839131,-0.386696045541349,-0.196627815833423,1.6960004713857,-2.11143505646803,-2.11143505646708,,-0.829587994411193,-0.183451267008314,1.30127720577024,-0.495200958592121,1.30127720577251,-0.0518558120050884,-0.588741236368232,-0.476960648873978,1.68037358711524,-0.823534862697333,1.32216385187176,1.0343039646192,,0.810698759613095,-0.354577325999098,0.478652101054888,0.369884673982804,,2.03678628593471,0.621946786657152,-0.167550941926633,0.167550941926585,0.629422127950235,-0.272358032958037,-0.258077101871788,-1.07519042209017,,0.640262267044921,0.189592742505673,1.42717111653973,1.35526437595147,1.35526437595023,,-1.23972205153595,0.0565961581728129,,0.187040650102645,,0.909415853444867,2.08637842531179,2.08637842531164,-0.66226286273435,1.65286763354092,,1.53599999999994,103,967.177184466019,545.913106796117,860.650485436893,935.697087378641,998.657281553398,526.617475728155,565.208737864078,841.155339805825,880.145631067961,0
759.1936,0.0769153907772453,-0.399190584212312,-0.222123267392841,1.69685938427568,-2.13133871549308,-2.13133871549214,,-0.855279019072544,-0.200621822021114,1.27195687335695,-0.490476966623937,1.27195687335921,-0.0737280277824397,-0.58612435253034,-0.502760414165405,1.66452061046343,-0.874399224604214,1.29755618853842,1.01326767352806,,0.783144051715614,-0.348858277783082,0.462016587603684,0.339920627238634,,2.03989561316682,0.628497356360755,-0.169371141001476,0.169371141001427,0.597962132638359,-0.279984286666642,-0.257802745710943,-1.09085824621883,,0.643068034503102,0.186385858773703,1.40919244479482,1.3441459267844,1.34414592678316,,-1.23135557557728,0.0399042467558479,,0.193353414865861,,0.917371286966743,2.06804862893057,2.06804862893044,-0.65721367698145,1.66356577468045,,1.63839999999993,102,965.620098039216,540.084803921569,870.495098039216,933.78137254902,997.458823529412,519.438235294118,560.73137254902,851.970588235294,889.019607843137,0
759.296,0.0659781470035462,-0.411333256636763,-0.246213649079627,1.69579228525211,-2.14959583509832,-2.14959583509738,,-0.880748277118369,-0.217610968727044,1.2417133992053,-0.48503538686567,1.24171339920755,-0.0966931144311135,-0.583731070278346,-0.530096946760444,1.64736000342911,-0.924664102472357,1.27191108385668,0.990800769800907,,0.753800239836022,-0.344443284574095,0.446991169923785,0.310912412715991,,2.04146865762593,0.634247729591359,-0.171355734648728,0.17135573464868,0.566829797584029,-0.287536054283035,-0.2575452932978,-1.10640042217605,,0.645174451264209,0.183119432842668,1.39062666827917,1.3327692767855,1.33276927678425,,-1.22295832516222,0.022944490025394,,0.198795396763583,,0.923963024310455,2.04924645550979,2.0492464555097,-0.652353219043011,1.67425574100762,,1.74080000000004,103,963.929611650485,539.816019417476,874.946601941748,931.369902912621,996.489320388349,521.310679611651,558.321359223301,856.805825242719,893.087378640777,0
759.3984,0.055885872004445,-0.423116169208919,-0.268910189975126,1.69285356261428,-2.16620643585422,-2.16620643585328,,-0.905974430481671,-0.234404252656765,1.21061875276026,-0.478913416425977,1.21061875276249,-0.120701563983634,-0.581563591403088,-0.55890924774331,1.6289452620586,-0.974282802714531,1.24528571882609,0.966970386119262,,0.722742018841592,-0.341303101712741,0.433568208607123,0.28291522670073,,2.04149449406506,0.639200948377045,-0.173495299979918,0.173495299979871,0.536093411996707,-0.294993639008469,-0.257300042718158,-1.12176606882574,,0.646583672494236,0.179828950485046,1.37154169784393,1.32115679703074,1.32115679702949,,-1.21454503912548,0.00574885620120126,,0.203352331748751,,0.929198754156129,2.03000172369311,2.03000172369305,-0.647667807146074,1.68490863625017,,1.84320000000002,102,962.106862745098,543.452941176471,867.955882352941,931.060784313726,993.152941176471,521.067647058824,565.838235294118,851.960784313726,883.950980392157,0
759.5008,0.0466223350586278,-0.434531617822957,-0.290227855471818,1.68810325620888,-2.18117344753254,-2.1811734475316,,-0.930936873401794,-0.250988302781316,1.17874385090218,-0.472147884361259,1.17874385090439,-0.145700226387714,-0.579622974318061,-0.589130918494196,1.60933199190687,-1.02321109317335,1.21773863883114,0.941847304062805,,0.690049185432691,-0.339404708319817,0.421734337536004,0.255978632811522,,2.03996838709348,0.64336298026576,-0.175780946303779,0.175780946303732,0.505821301782629,-0.302338772955365,-0.257062195962717,-1.13690715464626,,0.647298817770578,0.176550020954037,1.35200429446741,1.30932972556384,1.3093297255626,,-1.20612897551217,-0.0116504950470154,,0.207013230186279,,0.93309081529963,2.01034382655058,2.01034382655056,-0.643140702652671,1.69549203801777,,1.94560000000001,103,958.97427184466,552.680097087379,855.961165048544,929.577669902913,988.370873786408,525.856310679612,579.503883495146,840.52427184466,871.398058252427,0
759.6032,0.0381687501280474,-0.445571931234018,-0.310184973638238,1.68160682268334,-2.19450254030327,-2.19450254030233,,-0.955615676039508,-0.267350714417334,1.14615815936658,-0.464775091582359,1.14615815936878,-0.171632603497042,-0.577909111726069,-0.620690516445601,1.58857747853581,-1.07140725035706,1.18932936236087,0.915505536999355,,0.655806211954638,-0.338711525319765,0.41147060526369,0.230146377765881,,2.03689183890985,0.646742661914295,-0.178204320471959,0.178204320471913,0.476081557351259,-0.309554775203307,-0.256826850042399,-1.15177881629286,,0.647324030532187,0.173318159671669,1.33207980365914,1.29730811608145,1.2973081160802,,-1.19772183577515,-0.0292213901276409,,0.209770367967652,,0.935656141552502,1.99030162616308,1.99030162616309,-0.638752245766563,1.70597025802071,,2.048,102,942.48431372549,555.425,853.700980392157,913.970588235294,970.998039215686,530.382352941177,580.467647058824,832.441176470588,874.960784313726,0
759.7056,0.0305039614527648,-0.456229342894403,-0.328802889358602,1.67343487512711,-2.20620198959806,-2.20620198959713,,-0.979991511545383,-0.283479892333456,1.11292931292728,-0.456830686267924,1.11292931292947,-0.19843915886274,-0.576420743641175,-0.653511955506823,1.56674026279093,-1.11883211823236,1.16011799158131,0.88802190286168,,0.620101792855749,-0.339183596053253,0.402752612987177,0.205456294888213,,2.03227257640855,0.649351622971622,-0.18075758254847,0.180757582548424,0.446941728614646,-0.316626715491936,-0.256588981059377,-1.1663396755715,,0.64666452817562,0.170168567014493,1.31183192840609,1.28511079808844,1.28511079808717,,-1.18933371601275,-0.0469318142713311,,0.211619258172513,,0.936916184827541,1.96990336626881,1.96990336626885,-0.634480055689877,1.71630466521145,,2.15039999999999,102,923.254411764706,555.776470588235,862.882352941177,895.991176470588,950.517647058824,533.48431372549,578.06862745098,833.245098039216,892.519607843137,0
759.808,0.0236046257891269,-0.466495891907275,-0.34610564638134,1.6636628918838,-2.21628257027058,-2.21628257026966,,-1.0040455734671,-0.299364864237914,1.07912276095173,-0.448349571928189,1.0791227609539,-0.226057640269576,-0.575155502997013,-0.687514945361237,1.54387972918078,-1.16544916288428,1.13016483540158,0.859475591963944,,0.583028370967829,-0.340777735700232,0.395550654568279,0.181940293929883,,2.02612447919939,0.651204187732013,-0.183433360542963,0.183433360542917,0.418468500333486,-0.323541577615148,-0.256343419649883,-1.1805521391696,,0.645326640542872,0.167135905765526,1.29132253152172,1.27275535194469,1.27275535194343,,-1.18097308387982,-0.0647500727393853,,0.212558607161845,,0.936896811750281,1.94917661357305,1.94917661357312,-0.63029929607028,1.72645407541572,,2.25279999999998,103,918.557766990291,553.62572815534,876.917475728155,894.86213592233,942.253398058253,537.160194174757,570.091262135922,842.650485436893,911.184466019418,0
759.9104,0.0174453952740669,-0.476363344358764,-0.362119685015707,1.65237089610447,-2.22475746262882,-2.2247574626279,,-1.02775948801233,-0.314995075869237,1.04480144996384,-0.439365845429215,1.04480144996599,-0.254423406350785,-0.57410998511367,-0.722615452589816,1.52005571483751,-1.21122450388115,1.09953005564213,0.829947735676329,,0.544681653779234,-0.343447664265625,0.389829862838086,0.159624410384984,,2.01846745876864,0.65231725361088,-0.186224697402028,0.186224697401982,0.390727361202125,-0.330288405838144,-0.256084825414361,-1.1943826603829,,0.643317836490261,0.164254079627175,1.2706114607715,1.26025809846999,1.26025809846869,,-1.17264677927064,-0.0826449364414768,,0.212590259631373,,0.935628169994572,1.92814823237675,1.92814823237685,-0.626182991065147,1.73637519053048,,2.35519999999997,102,913.1,548.170098039216,890.044117647059,889.548039215686,936.651960784314,532.099019607843,564.241176470588,850.803921568627,929.28431372549,0
760.0128,0.0119991044172898,-0.485823124892079,-0.376873542714578,1.63964311748165,-2.23164215438358,-2.23164215438265,,-1.05111521419714,-0.33036017077008,1.01002555813706,-0.429912761550841,1.0100255581392,-0.283469744912657,-0.573279828120149,-0.758726158979139,1.4953281505965,-1.2561269053623,1.068273350068,0.79952098619086,,0.505160135057709,-0.347144135718624,0.385550363918251,0.138528886350114,,2.00932730413402,0.652710150359627,-0.189124999384042,0.189124999383996,0.363782278834501,-0.336858417601628,-0.255807668814361,-1.20780194361912,,0.640646739602563,0.161556016002076,1.24975639421806,1.24763410155428,1.24763410155297,,-1.16436003506771,-0.100585767071402,,0.211719135843133,,0.933144529179709,1.90684439141067,1.90684439141081,-0.622102374862862,1.74602306094694,,2.45759999999996,102,907.541176470588,555.857843137255,900.583333333333,883.445098039216,931.637254901961,532.807843137255,578.907843137255,854.676470588235,946.490196078431,0
760.1152,0.00723696178774699,-0.494866251310367,-0.390397550975752,1.62556765644146,-2.23695433181505,-2.23695433181412,,-1.07409492167923,-0.345449749112148,0.974852296608117,-0.420022715091168,0.974852296610242,-0.313128167569466,-0.572659791499025,-0.795756888592633,1.46975674768624,-1.30012771985941,1.03645368571704,0.76827912144298,,0.464564640015626,-0.351815064577819,0.382667434631691,0.118668266317099,,1.99873550793048,0.652404492322397,-0.192127988059146,0.192127988059101,0.337695392458657,-0.34324507422275,-0.25550621954914,-1.22078507217186,,0.63732313667735,0.159073461700001,1.22881270618775,1.23489718049101,1.23489718048969,,-1.15611651075939,-0.118542615937934,,0.209953160020944,,0.929484111858555,1.88529060344746,1.88529060344763,-0.618027263908201,1.75535155452086,,2.55999999999995,103,906.375242718447,559.553883495146,907.73786407767,883.996116504854,928.754368932039,532.128155339806,586.979611650486,853.932038834951,961.543689320388,0
760.2176,0.00312874502511875,-0.50348326813937,-0.402723527061795,1.61023617022685,-2.24071375864953,-2.2407137586486,,-1.09668084329303,-0.360253102359952,0.939335787095882,-0.40972723013917,0.939335787097989,-0.343328669038379,-0.572243822520992,-0.83361498173739,1.44340073711791,-1.34320079318499,1.00412908709571,0.736306685440359,,0.422997906304826,-0.357405642842717,0.38113165308726,0.10005149959949,,1.98672907924535,0.651424039791599,-0.195227656367604,0.195227656367559,0.312526736160827,-0.349444108838882,-0.255174533597265,-1.23331154262099,,0.633357984000513,0.156836803575489,1.20783335574242,1.22205992728392,1.22205992728259,,-1.14791833104594,-0.136486294170454,,0.207303177066336,,0.924688929965386,1.86351179659767,1.86351179659787,-0.613926444843356,1.76431382961604,,2.66239999999993,102,901.176470588235,560.158333333333,915.700980392157,879.380392156863,922.972549019608,526.554901960784,593.761764705882,855.696078431373,975.705882352941,0
760.32,-0.000357002370415964,-0.511664178840919,-0.413884462308085,1.59374358486847,-2.24294214184477,-2.24294214184384,,-1.1188551059935,-0.374758932221063,0.903527011973533,-0.399056955169462,0.903527011975622,-0.373999955388669,-0.572025105775195,-0.872205617900585,1.41631865302072,-1.38532234985227,0.9713564674387,0.703688659606935,,0.38056419567863,-0.363858444546431,0.380889037480961,0.0826820431084709,,1.97335034254692,0.649794579358694,-0.198418232720208,0.198418232720163,0.28833400062155,-0.355453514191587,-0.254806435574666,-1.24536520492982,,0.628763416169232,0.154874922162741,1.18686879923729,1.20913372361245,1.20913372361112,,-1.13976612691242,-0.154388421054467,,0.203782857068236,,0.918804629814699,1.84153240431885,1.84153240431909,-0.609768069982798,1.77286281265037,,2.76480000000004,103,935.421844660194,555.603883495146,921.383495145631,916.392233009709,954.45145631068,517.471844660194,593.735922330097,862.640776699029,980.126213592233,0
760.4224,-0.00325277358389014,-0.519398380877147,-0.423914211866674,1.57618781676216,-2.2436629851572,-2.24366298515627,,-1.14059955210379,-0.388955075744612,0.867473818882037,-0.388041673411464,0.867473818884108,-0.405069660931151,-0.571996100085492,-0.911432115520756,1.38856813940058,-1.42647087681133,0.938191481122783,0.670510147884333,,0.337368916182687,-0.371113524876291,0.381881178692831,0.0665579615000795,,1.95864671927301,0.647543820402461,-0.201694158238236,0.201694158238192,0.265172329509145,-0.361273494115453,-0.254395502611211,-1.25693412838494,,0.623552759550167,0.153215076818477,1.16596692657079,1.19612875402252,1.19612875402118,,-1.13165908378394,-0.17222146455425,,0.199408590276197,,0.911880336167739,1.81937645260249,1.81937645260276,-0.605520053449665,1.7809516731453,,2.86720000000003,102,962.134803921569,553.43137254902,915.71568627451,946.238235294118,978.03137254902,517.73431372549,589.128431372549,864.441176470588,966.990196078431,0
760.5248,-0.00559190135363235,-0.526674610302384,-0.432847192569216,1.55766947938415,-2.24290143401034,-2.24290143400942,,-1.16189557422946,-0.40282826689387,0.831220959350898,-0.376710337192094,0.831220959352952,-0.436464572442149,-0.572148571832234,-0.951196238511798,1.36020576558283,-1.46662701418289,0.904688382346163,0.636856061748807,,0.293518238308323,-0.379108523888691,0.38404537863994,0.051672030915016,,1.94267048540068,0.644701295350739,-0.205050076502873,0.205050076502828,0.243094139440294,-0.366906383929308,-0.253935058454293,-1.26801042118018,,0.61774054894499,0.151882812869576,1.14517301806899,1.18305401813643,1.18305401813507,,-1.12359500251016,-0.189958785668174,,0.194199375054958,,0.903968483138221,1.797067628943,1.7970676289433,-0.601150464851475,1.78853428276637,,2.96960000000001,103,961.97427184466,555.260679611651,894.660194174757,946.094174757282,977.854368932039,526.330097087379,584.191262135922,850.291262135922,939.029126213592,0
760.6272,-0.00740836265125872,-0.533480901008889,-0.440718094995639,1.53829155992608,-2.24068411647904,-2.24068411647812,,-1.18272398156976,-0.416363954854352,0.794810149583301,-0.365091125118227,0.794810149585335,-0.468110866981055,-0.572473628857023,-0.991398520365662,1.33128684984279,-1.5057734539796,0.870899889427572,0.602810804237059,,0.249118703149138,-0.387778785741222,0.387314808858395,0.0380118569726635,,1.92547849680195,0.641298253058985,-0.208480828043799,0.208480828043753,0.222148953183673,-0.372356544801617,-0.253418181535298,-1.27859002160687,,0.611342545023558,0.150901881557819,1.12452971754167,1.16991735017069,1.16991735016933,,-1.11557037456834,-0.207574689261758,,0.188176698131627,,0.895124625287108,1.77462933147442,1.77462933147476,-0.596627916505266,1.79556564683915,,3.072,102,964.207352941177,559.430882352941,871.764705882353,949.093137254902,979.321568627451,539.336274509804,579.525490196078,832.862745098039,910.666666666667,0
760.7296,-0.00873658695893033,-0.53980455946166,-0.44756161275421,1.51815906749148,-2.23703898395324,-2.23703898395232,,-1.20306488931867,-0.429546173368854,0.758280153069268,-0.353211514364808,0.758280153071281,-0.499934356749082,-0.572961753641885,-1.03193859664224,1.30186529953948,-1.54389484148708,0.836877063213999,0.568457961401236,,0.204276831617516,-0.397057506552473,0.391618702211013,0.0255600077711829,,1.90713188296069,0.637367544226127,-0.211981442461078,0.211981442461034,0.202383239728628,-0.37763023359934,-0.25283772573937,-1.28867246163119,,0.604375750310024,0.15029417110608,1.10407701832623,1.15672545043915,1.15672545043777,,-1.10758047005595,-0.225044475894134,,0.181364406624608,,0.885407228264981,1.75208470656203,1.7520847065624,-0.591921936792736,1.80200230604205,,3.17439999999999,102,965.911764705882,563.550980392157,869.769607843137,950.714705882353,981.108823529412,543.727450980392,583.374509803922,833.196078431373,906.343137254902,0
760.832,-0.00961126943655433,-0.545632151462095,-0.453412187864923,1.49737866855819,-2.23199515181166,-2.23199515181075,,-1.22289761205556,-0.442357442251345,0.721666893697162,-0.341098359206752,0.721666893699155,-0.53186072306375,-0.573602833896975,-1.0727155218993,1.27199348020426,-1.58097767138254,0.802669212296622,0.533880015198491,,0.159098750670408,-0.406875918209592,0.39688258082742,0.0142941512934531,,1.88769572088099,0.632943504692044,-0.21554712905938,0.215547129059336,0.183840265128918,-0.382735447386551,-0.252186347755704,-1.29826058930196,,0.596858421642011,0.15007965420499,1.08385226204687,1.1434839233404,1.143483923339,,-1.09961943579106,-0.242344485213738,,0.173788574824349,,0.874877442849013,1.72945668352809,1.72945668352849,-0.587003320496105,1.80780271152502,,3.27679999999998,103,1113.61310679612,565.452427184466,873.81067961165,1099.08058252427,1128.14563106796,546.120388349515,584.784466019417,841.330097087379,906.291262135922,0
760.9344,-0.0100671902398779,-0.550949495221913,-0.458303769271835,1.47605833273019,-2.22558273894143,-2.22558273894051,,-1.24220055920545,-0.45477869072364,0.685003609613366,-0.328777967261328,0.685003609615337,-0.563815717028652,-0.574386187755413,-1.11362804078354,1.24172212590209,-1.61701017459494,0.768323836803139,0.499158093623699,,0.113689855368267,-0.417163502139172,0.403028511928685,0.00418719025100812,,1.86723870138814,0.628061843321213,-0.219173271554528,0.219173271554484,0.166559971657162,-0.387681744733797,-0.251456530174212,-1.30736023372339,,0.588810078803162,0.150276358856354,1.06389015185939,1.13019731085959,1.13019731085817,,-1.09168039727677,-0.259452123544885,,0.165477368169559,,0.863598872144046,1.70676800861689,1.70676800861733,-0.581844444328804,1.81292756835276,,3.37919999999997,102,1184.90833333333,567.177941176471,877.446078431373,1171.11862745098,1198.69803921569,545.93431372549,588.421568627451,847.725490196079,907.166666666667,0
761.0368,-0.010139042285475,-0.555741656488867,-0.462269584041195,1.45430700689723,-2.21783270815318,-2.21783270815227,,-1.26095114406476,-0.466789202186102,0.648321047820665,-0.31627616852258,0.648321047822614,-0.595725316495355,-0.575300580703663,-1.15457479813456,1.21110029259369,-1.65198219674132,0.733886612129043,0.464371764576984,,0.0681545163477603,-0.427848220080469,0.409975381287748,-0.00479259964559963,,1.84583279421659,0.622759539892179,-0.222855429464885,0.22285542946484,0.150578901941838,-0.39248004883433,-0.2506405934023,-1.31597980987024,,0.580251510157055,0.150900367474738,1.04422278188867,1.11686911402786,1.11686911402642,,-1.08375555747229,-0.276345876227664,,0.156460902600171,,0.851637343074343,1.68404127501508,1.68404127501555,-0.576419536626797,1.81734013047468,,3.48159999999996,102,1184.1112745098,564.951960784314,878.53431372549,1163.88235294118,1204.34019607843,543.425490196078,586.478431372549,848.764705882353,908.303921568627,0
761.1392,-0.00986127028652412,-0.559992947212662,-0.465341926134731,1.43223431546575,-2.20877671561873,-2.20877671561783,,-1.27912571270477,-0.478366584033724,0.611647682428435,-0.303618380070526,0.611647682430362,-0.627515852637577,-0.576334237745601,-1.19545450737271,1.18017533931898,-1.68588507228623,0.699401398266161,0.429598861377796,,0.0225958215803375,-0.438856752883942,0.417639180260296,-0.0126814156773097,,1.82355291309742,0.617074754594619,-0.226589343941706,0.226589343941662,0.13593016595765,-0.397142436233017,-0.249730702694329,-1.32412988344086,,0.571204772419906,0.151965844212539,1.02487968256277,1.10350180311703,1.10350180311557,,-1.0758362925699,-0.293005314102148,,0.146771095403249,,0.839060681684675,1.66129894564774,1.66129894564824,-0.5707049022333,1.82100643798007,,3.58399999999995,103,975.088349514563,558.541747572816,894.242718446602,943.466990291262,1006.70970873786,535.640776699029,581.442718446602,857.417475728155,931.067961165049,0
761.2416,-0.00926792297707714,-0.56368693508313,-0.467551971185962,1.40995026344497,-2.19844698094995,-2.19844698094906,,-1.29669949339552,-0.489486769303149,0.57500993022898,-0.290829674441212,0.575009930230886,-0.659114134869917,-0.577474859952681,-1.23616611986086,1.14899291464051,-1.71871150136664,0.664910253251809,0.394915316412943,,-0.0228846727586181,-0.450114743906155,0.425933306698161,-0.0195197486453192,,1.80047657674359,0.611046742907953,-0.230370943540007,0.230370943539962,0.122643431602144,-0.401681916049778,-0.248718883466712,-1.33182273147261,,0.56169317710735,0.15348508292909,1.00588787842583,1.09009682580545,1.09009682580399,,-1.06791325212192,-0.309411106328477,,0.136441506628463,,0.825938478043515,1.63856336949419,1.63856336949471,-0.564679117254006,1.82389551162807,,3.68639999999994,102,964.106862745098,561.816176470588,907.009803921569,932.394117647059,995.819607843137,543.704901960784,579.927450980392,871.019607843137,943,0
761.344,-0.00839251916061103,-0.566806471086768,-0.468929623883628,1.38756491836711,-2.18687618594251,-2.18687618594163,,-1.31364657140233,-0.5001240588946,0.538432344812325,-0.277934857757017,0.538432344814209,-0.69044759768021,-0.57870965014433,-1.27660902832826,1.11759693443978,-1.75045543414363,0.630453437379528,0.360394985564429,,-0.0681872013795387,-0.461547045791834,0.434768881256378,-0.025352170737647,,1.77668356115329,0.604715763918079,-0.234196346305881,0.234196346305836,0.110744918195823,-0.406112209807258,-0.247597050394308,-1.33907193076859,,0.551741258465086,0.155468563674875,0.987271952928647,1.0766546259815,1.07665462598003,,-1.05997646898678,-0.32554504681498,,0.125507177791455,,0.812341827974986,1.61585679642973,1.61585679643029,-0.558323205427652,1.82597952921414,,3.78880000000004,103,893.693203883495,571.422815533981,932.04854368932,860.597087378641,926.78932038835,549.208737864078,593.636893203883,895.388349514563,968.708737864078,0
761.4464,-0.00726792767338981,-0.5693337367604,-0.469503399436752,1.36518806358071,-2.1740974022727,-2.17409740227183,,-1.32993990033186,-0.510251213841044,0.501937786588249,-0.264958558163215,0.501937786590115,-0.721444475010804,-0.580025343907645,-1.31668330882515,1.08602955192601,-1.78111196057635,0.596069409370287,0.326109461649009,,-0.113214060556455,-0.47307797264515,0.444055082024572,-0.0302270880312275,,1.75225554401585,0.598122971988893,-0.238061857430295,0.238061857430249,0.100257382450533,-0.410447541987534,-0.246357046349627,-1.34589198805647,,0.541374724972202,0.157925007982954,0.969054115534496,1.0631746816763,1.06317468167483,,-1.05201547848592,-0.341390093859795,,0.114004479876747,,0.79834305083856,1.59320139397451,1.5932013939751,-0.551620790773533,1.82723398787399,,3.89120000000003,102,933.074019607843,569.596078431373,956.225490196078,899.291176470588,966.856862745098,545.105882352941,594.086274509804,919.509803921569,992.941176470588,0
761.5488,-0.00592626139833259,-0.571250308243214,-0.469300336956449,1.34292883268891,-2.16014404394203,-2.16014404394118,,-1.34555136072935,-0.519839602709679,0.465547578101296,-0.251925318161333,0.465547578103145,-0.752033991150725,-0.581408238556069,-1.3562899820933,1.05433113170093,-1.81067720011644,0.561794826163095,0.292127888288882,,-0.157869877823496,-0.484631562876241,0.453699498091117,-0.0341964696856107,,1.72727574407593,0.591310289518806,-0.241963963675006,0.241963963674959,0.0912000977270857,-0.414702443000948,-0.244990686137027,-1.35229800573712,,0.530620400159307,0.160861430294822,0.951254269265932,1.04965556245423,1.04965556245276,,-1.04401944321001,-0.356930416463657,,0.101970975796828,,0.784015390873338,1.57061926398554,1.57061926398615,-0.544558210515864,1.82763783274878,,3.99360000000002,103,1101.89126213592,574.579611650485,968.519417475728,1068.95825242718,1134.82427184466,551.846601941748,597.312621359223,938.291262135922,998.747572815534,0
761.6512,-0.00439878510210986,-0.57253723272153,-0.468345940897916,1.32089534520873,-2.14504983916811,-2.14504983916728,,-1.3604518665797,-0.528859394268933,0.429281659851035,-0.238859677712526,0.429281659852864,-0.782146548331283,-0.582844212356748,-1.3953312639714,1.02254024461692,-1.83914818962447,0.527664561543069,0.258516792389304,,-0.202061861685429,-0.496131856476217,0.463608496807588,-0.0373155776358297,,1.70182855773761,0.584320269459757,-0.245899325527214,0.245899325527166,0.0835888331369574,-0.418891558297726,-0.243489801138035,-1.35830536243256,,0.519506156947064,0.164283191732031,0.933890079412855,1.03609499979815,1.03609499979668,,-1.035977279276,-0.372151436962404,,0.0894452889632652,,0.769432712767724,1.54813245735517,1.5481324573558,-0.537124576078391,1.82717353371007,,4.096,102,1107.99117647059,574.979901960784,988.789215686275,1071.97058823529,1144.01176470588,552.25,597.709803921569,959.539215686275,1018.03921568627,0
761.7536,-0.00271583571363365,-0.573175112543128,-0.46666414494243,1.29919436506491,-2.12884881446828,-2.12884881446746,,-1.37461150498933,-0.537279770151733,0.393158763105314,-0.225786235118433,0.393158763107127,-0.811713891279267,-0.584318728034777,-1.43371077570515,0.990693695690951,-1.86652277406428,0.493711753556577,0.225339950445557,,-0.245700015850105,-0.507503183544422,0.473687596928194,-0.0396427096207567,,1.67599919942546,0.577195965142624,-0.249864767289645,0.249864767289595,0.0774358398541555,-0.423029456361844,-0.241846279473779,-1.36392938253089,,0.508060846913474,0.168194068948425,0.916977045918279,1.02248996041634,1.02248996041487,,-1.02787778006992,-0.387039860988738,,0.076466965968119,,0.754669202396727,1.52576298819027,1.52576298819094,-0.529311778150561,1.82582710647798,,4.19839999999999,102,1015.87254901961,566.455392156863,1008.32843137255,973.600980392157,1058.14411764706,543.936274509804,588.974509803922,976.029411764706,1040.62745098039,0
761.856,-0.000906752541374366,-0.573144193916748,-0.464277292559801,1.27793099176601,-2.11157528294165,-2.11157528294084,,-1.3879996855743,-0.545069131357513,0.357196608644333,-0.212729683168349,0.357196608646126,-0.840669239659935,-0.585816821960218,-1.47133370369024,0.958826582273477,-1.89279950878374,0.459967876402504,0.192658289421143,,-0.28869731761058,-0.518670452044136,0.483841839895057,-0.0412389452036764,,1.64987335513226,0.56998082236146,-0.253857265099163,0.25385726509911,0.0727498491986539,-0.42713043396177,-0.24005209655335,-1.36918498139914,,0.496314222705761,0.172596347352727,0.900528582471037,1.00883671282794,1.00883671282649,,-1.01970973673327,-0.4015836946875,,0.0630763287604043,,0.739799078027256,1.50353284587578,1.50353284587646,-0.521114441699867,1.82358808447668,,4.30079999999998,103,795.258252427185,559.956310679612,1029.66504854369,754.166990291262,836.349514563107,534.459223300971,585.453398058252,986.864077669903,1072.46601941748,0
761.9584,0.00100018546102234,-0.572424462262509,-0.461206132146717,1.25720837114078,-2.09326383235795,-2.09326383235716,,-1.40058528293724,-0.552195286856251,0.32141212431113,-0.199714830863429,0.321412124312903,-0.868947399502933,-0.587323089770588,-1.50810693017574,0.92697236601964,-1.91797758108837,0.426462820590852,0.160529807231537,,-0.330969876572475,-0.529559422732711,0.493976155320966,-0.0421678741866745,,1.62353685020052,0.562718593645626,-0.257873933618742,0.257873933618687,0.069536077218898,-0.43120832520813,-0.238099337003465,-1.37408630209053,,0.48429684927654,0.177490934547281,0.884556103136263,0.995130884873036,0.995130884871598,,-1.01146205999105,-0.415772258212211,,0.0493143179707895,,0.724896306516398,1.48146399780092,1.48146399780163,-0.512529852045912,1.82044945856987,,4.40319999999997,102,793.712254901961,565.146568627451,1036.28431372549,751.403921568628,836.020588235294,540.616666666667,589.676470588235,990.421568627451,1082.14705882353,0
762.0608,0.00297781809477967,-0.570995751009655,-0.457469828689101,1.23712739574156,-2.07394931319735,-2.07394931319656,,-1.41233676960787,-0.558625631049413,0.285821663633648,-0.186766624519299,0.285821663635405,-0.896484879141031,-0.588821681520732,-1.54393917632646,0.895162943310316,-1.94205675058259,0.393224967840475,0.129009495268013,,-0.372437092718187,-0.540096972741717,0.503995726069693,-0.0424952967055096,,1.59707531965255,0.555453260486292,-0.261912013894036,0.261912013893977,0.0677962175454261,-0.435276322696343,-0.235980217244374,-1.37864637896064,,0.472040001407805,0.182877479296681,0.869069113340266,0.981367520929135,0.981367520927707,,-1.00312391018342,-0.429596203613305,,0.0352223298513583,,0.710034311249898,1.45957837856868,1.45957837856941,-0.503557881309556,1.81640761087945,,4.50559999999996,102,793.385784313726,568.309803921569,1041.28431372549,750.685294117647,836.086274509804,543.136274509804,593.483333333333,996.539215686274,1086.02941176471,0
762.1632,0.00500016028029035,-0.568837870002204,-0.453085993925186,1.21778636942615,-2.0536668283273,-2.05366682832653,,-1.42322234329133,-0.564327324888259,0.250441213312155,-0.173910174379912,0.250441213313895,-0.923220028304389,-0.59029631487596,-1.57874118714505,0.863428710321247,-1.9650372986277,0.360281259336304,0.0981492552143132,,-0.413021821807564,-0.550211360268901,0.513806362001828,-0.042288902878735,,1.57057386776871,0.548228947139427,-0.265968865171277,0.265968865171215,0.0675284020629585,-0.439346811808793,-0.233687119652728,-1.38287685153476,,0.45957554980271,0.188754482387786,0.854075299933308,0.967541151912307,0.9675411519109,,-0.994684838564374,-0.443047537153096,,0.0208420472292997,,0.695285660922667,1.43789786813542,1.43789786813618,-0.494200933401104,1.81146225998537,,4.60799999999995,103,746.63468073189,568.059582710978,1044.09050597461,697.933009708738,795.336351755041,544.88640776699,591.232757654966,1000.44660194175,1087.73441000747,0
762.2656,0.00704245795502999,-0.565930754655627,-0.448070733884091,1.1992806297597,-2.03245172471054,-2.03245172470978,,-1.43321005103724,-0.569267488611355,0.215286591267356,-0.161170783392392,0.215286591269081,-0.949093198525272,-0.591730308905921,-1.61242595771046,0.831798629058826,-1.98691997416833,0.327657265596726,0.0679978135968351,,-0.452650542736251,-0.559832499010594,0.5233148847047,-0.0416179481231109,,1.5441167129712,0.541089815886064,-0.270041960569668,0.2700419605696,0.0687271222134933,-0.443431213765477,-0.23121264266134,-1.38678772763183,,0.446935839421567,0.195119391747331,0.839580616448797,0.953645885032728,0.953645885031356,,-0.986134936096884,-0.456119640472388,,0.0062152623173081,,0.680721738667434,1.41644426117763,1.41644426117841,-0.48446391014372,1.80561641392134,,4.71039999999994,102,982.703271116139,682.011901395174,712.738075037707,1136.1068627451,829.299679487179,786.462745098039,577.561057692308,353.343137254902,1072.13301282051,0.46078431372549
762.368,0.00908124380489731,-0.562254631069041,-0.44243870953372,1.18170214132656,-2.01033958463386,-2.01033958463312,,-1.44226791000397,-0.573413402309992,0.180373646356755,-0.148573971769628,0.180373646358463,-0.974046906994799,-0.593106635660056,-1.64490897620412,0.800300306378894,-2.0077059237637,0.295377271141921,0.0386006455385592,,-0.49125351150495,-0.568892242097547,0.532429519929517,-0.0405529323418087,,1.51778682140553,0.534079940118045,-0.27412888311882,0.274128883118748,0.0713831230553647,-0.447539834011966,-0.228549665476478,-1.39038718596124,,0.434153561088531,0.201968678727535,0.825589362633425,0.939675510473481,0.939675510472134,,-0.977464981807937,-0.468807282877324,,-0.00861630913235316,,0.666412400145962,1.39523922813201,1.39523922813281,-0.474354201635647,1.79887632136632,,4.81280000000004,103,927.071878889719,792.119935586258,789.716377271596,949.217475728155,904.926282051282,1022.54660194175,561.693269230769,527.339805825243,1052.09294871795,0.621359223300971
762.4704,0.01109439141637,-0.557790187791092,-0.43620320486648,1.16513908657272,-1.98736621196386,-1.98736621196313,,-1.45036402014742,-0.576732702810708,0.145718471732744,-0.136145492809108,0.145718471734433,-0.998025981460913,-0.594407982637537,-1.6761084506015,0.768960099029576,-2.02739659657141,0.263464387461543,0.00999992350722724,,-0.528764882497918,-0.57732467084864,0.54106029306542,-0.0391652834188419,,1.491665534662,0.527243157179287,-0.27822731866129,0.278227318661212,0.0754832964929165,-0.4516817132246,-0.225691425830831,-1.39368140937045,,0.421261616185646,0.209297897652948,0.812104260169023,0.925623613643184,0.925623613641862,,-0.968666583185944,-0.481106616401528,,-0.023611216404923,,0.652425632596081,1.3743042708469,1.37430427084773,-0.463881711902317,1.79125142687869,,4.91520000000003,102,928.01412456008,541.953634049774,994.905464429361,883.253921568628,972.774327551533,535.273529411765,548.633738687783,957.617647058824,1032.1932817999,0
762.5728,0.013061164899689,-0.552518744733571,-0.429376198593257,1.14967548320409,-1.96356761144849,-1.96356761144778,,-1.45746666266011,-0.579193564109507,0.111337636816654,-0.123911337108882,0.111337636818325,-1.02097767088808,-0.595616819100113,-1.70594549480022,0.737803249393365,-2.04599362651228,0.231940697973367,-0.0177654978876767,,-0.565122786104449,-0.58506638218078,0.54911942108166,-0.0375270467394281,,1.46583219743543,0.520622908730406,-0.282335045053014,0.282335045052931,0.0810106024172204,-0.455864477708773,-0.222631608221825,-1.39667443698748,,0.408292975310103,0.21710173599674,0.79912652842993,0.911483678009346,0.911483678008057,,-0.959732304095243,-0.493015150290272,,-0.0387284565800915,,0.638827226072248,1.35366067530449,1.35366067530533,-0.453058923251419,1.78275434755337,,5.01760000000002,103,933.445631067961,549.754368932039,1028.83009708738,887.940776699029,978.950485436893,539.547572815534,559.961165048544,1012.04854368932,1045.61165048544,0
762.6752,0.014962260946398,-0.546422415351616,-0.421968440274287,1.13539084188692,-1.9389799643957,-1.938979964395,,-1.46354438526372,-0.580764855760253,0.0772484307537351,-0.11189772441364,0.0772484307553866,-1.04285172285806,-0.596715464807211,-1.73434427442883,0.706854040418293,-2.06349870986913,0.200827420971569,-0.0446600649335105,,-0.600269370921866,-0.592056770038898,0.55652169676936,-0.0357105799470521,,1.44036378803682,0.514262078666833,-0.286449919818082,0.286449919817991,0.087944033898628,-0.460094189743949,-0.219364437145525,-1.39936802586639,,0.395280531843424,0.225374062524464,0.786655963557543,0.897249169909135,0.897249169907875,,-0.950655780502398,-0.504531712146155,,-0.0539276486897215,,0.625680461163694,1.33332945694542,1.33332945694629,-0.441900982808239,1.77340087688926,,5.12000000000001,102,937.835784313726,546.777450980392,1062.21568627451,896.897058823529,978.774509803922,537.449019607843,556.105882352941,1036.72549019608,1087.70588235294,0
762.7776,0.016779842518452,-0.539484265788746,-0.413989534923182,1.12235985248446,-1.91363960594701,-1.91363960594633,,-1.46856608547185,-0.581416287987719,0.0434691006807549,-0.100131087727225,0.0434691006823853,-1.06360044434612,-0.597686167056427,-1.76123213746013,0.676135948706801,-2.07991349746003,0.170145067922432,-0.0706514924215295,,-0.634150832139225,-0.598238299281615,0.563184867983941,-0.0337882416137505,,1.41533455067719,0.508202832617671,-0.290569869613719,0.290569869613621,0.0962586203898519,-0.464375205427393,-0.215884770712414,-1.40176152929288,,0.382256950378304,0.234107973660831,0.774691020727592,0.882913609805173,0.882913609803956,,-0.941431829335125,-0.515656408641557,,-0.0691692024982691,,0.613045806248588,1.3133312916307,1.31333129163158,-0.430425786894381,1.76321000108694,,5.22239999999999,102,940.004901960784,552.444607843137,1066.36764705882,900.904901960784,979.104901960784,547.559803921569,557.329411764706,1023.21568627451,1109.51960784314,0
762.88,0.0184975664360067,-0.531688477515874,-0.405448038399658,1.11065207308415,-1.88758300673292,-1.88758300673225,,-1.47250110634389,-0.581118565714667,0.0100190685593074,-0.0886380606200296,0.0100190685609177,-1.08317876636732,-0.598511193403877,-1.78653976067135,0.64567178106394,-2.09523950284691,0.139913583749332,-0.095710731983098,,-0.666717443619364,-0.60355676930524,0.569030013222108,-0.0318320631935319,,1.39081562809655,0.502486452072672,-0.294692883877294,0.294692883877188,0.105925446789721,-0.468710050708891,-0.212188194744976,-1.40385181464984,,0.369254509589152,0.243295829158265,0.763228895956066,0.868470641633724,0.868470641632554,,-0.932056555811858,-0.526390593482886,,-0.0844144829133583,,0.600980614180694,1.29368643214325,1.29368643214414,-0.418654048531093,1.7522039074785,,5.32479999999998,103,847.634466019417,557.660679611651,1056.18932038835,803.978640776699,891.290291262136,547.849514563107,567.471844660194,1006.18446601942,1106.19417475728,0
762.9824,0.0201006081258996,-0.523020516634905,-0.396351561894107,1.1003316038893,-1.86084675975862,-1.86084675975796,,-1.47531935444125,-0.579843572110568,-0.0230808808459641,-0.0774454785340857,-0.023080880844374,-1.10154432352176,-0.599172942065818,-1.81020132728162,0.615483793104087,-2.10947801475152,0.110152470310478,-0.11981194710452,,-0.697923597933163,-0.607961562112147,0.573981905759826,-0.029913411469634,,1.36687469369302,0.497153149759324,-0.298817012155624,0.298817012155513,0.116911669133166,-0.473099322124193,-0.208271120671626,-1.40563324104331,,0.3563049401619,0.252929264145197,0.752265602988426,0.853914108099306,0.853914108098173,,-0.922527458783831,-0.536736841929921,,-0.0996259646533034,,0.589538816800394,1.27441461490015,1.27441461490105,-0.406609343141792,1.74040797316906,,5.42719999999997,102,821.928210968367,560.59131267025,1046.43782209379,778.69580449827,865.160617438465,547.851211072664,573.331414267835,996.422577854671,1096.45306633292,0
763.0848,0.0215756850173954,-0.51346730845739,-0.386706882440395,1.09145674617379,-1.83346757258437,-1.83346757258373,,-1.47699143852207,-0.577564580567414,-0.0558084381605272,-0.0665803943090385,-0.0558084381589576,-1.11865754491428,-0.599654063625726,-1.83215472685836,0.585593798586833,-2.12263000469325,0.0808809026306653,-0.142932489416873,,-0.727727846345693,-0.611405873263099,0.577969358603229,-0.0281026583094795,,1.34357558361853,0.492241856743164,-0.302940363678604,0.302940363678487,0.129180524433629,-0.477541611571131,-0.204130888738238,-1.4070976982243,,0.343439260367925,0.262999169048226,0.741796042405714,0.839238134535369,0.839238134534292,,-0.912843527910677,-0.54669892671303,,-0.114767370779776,,0.578770624905154,1.25553495805049,1.25553495805141,-0.394318126774682,1.72785072357431,,5.52959999999996,102,838.896146596937,629.698481733119,983.339877972466,808.401715686275,869.390577507599,696.619607843137,562.7773556231,884.669117647059,1082.01063829787,0.764705882352941
763.1872,0.0229110779995189,-0.503017413395046,-0.376520057019354,1.08407966165608,-1.80548226152514,-1.80548226152451,,-1.47748881832057,-0.574256473657601,-0.088139623511733,-0.0560700944963719,-0.0881396235101868,-1.134481741681,-0.599937579892785,-1.85234174894697,0.556023284616382,-2.1346960288905,0.052117851528457,-0.165052861826051,,-0.756092921133135,-0.61384693149151,0.58092555420868,-0.0264688620461801,,1.32097793538438,0.48778998353431,-0.307061109428175,0.307061109428053,0.142691345776464,-0.482033450296161,-0.19976587233118,-1.40823468844736,,0.330687612717414,0.27349563923686,0.731814062197722,0.824437224628719,0.824437224627688,,-0.903005324077669,-0.556281787371882,,-0.12980379405777,,0.568722245872583,1.23706585027158,1.23706585027251,-0.381809716355229,1.71456374352335,,5.63199999999995,103,830.542210399963,573.030841603322,994.635190225646,786.958280982296,874.126139817629,594.718218161051,551.343465045593,922.525699600228,1066.74468085106,0.485436893203884
763.2896,0.0240966498535164,-0.491661198104267,-0.365796536776732,1.07824605630105,-1.77692774020956,-1.77692774020895,,-1.47678395828215,-0.569895952973782,-0.120048643507566,-0.0459420998927941,-0.120048643506043,-1.14898317200338,-0.600006985677929,-1.87070823632424,0.526793548927595,-2.14567612789383,0.0238822263311986,-0.186156651441728,,-0.782985719806431,-0.615246214128738,0.582788369680007,-0.0250794501827782,,1.29913684447355,0.483833169585329,-0.31117748635662,0.311177486356492,0.157399595481948,-0.486569266463248,-0.195175575524647,-1.40903142413143,,0.318079104255273,0.284407906865163,0.722312511252111,0.809506369883001,0.809506369882019,,-0.89301503478259,-0.565491482485817,,-0.144701803905112,,0.559435633226318,1.21902483588673,1.21902483588767,-0.369116228067568,1.70058153535766,,5.73439999999994,102,824.869537815126,539.082492997199,1017.88235294118,773.277450980392,876.46162464986,533.206862745098,544.9581232493,976.950980392157,1058.8137254902,0
763.392,0.0251238594407154,-0.479390994866846,-0.354541277277732,1.07399491090858,-1.7478409955552,-1.74784099555461,,-1.47485049671209,-0.564461744512207,-0.151507745165799,-0.0362241440960447,-0.151507745164298,-1.16213106989514,-0.599846330965484,-1.88720417878953,0.497925864645348,-2.15556972930368,-0.00380695864509441,-0.206230424570414,,-0.808377241378441,-0.615569659444657,0.583500700810947,-0.0239998972138811,,1.27810254679514,0.480405039450938,-0.315287800552537,0.315287800552403,0.173256924815103,-0.491141351357403,-0.190360718672143,-1.40947292084394,,0.30564165237289,0.295724271397756,0.713283288991011,0.794441165986727,0.794441165985796,,-0.882876500543781,-0.574335117379681,,-0.159429539701875,,0.550948277861738,1.20142850671835,1.2014285067193,-0.3562724929349,1.6859413580169,,5.83680000000004,103,822.4,536.606796116505,1078.3932038835,772.02718446602,872.772815533981,534.56213592233,538.65145631068,1027.47572815534,1129.31067961165,0
763.4944,0.0259857696408944,-0.466201246178583,-0.342758844968776,1.07135826448195,-1.71825905033323,-1.71825905033266,,-1.47166344406826,-0.557934811246938,-0.18248707736365,-0.0269441360857462,-0.182487077362174,-1.17389763995579,-0.599440293955903,-1.90178375758516,0.469441658523874,-2.16437556268875,-0.0309304081671702,-0.225263593082133,,-0.832242484546958,-0.614787872166133,0.583010777425487,-0.0232934081986011,,1.25792012750533,0.477536976716247,-0.3193904259328,0.31939042593266,0.190211263818293,-0.495739832545123,-0.185323312815207,-1.40954208353321,,0.293401837874766,0.307432039002894,0.704717393755992,0.779237925697375,0.779237925696497,,-0.872595216511398,-0.582820750730735,,-0.173956790619252,,0.543293035984526,1.18429240429775,1.18429240429871,-0.343315984109241,1.67068310489999,,5.93920000000003,102,822.833823529412,529.030882352941,1124.8137254902,772.387254901961,873.280392156863,524.421568627451,533.640196078431,1062.99019607843,1186.63725490196,0
763.5968,0.0266770470102245,-0.452088638544501,-0.330453525728993,1.07036103566576,-1.68821891684051,-1.68821891683997,,-1.4671994084181,-0.55029857310478,-0.212954582177279,-0.018130116085058,-0.212954582175827,-1.18425803620189,-0.598774256697448,-1.91440537151369,0.441362678484902,-2.17209159897431,-0.0574683847252956,-0.243248270759077,,-0.85456032984684,-0.612876318266509,0.581272459528034,-0.0230206261955801,,1.23862925374247,0.475257915058356,-0.32348379661698,0.323483796616836,0.208206936390776,-0.500352658324354,-0.180066726882149,-1.40921980285784,,0.281384766923111,0.319517469957396,0.696604969433711,0.763893786762315,0.763893786761491,,-0.862178319308506,-0.590957292110421,,-0.188255067287771,,0.536497975974626,1.16763092715251,1.16763092715348,-0.330286773923386,1.65484924889988,,6.04160000000002,103,794.88932038835,532.266504854369,1151.21359223301,741.5,848.278640776699,528.129126213592,536.403883495146,1076.7572815534,1225.66990291262,0
763.6992,0.0271939524430152,-0.437052232017519,-0.317629441727535,1.07102086170413,-1.65775754776624,-1.65775754776572,,-1.46143683119406,-0.541539125563119,-0.242875934436119,-0.00981021001208523,-0.242875934434695,-1.19319034577061,-0.597834387123904,-1.92503167368665,0.413711134263722,-2.17871502020068,-0.0834005773459414,-0.260179132740027,,-0.875313422786982,-0.609815503594438,0.578245505915778,-0.0232393719593581,,1.22026393148257,0.473594138844161,-0.327566391132641,0.327566391132492,0.227184785441936,-0.504965601497163,-0.174595750836513,-1.40848508475538,,0.269613943647812,0.331965727131675,0.688935347473401,0.748406822186075,0.748406822185295,,-0.851634567822695,-0.598754399554964,,-0.202297671856386,,0.530586228799638,1.15145724244089,1.15145724244187,-0.317227506029158,1.63848482951934,,6.14400000000001,102,743.022549019608,538.671078431373,1171.14705882353,688.819607843137,797.225490196079,525.730392156863,551.611764705882,1087.57843137255,1254.71568627451,0
763.8016,0.0275343230639168,-0.421093588031208,-0.30429067835175,1.07334794612597,-1.62691178982449,-1.626911789824,,-1.45435621630433,-0.531645449372788,-0.272214535369112,-0.0020125838823211,-0.272214535367711,-1.2006755895689,-0.596607725038144,-1.93362963243641,0.38650980902902,-2.18424221353112,-0.10870600120539,-0.276053281165038,,-0.894488062606476,-0.60559112723166,0.573895807512818,-0.0240044131326754,,1.20285229180652,0.472569087033279,-0.331636707223635,0.33163670722348,0.247082289628332,-0.509562287982463,-0.168916656067209,-1.40731522745438,,0.258111154381044,0.344760819871757,0.681697081991072,0.732776158441889,0.732776158441163,,-0.840974321579233,-0.606222377102397,,-0.216059765244262,,0.52557583953714,1.13578321442438,1.13578321442538,-0.30418335070972,1.62163742774058,,6.24639999999999,102,765.486274509804,534.439215686275,1173.75490196078,712.349019607843,818.623529411765,519.08137254902,549.797058823529,1091.54901960784,1255.96078431373,0
763.904,0.0276975454105056,-0.404216892564723,-0.2904414187347,1.07734492243049,-1.5957183429676,-1.59571834296714,,-1.44594034161129,-0.520609601864387,-0.300931556077787,0.00523460327414614,-0.30093155607641,-1.206697741158,-0.595082266907175,-1.94017061443209,0.359782148891325,-2.18866877779163,-0.133362919477216,-0.290870113533116,,-0.912074091813014,-0.600194201951227,0.568195578187313,-0.0253672626580161,,1.18641641564912,0.47220316156718,-0.335693229758727,0.335693229758568,0.267833658630149,-0.514124250231597,-0.163037252031462,-1.40568604394746,,0.24689636214419,0.357885543371342,0.674877977712977,0.717002100687272,0.717002100686594,,-0.830209516719613,-0.613372065388251,,-0.229518423458304,,0.521479627743041,1.1206193680564,1.1206193680574,-0.291201917609491,1.6043570798945,,6.34879999999998,103,1081.89902912621,467.060194174757,1047.76699029126,1038.0427184466,1125.75533980583,472.768932038835,461.35145631068,972.563106796117,1122.97087378641,0
764.0064,0.0276845200808723,-0.386429068417998,-0.276086080626959,1.08300675187946,-1.56421372231021,-1.56421372230977,,-1.4361744459966,-0.508426874200704,-0.328986018879619,0.0119032532216247,-0.328986018878262,-1.21124375448249,-0.593247041503323,-1.94463047257024,0.333552342009874,-2.19198953244991,-0.15734877492376,-0.30463118482766,,-0.928064774043331,-0.593621143125935,0.561123501838191,-0.0273760131712873,,1.17097220706444,0.472513549634146,-0.339734397884579,0.339734397884418,0.289369905658014,-0.518631000704951,-0.15696693508523,-1.40357211202958,,0.235987609472133,0.371321421634349,0.668465112352412,0.701086259689363,0.701086259688739,,-0.819353637419034,-0.620214715152551,,-0.242652675587073,,0.518305067373502,1.10597489957579,1.10597489957681,-0.278333118388363,1.58669610885704,,6.45119999999997,102,1095.51715686275,477.129411764706,875.529411764706,1062.85784313725,1128.17647058824,471.414705882353,482.844117647059,824.764705882353,926.294117647059,0
764.1088,0.0274976191480214,-0.367739869667122,-0.261229448313499,1.09032067603168,-1.53243421493105,-1.53243421493063,,-1.42504639045089,-0.495095903781875,-0.356334900618307,0.0179653953655482,-0.35633490061697,-1.2143035832907,-0.59109216808371,-1.94698961116664,0.30784539701365,-2.19419852460315,-0.180640121684738,-0.317340053054766,,-0.942456645828998,-0.585873834055278,0.552664843236762,-0.0300752078711241,,1.15652932114724,0.473514071861804,-0.34375857739297,0.343758577392806,0.311618911952276,-0.523060117719666,-0.150716723899443,-1.40094702478744,,0.225400931050834,0.385048666566564,0.662444856565469,0.68503167133057,0.685031671329995,,-0.808421678495655,-0.626761836288152,,-0.255443520799468,,0.516054195819789,1.09185773186607,1.09185773186709,-0.265628984971632,1.56870887878391,,6.55359999999996,102,1098.56176470588,473.903431372549,767.71568627451,1072.46568627451,1124.65784313725,468.213725490196,479.593137254902,733.294117647059,802.137254901961,0
764.2112,0.0271406386388848,-0.348161953828345,-0.245876792962947,1.09926623463988,-1.50041582421596,-1.50041582421557,,-1.41254679231733,-0.480618742702457,-0.382933248977669,0.0233932661170172,-0.382933248976347,-1.21587018023316,-0.588608896451786,-1.94723301281557,0.282687217881211,-2.19528903894648,-0.203212560828152,-0.329002107534038,,-0.955249340067881,-0.576959669421107,0.542811528718608,-0.0335057358864575,,1.14309114177924,0.475215062552877,-0.347764041503703,0.347764041503538,0.33450550673874,-0.527387338183688,-0.144299277401744,-1.3977836220763,,0.215150281450031,0.399046159852265,0.656802895266096,0.668842896670238,0.668842896669717,,-0.797430095445663,-0.633025025877173,,-0.26787392571143,,0.514723557269405,1.07827459724729,1.07827459724832,-0.253143446800775,1.55045148956943,,6.65599999999995,103,1101.62087378641,471.073300970874,712.776699029126,1077.94951456311,1125.29223300971,469.423300970874,472.723300970874,686.95145631068,738.601941747573,0
764.3136,0.0266187480387013,-0.327710933059424,-0.230033979922809,1.10981533857585,-1.46819420080367,-1.46819420080331,,-1.39866912368514,-0.465000885971823,-0.408734319109969,0.0281593900767351,-0.40873431910866,-1.21593948210446,-0.585789640222083,-1.94535024299543,0.258104659611865,-2.19525362220848,-0.225040695957208,-0.339624393747624,,-0.966445397667305,-0.566891567200916,0.531562191794078,-0.0377047403638917,,1.13065479373576,0.477623276799634,-0.351748960900074,0.351748960899908,0.357951575726246,-0.531586659661785,-0.137728896150012,-1.39405420992234,,0.205247482541558,0.413291451182076,0.651524252126339,0.652526095678137,0.652526095677661,,-0.786396742587751,-0.639015788848419,,-0.279928805686776,,0.51430417729303,1.06523112458811,1.06523112458915,-0.240932066924531,1.53198142733922,,6.75839999999994,102,1033.93676470588,471.270098039216,690.156862745098,1008.01960784314,1059.85392156863,463.793137254902,478.747058823529,667.745098039216,712.56862745098,0
764.416,0.0259384374026232,-0.306405410781394,-0.213707567358495,1.12193237236422,-1.43580456603925,-1.43580456603891,,-1.38340976625978,-0.448251263289144,-0.433689748780119,0.0322366498415759,-0.433689748778825,-1.21451040126325,-0.582628019178999,-1.94133546883424,0.234125549302792,-2.19408413032853,-0.246098124251812,-0.349215453209963,,-0.97605009041396,-0.555687939641822,0.518922175618115,-0.0427055366258025,,1.11921117553275,0.480741810777966,-0.355711401258608,0.355711401258442,0.381876192044818,-0.53563045840708,-0.131021514834,-1.38973079675348,,0.19570218975153,0.427760757579884,0.646593315306668,0.636089079665859,0.636089079665421,,-0.775340803380875,-0.644745364675085,,-0.291594994076711,,0.514781559441469,1.05273191538982,1.05273191539087,-0.22905174598659,1.51335719439428,,6.86080000000004,103,796.809708737864,500.169902912621,703.354368932039,769.070873786408,824.54854368932,491.757281553398,508.582524271845,678.368932038835,728.339805825243,0
764.5184,0.0251074616008467,-0.284267009883268,-0.19690490183382,1.13557430585708,-1.40328163416943,-1.40328163416911,,-1.366768035612,-0.430382205587571,-0.457749785266558,0.0355983395220312,-0.457749785265277,-1.21158483827453,-0.579118919117718,-1.93518751690053,0.210778667627397,-2.19177179817367,-0.266357467348144,-0.357785189135854,,-0.984071268850479,-0.543372624632667,0.504903493473694,-0.0485375407564042,,1.1087450101108,0.484570022091948,-0.359649322754069,0.359649322753902,0.406195755266827,-0.539489624803672,-0.124194695805994,-1.38478536858698,,0.186521870600905,0.442428950206829,0.641993860294342,0.619541354276866,0.619541354276454,,-0.764282714994187,-0.65022456608158,,-0.302861202537145,,0.516135698083412,1.04078060675808,1.04078060675914,-0.217560408558384,1.49463794241783,,6.96320000000003,102,797.988725490196,505.467156862745,734.063725490196,771.246078431373,824.73137254902,503.424509803922,507.509803921569,712.323529411765,755.803921568627,0
764.6208,0.0241347809785858,-0.261320394144609,-0.179634213092275,1.15069081228226,-1.37065953468544,-1.37065953468514,,-1.3487462026247,-0.411409401576353,-0.48086356300721,0.0382182078834282,-0.480863563005944,-1.20716771526142,-0.575258566304088,-1.92690996737101,0.18809369560128,-2.18830732479672,-0.285790436267751,-0.365344757028532,,-0.990519234677943,-0.529974784566645,0.489524755760635,-0.0552262041312224,,1.09923491579349,0.489103444901432,-0.363560573578514,0.363560573578347,0.430824130127506,-0.543133712179182,-0.117267627224828,-1.37919020149126,,0.177711788277001,0.457269523022976,0.63770906681595,0.602894162205961,0.602894162205573,,-0.753244085056799,-0.65546362917258,,-0.313717974114337,,0.518341111416158,1.02937992990508,1.02937992990614,-0.206516674636615,1.47588311383693,,7.06560000000002,103,799.915048543689,511.014077669903,784.868932038835,770.885436893204,828.944660194175,511.467961165049,510.560194174757,765.650485436893,804.087378640777,0
764.7232,0.0230304972320758,-0.237593279296633,-0.161904706712105,1.16722440698546,-1.33797173489512,-1.33797173489484,,-1.32934953015414,-0.391351851646688,-0.502979420092973,0.0400705027086538,-0.502979420091724,-1.20126701637523,-0.57104460632605,-1.91651126025909,0.166101137251747,-2.18368096394957,-0.304367918837886,-0.371906469761892,,-0.995406626063354,-0.515528775656777,0.472811068928228,-0.062792946924627,,1.09065349997049,0.494333703310866,-0.367442870637909,0.367442870637742,0.4556727885162,-0.546531097774884,-0.110261118770344,-1.37291819519025,,0.169274987574168,0.472254545841865,0.633721529712811,0.586160527581967,0.586160527581603,,-0.742247595743278,-0.660472070909971,,-0.324157629696359,,0.521366907606483,1.01853177764211,1.01853177764318,-0.195979507943625,1.45715208280093,,7.16800000000001,102,817.56737745098,522.455829562594,811.126828808447,769.23137254902,865.903382352941,515.610784313726,529.300874811463,807.892156862745,814.361500754148,0
764.8256,0.0218057823162238,-0.213116426723218,-0.143726651832306,1.18511063172427,-1.3052509663473,-1.30525096634705,,-1.30858632077704,-0.370231813039484,-0.524045239250632,0.0411300279902801,-0.524045239249404,-1.19389381610821,-0.566476173505044,-1.90400477968912,0.144832229903996,-2.1778826116989,-0.322060077511682,-0.377483702582329,,-0.998748299417511,-0.500073985964285,0.454793904979261,-0.0712550897822822,,1.08296748309643,0.500248432373716,-0.371293766086729,0.371293766086561,0.480650970209882,-0.549649159716684,-0.103197580964094,-1.36594320909188,,0.161212285442305,0.487354609979532,0.630013266544685,0.569355296009323,0.569355296008987,,-0.731316889305812,-0.665258549136899,,-0.334174209340404,,0.525176901200546,1.00823728910725,1.00823728910833,-0.186007837420371,1.43850379763964,,7.2704,102,868.57806372549,524.197812971342,480.956542232278,693.068627450981,1044.0875,436.322549019608,612.073076923077,275.980392156862,685.932692307692,0.57843137254902
764.928,0.0204727977112477,-0.187923613725094,-0.125111462528869,1.20427830556365,-1.27252916041114,-1.27252916041091,,-1.28646795507278,-0.348074720370205,-0.544008805851346,0.041372221258208,-0.544008805850134,-1.18506228227922,-0.561553938830872,-1.88940889116841,0.124318846793828,-2.17090189279194,-0.338836453745606,-0.382090790210058,,-1.00056119831965,-0.483654642965398,0.435510940243216,-0.0806257893025144,,1.07613786876719,0.506831217451442,-0.375110606534933,0.375110606534765,0.505665881810582,-0.55245447135009,-0.0961009778061027,-1.35824038382788,,0.153522270759642,0.502538776416248,0.626565725759246,0.552495161161871,0.552495161161558,,-0.720476431794051,-0.669830724360308,,-0.343763411778696,,0.529729790516677,0.998496946003108,0.998496946004195,-0.176660162626233,1.41999644068015,,7.37279999999998,103,1006.15475728155,710.51144137416,375.754817027633,773.242718446602,1239.0667961165,720.234951456311,700.787931292009,207.456310679612,544.053323375653,0
765.0304,0.0190446017998354,-0.162051580279122,-0.106071775721789,1.22464984150044,-1.23983739699617,-1.23983739699597,,-1.26300890014011,-0.324909070478988,-0.562818189761211,0.040773250522865,-0.562818189760018,-1.17478965966768,-0.556280134591837,-1.87274693812718,0.104593381976688,-2.16272825957913,-0.354666090700849,-0.385742926232903,,-1.00086422038296,-0.46631959941166,0.415005870062244,-0.0909139821238877,,1.07012017415428,0.514061558326917,-0.378890495080795,0.378890495080627,0.530622940426405,-0.55491300750105,-0.0889967554747318,-1.34978644204368,,0.146201318642048,0.517774532496559,0.623359797191606,0.535598676044366,0.535598676044073,,-0.709751358607852,-0.674195130863859,,-0.352922534717252,,0.534979390146857,0.989310664637227,0.989310664638318,-0.167994162416902,1.40168711547833,,7.47519999999997,102,960.775,501.201470588235,721.470588235294,901.253921568627,1020.29607843137,493.013725490196,509.389215686275,743.470588235294,699.470588235294,0
765.1328,0.0175350449644642,-0.13553995885944,-0.0866215314284107,1.24614160413188,-1.2072058688101,-1.20720586880992,,-1.23822668502465,-0.300766280440328,-0.580422165998232,0.039310123172633,-0.580422165997054,-1.16309625709239,-0.550658565707825,-1.85404723351729,0.0856885986622552,-2.15335112002954,-0.369517694452628,-0.388456088050275,,-0.999678108775103,-0.448122109356135,0.393328209377404,-0.102124341490578,,1.06486472162257,0.521914857019189,-0.382630258916285,0.382630258916116,0.555426046097211,-0.556990356185862,-0.0819117601626836,-1.34055997984838,,0.139243622778853,0.533027755615178,0.620375822831929,0.518686257933419,0.518686257933144,,-0.699167311048501,-0.678357069357621,,-0.361650416317075,,0.540874899467619,0.980677872501951,0.980677872503042,-0.160066320960603,1.38363155373848,,7.57759999999996,102,930.626960784314,468.811274509804,770.700980392157,898.605882352941,962.648039215686,463.180392156863,474.442156862745,796.833333333333,744.56862745098,0
765.2352,0.0159586551249092,-0.10843119576589,-0.066776058635633,1.26866427880989,-1.17466386102022,-1.17466386102006,,-1.21214185506428,-0.275680541585109,-0.596770679881762,0.036960799146415,-0.596770679880602,-1.15000545758674,-0.544694619570364,-1.83334307954229,0.0676374310458066,-2.1427600029171,-0.383359844198413,-0.390247002946193,,-0.997025388555276,-0.429119594957489,0.37053307718503,-0.114257253345809,,1.06031697939898,0.530362423110358,-0.386326414676508,0.386326414676338,0.579977858110145,-0.558651934640616,-0.0748741561634529,-1.33054176792019,,0.132641244159002,0.548262676628856,0.617593603528712,0.501780199479131,0.501780199478885,,-0.688750271541574,-0.682320528390899,,-0.36994737664926,,0.547361188906758,0.972597569351693,0.972597569352791,-0.152931576282859,1.36588383110382,,7.67999999999995,103,761.062621359223,550.906796116505,801.601941747573,722.799029126214,799.326213592233,548.491262135922,553.322330097087,829.873786407767,773.330097087379,0
765.3376,0.0143305176665572,-0.0807704690038553,-0.0465521657089045,1.29212323714394,-1.14223974469358,-1.14223974469344,,-1.18477791390158,-0.24968868316418,-0.611815346776718,0.0337043076223063,-0.611815346775572,-1.13554375435921,-0.53839527735512,-1.81067282098821,0.0504727463706952,-2.13094475769081,-0.396161244968653,-0.391133152385587,,-0.992930347591711,-0.409373386877718,0.346680945640002,-0.127308819181785,,1.05641793725664,0.539371490010554,-0.389975123615048,0.389975123614878,0.604180062428799,-0.559863212297243,-0.0679133465456544,-1.31971507234598,,0.12638416970237,0.563441835748582,0.614992397875312,0.484904694283511,0.484904694283276,,-0.678526399370825,-0.686088132997578,,-0.377815155437031,,0.554379095455733,0.965068377532026,0.965068377533125,-0.146642995495777,1.34849609595971,,7.78239999999994,102,509.722549019608,691.454411764706,812.436274509804,472.588235294118,546.856862745098,693.574509803922,689.33431372549,823.901960784314,800.970588235294,0
765.44,0.0126661515688036,-0.0526056019914008,-0.0259682323906927,1.31641890353405,-1.10996098452474,-1.10996098452463,,-1.15616124636489,-0.22283003646573,-0.62550996937393,0.0295208733310879,-0.6255099693728,-1.11974080070807,-0.53176912098195,-1.78607991313932,0.0342270831082964,-2.11789577744141,-0.407891006330884,-0.391132800629754,,-0.987419046750999,-0.38894841714794,0.321837331976353,-0.14127088967978,,1.05310451055601,0.548905239594782,-0.39357213903942,0.393572139039252,0.627933633415676,-0.56058994079566,-0.0610598936902318,-1.30806599013945,,0.120460374102169,0.578526029702138,0.612550911826955,0.468085877552855,0.468085877552641,,-0.66852186506502,-0.689661113037146,,-0.385256840029124,,0.561865727583434,0.958088586192276,0.958088586193379,-0.141251476775999,1.33151831990074,,7.88480000000004,103,511.892718446602,690.442718446602,819.854368932039,474.541747572816,549.243689320388,688.245631067961,692.639805825243,821.844660194175,817.864077669903,0
765.5424,0.0109813813915564,-0.0239869671689821,-0.00504429904792152,1.3414471423876,-1.07785416235847,-1.0778541623584,,-1.12632100850621,-0.195146279029709,-0.637811054346965,0.0243920609575174,-0.637811054345851,-1.10262945324195,-0.524826328454608,-1.75961297311663,0.0189323816436674,-2.10360422708105,-0.418518928829503,-0.390265031852322,,-0.980519338904147,-0.367912856433241,0.296072423922304,-0.156131133332858,,1.05030997526433,0.558922839837895,-0.397112755109247,0.39711275510908,0.651139102586578,-0.560798385233057,-0.0543454363324295,-1.29558378065859,,0.114855882796521,0.593474258102025,0.610247280552771,0.451351871814444,0.451351871814256,,-0.658762680892209,-0.693039281069862,,-0.392276779852173,,0.569754785162837,0.951656194596414,0.951656194597523,-0.136805462946876,1.31499805702074,,7.98720000000003,102,518.189215686275,693.145588235294,833.754901960784,482.948039215686,553.430392156863,686.28431372549,700.006862745098,834.117647058824,833.392156862745,0
765.6448,0.00929220486493307,0.00503262870821283,0.0161978531405516,1.36709969016235,-1.04594501443076,-1.04594501443071,,-1.09528898077132,-0.166681247453027,-0.648678310710491,0.018300943714,-0.648678310709393,-1.08424578580792,-0.517578652957787,-1.73132578286308,0.00461971679555173,-2.08806226151417,-0.42801578672486,-0.388549784408488,,-0.972260881090442,-0.34633770034195,0.269460641120473,-0.171873145326656,,1.0479644414192,0.569379506683656,-0.400591761946949,0.400591761946785,0.673696852351574,-0.560455547415993,-0.0478025999125254,-1.28226116715919,,0.109554839870645,0.608243683376793,0.608059046579005,0.434732819766288,0.43473281976611,,-0.649274524726299,-0.696221013047828,,-0.398880489379102,,0.577976903411988,0.945768956154466,0.945768956155583,-0.133350645152353,1.29898018140962,,8.08960000000002,103,528.193689320388,693.18786407767,842.407766990291,490.473786407767,565.91359223301,687.071844660194,699.303883495146,844.291262135922,840.52427184466,0
765.7472,0.00761465658730643,0.0343980831195319,0.0377346361793699,1.39326464439129,-1.01425847726075,-1.01425847726074,,-1.06309938882965,-0.137480718652989,-0.65807511860579,0.011232296158813,-0.658075118604709,-1.0646290638053,-0.510039382252366,-1.70127722831947,-0.00868097222971923,-2.07126323058918,-0.436353610276014,-0.386007883159139,,-0.962675139610996,-0.324296313663853,0.242080141273215,-0.188476596221825,,1.045995368855,0.580226601108635,-0.404003405364217,0.404003405364055,0.695507449216225,-0.559529373942069,-0.0414648993783236,-1.26809459160098,,0.104539586636153,0.622789616617017,0.605963138264924,0.418260890971641,0.418260890971478,,-0.640082555822955,-0.699203235509638,,-0.405074544637487,,0.586460026817179,0.940424415586712,0.940424415587833,-0.130929653749623,1.28350659205848,,8.19200000000001,102,542.63137254902,703.908823529412,836.774509803922,506.919607843137,578.343137254902,698.037254901961,709.780392156863,840.990196078431,832.558823529412,0
765.8496,0.0059646685288897,0.0640521582663165,0.0595406028073206,1.41982699744781,-0.982818739364932,-0.982818739364958,,-1.02978869442464,-0.107592163212348,-0.665968969284252,0.00317280456683057,-0.665968969283184,-1.04382169070388,-0.502223275223526,-1.66953118752207,-0.020941165937071,-2.05320187872538,-0.443505979403919,-0.382661081399731,,-0.951795401752335,-0.301863944254847,0.214012286447396,-0.205917409246783,,1.0443281187813,0.591411762885954,-0.407341348857562,0.407341348857402,0.716472016456468,-0.557988947868706,-0.0353666383764081,-1.25308442764613,,0.0997907520594535,0.637065531428652,0.603935849782635,0.401970263578335,0.401970263578183,,-0.631211225240349,-0.701981429962775,,-0.410866477038865,,0.59512980685286,0.935619927802125,0.935619927803248,-0.12958175699143,1.26861590866134,,8.2944,102,563.433823529412,697.718627450981,832.352941176471,527.83137254902,599.036274509804,701.651960784314,693.785294117647,837.06862745098,827.637254901961,0
765.952,0.00435792849915175,0.0939356547130654,0.0815884020176753,1.44666918911339,-0.951649299561757,-0.951649299561813,,-0.995395364778484,-0.0770644816133532,-0.672331881996387,-0.00588871716102737,-0.672331881995331,-1.02186914831856,-0.494146475672457,-1.63615639490954,-0.0321340617851857,-2.03387454698811,-0.449448329536091,-0.378532117902703,,-0.939656803025243,-0.279117221175027,0.185341089891797,-0.224167949254299,,1.04288652495644,0.602879072062342,-0.41059863836668,0.410598638366523,0.736492632185932,-0.555804667137876,-0.0295428109195934,-1.23723517029774,,0.0952873501962821,0.651023098381549,0.601952822772258,0.38589708971637,0.385897089716226,,-0.622684087536811,-0.704549657887886,,-0.416264665835663,,0.603910007718339,0.931352655325994,0.931352655327121,-0.129342588279652,1.25434318654258,,8.39679999999999,103,650.828640776699,668.094174757282,828,612.314563106796,689.342718446602,664.768932038835,671.419417475728,832.631067961165,823.368932038835,0
766.0544,0.00280973929273556,0.1239875896199,0.103848739174102,1.47367166358651,-0.920773030769395,-0.92077303076948,,-0.959959647256832,-0.0459477452966062,-0.677140794588787,-0.0159611212096965,-0.677140794587747,-0.998819938262749,-0.485826408742469,-1.60122629498253,-0.0422348633997041,-2.01327937498449,-0.454158250282152,-0.373644776823599,,-0.926296359278701,-0.25613365089641,0.156152660584755,-0.243197212787107,,1.041593463527,0.614569226570354,-0.41376767103459,0.413767671034436,0.755472735068655,-0.552948411885888,-0.0240290091804213,-1.22055561372575,,0.0910068799959533,0.664612231921806,0.599989033971426,0.370079445814123,0.370079445813987,,-0.614523619787734,-0.70690059577361,,-0.421278229117468,,0.612722909795037,0.92761955210125,0.927619552102385,-0.130243903406965,1.24071966021934,,8.49919999999997,102,731.466666666667,641.745588235294,828.401960784314,695.720588235294,767.212745098039,638.851960784314,644.639215686275,838.578431372549,818.225490196079,0
766.1568,0.00133488276263086,0.154145379174152,0.1262903459522,1.50071343531025,-0.890212241090459,-0.890212241090577,,-0.923523378599907,-0.0142929632764232,-0.680377915992198,-0.027050740897944,-0.68037791599117,-0.974725512293831,-0.477281666871159,-1.56481887461176,-0.0512210369587528,-1.99141648967298,-0.457615752242,-0.368023930289351,,-0.911752981561921,-0.232991122452623,0.126534653980415,-0.262971024622728,,1.04037140460529,0.626419728300233,-0.416840169510834,0.416840169510681,0.773317526360636,-0.549393700681784,-0.0188613365771062,-1.20305901576799,,0.0869254290685123,0.677781147782591,0.598018796471044,0.354557256540677,0.354557256540552,,-0.606751048643477,-0.709025566716064,,-0.425916913630449,,0.621489714667872,0.924417342271323,0.924417342272461,-0.132313353183438,1.22777251431985,,8.60159999999996,102,739.080392156863,637.857352941177,838.960784313726,705.129411764706,773.03137254902,641.811764705882,633.902941176471,848.666666666667,829.254901960784,0
766.2592,-5.2506866417059e-05,0.184345033859846,0.148879972717641,1.52767267325346,-0.859988719028529,-0.859988719028681,,-0.886129836998165,0.0178481214148338,-0.682031032430101,-0.0391612290834915,-0.682031032429086,-0.949640174642164,-0.468531888283917,-1.52701645474362,-0.0590725262572373,-1.96828816676397,-0.459803491438186,-0.361695551986113,,-0.896067458285759,-0.209767430026164,0.0965757312989115,-0.283452256492853,,1.03914294279534,0.638365076500446,-0.419807166288644,0.419807166288494,0.78993436879982,-0.545115839877631,-0.0140763187325861,-1.18476324370874,,0.0830177881317076,0.690476436410778,0.596015779795333,0.339372175386374,0.339372175386268,,-0.599386179952463,-0.71091456469005,,-0.430190983380405,,0.630130964454985,0.921742495942836,0.921742495943972,-0.135574257351162,1.215524686179,,8.70399999999995,103,884.473300970874,576.372330097088,853.902912621359,849.761165048544,919.185436893204,584.067961165049,568.676699029126,863.980582524272,843.825242718447,0
766.3616,-0.00133905759451375,0.214521374685511,0.171582413622582,1.55442730633037,-0.830123754332279,-0.830123754332463,,-0.847823626271283,0.0504232186031986,-0.682093769538617,-0.0522934176035072,-0.682093769537613,-0.923620950956117,-0.45959762864883,-1.48790543515619,-0.0657719368923975,-1.94389896092229,-0.460706959863873,-0.354686704555439,,-0.879282406241137,-0.186539820909577,0.0663650328876839,-0.304601073658506,,1.03783131606478,0.650336974804445,-0.422659003418839,0.422659003418692,0.805233189997034,-0.540092077360909,-0.00971079834432041,-1.1656908984354,,0.0792575823395927,0.702643162160475,0.593953050651361,0.324567412948169,0.324567412948081,,-0.592447225334017,-0.712556276715795,,-0.4341111058181,,0.638566984506267,0.919591201423155,0.919591201424293,-0.140045377852936,1.2039947114626,,8.80639999999994,102,988.472058823529,531.769607843137,870.901960784314,957.388235294118,1019.55588235294,540.032352941176,523.506862745098,883.980392156863,857.823529411765,0
766.464,-0.00251226193397969,0.244608267677308,0.194360562530729,1.58085563944213,-0.800638138232837,-0.800638138233048,,-0.808650580355393,0.0833796790050962,-0.680565823388113,-0.0664451955335064,-0.680565823387118,-0.896727437154061,-0.450500228976516,-1.44757601120981,-0.0713047095807623,-1.9182558182011,-0.460314662699567,-0.347025515728964,,-0.861442208276324,-0.163384575561518,0.0359916778650444,-0.326375193882498,,1.03636091808623,0.662264562561004,-0.42538535013016,0.425385350130015,0.819126894354133,-0.534301772632839,-0.00580180043650569,-1.14586941625473,,0.075617422032427,0.714224997434426,0.591803132613848,0.310187521660323,0.310187521660254,,-0.58595062775277,-0.713938112888636,,-0.437688235888389,,0.646718343616857,0.91795933359515,0.917959333596289,-0.145740697202928,1.19319661526773,,8.90880000000004,103,988.966019417476,532.113106796117,880.611650485437,957.966990291262,1019.96504854369,542.768932038835,521.457281553398,889.766990291262,871.456310679612,0
766.5664,-0.00356056847085502,0.274538867312728,0.217175490169553,1.60683695898253,-0.771552152231459,-0.771552152231707,,-0.768657684747247,0.116664689281456,-0.677453176717584,-0.0816113952242014,-0.6774531767166,-0.869021650655652,-0.441261682069264,-1.40612189258923,-0.0756592971909689,-1.89136818984952,-0.458618299114799,-0.338741157899907,,-0.842592954770066,-0.140376619776628,0.00554429846345275,-0.348730136189517,,1.03465779785505,0.674074680474848,-0.427975242001164,0.427975242001019,0.831531786076849,-0.527726586758378,-0.00238636220948652,-1.12533114476278,,0.0720690741090998,0.725164399775595,0.589538073921606,0.296278152076682,0.296278152076627,,-0.579910893584342,-0.715046253763475,,-0.440933498933249,,0.654506315764962,0.916842416418002,0.916842416419137,-0.152669206640282,1.1831398368506,,9.01120000000003,102,988.219117647059,532.020588235294,868.735294117647,954.910784313726,1021.52745098039,540.043137254902,523.998039215686,878.627450980392,858.843137254902,0
766.6688,-0.00447346312861822,0.304245866289176,0.239986539845382,1.63225211258718,-0.742885546830427,-0.742885546830706,,-0.727893020289965,0.150225461440814,-0.672768303232937,-0.0977836653195542,-0.672768303231963,-0.8405678935471,-0.431904491711728,-1.36364003204785,-0.0788273407568507,-1.86324815066338,-0.45561294310417,-0.329863828501012,,-0.822782383620799,-0.117589160427415,-0.0248893957269875,-0.371619450205451,,1.03265014065157,0.685692177152581,-0.430417149151205,0.430417149151061,0.842368014752447,-0.520350682769523,0.000498669665861613,-1.10411337824824,,0.0685836567792447,0.735402840609256,0.587129505464157,0.282885781284762,0.282885781284727,,-0.574340435464834,-0.71586571405015,,-0.443858069406932,,0.661853334932815,0.91623557994222,0.91623557994335,-0.160834711755404,1.17382917969195,,9.11360000000002,103,991.580097087379,530.256796116505,855.970873786408,959.481553398058,1023.6786407767,532.42427184466,528.08932038835,865.174757281553,846.766990291262,0
766.7712,-0.00524153962804486,0.333661757633557,0.262751447235012,1.65698406438767,-0.714657506504748,-0.71465750650506,,-0.686405741418632,0.184009391666518,-0.66653034712982,-0.114950315404169,-0.666530347128855,-0.811432617820147,-0.422451515158588,-1.32023034509808,-0.0808038257074834,-1.83391050641199,-0.451297204490445,-0.320424713885767,,-0.802059796030199,-0.0950933340990272,-0.0552230372948023,-0.394994935234806,,1.03026873266308,0.697040259956391,-0.432699077857321,0.432699077857178,0.851560055846423,-0.512160917735227,0.00281686471457004,-1.08225833120008,,0.065131860619182,0.744881094346243,0.584548676487292,0.270057400103216,0.270057400103193,,-0.569249426915203,-0.716380410344731,,-0.446473038055407,,0.668683445814754,0.916133517854769,0.916133517855895,-0.17023566750232,1.16526478920432,,9.21600000000001,102,993.866666666667,529.039705882353,862.264705882353,959.503921568627,1028.22941176471,525.743137254902,532.336274509804,867.960784313726,856.568627450981,0
766.8736,-0.00585656128500772,0.362719113117369,0.28542648466082,1.68091843081969,-0.686886605270012,-0.686886605270353,,-0.644246099834615,0.217964165614879,-0.658765269912597,-0.133096130793327,-0.658765269911641,-0.781684282494123,-0.412925788909813,-1.27599540776861,-0.0815872071516103,-1.80337287541255,-0.445673357090107,-0.310455927993973,,-0.78047593640095,-0.0729578646421681,-0.0853720151594646,-0.418806867948527,,1.02744741175311,0.708040891240687,-0.434808702367989,0.434808702367849,0.859037214816861,-0.503147008914206,0.00453244277312093,-1.05981304051085,,0.0616841964936422,0.753539592814243,0.581766467650206,0.257840153493529,0.257840153493533,,-0.564645673170423,-0.716573224945333,,-0.448789260573947,,0.674922748953944,0.916530451174153,0.916530451175273,-0.180865042449137,1.15744215322072,,9.3184,102,993.767156862745,530.274019607843,873.78431372549,958.424509803922,1029.10980392157,533.235294117647,527.312745098039,868.5,879.06862745098,0
766.976,-0.00631151781914517,0.391350874101389,0.307966621922447,1.70394399387281,-0.659590764012816,-0.659590764013184,,-0.601465510320843,0.25203780956197,-0.649505968632526,-0.152202168141577,-0.649505968631581,-0.751393204964088,-0.403350348733041,-1.23104014304768,-0.0811795083997769,-1.77165574437563,-0.438747437782737,-0.299990435534295,,-0.758082847254706,-0.0512487375261905,-0.115253880661863,-0.443004251892794,,1.02412349819574,0.718615227641513,-0.436733519769072,0.436733519768933,0.864734112308713,-0.493301665513185,0.00561050248677252,-1.03682920545062,,0.0582112667887868,0.761318840500619,0.578753391913334,0.24628095010706,0.246280950107084,,-0.560534506580992,-0.716426070506272,,-0.450817188251531,,0.680499826982215,0.917420099252682,0.917420099253798,-0.192710198271161,1.15035210941156,,9.42079999999999,103,990.219417475728,530.04854368932,809.412621359223,957.892233009709,1022.54660194175,537.539805825243,522.557281553398,792.679611650485,826.145631067961,0
767.0784,-0.00660067694673984,0.419490648857336,0.330325699171346,1.72595319500687,-0.632787212975047,-0.632787212975447,,-0.558116638902358,0.286178712258313,-0.638792359543114,-0.17224555562378,-0.638792359542177,-0.720631404645393,-0.393748053836563,-1.18547150049596,-0.0795863953800595,-1.73878250923687,-0.430529321060837,-0.289061967854594,,-0.734933710840813,-0.0300289046696596,-0.144788729274793,-0.467535080325387,,1.02023819801082,0.728684097902038,-0.43846101834952,0.438461018349383,0.868591105922381,-0.482620684336541,0.00601723827739642,-1.01336297315027,,0.0546840502293516,0.768159877332134,0.575479604011337,0.235426064119011,0.235426064119061,,-0.556918711843803,-0.715919959659571,,-0.452566690164501,,0.685346142988841,0.918795659396823,0.918795659397941,-0.205752786667322,1.14398086202265,,9.52319999999997,102,992.635784313726,524.491176470588,675.78431372549,967.761764705882,1017.50980392157,526.249019607843,522.733333333333,659.588235294118,691.980392156863,0
767.1808,-0.00671962606818481,0.447073015702231,0.352456617414036,1.74684263291458,-0.606492449585406,-0.606492449585835,,-0.514253491371933,0.320335642040258,-0.626671399888626,-0.193199330778302,-0.626671399887696,-0.689472416770207,-0.384141416627502,-1.13939810205932,-0.0768172150361467,-1.70477950872528,-0.421032760083816,-0.277704919815199,,-0.711082668561216,-0.00935802575849924,-0.17389954264249,-0.492346586788802,,1.01573698344908,0.738168516986712,-0.439978846598769,0.439978846598634,0.870554637985146,-0.471103007930622,0.00572014843127844,-0.989474661527918,,0.0510741870731191,0.774004777335128,0.571914942709794,0.22532073397554,0.225320733975614,,-0.55379847943162,-0.715035070696356,,-0.454046876039472,,0.689396420319601,0.920649800060051,0.920649800061169,-0.219968696080542,1.13831004211713,,9.62559999999996,102,995.870098039216,513.310784313725,578.642156862745,976.964705882353,1014.77549019608,516.275490196078,510.346078431373,568.666666666667,588.617647058824,0
767.2832,-0.00666529887952444,0.474033835541417,0.374311556300003,1.7665135850031,-0.580722178033501,-0.580722178033957,,-0.469931490958685,0.354457767703728,-0.613197022977778,-0.215032339995448,-0.613197022976859,-0.657991055588277,-0.374552433619627,-1.0929298247732,-0.0728849845637164,-1.66967604746577,-0.410275381898195,-0.265954210942977,,-0.686584601967661,0.0107077575992806,-0.202512488365445,-0.517385467007052,,1.01056996195525,0.746990234012627,-0.441274973816648,0.441274973816515,0.870577531365702,-0.458750746239552,0.00468823921441747,-0.965228412371076,,0.0473542561824545,0.778797177177718,0.568029015655486,0.216008745552665,0.216008745552769,,-0.551171382697557,-0.713750797151474,,-0.455265922340666,,0.692589016570799,0.922974673821825,0.922974673822947,-0.23532807967187,1.13331684023976,,9.72799999999995,103,785.771844660194,580.250485436893,521.733009708738,763.712621359223,807.831067961165,580.576699029126,579.92427184466,513.165048543689,530.300970873786,0
767.3856,-0.00643598344949979,0.500310574556236,0.395842224304312,1.78487253950152,-0.555491224705507,-0.555491224705989,,-0.425207544725455,0.388494686983096,-0.598429987001482,-0.237709197866358,-0.598429987000573,-0.626263136249125,-0.365002410752921,-1.04617732736855,-0.0678063352774504,-1.63350439627796,-0.398278637639316,-0.253845113216773,,-0.661494876716038,0.0301160167626222,-0.230557179796448,-0.542598073334418,,1.00469223444894,0.755072303461902,-0.442337846126084,0.442337846125954,0.868619258448221,-0.445569171710411,0.00289222985412412,-0.940691786365561,,0.0434980432124001,0.782482826725379,0.563791312999425,0.20753199797477,0.207531997974906,,-0.549032374793768,-0.712045782158467,,-0.456230902543756,,0.694866288597923,0.925761953622954,0.92576195362408,-0.251795463185846,1.12897419936299,,9.83039999999994,102,712.89109601856,605.120453524922,482.571359077982,690.595098039216,735.187093997905,609.674509803922,600.566397245921,476.529411764706,488.613306391259,0
767.488,-0.0060313114554926,0.525842631369264,0.417000137126218,1.80183170531812,-0.530813435525766,-0.53081343552627,,-0.380140100602721,0.422396470443005,-0.582437653688054,-0.261190290535901,-0.582437653687154,-0.594365181116648,-0.355511779814923,-0.999251550994223,-0.0616014251211079,-1.59629975690061,-0.385067717518195,-0.24141306246412,,-0.635869066022478,0.0488181934011335,-0.257966891294448,-0.567930586568704,,0.998064224279719,0.762339660730269,-0.443156547277918,0.443156547277791,0.864646187035987,-0.431566700885511,0.000304761336326674,-0.915935322081877,,0.0394807991162637,0.785010146854159,0.559171329667097,0.199930073535764,0.199930073535938,,-0.547373803708512,-0.709897949464201,,-0.45694762876273,,0.696174932015894,0.929002889007227,0.929002889008356,-0.26932990686914,1.12525102969518,,9.93280000000004,103,792.494556290636,569.564622031712,450.942162858391,757.078425558372,827.910687022901,574.083442536707,565.045801526718,449.479745564111,452.404580152672,0.514563106796117
767.5904,-0.00545223270243504,0.550571661932745,0.43773691346221,1.81730948667944,-0.506701567145227,-0.506701567145748,,-0.334789188664881,0.456113727795496,-0.565293703356548,-0.285431825252796,-0.565293703355657,-0.562374116543825,-0.346099914115611,-0.952263207367137,-0.0542938208789647,-1.55810018388282,-0.370671430031378,-0.228693460823649,,-0.609762661995368,0.0667697111973827,-0.28467872383935,-0.593329172382596,,0.990651941069646,0.768719683126689,-0.443720959127608,0.443720959127486,0.858631777085941,-0.416754864089725,-0.0030993969215935,-0.891032073768432,,0.0352794790836519,0.786330776598909,0.55413869642974,0.193239837405865,0.193239837406078,,-0.546185450665578,-0.707284536468267,,-0.457420521893166,,0.696466278077626,0.932688374759751,0.932688374760879,-0.287885202024983,1.1221124183589,,10.0352,102,916.694400312112,526.279273681044,416.651092392735,898.244334975369,935.144465648855,527.260837438424,525.297709923664,417.672413793103,415.629770992366,0.0784313725490196
767.6928,-0.00470098065874717,0.574441902779591,0.458004581183789,1.83123094517441,-0.483167178354386,-0.483167178354929,,-0.289216427689341,0.489597699065395,-0.54707777270378,-0.310385955322512,-0.5470777727029,-0.530366936081357,-0.33678495951833,-0.905322235254171,-0.0459103289805926,-1.51894645695211,-0.355122025260129,-0.215721456358506,,-0.583230761409422,0.0839300434950642,-0.31063372670912,-0.618740133608294,,0.982427142427154,0.774142726102387,-0.444021897204656,0.444021897204538,0.850556689645661,-0.401148250929541,-0.00734315583946306,-0.866057127499785,,0.0308729450602067,0.786400096528316,0.548663342848345,0.187495074778806,0.187495074779058,,-0.54545460401935,-0.704182117852346,,-0.457652528527231,,0.695696540225279,0.936809031492896,0.936809031494025,-0.307410106944577,1.11951983877644,,10.1376,103,983.897233750834,508.266230638109,399.148225005558,973.863106796117,993.931360705551,512.401941747573,504.130519528645,400.592233009709,397.704217001408,0
767.7952,-0.00378103194640269,0.597400499651303,0.477755895753069,1.84352828672576,-0.460220518830498,-0.46022051883106,,-0.243484971364425,0.522800371887807,-0.527874990942161,-0.3360010083368,-0.527874990941292,-0.498420295663536,-0.32758368990002,-0.858537188101859,-0.0364807461121647,-1.4788818931416,-0.338454934471044,-0.202531674475051,,-0.556327699017829,0.100262750201888,-0.335776987647112,-0.644110057351295,,0.973367380001291,0.778542634333236,-0.444051199234229,0.444051199234114,0.840408792455151,-0.384764419303894,-0.0124469358454504,-0.841087079107911,,0.0262421184395261,0.785177724582497,0.54271571629464,0.182726156899568,0.182726156899856,,-0.545166176241421,-0.700566600490704,,-0.457645089845938,,0.693827015809585,0.941355310335882,0.941355310337009,-0.327848645991138,1.11743139244455,,10.24,102,982.627941176471,516.241176470588,408.352941176471,972.208823529412,993.047058823529,518.378431372549,514.103921568628,419.754901960784,396.950980392157,0
767.8976,-0.00269705969660102,0.619397842996025,0.496944672198119,1.85414139376624,-0.437870410982069,-0.437870410982648,,-0.197659374635421,0.55567462731833,-0.507775399167536,-0.362221814689752,-0.507775399166677,-0.466610023820555,-0.318511381700541,-0.812014527669728,-0.0260375166903916,-1.43795209397973,-0.320708413548724,-0.189157885653815,,-0.529106611713842,0.115735501651852,-0.360057702797162,-0.669385941425522,,0.963455949986678,0.781857233181764,-0.443801768011295,0.443801768011183,0.828183083852307,-0.367623768938418,-0.0184285052526296,-0.81619945449142,,0.021370080588308,0.782627987264116,0.536267063441648,0.178959727015606,0.178959727015931,,-0.545302857869609,-0.69641318090173,,-0.457398156502307,,0.690824256772936,0.946317633803209,0.946317633804336,-0.349140494054593,1.11580212128943,,10.3424,102,982.100490196079,515.598529411765,433.593137254902,970.458823529412,993.742156862745,510.36862745098,520.828431372549,452.480392156863,414.705882352941,0
768,-0.00145488026499359,0.640387898680036,0.5155261218904,1.8630183851675,-0.416124128086764,-0.416124128087359,,-0.151805381328013,0.58817441041064,-0.486873267987573,-0.388990101127584,-0.486873267986723,-0.435010568423679,-0.309581695918659,-0.765857842697189,-0.0146153177414146,-1.39620464573107,-0.301923112229908,-0.17563262399968,,-0.501618951388186,0.130320103422054,-0.38342923738236,-0.694515293399346,,0.952681787722251,0.784028807431124,-0.443267588139195,0.443267588139088,0.813881576416941,-0.349749392551737,-0.0253028150043853,-0.791472075431968,,0.0162421316755559,0.778720369754761,0.529289759160833,0.176218402279026,0.17621840227939,,-0.545845293336491,-0.691696280896624,,-0.456910243415722,,0.686660222475222,0.951686562148921,0.951686562150051,-0.371221440780091,1.11458440592975,,10.4448,103,982.809223300971,521.420873786408,446.990291262136,968.765048543689,996.853398058252,522.717475728155,520.12427184466,466.776699029126,427.203883495146,0
768.1024,-6.13937179386929e-05,0.660328514219437,0.533457177675065,1.87011615192131,-0.394987279664331,-0.394987279664943,,-0.105989659214659,0.620254907614704,-0.465266360921597,-0.416244905244702,-0.465266360920753,-0.403694435181027,-0.30080656287008,-0.720167059080302,-0.00225062186232708,-1.35368881378095,-0.282141622657589,-0.161986801719952,,-0.473914000123716,0.143992526979044,-0.405849186096242,-0.719446213765807,,0.941039341339552,0.785004567351623,-0.442443734158382,0.44244373415828,0.79751317785881,-0.331166918000302,-0.0330818328146776,-0.766982405086898,,0.0108458252055287,0.77342994223831,0.521757654985519,0.17452049129006,0.174520491290453,,-0.546772265720688,-0.686389498956594,,-0.456178521861665,,0.68131241919894,0.957452944433227,0.957452944434351,-0.394023892797868,1.11372842986431,,10.5472,102,983.950980392157,522.448529411765,445.485294117647,970.249019607843,997.652941176471,525.96568627451,518.93137254902,466.294117647059,424.676470588235,0
768.2048,0.00147548114692956,0.679181682584839,0.550696791856637,1.8754008086142,-0.374463715695506,-0.374463715696135,,-0.0602795236348894,0.651872701070674,-0.443055195947161,-0.443922983071551,-0.443055195946323,-0.372731672907508,-0.292196076690701,-0.675037715943591,0.0110187109075143,-1.31045527206011,-0.261408060865696,-0.148249367696237,,-0.446038445247478,0.156732940384281,-0.427279432421244,-0.744127476072056,,0.928528439299898,0.784737089777793,-0.441326376444925,0.441326376444827,0.779093586585275,-0.311904346981103,-0.0417743924108353,-0.74280691524316,,0.00517099042246425,0.766737750219602,0.513646421072076,0.173879734644461,0.173879734644888,,-0.548060884739325,-0.680465614622457,,-0.455198948672374,,0.67476401866761,0.963608009460233,0.963608009461354,-0.417477362547912,1.11318266885373,,10.6496,102,1009.3137254902,522.423529411765,443.264705882353,993.126470588235,1025.50098039216,525.077450980392,519.769607843137,464.93137254902,421.598039215686,0
768.3072,0.00314687694084856,0.696913753158747,0.567206198222269,1.87884802096702,-0.354555456404531,-0.35455545640518,,-0.0147426888795484,0.6829858717736,-0.420342334018446,-0.471959201456415,-0.420342334017616,-0.342189432321997,-0.283758410255823,-0.630560348858566,0.0251537893045063,-1.26655588607572,-0.239767705467153,-0.134447033762323,,-0.418036043018376,0.16852572648034,-0.447686194813529,-0.768508604127512,,0.915154148771254,0.783184717146682,-0.439912786018083,0.43991278601799,0.758645197048064,-0.291991891720501,-0.051386068702387,-0.719020499200244,,-0.000790256384872784,0.758631153826691,0.504933865614781,0.174305083045997,0.174305083046446,,-0.549686777791098,-0.673896661896597,,-0.453966431250952,,0.667003940872389,0.970143380125114,0.970143380126229,-0.441508916232098,1.1128943670733,,10.752,103,1077.32572815534,520.892233009709,439.019417475728,1060.26310679612,1094.38834951456,523.533009708738,518.25145631068,462.699029126214,415.339805825243,0
768.4096,0.00494305309783427,0.713495587581037,0.582949136420536,1.88044319798674,-0.335262649311661,-0.335262649312329,,0.0305529344324301,0.713554045462733,-0.397231698739832,-0.500286913545681,-0.397231698739006,-0.31213159924065,-0.275499754063735,-0.586819983786422,0.04011499910294,-1.2220435475922,-0.21726668962755,-0.120604067538781,,-0.389947369744558,0.179359475135674,-0.467040044109451,-0.792539938949101,,0.900926614856523,0.780311903455028,-0.438201339565758,0.43820133956567,0.736197000853983,-0.271461813131037,-0.0619190771691507,-0.695695934391145,,-0.00704351581115412,0.749104106740004,0.495600224134455,0.175800525064786,0.175800525065272,,-0.551624285756158,-0.666654067025769,,-0.452475021185363,,0.658026889956576,0.977051022765731,0.977051022766842,-0.466043581137622,1.1128099746505,,10.8543999999999,102,1077.98970588235,519.791176470588,440.656862745098,1061.97352941176,1094.00588235294,520.820588235294,518.761764705882,465.950980392157,415.362745098039,0
768.512,0.00685347680343845,0.728902664515507,0.597892042269044,1.88018155828039,-0.316583550603441,-0.316583550604127,,0.0755394044080309,0.743538400471382,-0.373827919093312,-0.528838314684841,-0.373827919092489,-0.282618490402765,-0.26742427478292,-0.543895723879619,0.0558622789178641,-1.1769720514022,-0.193951730581234,-0.106742139653224,,-0.361809644701444,0.189226939402971,-0.485315881398667,-0.816172692774491,,0.885860872434564,0.776089503938609,-0.436191525397682,0.436191525397597,0.711784475589621,-0.250348262745374,-0.0733721923036403,-0.672903389703124,,-0.0135921263020769,0.738157372960308,0.485628416267672,0.17836496713283,0.178364967133338,,-0.553846664302778,-0.658708837553994,,-0.450718124765697,,0.647833341598085,0.984323150384855,0.984323150385957,-0.491004723784823,1.1128755373314,,10.9567999999999,103,1078.74223300971,521.077669902913,442.995145631068,1062.80194174757,1094.68252427184,512.705825242719,529.449514563107,467.165048543689,418.825242718447,0
768.6144,0.00886690972359276,0.743115141854752,0.612004211245091,1.87806809361861,-0.298514523616414,-0.298514523617117,,0.120148892288522,0.772901659916905,-0.350235682187652,-0.557544776101956,-0.35023568218683,-0.25370659341271,-0.259534088654866,-0.501860402392441,0.0723553804949265,-1.13139600271315,-0.169869879262656,-0.0928802099980457,,-0.333656604706563,0.198124950864979,-0.502492873953257,-0.839358995897431,,0.869976629067442,0.770495012016889,-0.433883950673031,0.43388395067295,0.685449463724951,-0.228687123411874,-0.0857406852363574,-0.650709967094366,,-0.0204372003760576,0.725798687486719,0.475004271697256,0.181992157218942,0.181992157219468,,-0.556326289398311,-0.650031788143015,,-0.448688720005031,,0.636429488787014,0.991952097455278,0.991952097456374,-0.516314409632555,1.11303704672419,,11.0592,102,994.118137254902,534.267156862745,446.014705882353,974.95,1013.2862745098,531.505882352941,537.028431372549,469.852941176471,422.176470588235,0
768.7168,0.0109715005753646,0.756117887020033,0.625257943824479,1.87411745927263,-0.281050046334481,-0.281050046335195,,0.164313814127497,0.80160807728537,-0.326559083564283,-0.586337155428276,-0.326559083563465,-0.22544833151121,-0.251829246764001,-0.460780275249237,0.0895541239886563,-1.08537074507702,-0.145068278640611,-0.0790344399790339,,-0.305518413143798,0.206054294179289,-0.518554353163715,-0.862051946930705,,0.853298023603955,0.763512753207819,-0.431280349357993,0.431280349357918,0.657240050783686,-0.206515840718709,-0.0990162822674962,-0.629179263764151,,-0.0275776731026422,0.712042873494239,0.463716729640064,0.18667063499679,0.186670634997326,,-0.559034863940293,-0.640593792057508,,-0.446379574895263,,0.623827157329658,0.999930181176139,0.999930181177227,-0.541893748883494,1.11324077021896,,11.1616,103,791.257281553398,571.568446601942,455.072815533981,773.215533980583,809.299029126214,564.618446601942,578.518446601942,474.145631067961,436,0
768.8192,0.013154883281547,0.767900483441763,0.637628678864569,1.86835381227595,-0.264182722497949,-0.264182722498677,,0.207966947807566,0.829623415231719,-0.302900971718329,-0.615146086624961,-0.302900971717517,-0.197891845707397,-0.244307728493777,-0.420714741263641,0.107418644193329,-1.03895230510531,-0.119593933562509,-0.0652181283062824,,-0.277421599137663,0.213019542651108,-0.533487680419475,-0.884205677741251,,0.835853366042943,0.755134046001186,-0.428383586588067,0.428383586587995,0.627210451002622,-0.183873243741095,-0.113187142350382,-0.608370948129327,,-0.0350103612527792,0.696911926194851,0.451758016119047,0.192383694278894,0.19238369427944,,-0.561943622072187,-0.630366056601552,,-0.443783466497892,,0.610043701041934,1.00824955262621,1.0082495526273,-0.567663228617799,1.11343357814127,,11.264,102,792.235784313726,573.197549019608,465.397058823529,773.078431372549,811.393137254902,564.086274509804,582.308823529412,484.186274509804,446.607843137255,0
768.9216,0.015404280807609,0.77845721410551,0.649095115875257,1.86081059469188,-0.247903295365525,-0.247903295366267,,0.251041530355271,0.856914913894536,-0.279362298417073,-0.643902257872993,-0.279362298416263,-0.171080807664082,-0.23696544181773,-0.381716105981563,0.125909610904233,-0.992197353532073,-0.0934935069604959,-0.0514416812584164,,-0.24938903879624,0.219028859862197,-0.547284088460348,-0.905775440291236,,0.817674860994228,0.74535733049936,-0.425197654147651,0.425197654147584,0.595420897553513,-0.160799361740754,-0.128237852212404,-0.588340361155461,,-0.0427300341474304,0.680435060808874,0.439123799888566,0.199109357533513,0.199109357534071,,-0.565023530713364,-0.619320429069765,,-0.440893400038051,,0.595101877270703,1.01690202969672,1.0169020296978,-0.593543036688901,1.11356327933402,,11.3664,102,804.994117647059,574.882843137255,487.102941176471,786.238235294118,823.75,568.019607843137,581.746078431373,506.637254901961,467.56862745098,0
769.024,0.0177066150645788,0.787787016747722,0.659639322302712,1.85153023929651,-0.232200668505877,-0.232200668506631,,0.29347133950621,0.883451246573458,-0.256041496158925,-0.672536688209997,-0.256041496158116,-0.145054287739773,-0.229796236647611,-0.34382942432261,0.144988407215885,-0.945163178521766,-0.0668131559541523,-0.0377126325732185,,-0.221439995913508,0.224093779923777,-0.559938510387913,-0.926717715638263,,0.798798313608021,0.734188254382905,-0.421727656510983,0.42172765651092,0.561937522037934,-0.137335244704428,-0.144149442945612,-0.569138167168727,,-0.0507294980717313,0.662648711138388,0.425813324178723,0.206820372704674,0.206820372705232,,-0.568245492548149,-0.607429738295945,,-0.437702822889867,,0.579029691538026,1.02587890614521,1.0258789061463,-0.619453392433608,1.11357897315083,,11.4688,103,928.683980582524,555.892233009709,510.742718446602,908.935922330097,948.432038834951,554.56213592233,557.222330097087,535.766990291262,485.718446601942,0
769.1264,0.0200486222250425,0.795893405069558,0.669246820423311,1.8405637787507,-0.217061941395983,-0.21706194139675,,0.335190781494309,0.909202471322065,-0.233033900645001,-0.700981006146458,-0.233033900644192,-0.119846691969131,-0.22279194190316,-0.307092446881955,0.164617261677363,-0.897907665388904,-0.0395984102665023,-0.0240357195990062,,-0.19359022968217,0.228228982051203,-0.571449409084525,-0.946990338742357,,0.77926281651985,0.721639703305173,-0.417979790606456,0.417979790606399,0.52683220746497,-0.113522790447715,-0.160899433272165,-0.550810069957921,,-0.0589996939467421,0.643596466823891,0.411829509931628,0.215484243344917,0.215484243345492,,-0.571580556086727,-0.594668168392844,,-0.43420582766242,,0.561860195717514,1.03517074047976,1.03517074048085,-0.645314902847959,1.11343142527934,,11.5712,102,932.190658302529,564.906771384002,529.191550253542,914.554310111141,949.827006493916,567.319503930604,562.4940388374,551.495798319328,506.887302187756,0
769.2288,0.022416971648031,0.802784355114972,0.677906650802369,1.82797035815807,-0.202472464870873,-0.202472464871655,,0.376135014192087,0.934139998157955,-0.210431223369021,-0.72916772359263,-0.210431223368211,-0.0954877630548165,-0.215942431943387,-0.271535667610466,0.184759342936476,-0.850489279365334,-0.0118940845900368,-0.0104130088361565,,-0.165852161524506,0.23145206864099,-0.581818611424056,-0.966552627098545,,0.759110418813404,0.707731768956594,-0.413961322569546,0.413961322569493,0.490182409180914,-0.0894045747547118,-0.17846190135173,-0.533396590265027,,-0.0675298054238729,0.623328945918403,0.397179027103995,0.22506329954836,0.225063299548937,,-0.575000134656505,-0.58101165428435,,-0.430397341575589,,0.543631230302494,1.04476713233172,1.04476713233281,-0.671048955762011,1.11307346896659,,11.6736,102,972.645360587965,735.026102434543,439.540767110703,970.721428571428,974.569292604502,930.228571428571,539.823633440514,375.785714285714,503.295819935691,0.274509803921569
769.3312,0.0247983868433375,0.808472161850228,0.685611414338581,1.81381666742668,-0.188415914422543,-0.188415914423339,,0.416240119094988,0.958236588896352,-0.188321066922674,-0.757030496217177,-0.188321066921863,-0.0720026294696961,-0.209235718268533,-0.237182449928157,0.205378832616508,-0.802967047451463,0.0162557899019126,0.00315594617566023,,-0.138235081960321,0.233783349360205,-0.591051145667733,-0.985365502367524,,0.738385778990709,0.692491655089184,-0.40968056454246,0.409680564542412,0.452070949360412,-0.0650236783521979,-0.196807583182237,-0.516932887743689,,-0.0763073750187329,0.601903605535195,0.381872333133297,0.235514810427865,0.235514810428454,,-0.57847623079169,-0.566438285607312,,-0.426273301370451,,0.524385112919328,1.05465649603976,1.05465649604085,-0.696578145811283,1.11246041886157,,11.776,103,1000.98446785364,952.676834100088,312.496829162783,985.70752091629,1016.261414791,1400.3009350812,505.052733118971,131.585298196949,493.408360128617,0.87378640776699
769.4336,0.0271797671875199,0.812973275321188,0.692357298788922,1.79817631896329,-0.174874375797763,-0.174874375798571,,0.455443311502588,0.98146639074668,-0.166786470748625,-0.78450436458704,-0.166786470747812,-0.0494118836239428,-0.202658057152597,-0.204049200685447,0.226440992038885,-0.755400531335685,0.0448080304258726,0.0166739340076094,,-0.110745375036654,0.23524563282025,-0.599155084478981,-1.00339160748385,,0.717135802948165,0.67595352718949,-0.405146853891994,0.405146853891953,0.412585797030631,-0.0404235061562361,-0.215903992969868,-0.501448608795893,,-0.0853184288929136,0.579384497683002,0.365923680487781,0.24679113084428,0.246791130844891,,-0.581981659708342,-0.550928705325283,,-0.421830814617067,,0.504168284745058,1.06482584440385,1.06482584440494,-0.721826713667924,1.11155047331603,,11.8783999999999,102,1027.65368513965,540.364538805876,446.770884559612,998.400980392157,1056.90638988714,611.086274509804,469.642803101948,408.823529411765,484.718239707459,0
769.536,0.0295483082476166,0.816308125547047,0.698144094375035,1.7811291948968,-0.161828440619765,-0.161828440620582,,0.493683168951985,1.00380499196118,-0.1459054827194,-0.811525973723125,-0.145905482718583,-0.0277316756622588,-0.196194065986439,-0.172145569955793,0.24791222807482,-0.707849783305582,0.0737203702050229,0.0301459117122804,,-0.0833867461487979,0.235864025732293,-0.60614139887403,-1.02059543381941,,0.69540927004266,0.658158314630493,-0.40037053449113,0.400370534491095,0.371819844981493,-0.0156475994823032,-0.235715559643177,-0.486967750541596,,-0.0945476119428706,0.55584198049397,0.349351096491338,0.258839873662701,0.258839873663321,,-0.585490266669794,-0.534466494396725,,-0.417068308686771,,0.483030928173515,1.07526059050235,1.07526059050345,-0.746720972924664,1.11030508191855,,11.9807999999999,103,1038.52718446602,461.584951456311,524.791262135922,1023.55533980583,1053.49902912621,452.75145631068,470.418446601942,544.407766990291,505.174757281553,0
769.6384,0.0318916181641287,0.818500939112576,0.702975197537224,1.76276077210467,-0.149257314933682,-0.149257314934513,,0.530899867768982,1.02522948948551,-0.125750768680544,-0.838033772666143,-0.125750768679727,-0.00697382738161003,-0.189826846377193,-0.141474680966017,0.269760145978616,-0.660375284765809,0.10295151812197,0.0435788210334753,,-0.0561604579548102,0.235665733168335,-0.612023821189536,-1.03694346975476,,0.673256455497471,0.639153471843046,-0.395362936447791,0.395362936447762,0.329870685088452,0.00926055152229415,-0.256203775186794,-0.473508548012341,,-0.103978331902601,0.531352391724686,0.332176337272309,0.271604106270779,0.271604106271404,,-0.588977136624149,-0.5170385441027,,-0.411985665441576,,0.461026562167397,1.0859443610919,1.08594436109301,-0.771189704619791,1.10868926256334,,12.0832,102,1033.51274509804,475.000980392157,553.460784313726,1021.78039215686,1045.24509803922,473.559803921569,476.442156862745,571.421568627451,535.5,0
769.7408,0.034197828969379,0.819579543273532,0.706857597987059,1.74316141311832,-0.137138945652384,-0.137138945653227,,0.567035430642398,1.04571856797333,-0.106389282812833,-0.863968200515623,-0.106389282812012,0.0128540111676769,-0.183538115292689,-0.112033419566101,0.291953568132852,-0.613037873517462,0.132461190418518,0.0569813764376352,,-0.0290655924356988,0.234679848660766,-0.616818706994421,-1.05240437273248,,0.650728756831504,0.618992697843549,-0.390136348750777,0.390136348750755,0.286840368251808,0.0342576868281263,-0.277327355744407,-0.461083404226768,,-0.113592908337427,0.50599768231182,0.314424814582765,0.285022579261327,0.28502257926196,,-0.592418797521202,-0.498635423557162,,-0.406584337603239,,0.438211612860466,1.09685880898014,1.09685880898126,-0.795164515069471,1.10667186178535,,12.1856,103,1030.96601941748,481.753398058252,584.208737864078,1017.33203883495,1044.6,480.974757281553,482.532038834952,601.52427184466,566.893203883495,0
769.8432,0.0364557034857046,0.819575152041151,0.709801845428523,1.72242560508938,-0.125450168386576,-0.125450168387431,,0.60203399347748,1.06525259487769,-0.0878820164821887,-0.889271867384384,-0.0878820164813642,0.0317481394524726,-0.177308344987601,-0.0838128127369994,0.314462506367014,-0.565898661337958,0.162210103164317,0.0703638128071972,,-0.00209935206885805,0.232937126041746,-0.620544887401207,-1.06694916277201,,0.627878324550532,0.597735606721433,-0.384703979658654,0.384703979658638,0.242835127305702,0.0593009445232815,-0.299042422316116,-0.449698881238708,,-0.123372722807564,0.479865000936636,0.296125491780307,0.299029998983702,0.299029998984341,,-0.595793418221465,-0.479251745104649,,-0.40086744661327,,0.414644954868876,1.10798342301084,1.10798342301197,-0.818580172484605,1.10422576628105,,12.288,102,1031.39264705882,479.300490196078,574.56862745098,1018.00098039216,1044.78431372549,473.501960784314,485.099019607843,591.147058823529,557.990196078431,0
769.9456,0.0386547386031246,0.818522132833898,0.711821995850892,1.70065113972394,-0.114166875474392,-0.114166875475256,,0.63584209939486,1.08381373560272,-0.0702838299343314,-0.913889734998177,-0.0702838299335028,0.0497085116432923,-0.17111691095949,-0.056798504397475,0.337258090625603,-0.519018933972703,0.192159929592767,0.0837375938646812,,0.0247426015360958,0.230469734153077,-0.623223510759967,-1.08055143177947,,0.604757694940175,0.575447339993989,-0.379079902747704,0.379079902747692,0.197965048347857,0.0843480201975452,-0.321302707699336,-0.439355759999124,,-0.13329836821731,0.453046220740403,0.277310745347466,0.313557353250155,0.313557353250795,,-0.599080998570748,-0.4588865220035,,-0.394839866245749,,0.390387423857642,1.11929534822321,1.11929534822434,-0.841374946481707,1.10132808624633,,12.3904,102,1063.51225490196,499.058333333333,541.882352941177,1053.64411764706,1073.38039215686,483.344117647059,514.772549019608,558.382352941177,525.382352941177,0
