time,S1-D1,S1-D8,S1-D9,S1-D15,S2-D1,S2-D2,S2-D3,S2-D9,S3-D1,S3-D2,S3-D16,S4-D2,S4-D3,S4-D5,S5-D3,S5-D4,S5-D5,S6-D2,S6-D5,S6-D17,S7-D6,S7-D7,S8-D6,S8-D7,S8-D18,S9-D3,S9-D4,S9-D9,S9-D11,S9-D19,S10-D8,S10-D9,S10-D10,S10-D11,S11-D8,S11-D10,S11-D20,S12-D10,S12-D11,S12-D12,S13-D4,S13-D11,S13-D12,S14-D10,S14-D12,S14-D21,S15-D13,S15-D14,S16-D13,S16-D14,S16-D22,t_rel_s,eye_n,xp,yp,ps,xpl_i,xpr_i,ypl_i,ypr_i,psl_i,psr_i,blink_prop
1154.6624,0.877445704200716,0.624095598764347,0.930607443380694,-0.230381854495667,0.116979625103434,0.116979625102164,,0.43123669802394,1.1642244313938,-0.328908186029756,1.11251365553002,-0.3289081860306,-0.526959616902256,-1.58426257402138,,-0.0285704679154134,-1.83130561570465,-0.647809831160842,-0.19824792201348,-0.992688862960621,-0.198247922013567,1.09635702278893,0.050168399650012,0.83312394908317,1.01392483103547,-1.46308495733701,,,-0.461929997940281,0.600202657179483,0.916197396310424,-0.387318085134508,0.742869192310654,-1.62543743651117,-2.53050318336356,-2.83709778322131,-0.614623623773307,-0.461509775070045,-0.461509775069997,,-0.425794829015157,,1.03934065712353,-1.6791509269488,0.260396476551834,-0.0638751458356228,-0.254371366438791,-0.254371366441223,0.701712317817526,-0.701712317816593,-1.79600672259382,0,103,972.916990291262,551.580582524272,1152.06796116505,967.291262135922,978.542718446602,520.785436893204,582.37572815534,1374.6213592233,929.514563106796,0
1154.7648,0.889783160849713,0.586142220711246,0.918462684557523,-0.222121744057145,0.0857493919197606,0.085749391918479,,0.375073460553314,1.11181898642349,-0.27710587714054,1.12456836455934,-0.277105877141384,-0.489958257806831,-1.5649209672758,,-0.0217136286629122,-1.84793368294379,-0.648261322723668,-0.188218106273381,-1.00087204500256,-0.188218106273479,1.12975675758578,0.0872360958887454,0.877047881561515,1.03335484671794,-1.44902721711908,,,-0.465336279041252,0.596095933559946,0.904888488260564,-0.382383767648341,0.733919665375757,-1.66570145512819,-2.51067155696215,-2.85999247556103,-0.616744535069859,-0.466430497820637,-0.466430497820585,,-0.410019124712117,,1.02429268892234,-1.66447499082043,0.251867433551534,-0.0474728281083716,-0.228865005511647,-0.228865005514084,0.686144966142171,-0.686144966141238,-1.82119898629089,0.102399999999989,102,906.766176470588,540.045098039216,1140.17156862745,889.859803921569,923.672549019608,515.440196078431,564.65,1350.25490196078,930.088235294118,0
1154.8672,0.901502171942963,0.546893891760062,0.905200339267935,-0.213144841292835,0.0541454609186103,0.0541454609173167,,0.315777716514553,1.05555292904136,-0.223583565622977,1.13691397439935,-0.223583565623819,-0.451886823624693,-1.5438331724107,,-0.0149961130902945,-1.86422207811202,-0.648703022611876,-0.177756052955682,-1.00912970201394,-0.177756052955792,1.16113620466015,0.123965847417799,0.919308499505372,1.05204739304821,-1.43423843695202,,,-0.468175714690563,0.591674954639156,0.893213957535418,-0.377664353180399,0.724144409648022,-1.70490140441766,-2.48926256414527,-2.88107537732649,-0.615238804443318,-0.470722371021538,-0.470722371021479,,-0.394541999668556,,1.00872255392609,-1.64919826514088,0.243087639047802,-0.0303026789316659,-0.204942193715136,-0.204942193717586,0.670750036444744,-0.670750036443815,-1.84434676097628,0.204799999999977,103,683.85145631068,502.338834951456,1117.6359223301,672.73786407767,694.965048543689,472.746601941748,531.931067961165,1334.09708737864,901.174757281554,0
1154.9696,0.912588899881682,0.50641584644625,0.890846266984848,-0.203442928717518,0.0222525385995129,0.0222525385982085,,0.253373841807278,0.995412791139834,-0.168425554372156,1.14947926259269,-0.168425554372995,-0.412806378456243,-1.52102088322593,,-0.00841460388286329,-1.88006842759271,-0.649097404276111,-0.166837624028185,-1.01747302305463,-0.166837624028306,1.19031498916373,0.160262095600668,0.959723182562679,1.06996560470068,-1.41874396984306,,,-0.470484763471637,0.586977424895338,0.881157962421133,-0.373127839664553,0.713566830707549,-1.74297671432122,-2.4662821041946,-2.90029830371565,-0.609991079208315,-0.474323110057623,-0.474323110057558,,-0.379459287882299,,0.992640206756983,-1.63336049392768,0.234047900762411,-0.0123841801566926,-0.182706287318255,-0.182706287320715,0.65551835722439,-0.655518357223465,-1.86536071273377,0.307199999999966,102,793.213235294118,486.761764705882,928.294117647059,772.340196078431,814.086274509804,470.189215686275,503.33431372549,1122.72549019608,733.862745098039,0
1155.072,0.923031053241144,0.464774522760707,0.875428023032307,-0.193010523302277,-0.00984435543016553,-0.00984435543148034,,0.187891343438272,0.931392246823015,-0.11172447954971,1.16218652228167,-0.111724479550546,-0.372782558474571,-1.49651027723876,,-0.0019628042941646,-1.89536329168507,-0.649402252058298,-0.155436142020371,-1.0259119270167,-0.155436142020504,1.21711474425373,0.196029018225219,0.998110650799982,1.08707030211916,-1.40257139157654,,,-0.472301262958452,0.582040168298791,0.868703578001888,-0.368740221542159,0.702211669940513,-1.77987222688297,-2.4417393820589,-2.91761957631304,-0.600897309524021,-0.477167481965782,-0.477167481965708,,-0.364866425351709,,0.976056039121404,-1.61700305900207,0.224738675782699,0.00626328967073243,-0.162255715089292,-0.16225571509176,0.640438426177893,-0.640438426176972,-1.88415704214081,0.409599999999955,103,1383.99708737864,490.532524271845,694.398058252427,1371.17961165049,1396.8145631068,484.695145631068,496.369902912621,829.417475728155,559.378640776699,0
1155.1744,0.932818037582642,0.422037330364351,0.858974835473305,-0.181845245154723,-0.0420603179184335,-0.042060317919761,,0.119365133762001,0.863492583048417,-0.0535813963086573,1.17495166710427,-0.0535813963094887,-0.331885676490097,-1.47033210242407,,0.00436880552464187,-1.90999012049778,-0.649570460164622,-0.143522377722046,-1.03445493839005,-0.143522377722189,1.24135987743079,0.231170826156342,1.034291683532,1.10331996977184,-1.38575046114318,,,-0.473664303992567,0.576899005653598,0.855832799204551,-0.36446555919768,0.690104909382784,-1.81553823394255,-2.41564697885254,-2.93300409566675,-0.587865392141274,-0.479187356787956,-0.479187356787875,,-0.35085813746135,,0.958980878457609,-1.60016894192162,0.215150087945083,0.0256203967938643,-0.143683622651835,-0.143683622654314,0.625496490656362,-0.625496490655447,-1.90065786451773,0.512000000000171,102,1392.96715686275,485.737254901961,603.892156862745,1383.94607843137,1401.98823529412,473.135294117647,498.339215686275,732.529411764706,475.254901960784,0
1155.2768,0.941941100492907,0.378272429607686,0.84151758392597,-0.169948198675074,-0.0743109848715282,-0.0743109848728662,,0.0478358302809595,0.791723192371311,0.00589414775711035,1.18768437619134,0.00589414775628315,-0.290190812503043,-1.44252175275852,,0.0105931942677036,-1.92382524672197,-0.649549857926203,-0.131064554112986,-1.04310906487468,-0.131064554113138,1.2628783453705,0.265592073028402,1.06808985120652,1.11867075843176,-1.3683130491316,,,-0.474614108955051,0.571588636695016,0.842526547157071,-0.36026605644398,0.67727366972587,-1.84993048046611,-2.38802089205602,-2.94642336720927,-0.570815771365178,-0.48031177514771,-0.480311775147629,,-0.337528122930767,,0.941425991789394,-1.58290266038678,0.205271963284227,0.045667779625416,-0.127077525785998,-0.127077525788494,0.610676646184253,-0.610676646183347,-1.91479155698813,0.61440000000016,102,1398.77156862745,472.922549019608,555.147058823529,1390.6862745098,1406.8568627451,462.880392156863,482.964705882353,676.313725490196,433.980392156863,0
1155.3792,0.950393473110155,0.333548524447162,0.823088783505899,-0.157324358855468,-0.106512946237836,-0.106512946239185,,-0.026649910541783,0.716102095762433,0.0665840517972547,1.20028827871907,0.0665840517964344,-0.247777895451646,-1.41311933411729,,0.0167269787472081,-1.93673792022069,-0.649283069554084,-0.118028372205708,-1.05187967300601,-0.11802837220587,1.28150243370028,0.299197970804439,1.09933225399029,1.13307651498617,-1.35029304077505,,,-0.475191909824567,0.566142524970943,0.828764677239936,-0.356102151677357,0.663746091138517,-1.88301014235952,-2.35888054779696,-2.95785548941884,-0.549681989760957,-0.480467030523699,-0.480467030523617,,-0.324968740771192,,0.923403091748205,-1.56525017223012,0.195093883766516,0.0663859624881288,-0.112518974850246,-0.11251897485276,0.595960957715089,-0.595960957714189,-1.92649306813517,0.716800000000148,103,1494.39563106796,477.843689320388,529.067961165049,1484.26116504854,1504.53009708738,465.447572815534,490.239805825243,645.893203883495,412.242718446602,0
1155.4816,0.958170512405058,0.287934671991737,0.803722578258225,-0.143982953083469,-0.138584155516829,-0.138584155518188,,-0.10403902058039,0.636656497733112,0.128361611634617,1.21266117151792,0.128361611633803,-0.204731785367886,-1.38216972362434,,0.0227905911275868,-1.94859038801378,-0.648707413861263,-0.104377063541227,-1.06077036484339,-0.1043770635414,1.29706954154856,0.33189470217267,1.12785026221726,1.1464888389422,-1.33172623216335,,,-0.475439822673389,0.560592792976542,0.814525995341726,-0.351932630039652,0.649551195615393,-1.91474378523279,-2.32824880188602,-2.9672851193042,-0.524411185713867,-0.479576773056821,-0.479576773056736,,-0.313270709015964,,0.904924336817733,-1.54725875061316,0.184605249186528,0.0877552584708023,-0.100083237323226,-0.10008323732575,0.581329608973501,-0.581329608972605,-1.93570419277914,0.819200000000137,102,1610.80833333333,479.949509803922,508.602941176471,1604.12058823529,1617.49607843137,457.841176470588,502.057843137255,617.892156862745,399.313725490196,0
1155.584,0.965269846196353,0.241500113715765,0.783454748137927,-0.129937830120911,-0.170444334846852,-0.170444334848222,,-0.184271610255983,0.553423369094224,0.191091477935687,1.22469526097574,0.191091477934876,-0.161142360903102,-1.3497226281772,,0.0288084133579164,-1.95923802196309,-0.647754845322155,-0.0900714695998226,-1.0697828629107,-0.0900714696000046,1.30942297615548,0.363589725705236,1.15348026046592,1.15885716505644,-1.31265023599641,,,-0.475400717792605,0.554970135419133,0.799788288234852,-0.347714759318211,0.6347187353206,-1.94510330291338,-2.29615194710355,-2.9747034242361,-0.494964540509967,-0.47756214806172,-0.477562148061636,,-0.302522819356748,,0.886002319498754,-1.5289768417119,0.173795335046888,0.109755665968727,-0.089839002604144,-0.0898390026066832,0.566761084937895,-0.566761084937004,-1.94237381756852,0.921600000000126,103,1613.27669902913,477.426213592233,495.305825242718,1601.2786407767,1625.27475728155,458.818446601942,496.033980582524,602.165048543689,388.446601941748,0
1155.6864,0.971691519438575,0.194314135101615,0.762322732200601,-0.11520781352902,-0.202015370931275,-0.202015370932657,,-0.267280530462879,0.46645004697219,0.254629623112441,1.23627742390794,0.254629623111636,-0.11710460852513,-1.31583264572286,,0.0348088817295042,-1.96852949747707,-0.646351935370404,-0.0750701436140601,-1.07891690887529,-0.0750701436142514,1.31841276429682,0.394192075671215,1.1760644012223,1.17012887370022,-1.29310440090137,,,-0.475118088009736,0.549303750283484,0.784528363696741,-0.343404443854399,0.619279028936892,-1.97406582959088,-2.26261973118365,-2.98010801746995,-0.461317678864925,-0.474341980387418,-0.474341980387336,,-0.292811665032215,,0.866650041403792,-1.51045391445793,0.162653340658088,0.132366761639703,-0.0818481076300299,-0.0818481076325793,0.552232386345129,-0.552232386344244,-1.94645813964182,1.02400000000011,102,803.281862745098,418.734803921569,525.362745098039,751.317647058824,855.246078431373,430.33137254902,407.138235294118,653.598039215686,397.127450980392,0
1155.7888,0.97743814060045,0.146445957930754,0.740365669482137,-0.0998170421930419,-0.233221697333279,-0.233221697334676,,-0.352990916920467,0.375794840056249,0.318823321395872,1.24728948639512,0.318823321395072,-0.0727187053953224,-1.28055932505908,,0.0408245642067322,-1.97630702849247,-0.644419893711498,-0.0593294691048004,-1.08817017647573,-0.0593294691050005,1.3238964824841,0.423612661754836,1.1954513723134,1.18024943053444,-1.27312973936004,,,-0.474635918579492,0.543621281407914,0.768722090401009,-0.338956388035686,0.603262783960264,-2.00161361846081,-2.22768538036679,-2.98350286834189,-0.423461022509247,-0.469833007842055,-0.46983300784197,,-0.284221378034444,,0.846880878201502,-1.49174030545964,0.151168428976507,0.155567590198655,-0.0761652822402365,-0.0761652822427959,0.537719262077843,-0.537719262076964,-1.94792085630595,1.1264000000001,102,623.941666666667,433.064215686275,528.642156862745,603.743137254902,644.140196078431,449.320588235294,416.807843137255,662.71568627451,394.56862745098,0
1155.8912,0.982515030596872,0.0979646627757754,0.71762445791215,-0.0837953031574298,-0.263990664842255,-0.263990664843664,,-0.441319726866315,0.281527627866442,0.383511149320305,1.25760852334726,0.38351114931951,-0.0280900880363162,-1.24396721508486,,0.0468922110595422,-1.98240666358073,-0.641874630904119,-0.0428037906498602,-1.09753819355262,-0.0428037906500693,1.32574010129118,0.451764574496163,1.21149717772375,1.18916255667258,-1.25276885546281,,,-0.473998560728261,0.537948769460061,0.752344435273405,-0.334324266642945,0.586700905583453,-2.02773388034636,-2.19138561947623,-2.9848981763919,-0.381400091539216,-0.463950157505185,-0.4639501575051,,-0.276833375332516,,0.826708539449231,-1.47288705468143,0.139329765647405,0.17933654997814,-0.0728379181218428,-0.0728379181244124,0.523196439140097,-0.523196439139225,-1.94673332219716,1.22880000000009,103,618.846116504854,425.022815533981,523.097087378641,599.059223300971,638.633009708738,433.352427184466,416.693203883495,652.922330097087,393.271844660194,0
1155.9936,0.986930379039722,0.0489391335364054,0.694141830081057,-0.0671783627596945,-0.294252907101128,-0.294252907102551,,-0.532175279567427,0.183730443884336,0.448523015653603,1.26710718485244,0.448523015652813,0.0166705028800238,-1.20612589696549,,0.0530527792680594,-1.98665864626397,-0.638626862905651,-0.0254455528451891,-1.10701426451313,-0.0254455528454076,1.32381883595888,0.478563400207965,1.2240659279773,1.19681043054887,-1.23206586045499,,,-0.473250611590909,0.532310615349638,0.735369507565923,-0.32946090485681,0.569624301258062,-2.05241857812688,-2.15376067443855,-2.98431019777723,-0.335155746244783,-0.456606851527183,-0.456606851527097,,-0.270726116862021,,0.806147030599949,-1.45394572269521,0.12712656942909,0.203651270093983,-0.0719058662714071,-0.0719058662739903,0.508637838848886,-0.508637838848016,-1.94287466971251,1.33120000000008,102,620.129411764706,432.002941176471,523.078431372549,599.701960784314,640.556862745098,444.203921568627,419.801960784314,653.921568627451,392.235294117647,0
1156.096,0.990695411063474,-0.000561984715057291,0.669962443347664,-0.050008299744747,-0.323942708696803,-0.323942708698241,,-0.625456814751992,0.0824980328212557,0.513680231250813,1.27565405547138,0.513680231250031,0.061447014407094,-1.16711000197794,,0.059351433624248,-1.98888784134148,-0.634582255965447,-0.00720544365951744,-1.11658938641225,-0.00720544365974529,1.31801799559763,0.503927544239442,1.23303063384245,1.20313392171524,-1.21106626452434,,,-0.472436805583757,0.526729563459264,0.717770625321313,-0.324318472234346,0.552063696957886,-2.07566417520748,-2.11485424322275,-2.9817610144187,-0.284764362392957,-0.447715326284552,-0.447715326284464,,-0.265974879520862,,0.785210627374505,-1.43496818484551,0.114548186984157,0.228488471399775,-0.0734012658128254,-0.0734012658154248,0.494016781838488,-0.494016781837622,-1.9363318909389,1.43360000000007,103,621.826213592233,428.561650485437,522.194174757282,600.42427184466,643.228155339806,432.41359223301,424.709708737864,653.446601941748,390.941747572816,0
1156.1984,0.993824565311872,-0.0504703198244305,0.645132981851759,-0.0323338366317513,-0.352998379250779,-0.352998379252234,,-0.721054081609449,-0.022061628226826,0.578795629269034,1.28311404858507,0.578795629268259,0.106118118885153,-1.12699922888229,,0.0658375285389394,-1.98891422725091,-0.629641608815294,0.0119674585974558,-1.12625215835302,0.0119674585972188,1.30823382316696,0.527778555505977,1.23827399390927,1.20807285671378,-1.18981684159431,,,-0.47160192062561,0.521226709545502,0.699520418666998,-0.318848695644161,0.534049478449396,-2.09747133800304,-2.07471343259252,-2.97727824436114,-0.230277934300162,-0.437186951102525,-0.437186951102437,,-0.262651553433082,,0.7639138722982,-1.41600640695154,0.10158420002837,0.253823804699456,-0.0773484085629764,-0.0773484085655914,0.479306190387714,-0.479306190386852,-1.92709988724119,1.53600000000006,102,928.118627450981,436.943137254902,492.470588235294,886.435294117647,969.801960784314,419.778431372549,454.107843137255,623.176470588235,361.764705882353,0
1156.3008,0.996335681252503,-0.100717799252509,0.619702268829659,-0.0142106569017249,-0.381362631245272,-0.381362631246742,,-0.818846965309931,-0.129826855494682,0.643673742881614,1.28934883368056,0.643673742880847,0.150557295823135,-1.08587837629759,,0.0725645707780092,-1.98655345289054,-0.623701071448346,0.0321255302938986,-1.13598869045256,0.0321255302936528,1.29437431800139,0.550041443938049,1.23968916562579,1.21156631861558,-1.16836547381166,,,-0.47079069628915,0.515821531280073,0.680590970486796,-0.313003092693429,0.515611556149281,-2.1178445968707,-2.03338867138734,-2.97089470327665,-0.17176410213558,-0.424932543302685,-0.4249325433026,,-0.260824465388526,,0.742271593893051,-1.3971122109943,0.0882245611798701,0.279631668585543,-0.0837636450350538,-0.0837636450376789,0.464478792370045,-0.46447879236919,-1.91518149602558,1.63840000000005,102,1304.89754901961,452.848039215686,465.848039215686,1271.14117647059,1338.65392156863,431.108823529412,474.587254901961,579.039215686275,352.656862745098,0
1156.4032,0.998250186312445,-0.151236666276166,0.593721384475593,0.00429831014881252,-0.408982948391559,-0.408982948393043,,-0.918705154183109,-0.240661841749232,0.708111046252828,1.29421729845382,0.708111046252069,0.194632949968302,-1.04383739716666,,0.0795901561296916,-1.98161745905758,-0.616652405879856,0.0533224298300886,-1.14578252199679,0.0533224298298336,1.27636003443716,0.570644988997477,1.23718051408302,1.21355298049852,-1.14676098602748,,,-0.470047756649834,0.510531932680067,0.660953977022611,-0.306733218954214,0.496779238443165,-2.13679197558105,-1.99093361627194,-2.96264803485512,-0.109306103037288,-0.4108626965968,-0.41086269659672,,-0.260558223736101,,0.720298936954307,-1.37833704138213,0.0744597411443003,0.305885019023766,-0.0926553300301953,-0.0926553300328348,0.449507324556572,-0.449507324555725,-1.90058749629887,1.74080000000004,103,1312.48009708738,439.99854368932,480.888349514563,1299.35825242718,1325.60194174757,451.431067961165,428.566019417476,579.543689320388,382.233009708738,0
1156.5056,0.99959325827177,-0.201959481643146,0.567243774917354,0.023122659130776,-0.435811917398621,-0.435811917400122,,-1.02048785042387,-0.35441630578976,0.771896274572962,1.29757606553212,0.771896274572211,0.238208557481493,-1.00097147748857,,0.0869758655009036,-1.97391517072079,-0.608383302082189,0.0756128903124111,-1.15561455954416,0.0756128903121471,1.25412485328338,0.589522046294645,1.23066433982202,1.21397146925953,-1.12505298236444,,,-0.46941753166155,0.505374294730164,0.640580913397377,-0.299990921575345,0.477581102827323,-2.15432459981049,-1.94740506672137,-2.95258032863579,-0.0430026501672434,-0.394888161980289,-0.394888161980216,,-0.261913564299608,,0.698011390716176,-1.35973175165971,0.0602808635898101,0.332555183861413,-0.104023792892778,-0.104023792895441,0.434364733094754,-0.434364733093911,-1.88333658838611,1.84320000000002,102,1312.48676470588,448.614705882353,491.769607843137,1299.64215686275,1325.33137254902,454.272549019608,442.956862745098,596.274509803922,387.264705882353,0
1156.608,1.0003939281929,-0.252819109163403,0.540325329633811,0.0421843561754678,-0.461807490957203,-0.461807490958718,,-1.12404352581244,-0.470925211627967,0.83481085582225,1.29928010449502,0.83481085582151,0.281142836309574,-0.957381142311291,,0.0947871015788191,-1.96325327334374,-0.59877776800723,0.0990524536829124,-1.1654630451784,0.0990524536826393,1.22761672588144,0.606609863449005,1.22006959128799,1.21276075610182,-1.10329170164665,,,-0.468944173942784,0.500363534727912,0.619443212153246,-0.292728602412872,0.458044871849721,-2.1704562914823,-1.90286290485733,-2.94073774006027,0.0270322526781931,-0.37692032947758,-0.376920329477513,,-0.264947171263496,,0.675424808535873,-1.34134643890719,0.0456798075752106,0.359611688004657,-0.117861309764039,-0.117861309766726,0.419024377458507,-0.419024377457669,-1.86345534595365,1.94560000000001,103,1192.96165048544,455.564077669903,517.029126213592,1167.06019417476,1218.86310679612,451.723300970874,459.404854368932,626.601941747573,407.456310679612,0
1156.7104,1.0006850962786,-0.303748685898004,0.51302440827943,0.0613976806213834,-0.486933159898553,-0.486933159900083,,-1.22920972166526,-0.590008554058158,0.896629489881057,1.29918348037136,0.896629489880331,0.32328994671599,-0.913172386442291,,0.103092851175946,-1.94943708795582,-0.587716610076771,0.123697126421218,-1.17530355960521,0.123697126420936,1.19679839126594,0.621850413672262,1.20533856673354,1.2098605738158,-1.08152790524202,,,-0.468671470547742,0.495513184388304,0.597512475347165,-0.284899500807791,0.43819730843684,-2.18520315387548,-1.85737006470697,-2.92717011956041,0.100669556438454,-0.356871842699561,-0.356871842699497,,-0.269711456308578,,0.652555417739333,-1.32323034320117,0.030649267528943,0.387022087214691,-0.134152059986696,-0.134152059989405,0.403460250769757,-0.403460250768923,-1.84097813785182,2.048,102,805.042647058824,438.626960784314,545.352941176471,789.893137254902,820.192156862745,449.012745098039,428.241176470588,664.637254901961,426.06862745098,0
1156.8128,1.00050345232103,-0.354681575399116,0.48540181210989,0.0806692654180335,-0.511158028535587,-0.51115802853713,,-1.33581289200693,-0.711471204685633,0.95712088983549,1.29714025358293,0.957120889834777,0.364499739527518,-0.86845681298565,,0.11196536913026,-1.93227155126283,-0.575078009442143,0.149602952060778,-1.18510905505477,0.149602952060487,1.16164806219121,0.635190748589454,1.18642760324413,1.2052118611298,-1.0598127939402,,,-0.468642751508118,0.490835491453825,0.574760728514958,-0.276458000675052,0.418064135696942,-2.19858315099943,-1.81099251689763,-2.91193064562772,0.177765477907872,-0.334657342447931,-0.334657342447869,,-0.276254296742289,,0.62941982172648,-1.30543180848041,0.0151827747847505,0.414751805759992,-0.152872063725804,-0.152872063728535,0.387647223007818,-0.387647223006988,-1.81594700975032,2.15039999999999,102,794.40931372549,444.858823529412,541.808823529412,776.679411764706,812.139215686275,461.275490196078,428.442156862745,663.637254901961,419.980392156863,0
1156.9152,0.999889310604808,-0.405551298198481,0.457520709814617,0.0998982343838394,-0.534456798252137,-0.534456798253689,,-1.44366828895939,-0.835102815165338,1.01604867335371,1.29300551434835,1.01604867335301,0.404618071880252,-0.823351750697297,,0.121479787952465,-1.91156229351304,-0.560738188324074,0.176825509334573,-1.19484990880432,0.176825509334274,1.12216006890161,0.646583364335699,1.16330774158851,1.19875722962651,-1.03819793792028,,,-0.468900797634933,0.486341538777051,0.551160708995375,-0.267359957641748,0.397669976670177,-2.21061568067553,-1.76379924810743,-2.89507544951313,0.258161891015019,-0.310194307130622,-0.310194307130561,,-0.284618747358562,,0.606034999184835,-1.28799828657988,-0.000725305235250619,0.442763975299288,-0.173989110672533,-0.173989110675284,0.371561300596673,-0.371561300595848,-1.78841151522686,2.25279999999998,103,790.994660194175,442.10145631068,529.966019417476,772.592233009709,809.397087378641,448.558252427184,435.644660194175,650.223300970874,409.708737864078,0
1157.0176,0.998886379401063,-0.456291433341276,0.429446534729325,0.118976433377701,-0.556809670446458,-0.556809670448023,,-1.55257989132396,-0.960677782361964,1.07317238120763,1.286636518519,1.07317238120695,0.443487203736706,-0.77798031961766,,0.131713660611127,-1.88711679929573,-0.544572155725687,0.205419349936863,-1.20449399460853,0.205419349936558,1.07834544846485,0.655986569999432,1.13596535222655,1.19044144680347,-1.01673521020377,,,-0.469487749559236,0.482041371733284,0.526686179220124,-0.257563038705923,0.377038311504673,-2.22132113700042,-1.71586222689189,-2.87666322306234,0.341686811884783,-0.283403952678748,-0.283403952678686,,-0.294842744663628,,0.582418302562547,-1.2709763632338,-0.0170797874644158,0.471019276454844,-0.197462692111051,-0.197462692113825,0.35517989002686,-0.355179890026042,-1.75842849667559,2.35519999999997,102,639.238235294118,453.312745098039,520.941176470588,615.706862745098,662.769607843137,453.271568627451,453.353921568627,640.56862745098,401.313725490196,0
1157.12,0.997541486387958,-0.506835489753701,0.401246868517506,0.137788751404451,-0.578202184186892,-0.57820218418847,,-1.66234038619156,-1.08795529206943,1.12824860646032,1.27789389391097,1.12824860645966,0.480946284325529,-0.732471420582671,,0.142746445197506,-1.85874563948113,-0.526454521816994,0.235437389937298,-1.21400677681085,0.235437389936985,1.03023247105313,0.663364846372545,1.10440270985142,1.18021193408941,-0.995476725695011,,,-0.470445019459508,0.477944130065515,0.501312259946681,-0.247027067973141,0.356191454173282,-2.23072045830909,-1.66725636035256,-2.85675480894612,0.428154983511255,-0.254212163157931,-0.254212163157869,,-0.306958817244016,,0.558587452752158,-1.25441178916345,-0.0338846881196745,0.499475787702905,-0.223243944874903,-0.223243944877696,0.338482055041621,-0.338482055040812,-1.72606182475057,2.45759999999996,103,635.555339805825,452.565533980583,517.194174757282,616.241747572816,654.868932038835,451.922330097087,453.208737864078,637.699029126214,396.68932038835,0
1157.2224,0.995904275387274,-0.557116751420361,0.372991319586115,0.156213526069562,-0.598625003356632,-0.598625003358222,,-1.77273122312392,-1.21667946506575,1.18103222783875,1.26664289604595,1.18103222783811,0.51683193823042,-0.686959629516764,,0.154658939968953,-1.82626376995431,-0.506260373019087,0.266930266679627,-1.22335143230707,0.266930266679306,0.977867096217104,0.668689185459172,1.06863850636506,1.16801928492867,-0.974474788393139,,,-0.471813204855114,0.474058183608676,0.475015779641211,-0.235714374242838,0.335150549415636,-2.23883466007174,-1.61805944538761,-2.8354127749512,0.517368559955211,-0.222550431133086,-0.222550431133025,,-0.320993808730786,,0.534560528089627,-1.23834950663224,-0.051143249351344,0.5280888474029,-0.251275611562615,-0.251275611565433,0.321448760240455,-0.321448760239652,-1.69138210358588,2.56000000000017,102,777.203921568628,459.963235294118,514.230392156863,755.688235294118,798.719607843137,460.385294117647,459.541176470588,634.127450980392,394.333333333333,0
1157.3248,0.994026881670944,-0.607068101212385,0.344751398529419,0.174123027830695,-0.618073661160447,-0.61807366116205,,-1.8835227621496,-1.34657962603221,1.23127774531536,1.2527547003247,1.23127774531473,0.550978959668566,-0.641584980653659,,0.167532675197715,-1.78949189718772,-0.483866202898859,0.299945669476701,-1.23248900253518,0.299945669476373,0.921313352215567,0.671937406746277,1.02870829509559,1.15381780849665,-0.95378184215633,,,-0.473632000099711,0.470391268771173,0.447775638203595,-0.22359013867538,0.313935589879024,-2.24568435364259,-1.56835211136597,-2.81270097129975,0.609117889902067,-0.188356791644943,-0.188356791644887,,-0.336968615219064,,0.51035595243189,-1.22283366687864,-0.0688579603535706,0.556810934265493,-0.28149201798558,-0.281492017988423,0.304063096484038,-0.304063096483243,-1.65446634418499,2.66240000000016,102,839.395098039216,460.319117647059,516.235294117647,820.85,857.940196078432,467.330392156863,453.307843137255,636.549019607843,395.921568627451,0
1157.4272,0.991963588151461,-0.656621827685347,0.316600389834571,0.191384019128058,-0.636548264461246,-0.636548264462861,,-1.99447453411847,-1.47737071057551,1.27874071531631,1.23610772255596,1.2787407153157,0.583221117825443,-0.596492630103409,,0.181449264779801,-1.7482579104341,-0.459150896544907,0.334527649753269,-1.24137857366669,0.334527649752933,0.860653632126427,0.673094452903432,0.98466486303038,1.13756610115599,-0.933450414461316,,,-0.475940100532451,0.466950621004635,0.419573185797121,-0.210622741330523,0.292565456270451,-2.25128925130656,-1.51821774533868,-2.78868406627448,0.703182401668668,-0.151576738756329,-0.151576738756277,,-0.354897937098997,,0.485992488530084,-1.20790763023734,-0.087030564372217,0.585591569242774,-0.313819067661142,-0.313819067664005,0.286310484346716,-0.286310484345928,-1.6153976038377,2.76480000000015,103,843.376013577201,454.74914560314,524.141398100966,829.711158744168,857.040868410234,463.796444332367,445.701846873913,647.511663094187,400.771133107745,0
1157.5296,0.989770464907035,-0.705709420698531,0.2886132183477,0.207858386540404,-0.654053161974821,-0.654053161976449,,-2.10533562947618,-1.60875382448428,1.32317928176155,1.21658896388392,1.32317928176096,0.61339206972012,-0.551832403576272,,0.196489716612489,-1.70239837873686,-0.431996768564868,0.370715915683709,-1.24997747712459,0.370715915683366,0.795988900681281,0.67215266944091,0.93657852896922,1.11922764538625,-0.913533042306785,,,-0.478775099017292,0.463743101722561,0.390392614641405,-0.19678410419389,0.271057980901027,-2.25566766061422,-1.46774238616997,-2.76342705487557,0.799331593467351,-0.112164119099201,-0.112164119099152,,-0.374790045113339,,0.461489236781156,-1.19361393093931,-0.1056620426286,0.614377238191287,-0.348174254218027,-0.348174254220914,0.268178852261309,-0.268178852260526,-1.57426458352584,2.86720000000014,102,840.716506620415,447.631863393122,548.289503045814,824.714935064935,856.718078175896,455.285876623377,439.977850162866,684.24512987013,412.333876221498,0.833333333333333
1157.632,0.987504997161811,-0.75426136233111,0.260866310468459,0.223403845696451,-0.670596584149435,-0.670596584151076,,-2.21584522601057,-1.74041696753217,1.36435580112303,1.19409537772182,1.36435580112246,0.641326374520919,-0.507758244275407,,0.212733700780203,-1.65176011040916,-0.402290654634077,0.408545116739059,-1.25824150007782,0.408545116738709,0.727438806025565,0.669112066760272,0.884537362513117,1.09877143383802,-0.894082177777321,,,-0.482173379995815,0.460775323027344,0.360221360202678,-0.182050030068377,0.24943003046457,-2.25883597525701,-1.41701457678114,-2.73699474047847,0.897326133762446,-0.0700819994775504,-0.0700819994775083,,-0.396646564028391,,0.436865636889886,-1.17999418719841,-0.124752568168899,0.643111331507293,-0.384466693092809,-0.384466693095715,0.249658788465841,-0.249658788465063,-1.53116117531981,2.96960000000013,103,837.537744828462,440.584744490038,572.935096662295,818.724675324675,856.350814332248,446.466883116883,434.702605863192,721.850649350649,424.019543973941,0.242718446601942
1157.7344,0.98522570974331,-0.802206917115568,0.233437453329807,0.23787471832292,-0.686190263711898,-0.686190263713554,,-2.32573325935943,-1.87203593049207,1.40203856490026,1.16853525256775,1.40203856489971,0.666860604773979,-0.464427580868952,,0.230258781186422,-1.59620177195532,-0.36992505125889,0.448044124544198,-1.26612510220053,0.448044124543842,0.655141693569427,0.663980556928761,0.828647317800946,1.07617261300941,-0.875150083346838,,,-0.486170015308513,0.458053774931343,0.329050514608954,-0.16640054119419,0.227697606520421,-2.26080816964639,-1.36612517775334,-2.7094511974562,0.996919075569648,-0.0253035062275868,-0.02530350622755,,-0.420462282643811,,0.412141474966642,-1.16708895246177,-0.144301424955246,0.671734097250291,-0.422597174395614,-0.422597174398547,0.230743668962894,-0.23074366896212,-1.4861859626347,3.07200000000012,102,837.311756950337,445.195924061807,574.174918908932,820.708683473389,853.914830427285,448.921253501401,441.470594622214,709.442927170868,438.906910646995,0
1157.8368,0.982991798631072,-0.849473924259272,0.206405657702005,0.251122778064283,-0.70084904518877,-0.700849045190441,,-2.43472124109303,-2.00327537416215,1.43600362696181,1.13982959953859,1.43600362696129,0.689834553372058,-0.422000626343844,,0.249139623719518,-1.53559556263086,-0.334799292466711,0.48923531876116,-1.27358164437748,0.489235318760798,0.57925452518931,0.65677416081416,0.769032282116668,1.05141313929072,-0.856788732690035,,,-0.490798658588543,0.455584955055399,0.296875257454335,-0.149820222850632,0.205875963469971,-2.26159530188376,-1.31516715793306,-2.68085922773989,1.09785718391112,0.0221873609733182,0.0221873609733447,,-0.446224997838213,,0.387336901250088,-1.15493752606498,-0.164306895766939,0.700182609832591,-0.462458241136977,-0.462458241139937,0.211429766137041,-0.211429766136273,-1.43944168387108,3.17440000000011,102,840.974509803922,454.765196078431,596.514705882353,830.891176470588,851.057843137255,464.766666666667,444.763725490196,723.352941176471,469.676470588235,0
1157.9392,0.980862779471959,-0.89598859824742,0.179851027850296,0.262998158786358,-0.714590489810139,-0.714590489811826,,-2.5425232399681,-2.13379010462906,1.46603674026988,1.10791353399919,1.46603674026938,0.710092537692804,-0.380639605910194,,0.269447194601457,-1.46982894106234,-0.296820751783593,0.532133888920931,-1.28056363623714,0.532133888920565,0.499952713111833,0.647517191506951,0.705834049327885,1.02448243778553,-0.839049726450905,,,-0.496091430856074,0.45337549704414,0.263695301039253,-0.132298573035936,0.183979738273483,-2.26120502953153,-1.26423537772878,-2.6512798240819,1.1998823666415,0.0723949257673007,0.0723949257673155,,-0.473915389615923,,0.362472458868924,-1.14357775544008,-0.184766134355404,0.728390761741727,-0.503934297929976,-0.503934297932964,0.191716345352478,-0.191716345351714,-1.39103466509175,3.27680000000009,103,1097.77718446602,468.209708737864,617.150485436893,1078.28834951456,1117.26601941748,468.438834951456,467.980582524272,737.640776699029,496.660194174757,0
1158.0416,0.978898155821002,-0.941675349996956,0.15385463364224,0.273350317697733,-0.727434476743518,-0.727434476745219,,-2.64884705089844,-2.26322656268582,1.49193539301489,1.07273764518249,1.49193539301442,0.727484798104055,-0.340507909038473,,0.29124795581119,-1.39880639822779,-0.255906062291991,0.576747162531934,-1.28702300119147,0.576747162531566,0.41742987909195,0.636242426329716,0.639212232384173,0.995378047449494,-0.821984219585833,,,-0.502078795398366,0.451432297637482,0.229515338637797,-0.113830351772892,0.162023084990524,-2.25964114452103,-1.21342637357346,-2.62077165028247,1.30273318578977,0.125311015673738,0.125311015673743,,-0.50350691133436,,0.33756911697741,-1.13304585849282,-0.205675042974952,0.756289284191054,-0.546901751268142,-0.546901751271168,0.171605757520938,-0.17160575752018,-1.34107422128248,3.37920000000008,102,1457.82058823529,492.215196078431,570.093137254902,1448.23431372549,1467.4068627451,476.282352941176,508.148039215686,673.264705882353,466.921568627451,0
1158.144,0.977157097423445,-0.986456641253375,0.128498371500033,0.282029045411139,-0.73940279670578,-0.739402796707498,,-2.75339556853293,-2.39122453649298,1.51351090776517,1.03426934404644,1.51351090776472,0.741868970960049,-0.301769166645927,,0.314603055789027,-1.32245126146674,-0.211982350896705,0.623073966565396,-1.29291134704173,0.623073966565025,0.331897541837793,0.622991272643248,0.569344119766406,0.964106231230309,-0.805642847650743,,,-0.508789425883021,0.44976264569554,0.194345480903544,-0.0944159171880443,0.140019811466953,-2.25690313982143,-1.16283814310524,-2.58939054887171,1.40614641256276,0.180914107131425,0.180914107131413,,-0.534965675986356,,0.312648298112933,-1.12337627625754,-0.227028170925547,0.783805797301467,-0.591229177292763,-0.591229177295829,0.151103531247073,-0.151103531246321,-1.2896720257406,3.48160000000007,103,1496.69708737864,493.119417475728,535.101941747573,1485.08932038835,1508.30485436893,468.066990291262,518.171844660194,635.834951456311,434.368932038835,0
1158.2464,0.975698105788881,-1.03025287783726,0.103864795779367,0.288885515453172,-0.750518742023282,-0.75051874202501,,-2.85586835733645,-2.51741908455946,1.53059054072737,0.992494160732306,1.53059054072696,0.753111592910697,-0.264586262440194,,0.339567508181638,-1.24070749811752,-0.164988481589842,0.671104027377089,-1.29818022242352,0.671104027376716,0.243584718605627,0.607813913683595,0.496424458343732,0.930682534375085,-0.790075637336492,,,-0.516250070629811,0.448374352003977,0.158201662883069,-0.0740615324301596,0.117983516163861,-2.25298583012586,-1.11256992000963,-2.55718908884784,1.50985858008724,0.239168448089558,0.239168448089534,,-0.568250329587575,,0.287731891804515,-1.11460154365733,-0.24881863645342,0.810864886807123,-0.636777513757642,-0.636777513760747,0.130218459631563,-0.130218459630817,-1.23694144865761,3.58400000000006,102,1663.50196078431,491.08431372549,506.029411764706,1655.38823529412,1671.61568627451,465.040196078431,517.128431372549,598.450980392157,413.607843137255,0
1158.3488,0.974578641443711,-1.07298233881548,0.0800369048248952,0.293773364274122,-0.76080671582327,-0.760806715825005,,-2.955963380284,-2.64144263206576,1.54301951208317,0.947416941676726,1.54301951208278,0.761089582194454,-0.229120291672616,,0.366189353261661,-1.15354147487878,-0.114876296802081,0.720817416684743,-1.30278133921382,0.720817416684369,0.152737410458622,0.590769405278617,0.420665124974438,0.895132281561936,-0.775331886988203,,,-0.524485414466397,0.447275872312375,0.121106003071251,-0.0527796266886744,0.095927722811153,-2.24787905064683,-1.06272192067259,-2.52421616373412,1.61360748905218,0.300023205360441,0.300023205360399,,-0.603311917809262,,0.26284225239676,-1.10675215285551,-0.271038061542174,0.837388202210248,-0.683400278709621,-0.683400278712771,0.108962669453898,-0.108962669453158,-1.1829968700114,3.68640000000005,102,1661.52254901961,489.977450980392,506.21568627451,1654.34705882353,1668.69803921569,468.692156862745,511.262745098039,599.450980392157,412.980392156863,0
1158.4512,0.973854701938325,-1.11456113521695,0.0570978777565588,0.296549787544666,-0.770291890106903,-0.770291890108644,,-3.05337882497614,-2.76292718646813,1.55066291788438,0.899062892073605,1.55066291788402,0.765691653310307,-0.195529476417421,,0.39450880599045,-1.06094363166199,-0.0616118397166836,0.772184055725634,-1.30666675218497,0.772184055725259,0.0596179406939019,0.571925694684621,0.342294649399303,0.857491007296309,-0.761460004902387,,,-0.533517940069788,0.446476415407018,0.0830871041194053,-0.0305889986706336,0.0738660148474692,-2.24156744657942,-1.01339504925363,-2.49051664295824,1.71713363241763,0.363411689776415,0.363411689776354,,-0.640093760473167,,0.238002185128367,-1.09985638780248,-0.293676504792302,0.863294572084762,-0.730943820932909,-0.730943820936109,0.0873516605579572,-0.0873516605572222,-1.12795298078656,3.78880000000004,103,1506.78203883495,489.007281553398,529.427184466019,1488.2067961165,1525.3572815534,459.090291262136,518.92427184466,630.485436893204,428.368932038835,0
1158.5536,0.973580361042648,-1.15490319451427,0.0351307710859556,0.297076633600363,-0.778999928937143,-0.778999928938889,,-3.14781495731882,-2.88150661229372,1.55340750000306,0.847478422746386,1.55340750000273,0.766819643760957,-0.163968039352693,,0.424557405170388,-0.962930044360594,-0.00517653777969221,0.825163290726459,-1.30978900145015,0.825163290726084,-0.0354958665586088,0.551359543904189,0.261557569658275,0.817804817784184,-0.748507301879045,,,-0.543367789082166,0.445986031567471,0.0441802989020785,-0.00751496275656879,0.0518121745795556,-2.23403035096635,-0.964690560515706,-2.45613107424355,1.82018151912309,0.429250692605031,0.429250692604945,,-0.678531348203915,,0.21323492654443,-1.09394012558232,-0.31672238384397,0.888500136963119,-0.779247604424938,-0.779247604428188,0.06540431048979,-0.0654043104890598,-1.07192409156274,3.89120000000003,102,1285.875,489.476960784314,556.470588235294,1273.08235294118,1298.66764705882,459.593137254902,519.360784313726,667.156862745098,445.78431372549,0
1158.656,0.97380729254877,-1.19392027412765,0.0142181892486974,0.29522147376054,-0.786956773387021,-0.78695677338877,,-3.238975940358,-2.99681890821833,1.55116326222885,0.792731776518772,1.55116326222855,0.764389747463734,-0.134585041913953,,0.456357184465003,-0.859543860629538,0.0544316738872925,0.879703551186942,-1.3121012281204,0.879703551186567,-0.132311661218702,0.529156351798977,0.178713621734954,0.776130686997511,-0.736519747658619,,,-0.554052622318574,0.445815677143503,0.00442784813001811,0.0164105556796388,0.029780326535313,-2.22524174204843,-0.916709691580775,-2.42109543583415,1.92250088538081,0.497439947204203,0.497439947204088,,-0.718552271053497,,0.188564120718023,-1.08902661391934,-0.340162390419208,0.912918504850646,-0.828144525536256,-0.828144525539557,0.0431428451367367,-0.0431428451360101,-1.01502346299745,3.99360000000002,103,1454.91553398058,485.357281553398,547.927184466019,1440.94757281553,1468.88349514563,458.679611650485,512.034951456311,651.271844660194,444.582524271845,0
1158.7584,0.974584303386314,-1.23152201551572,-0.00555806047621481,0.290858629528211,-0.794188474296999,-0.79418847429875,,-3.32657156839679,-3.10850843349395,1.54386491608555,0.73491342002385,1.54386491608529,0.758333649910819,-0.107523210902552,,0.489919887232336,-0.750856585055969,0.117197313992711,0.935742100715289,-1.31355726953058,0.935742100714914,-0.230523678978288,0.505409879384856,0.0940367779667051,0.732536690053624,-0.725541706112413,,,-0.565587480787203,0.445977248343533,-0.0361209166384681,0.0411489759390564,0.0077850765204852,-2.21517027287871,-0.869553277521033,-2.38544094096661,2.02384778369516,0.567861723979638,0.567861723979497,,-0.760076183886523,,0.164013786571844,-1.08513623712711,-0.363981408987202,0.936460935518683,-0.877461258621446,-0.877461258624797,0.0205927737606047,-0.0205927737598835,-0.957362667175081,4.096,102,1587.99460784314,487.523039215686,531.828431372549,1580.04117647059,1595.94803921569,452.701960784314,522.344117647059,626.117647058824,437.539215686275,0
1158.8608,0.975956891121449,-1.2676160558809,-0.0241173276573083,0.283870138137075,-0.800721061591465,-0.800721061593216,,-3.41031887783752,-3.21622803456276,1.53147313239013,0.674136197083988,1.5314731323899,0.748599549982949,-0.0829177962618818,,0.52524624292228,-0.636969178681726,0.183086427022647,0.993204885099977,-1.3141117352333,0.993204885099601,-0.329813971823868,0.480221889106142,0.00781415313156821,0.687102174095836,-0.71561565599978,,,-0.577984651239046,0.446483580363561,-0.0774095180951335,0.0666550764165071,-0.0141583616331379,-2.20377937050892,-0.82332136074116,-2.34919389801376,2.12398553836111,0.640380570671366,0.640380570671193,,-0.803014810164629,,0.139608271539547,-1.08228628102389,-0.388162449241635,0.959036557744556,-0.927018626542909,-0.927018626546308,-0.00221721731463661,0.00221721731535518,-0.899050988946686,4.19839999999999,102,1591.34264705882,489.759803921569,522.539215686275,1581.04019607843,1601.64509803922,451.087254901961,528.432352941176,616.480392156863,428.598039215686,0
1158.9632,0.977966825800681,-1.3021082155307,-0.0413805027789958,0.274146642168697,-0.806580448388186,-0.806580448389937,,-3.48994361476001,-3.31964103544844,1.51397557484131,0.610535252451727,1.51397557484111,0.735153043849994,-0.0608955071900086,,0.562325316792718,-0.518012939733205,0.252045785930771,1.05200647337894,-1.31372006366291,1.05200647337857,-0.429853744119921,0.453701708494454,-0.0796552066143636,0.639917864416945,-0.706781896754324,,,-0.59125353985626,0.44734841629594,-0.11937433057732,0.0928770720581955,-0.0360340514181053,-2.1910274074216,-0.778112800805529,-2.31237563239746,2.22268555794098,0.714843214722562,0.714843214722354,,-0.847271986543864,,0.115372192090359,-1.08049070756286,-0.41268659714971,0.98055262017949,-0.976632000592122,-0.976632000595567,-0.0252554120044686,0.0252554120051833,-0.840194878673738,4.30079999999998,103,1676.58009708738,493.393689320388,510.616504854369,1665.95048543689,1687.20970873786,462.64854368932,524.138834951456,603.203883495146,418.029126213592,0
1159.0656,0.980651748694714,-1.33490277515497,-0.0572704384234651,0.261588194318679,-0.811792372410515,-0.811792372412265,,-3.5651815662748,-3.41842307898642,1.49138769898688,0.544267745456619,1.49138769898672,0.717977843960902,-0.0415735619772614,,0.601133941405302,-0.394150143807825,0.324002239462449,1.11205008030855,-1.31233856349047,1.11205008030818,-0.530304787722898,0.425965723687803,-0.168061644285556,0.59108590250344,-0.699078245538488,,,-0.605400555894593,0.448586353074331,-0.161944640438116,0.119756749457199,-0.0578252256317269,-2.17686795312701,-0.734024894993181,-2.27500248291817,2.31972800200417,0.791078642699331,0.791078642699093,,-0.892743753290312,,0.0913303656029046,-1.0797599524454,-0.437532986422585,1.00091477457056,-1.02611174378158,-1.02611174378508,-0.0484872380217218,0.0484872380224345,-0.780897468244506,4.40319999999997,102,1683.88284313726,484.818137254902,507.083333333333,1674.38039215686,1693.38529411765,452.395098039216,517.241176470588,600.901960784314,413.264705882353,0
1159.168,0.984044785521851,-1.36590284832455,-0.0717124120682152,0.246104974403032,-0.816382372719894,-0.816382372721642,,-3.63577978075761,-3.51226382672746,1.46375330597632,0.47551237630653,1.46375330597619,0.697076309670275,-0.0250588660348416,,0.641636236416387,-0.26557442943227,0.398862213899858,1.17322765632629,-1.30992444952092,1.17322765632592,-0.630821011636691,0.397136805113406,-0.257086317595699,0.540719812270246,-0.692539742752443,,,-0.620429003400442,0.450212766187533,-0.205042757113653,0.147229650082748,-0.0795141812114522,-2.1612501133823,-0.691153020541418,-2.23708588514493,2.41490230701939,0.868898363071712,0.868898363071443,,-0.939318494593521,,0.0675077366704523,-1.08010075873899,-0.462678793606917,1.02002739200975,-1.07526370754274,-1.07526370754629,-0.0718754469176805,0.0718754469183906,-0.721258161755412,4.50559999999996,103,1646.01699029126,483.347572815534,510.004854368932,1632.28446601942,1659.74951456311,453.466990291262,513.228155339806,604.563106796117,415.446601941748,0
1159.2704,0.988174178295548,-1.39501084388533,-0.0846346248196116,0.227617922321832,-0.820375793077224,-0.820375793078972,,-3.70149769952718,-3.60086853099352,1.4311448421082,0.404468742939645,1.43114484210811,0.672469773995068,-0.01144731138396,,0.683783221676336,-0.132510917403106,0.476511377015458,1.23542003421047,-1.30643588505084,1.2354200342101,-0.731050056145948,0.367343669756892,-0.346402719751634,0.488944390138285,-0.68719838211668,,,-0.636338976996897,0.452243710234607,-0.248584167047143,0.175225295410647,-0.101082174748311,-2.14411895477211,-0.649590304460224,-2.19863254331876,2.50800758035866,0.948096849264521,0.948096849264228,,-0.986877128610482,,0.0439292970308882,-1.08151605530018,-0.488099261989888,1.03779391552616,-1.12388977803702,-1.12388977804063,-0.0953802914690645,0.0953802914697737,-0.661372311714287,4.60800000000018,102,1598.81568627451,483.274019607843,518.857843137255,1586.72254901961,1610.90882352941,452.782352941177,513.76568627451,614.362745098039,423.352941176471,0
1159.3728,0.993062938947074,-1.42212900613513,-0.0959687274107659,0.206059293051357,-0.823797799562634,-0.823797799564379,,-3.76210821104653,-3.68395948727677,1.39366343657959,0.33135653954841,1.39366343657953,0.644198662776638,-0.000823178146908991,,0.727512530316682,0.00478394319786856,0.55681447176073,1.29849712893122,-1.30183204043346,1.29849712893084,-0.830634973317345,0.336720190064968,-0.435678276940974,0.4358955148953,-0.683082870397942,,,-0.65312726030604,0.454695794929702,-0.292477725169844,0.203667451215032,-0.122509315096705,-2.12541600142607,-0.609427322754916,-2.15964468056446,2.59885287224255,1.02845215600547,1.02845215600514,,-1.03529334499075,,0.0206199986911642,-1.08400488605542,-0.513767757758188,1.05411725040465,-1.1717884633411,-1.17178846334477,-0.11895970088472,0.118959700885429,-0.601330987724907,4.71040000000016,102,1407.14663667031,475.721460813064,556.762942518161,1403.28449197861,1411.00878136201,453.09991087344,498.343010752688,660.852049910874,452.673835125448,0.0196078431372549
1159.4752,0.998728523420912,-1.44716001859994,-0.105650366686944,0.181373135767167,-0.826673399424837,-0.826673399426576,,-3.81739863327722,-3.76127737028379,1.35143867574926,0.256414606385506,1.35143867574925,0.612322414901112,0.00674137863040797,,0.772748232130491,0.146022802296618,0.639615327548608,1.36231819445412,-1.29607317361752,1.36231819445374,-0.929215952170335,0.305404662976895,-0.524575999501264,0.381719876306594,-0.680218412116503,,,-0.670787230043937,0.457586041858564,-0.336625880796685,0.232474429924228,-0.143774450201517,-2.10507978892808,-0.570751826843611,-2.1201203534146,2.68725733533179,1.10972670479442,1.10972670479407,,-1.08443388866336,,-0.00239533501169586,-1.08756239444158,-0.539655855563763,1.06890018741618,-1.21875551895453,-1.21875551895825,-0.142569452561824,0.142569452562533,-0.541220836218199,4.81280000000015,103,1005.6887178234,451.013123167155,614.167970022809,983.880303030303,1027.49713261649,443.801515151515,458.224731182796,734.515151515152,493.820788530466,0.737864077669903
1159.5776,1.00518252423605,-1.47000765702991,-0.113619746172423,0.153515695572209,-0.829027448997545,-0.829027448999278,,-3.86717162861682,-3.83258245454359,1.30462812042871,0.179899844106079,1.30462812042873,0.576919219694615,0.0111867578516655,,0.819400777631879,0.290888104450091,0.72473705535361,1.42673214398133,-1.28912073424418,1.42673214398096,-1.02643206876663,0.273539050293526,-0.612756166385204,0.326574625705196,-0.678626512300859,,,-0.689308771051638,0.460931729605334,-0.380924941205287,0.261559432395673,-0.164855050831372,-2.08304646813025,-0.533648489706658,-2.08005382015603,2.77305028221026,1.19166823930519,1.19166823930481,,-1.13415888982908,,-0.0250920926792471,-1.09217986046401,-0.56573344413196,1.08204584908533,-1.26458461232039,-1.26458461232417,-0.166163336442125,0.166163336442836,-0.481124021826265,4.91520000000014,102,629.9493149394,419.600826576965,676.189989713709,601.576084373143,658.322545505657,418.108853238265,421.092799915665,819.098336304219,533.281643123199,0
1159.68,1.01243038296263,-1.49057747760316,-0.119822192172802,0.122455738365839,-0.830884640223033,-0.830884640224759,,-3.91124605168404,-3.89765571678587,1.25341657682744,0.102086007880056,1.25341657682751,0.538085586435501,0.0124662456792025,,0.867367066660185,0.439033045304363,0.811982427017366,1.49157793726728,-1.28093748950507,1.49157793726691,-1.12192304732019,0.241268197041862,-0.69987802921855,0.270626953124236,-0.678324795199996,,,-0.708678206320868,0.464750229986888,-0.425265383696382,0.290830931669473,-0.185727102845928,-2.0592504610174,-0.498198662733895,-2.03943595963779,2.8560711537309,1.27401095178215,1.27401095178173,,-1.18432224039958,,-0.0474459475568333,-1.09784477963934,-0.591968841480966,1.09345815030819,-1.30906802320928,-1.30906802321313,-0.18969331135205,0.189693311352765,-0.4211182366987,5.01760000000013,103,558.561165048544,442.671844660194,697.917475728155,560.892233009709,556.230097087379,446.596116504854,438.747572815534,843.631067961165,552.203883495146,0
1159.7824,1.02047112732346,-1.50877752844879,-0.124208715807622,0.0881748037357726,-0.832269458272423,-0.832269458274139,,-3.9494577271177,-3.95629981567366,1.19801513015072,0.0232623928816823,1.19801513015083,0.495935754615757,0.0105462456492906,,0.916530636977789,0.590082778995997,0.901134431905209,1.55668503397857,-1.27148766793168,1.5566850339782,-1.21533102503352,0.208739032989413,-0.785601527892663,0.214053591588461,-0.679326841370153,,,-0.728878243963637,0.469058830996475,-0.469532228094947,0.320193099216352,-0.206365024197621,-2.03362517155463,-0.464480137305162,-1.99825473961245,2.93616941377673,1.35647677478236,1.35647677478191,,-1.23477201634208,,-0.0694329178521152,-1.10454097489916,-0.618328913433339,1.10304227092021,-1.35199737453458,-1.35199737453848,-0.21310965624168,0.2131096562424,-0.361276764478183,5.12000000000012,102,562.522549019608,443.853921568627,740.607843137255,567.690196078431,557.354901960784,473.098039215686,414.609803921569,902.166666666667,579.049019607843,0
1159.8848,1.02929713716351,-1.52451907672426,-0.126736563910125,0.0506673915759066,-0.83320610672254,-0.833206106724247,,-3.98166016017684,-4.00833995126917,1.13865994743072,-0.056267582602027,1.13865994743088,0.450600951048764,0.00540640924488163,,0.966761966440668,0.743635865119641,0.991957002124852,1.6218739111986,-1.26073711630744,1.62187391119823,-1.30630231559903,0.176099763290352,-0.869589010845162,0.157040244384939,-0.681642043368678,,,-0.749887943328974,0.473874544892004,-0.513605472837341,0.349546271990206,-0.226741613543596,-2.00610374358462,-0.432566909615373,-1.95649572700123,3.01320438288421,1.43877682552677,1.43877682552628,,-1.285350944025,,-0.0910294118105818,-1.11224874023552,-0.644779191822822,1.11070514095046,-1.39316439242006,-1.39316439242401,-0.236361119956501,0.236361119957226,-0.301668591837592,5.22240000000011,102,571.731947438661,450.621473668001,762.493282260548,578.366666666667,565.097228210656,474.822549019608,426.420398316395,933.69362745098,591.292937070116,0
1159.9872,1.03889394086591,-1.53771734602626,-0.127369754907382,0.00994108535992025,-0.833718397947174,-0.833718397948867,,-4.00772519036612,-4.05362461449065,1.07561085701253,-0.136187892604776,1.07561085701273,0.402228503006484,-0.00296032353520084,,1.01791888657009,0.899265944648816,1.08419590102203,1.68695664639779,-1.24865346499908,1.68695664639743,-1.39448916457454,0.143499054322414,-0.951506951869111,0.099780932640393,-0.685275476088402,,,-0.77168270325781,0.479213908619859,-0.55736058662676,0.378787458750599,-0.246828021309922,-1.97661984877483,-0.402528950804016,-1.91414262679096,3.08704501634048,1.52061298799609,1.52061298799556,,-1.33589690840873,,-0.112212255757261,-1.12094501224154,-0.671283988618933,1.11635593583733,-1.43236169889498,-1.43236169889897,-0.259395075973966,0.259395075974695,-0.242358567352943,5.3248000000001,103,694.63990276739,509.460022438295,749.156413612565,686.671428571429,702.608376963351,528.914285714286,490.005759162304,924.25,574.062827225131,0.262135922330097
1160.0896,1.04924004307008,-1.54829225718897,-0.126079595351544,-0.0339833874589256,-0.833829601785241,-0.83382960178692,,-4.02754359508656,-4.09202623358578,1.00914971567935,-0.216171513831701,1.0091497156796,0.350980820145447,-0.0145477628428689,,1.06984710923962,1.05652363579577,1.17757977317987,1.75173757025746,-1.23520629871647,1.7517375702571,-1.47955148694422,0.111085222002761,-1.03102765251675,0.0424772668857262,-0.690227778706422,,,-0.794234273744051,0.485092783256905,-0.600669044612526,0.407810884394301,-0.266593729370789,-1.94510849138692,-0.374431985763718,-1.87117784023842,3.15756963061494,1.6016796177709,1.60167961777031,,-1.38624350190663,,-0.13295870893898,-1.13060355686797,-0.697806503727338,1.11990657511292,-1.46938363887364,-1.46938363887768,-0.282157694892969,0.282157694893703,-0.183407607266841,5.42720000000008,102,878.122923019389,593.847816581324,734.207636931132,861.034065934066,895.211780104712,612.040659340659,575.65497382199,910.451923076923,557.96335078534,1
1160.192,1.0603067865797,-1.55616916311538,-0.122845170097879,-0.0810721588027937,-0.833562240142336,-0.833562240144001,,-4.04102563979994,-4.12344171361119,0.939578580037882,-0.295882126785729,0.939578580038173,0.297034261594114,-0.0293365774412518,,1.12238087092243,1.21493864047191,1.27182135612183,1.81601399496651,-1.22036733058953,1.81601399496615,-1.56115857178711,0.0790054335751295,-1.1078309132646,-0.0146623498610528,-0.696495050526717,,,-0.817510790896497,0.491526154830767,-0.643398901535226,0.436508567407757,-0.286006535639875,-1.91150682629151,-0.348337281819097,-1.82758304002017,3.22466558739658,1.68166535511124,1.6816653551106,,-1.43622061492446,,-0.153246470323281,-1.14119515915483,-0.724308925826353,1.1212722174286,-1.50402713991745,-1.50402713992153,-0.304594148272907,0.304594148273646,-0.124872939626323,5.52960000000007,103,1061.60594327139,678.235610724354,719.258860249698,1035.3967032967,1087.81518324607,695.167032967033,661.304188481675,896.653846153846,541.86387434555,0.504854368932039
1160.2944,1.07205825541944,-1.56127956880771,-0.11765379665189,-0.131278289394264,-0.83293781537429,-0.83293781537594,,-4.04810156219253,-4.14779285559611,0.867217706067256,-0.374975901356962,0.86721770606759,0.240577907383081,-0.0472944683641316,,1.17534369911223,1.37402204911355,1.36661885305621,1.87957702228218,-1.20411057459332,1.87957702228182,-1.63899073458409,0.0474049362196953,-1.18160565214383,-0.0714235795880692,-0.704068767389188,,,-0.841476836701396,0.498527941927509,-0.685415399598354,0.464770921237804,-0.305032553585086,-1.87575499260642,-0.324301443641211,-1.78333976226584,3.28822895094518,1.76025503332882,1.76025503332812,,-1.48565507293764,,-0.173053678515804,-1.15268780798814,-0.75075252353121,1.12037174539522,-1.53609260504022,-1.53609260504435,-0.326648846738374,0.32664884673912,-0.0668083692487094,5.63200000000006,102,1225.37971638514,784.925805674666,669.37728465329,1198.19027149321,1252.56916127708,827.882126696833,741.9694846525,814.25056561086,524.504003695719,0
1160.3968,1.08445123135041,-1.56356182949049,-0.110501431520114,-0.184541906572674,-0.831976465180355,-0.831976465181987,,-4.04872197093939,-4.16502663769767,0.792403406337296,-0.453103357933679,0.792403406337672,0.181812250354999,-0.0683764052459524,,1.22854929886813,1.53326882880568,1.4616574599476,1.94221243079962,-1.18641250774081,1.94221243079926,-1.71274090041127,0.0164263255479908,-1.25205145169028,-0.127587059655624,-0.712935724959986,,,-0.866093525915634,0.506110818818096,-0.726581614635175,0.492487371934784,-0.32363624267452,-1.83779696506143,-0.302376208112074,-1.73843001365596,3.34816413616585,1.8371316673047,1.83713166730395,,-1.53437132760429,,-0.192358904398754,-1.16504686865042,-0.777097722897949,1.11712823595905,-1.5653848409888,-1.56538484099297,-0.348265703680676,0.348265703681429,-0.00926454517205472,5.73440000000005,102,1049.52009803922,737.206862745098,652.073529411765,1030.52941176471,1068.51078431373,787.38431372549,687.029411764706,781.93137254902,522.21568627451,0
1160.4992,1.0974352176593,-1.56296182009537,-0.101393015583773,-0.240790409720171,-0.830696542961219,-0.830696542962835,,-4.04285813755945,-4.17511534343594,0.715485796025821,-0.529911294603594,0.715485796026237,0.120947818880043,-0.0925249198954112,,1.28180254881134,1.69216047872337,1.55661103330841,2.00370163684364,-1.16725221310287,2.0037016368433,-1.78211610738102,-0.0137911347458637,-1.31888002050283,-0.182929360385172,-0.723078010090225,,,-0.891318620028471,0.514286060655568,-0.766759143019116,0.519546987510812,-0.341780479749782,-1.79758141809001,-0.282608235539199,-1.6928368872602,3.40438356103139,1.91197850224618,1.91197850224537,,-1.58219220737987,,-0.211141135365937,-1.17823524137127,-0.803304169201927,1.11146941497286,-1.59171402141687,-1.59171402142108,-0.369388414289898,0.36938841429066,0.0477107786100214,5.83680000000004,103,935.256310679612,673.833980582524,669.970873786408,933.798058252427,936.714563106796,731.344660194175,616.323300970874,804.854368932039,535.087378640777,0
1160.6016,1.11095253641641,-1.55943356602552,-0.0903427488603204,-0.299938737319897,-0.829114128168414,-0.829114128170011,,-4.0305021647213,-4.17805652991352,0.636826459270938,-0.605044770717855,0.636826459271393,0.0582037398487049,-0.119670451766874,,1.33490059358152,1.85016783523227,1.65114388275969,2.06382272156887,-1.14661149731977,2.06382272156853,-1.84683892359153,-0.0431121348693236,-1.38181656068875,-0.237223987604313,-0.734472994181519,,,-0.917106666352825,0.523063414345886,-0.805808822009751,0.54583911326159,-0.359426669214959,-1.75506258745758,-0.265038896769826,-1.6465451739236,3.45680731279601,1.98448110442483,1.98448110442398,,-1.62893972755301,,-0.229379746594486,-1.19221351119567,-0.829330770836476,1.10332809387874,-1.61489667906855,-1.61489667907279,-0.389960743937959,0.389960743938731,0.104072488822678,5.93920000000003,102,939.780882352941,859.499509803922,602.617647058824,924.36568627451,955.196078431373,911.733333333333,807.26568627451,726.529411764706,478.705882352941,0
1160.704,1.12493849180671,-1.55293981722093,-0.0773742899495403,-0.361889684406619,-0.827242475086374,-0.827242475087952,,-4.01166701942551,-4.17387283410988,0.556796068705596,-0.678149132060935,0.55679606870609,-0.00619374583357876,-0.149731745000046,,1.38763402154008,2.00675400309284,1.74491267175233,2.12235151576715,-1.12447498025165,2.12235151576681,-1.9066487739608,-0.0714058802293738,-1.4406010373174,-0.290242426893744,-0.747093335420697,,,-0.943409161679308,0.532450996456747,-0.843591470569495,0.571254007434591,-0.376534881724413,-1.71020110958437,-0.249704052106506,-1.59954194995275,3.50536283823592,2.05432948183325,2.05432948183235,,-1.67443595369147,,-0.247054453673135,-1.20694009183697,-0.855135720693378,1.09264258180148,-1.63475671721969,-1.63475671722395,-0.409926824155451,0.409926824156234,0.159777864437135,6.04160000000002,103,970.939805825243,1280.40825242718,541.902912621359,943.028155339806,998.85145631068,1327.5145631068,1233.30194174757,654.087378640777,429.718446601942,0
1160.8064,1.13932158121098,-1.54345254196684,-0.0625208798415245,-0.426534255120663,-0.825091413267299,-0.825091413268863,,-3.98638642087274,-4.16261161710278,0.475771989607399,-0.748872053758657,0.475771989607931,-0.0720128024729609,-0.182616301448915,,1.43978811586222,2.16137738079699,1.83756840647061,2.17906273054139,-1.10083015699135,2.17906273054106,-1.96130317690827,-0.0985465949309986,-1.49498935136126,-0.341755220964732,-0.760906973970127,,,-0.970174741851077,0.542455216886397,-0.879968640321228,0.595683474262598,-0.393064011008575,-1.6629648245156,-0.23663381132136,-1.55181712299559,3.54998467248634,2.12122022294531,2.12122022294436,,-1.71850390850722,,-0.264145243662316,-1.22237136174911,-0.880676491086656,1.07935706261759,-1.65112642853132,-1.65112642853559,-0.429231458144764,0.42923145814556,0.214786341834306,6.14400000000001,102,970.928431372549,1290.07058823529,529.28431372549,944.81568627451,997.041176470588,1338.13823529412,1242.00294117647,640.980392156863,417.588235294118,0
1160.9088,1.15402373374162,-1.53095332133858,-0.0458253935013934,-0.493752033746776,-0.822666719404573,-0.822666719406122,,-3.9547145755003,-4.14434444988265,0.394135893067728,-0.816865571338855,0.394135893068295,-0.139017543750399,-0.218220894887845,,1.49114416332512,2.31349474238706,1.9287584880726,2.2337311181171,-1.07566743224335,2.23373111811677,-2.01057889452824,-0.124413978566307,-1.54475442459309,-0.391533069768515,-0.775877110548226,,,-0.997349397163808,0.55308072448061,-0.914803366653692,0.61902148782059,-0.408971944054871,-1.61332954019334,-0.225852266611815,-1.50336392943344,3.59061422310294,2.18485863378429,2.1848586337833,,-1.76096851109895,,-0.280632284544295,-1.23846179486059,-0.905909803382315,1.06342192744448,-1.66384751029617,-1.66384751030045,-0.447820438263086,0.447820438263897,0.269059308743438,6.24639999999999,102,972.155392156863,1285.5931372549,533.872549019608,943.425490196078,1000.88529411765,1330.49411764706,1240.69215686275,644.411764705882,423.333333333333,0
1161.0112,1.16896056314814,-1.51543363572975,-0.0273403234657453,-0.563411561066039,-0.819969483163008,-0.819969483164541,,-3.9167257590282,-4.11916645120711,0.312271393365419,-0.881788073932398,0.31227139336602,-0.206969595293176,-0.256432146229228,,1.54148080151105,2.46256433887348,2.01812880094512,2.28613264654037,-1.04898012835864,2.28613264654005,-2.05427300333873,-0.148893633369484,-1.58968721056231,-0.439347947226552,-0.791962169446951,,,-1.02487670924272,0.564330368815253,-0.947960906731538,0.641164794191921,-0.424215743812878,-1.56127976093429,-0.217377202446351,-1.45417938802542,3.62719962134154,2.24496084257254,2.2449608425715,,-1.80165753691988,,-0.296495817085056,-1.25516409318402,-0.930791580113519,1.04479405859269,-1.67277206807335,-1.67277206807763,-0.465640873717444,0.465640873718269,0.322559938301043,6.34879999999998,103,956.447087378641,1234.96262135922,544.014563106796,921.695145631068,991.199029126214,1277.29223300971,1192.63300970874,656.165048543689,431.864077669903,0
1161.1136,1.18404163217135,-1.4968950427095,-0.00712769701965768,-0.635370709978906,-0.816995486025426,-0.816995486026942,,-3.87251375422688,-4.08719549336481,0.230561717748219,-0.943306244135473,0.230561717748854,-0.275629667990114,-0.297127151124587,,1.59057538519424,2.60804898918346,2.10532581201974,2.33604567626803,-1.02076447242114,2.33604567626772,-2.09220389208737,-0.171877474435424,-1.62959764304648,-0.484974231601018,-0.809115751044529,,,-1.0526981030742,0.576205173080314,-0.979309454582684,0.662013484550506,-0.438751841095216,-1.50680937500694,-0.211219794749423,-1.40426471260605,3.6596956418562,2.30125583485854,2.30125583485744,,-1.84040258479459,,-0.311716039132076,-1.27242932643543,-0.95527689262707,1.02343706775812,-1.67776360049133,-1.67776360049563,-0.482641521621873,0.482641521622714,0.375253061315376,6.45119999999997,102,914.145588235294,1081.62794117647,582.019607843137,894.555882352941,933.735294117647,1121.32254901961,1041.93333333333,704.333333333333,459.705882352941,0
1161.216,1.19917073153836,-1.47534924951972,0.0147410734177395,-0.709477060781974,-0.813734608558661,-0.81373460856016,,-3.82219115787509,-4.04857129175608,0.149387412947621,-1.00109693811641,0.149387412948289,-0.344759129350267,-0.340174148299365,,1.63820535671804,2.74941913860935,2.18999866202386,2.38325213246708,-0.991019568321907,2.38325213246678,-2.12421218773988,-0.193264126184754,-1.66431552446709,-0.528189843546222,-0.827286577130716,,,-1.0807531107613,0.588704318242739,-1.0087208340859,0.681471544256465,-0.452536229537518,-1.4499222859099,-0.20738431003638,-1.35362567681857,3.68806368236278,2.35348738701155,2.3534873870104,,-1.87704003765956,,-0.326272994511405,-1.29020707903472,-0.979319917197694,0.999321494327158,-1.67869795652778,-1.6786979565321,-0.498773111096293,0.498773111097151,0.427105066565793,6.55359999999996,103,920.028155339806,1088.33446601942,631.606796116505,908.982524271845,931.073786407767,1133.44368932039,1043.22524271845,760.029126213592,503.184466019417,0
1161.3184,1.21424617772037,-1.45081808577594,0.0381854064838813,-0.785568280037617,-0.810170280204513,-0.810170280205997,,-3.76588856787374,-4.00345438804767,0.0691240910166945,-1.05484900261875,0.0691240910173938,-0.414121556438325,-0.385433221253164,,1.68414961084057,2.88615586745541,2.27180123548671,2.42753867074617,-0.959747355545771,2.42753867074588,-2.15016160630185,-0.21295930331736,-1.69369135088731,-0.568777381400658,-0.846418434381241,,,-1.10897964752421,0.601825144126658,-1.03607117866164,0.699447387887406,-0.465524661872382,-1.3906329723143,-0.205867809664395,-1.30227292104707,3.71227179360162,2.40141587990789,2.40141587990669,,-1.91141200870256,,-0.340146474105532,-1.30844560086061,-1.00287390576794,0.9724249679384,-1.67546425661006,-1.6754642566144,-0.513988649199917,0.513988649200795,0.478083823582235,6.65600000000018,102,962.760784313726,1089.50343137255,682.333333333333,956.378431372549,969.143137254902,1123.61764705882,1055.38921568627,817.274509803922,547.392156862745,0
1161.4208,1.22916113201918,-1.42333337992473,0.0631158344574614,-0.863472509085061,-0.806278981491352,-0.806278981492824,,-3.70375365398544,-3.95202502675734,-0.00985978295212875,-1.10426502644289,-0.0098597829513962,-0.48348425199252,-0.43275703101975,,1.72818985083447,3.01775383455772,2.35039420180838,2.46869783685587,-0.926952554614565,2.46869783685559,-2.16993972207853,-0.230876173380788,-1.71759706738497,-0.606525241276047,-0.866450126218762,,,-1.13731430032887,0.615563171108346,-1.06124160455855,0.715854384432184,-0.477672851224642,-1.32896696844403,-0.206659862271874,-1.25022219630745,3.73229475512156,2.44481998768491,2.44481998768365,,-1.94336726979951,,-0.35331593070258,-1.32709195589847,-1.02589117008629,0.942732334747641,-1.66796576888078,-1.66796576888513,-0.528243702073638,0.528243702074536,0.528158631006263,6.75840000000017,102,956.535294117647,1094.49803921569,710.338235294118,950.694117647059,962.376470588235,1132.72647058824,1056.26960784314,841.313725490196,579.362745098039,0
1161.5232,1.24380394163031,-1.39293673777777,0.0894343535823567,-0.943008769977197,-0.802029801415501,-0.802029801416961,,-3.63595011103523,-3.89448191855312,-0.0872050571771364,-1.14906302732318,-0.0872050571763729,-0.552619704378421,-0.481991581260203,,1.77011193834849,3.14372414187629,2.42544702458802,2.50652922300763,-0.892642601788071,2.50652922300736,-2.18345864531447,-0.246935697490419,-1.73592674459113,-0.641228709694051,-0.887315442891651,,,-1.1656926259845,0.629912137880384,-1.08411887401605,0.730611368464539,-0.488936678151318,-1.26496126149704,-0.20974226917872,-1.19749454494562,3.74811419580246,2.48349824313964,2.48349824313833,,-1.97276216165939,,-0.365760406718249,-1.34609216212414,-1.04832307501354,0.910235741467824,-1.65612073034382,-1.65612073034819,-0.541496654688007,0.541496654688925,0.577300194007793,6.86080000000015,103,932.021359223301,1117.41844660194,708.626213592233,930.922330097087,933.120388349515,1158.85339805825,1075.98349514563,836.582524271845,580.669902912621,0
1161.6256,1.25805850349936,-1.35967922116778,0.117034843738851,-1.02398739704741,-0.79738405165455,-0.797384051655996,,-3.56265649837086,-3.83104088919,-0.162564006236915,-1.1889780781636,-0.162564006236122,-0.621306976217738,-0.53297701787091,,1.80970723995531,3.26359710773959,2.49663993719727,2.54084062157786,-0.856827578229118,2.5408406215776,-2.19065559862727,-0.261066947461534,-1.74859716843075,-0.672691020741873,-0.908943154091559,,,-1.1940494540672,0.644864046864947,-1.10459603660585,0.74364312990996,-0.499272397439843,-1.19866460560435,-0.215088811025496,-1.14411642246801,3.75971875513003,2.51727048101467,2.51727048101331,,-1.99946148520644,,-0.377458474682769,-1.36539131412872,-1.07012003668884,0.874934670256731,-1.63986310282572,-1.6398631028301,-0.553708961733781,0.553708961734721,0.625480624727795,6.96320000000014,102,936.339215686275,1105.45392156863,694.514705882353,935.977450980392,936.700980392157,1146.91078431373,1063.99705882353,824.058823529412,564.970588235294,0
1161.728,1.2718046558771,-1.32362093537552,0.145803556111115,-1.10621050132576,-0.792294948992423,-0.792294948993852,,-3.48406498142843,-3.76193342932132,-0.235602372207014,-1.22376386738088,-0.235602372206192,-0.689333012094961,-0.585548457011044,,1.8467739653456,3.37692493540334,2.56366587619335,2.57144916960186,-0.819520139700358,2.57144916960161,-2.19149338862402,-0.273207400424732,-1.75554834096655,-0.700724376202057,-0.931257023707576,,,-1.22231919213327,0.66040921257655,-1.12257304008147,0.754880878704217,-0.508636837685331,-1.13013775190507,-0.222665023964171,-1.09011976491859,3.76710427442265,2.54597915158687,2.54597915158546,,-2.02333936746359,,-0.388388193779444,-1.38493368115002,-1.09123152537878,0.83683592465903,-1.61914325386046,-1.61914325386485,-0.564845402108842,0.564845402109802,0.672673451392201,7.06560000000013,103,942.110679611651,1097.7572815534,697.203883495146,937.592233009709,946.629126213592,1130.24854368932,1065.26601941748,827.611650485437,566.796116504854,0
1161.8304,1.28491860712404,-1.28483055254217,0.175619660618962,-1.18947247447557,-0.786707392335838,-0.786707392337249,,-3.40038000212596,-3.68740517341464,-0.306001290153436,-1.25319416017525,-0.306001290152588,-0.756493849343026,-0.639536821021634,,1.88111847951408,3.48328425564544,2.62623235182594,2.59818246760479,-0.780735451436749,2.59818246760455,-2.18596077312836,-0.283303210862021,-1.75674389262832,-0.725150928581558,-0.954175846850086,,,-1.25043613242489,0.676536312159763,-1.13795730791843,0.764262682964265,-0.516987591632672,-1.05945358997018,-0.232428007059132,-1.03554199869612,3.77027400240153,2.5694904798175,2.56949047981603,,-2.04428008114941,,-0.398527092461998,-1.40466278213564,-1.1116060843256,0.795953576173908,-1.59392854773369,-1.59392854773809,-0.574874336101216,0.574874336102198,0.718853625573854,7.16800000000012,102,869.475490196079,847.540196078431,708.916666666667,854.217647058824,884.733333333333,875.768627450981,819.311764705882,848.274509803922,569.558823529412,0
1161.9328,1.2972734104465,-1.2433848115112,0.20635583715135,-1.27356053863139,-0.780557869544623,-0.780557869546017,,-3.311816909315,-3.60771433634324,-0.373459031701394,-1.27706410288872,-0.373459031700521,-0.822595701817586,-0.694769656829744,,1.91255656307365,3.58227850985997,2.68406322443627,2.62087965032382,-0.740491128139289,2.62087965032359,-2.17407272213295,-0.291309455051081,-1.75217140182475,-0.745803723956675,-0.977613515815379,,,-1.27833475922617,0.693232439323008,-1.15066428058281,0.77173387488727,-0.524283201373249,-0.986697191190258,-0.244326258974952,-0.980425983716022,3.76923879976929,2.58769542879964,2.58769542879812,,-2.06217878692457,,-0.407852193034291,-1.42452145034012,-1.13119138742281,0.752308883315974,-1.56420382759166,-1.56420382759607,-0.583767945541419,0.583767945542423,0.763997527988695,7.27040000000011,102,763.965196078431,477.249509803922,697.171568627451,758.643137254902,769.287254901961,482.51862745098,471.980392156863,837.362745098039,556.980392156863,0
1162.0352,1.30873948660914,-1.19936802817654,0.237878893586216,-1.35825534604535,-0.773774522681435,-0.773774522682814,,-3.21860057904673,-3.52313012880029,-0.437692511167317,-1.29519132182116,-0.43769251116642,-0.887455888196103,-0.751071923712419,,1.94091459858744,3.67354013959057,2.73690035823295,2.63939239109064,-0.698807174444864,2.63939239109043,-2.15587056529243,-0.297190339306437,-1.74184261215633,-0.762527601436594,-1.00147912857075,,,-1.30595005652838,0.710483166235232,-1.16061791591727,0.777247415202334,-0.530483345009841,-0.911965743670517,-0.258299552339918,-0.924819885831209,3.76401732959626,2.60051042516784,2.60051042516629,,-2.07694217281664,,-0.416340090608102,-1.44445190695535,-1.1499343583665,0.705930188956761,-1.52997177477056,-1.52997177477497,-0.591502429461594,0.59150242946262,0.808082977077728,7.3728000000001,103,765.909223300971,475.956310679612,668.228155339806,761.532038834952,770.28640776699,487.623300970874,464.28932038835,803.388349514563,533.067961165049,0
1162.1376,1.3191851912083,-1.152871627928,0.270050402027764,-1.44333162857805,-0.766277382238408,-0.766277382239772,,-3.12096405044693,-3.43393116542017,-0.498438545240093,-1.30741680709598,-0.498438545239176,-0.95090359977649,-0.808266755425933,,1.96603067343509,3.75673256743721,2.78450514005726,2.65358583311768,-0.655705920670541,2.65358583311747,-2.13142201655476,-0.300919366810251,-1.72579353759214,-0.775180049256834,-1.0256771584485,,,-1.33321781557353,0.728272619301649,-1.16775114634775,0.780764209789009,-0.535549030684298,-0.835368373495759,-0.27427887197809,-0.868776989178303,3.75463622088792,2.60787782227007,2.6078778222685,,-2.08848898421562,,-0.423967087175758,-1.46439586421059,-1.16778136214833,0.656852794203155,-1.49125314436794,-1.49125314437235,-0.598058136297487,0.598058136298535,0.851089239092184,7.47520000000009,102,770.155882352941,477.394607843137,641.828431372549,770.186274509804,770.125490196079,497.291176470588,457.498039215686,777.039215686275,506.617647058824,0
1162.24,1.32847742500466,-1.10399369087644,0.302727357275902,-1.52855889551808,-0.757978765097032,-0.757978765098381,,-3.01914719947618,-3.34040387548231,-0.555454906093715,-1.31360561161209,-0.555454906092779,-1.01278052735585,-0.866176207782443,,1.98775560072228,3.8315519785812,2.82665986744961,2.66333944971693,-0.611211952414024,2.66333944971674,-2.10082106978969,-0.302479468251531,-1.70408445381342,-0.783632020662764,-1.05010770991397,,,-1.36007493813622,0.746583569509183,-1.17200629488721,0.782253376059305,-0.53944280421021,-0.757025860584381,-0.292186453675133,-0.812355476502321,3.74113019295747,2.60976610083178,2.6097661008302,,-2.09675045651175,,-0.430709373270179,-1.48429467004596,-1.18467846697575,0.60511880661823,-1.44808688619206,-1.44808688619648,-0.603419626245251,0.603419626246322,0.892997031702804,7.57760000000008,103,1126.69660194175,493.252427184466,608.694174757282,1115.24951456311,1138.14368932039,507.902912621359,478.601941747573,728.669902912621,488.718446601942,0
1162.3424,1.33648229292165,-1.05283849188142,0.335762871027242,-1.6137021800191,-0.748783824559522,-0.748783824560858,,-2.91339547151069,-3.24284092772406,-0.608521228489973,-1.31364741483633,-0.608521228489019,-1.07294137475826,-0.924621993714434,,2.00595386475017,3.89772892509345,2.86316901856713,2.66854783933282,-0.565352039879657,2.66854783933264,-2.06418776346805,-0.301863107901794,-1.67679978035855,-0.787768716661571,-1.07466688634411,,,-1.38645972746487,0.765397531242896,-1.17333545442164,0.78169246007098,-0.542128975277076,-0.677070271155734,-0.311935957724649,-0.755618215878179,3.72354212942778,2.60616982215796,2.60616982215636,,-2.10167066863348,,-0.436543251099038,-1.50408949580769,-1.20057177092539,0.550776967802822,-1.40053016049126,-1.40053016049567,-0.607575665008784,0.607575665009876,0.933788510407245,7.68000000000006,102,1286.21274509804,501.895588235294,597.892156862745,1280.68235294118,1291.7431372549,509.272549019608,494.51862745098,711.333333333333,484.450980392157,0
1162.4448,1.34306582140967,-0.999516020450957,0.369006916431734,-1.6985228374607,-0.738591242586376,-0.738591242587698,,-2.80395869497417,-3.1415396875938,-0.657439822117189,-1.30745699853883,-0.657439822116217,-1.13125428005776,-0.983426197863874,,2.02050449909193,3.95502977259309,2.8938604167818,2.66912146360513,-0.518155078230269,2.66912146360497,-2.02166781348296,-0.299072371912443,-1.64404785644091,-0.78749034586246,-1.09924728659467,,,-1.41231216069608,0.784694863137139,-1.17170083475249,0.779067609418602,-0.543573861334087,-0.595644533276189,-0.33343280062872,-0.698632589785125,3.7019230922576,2.59710935448068,2.59710935447906,,-2.10320682977122,,-0.441445398326024,-1.52372156729769,-1.21540779262646,0.493882470639508,-1.34865825299406,-1.34865825299847,-0.610519154644723,0.610519154645837,0.973447229533196,7.78240000000005,102,1288.57745098039,504.14068627451,604.367647058824,1283.80588235294,1293.34901960784,517.908823529412,490.372549019608,721.803921568627,486.93137254902,0
1162.5472,1.3480947417334,-0.944141474689708,0.402307131261868,-1.78277940122575,-0.72729406125694,-0.727294061258245,,-2.69108999853447,-3.0368007295119,-0.702036419099996,-1.29497466489541,-0.702036419099008,-1.18760115540435,-1.04241196130537,,2.03130190413946,4.00325799704649,2.91858629785985,2.66498733621926,-0.469652046174651,2.66498733621911,-1.97343211368538,-0.294119038457961,-1.60596060992856,-0.782712867971288,-1.12373863556131,,,-1.43757414274864,0.804454870624252,-1.16707508102326,0.77437370881219,-0.543746044393185,-0.512901975752894,-0.356574653729514,-0.641470388832201,3.67633226818639,2.58263039536356,2.58263039536193,,-2.10132950471224,,-0.445393172571469,-1.5431324422328,-1.22913392755923,0.43449677332169,-1.29256439259462,-1.29256439259902,-0.612247010142516,0.612247010143652,1.01195807606165,7.88480000000004,103,1288.35485436893,504.823786407767,614.194174757282,1284.14563106796,1292.5640776699,505.363106796117,504.284466019418,733.203883495146,495.184466019418,0
1162.6496,1.35143734370441,-0.886834729795999,0.435509682484188,-1.86622850198343,-0.714780656334863,-0.714780656336151,,-2.57504484745127,-2.9289264208506,-0.742160869091259,-1.27616660982426,-0.742160869090256,-1.24187794924294,-1.10140412977366,,2.03825660636676,4.04225532970229,2.93722428075111,2.65608966623264,-0.419875979725994,2.6560896662325,-1.91967610535113,-0.28702462645995,-1.56269311867824,-0.773368717572672,-1.14802854405924,,,-1.46218974499877,0.824655913129812,-1.15944156647352,0.767614483603961,-0.542616637384603,-0.429005838220974,-0.381252102095938,-0.584207772981286,3.64683684322084,2.56280331333232,2.56280331333068,,-2.09602278091909,,-0.448364953700928,-1.56226433070717,-1.24169896521232,0.372687410424197,-1.23235947448482,-1.23235947448922,-0.612759993301662,0.61275999330282,1.04930717975005,7.98720000000003,102,1468.72401960784,475.839705882353,601.323529411765,1464.02745098039,1473.42058823529,476.825490196078,474.853921568628,709.470588235294,493.176470588235,0
1162.752,1.35296440496175,-0.827719780507192,0.468460196009345,-1.94862585544714,-0.700935856100349,-0.700935856101621,,-2.4560802008046,-2.81821958052261,-0.777687785098576,-1.25102525498573,-0.777687785097559,-1.29399483250771,-1.16022986248351,,2.04129595545652,4.07190274503282,2.94967823729459,2.64239045504022,-0.368861952626608,2.6423904550401,-1.86061901715134,-0.277820417091437,-1.51442306235405,-0.759407497571984,-1.17200338290325,,,-1.48610542932177,0.845275511590879,-1.14879466200704,0.75880257346217,-0.540159560436792,-0.344128750194686,-0.407349447063475,-0.526925288836035,3.61351180578666,2.53772232818227,2.53772232818064,,-2.08728437989702,,-0.450340518749963,-1.58106044419448,-1.25305365455419,0.308527797996521,-1.16817168514541,-1.1681716851498,-0.612062521288895,0.612062521290073,1.08548180391418,8.08960000000002,103,1494.99805825243,473.816019417476,611.519417475728,1490.29514563107,1499.70097087379,466.031067961165,481.600970873786,716.077669902913,506.961165048544,0
1162.8544,1.35255020332906,-0.766924153666337,0.501004758780654,-2.02972732092011,-0.685642208430116,-0.685642208431369,,-2.33445378239843,-2.70498220725634,-0.808517139090206,-1.21956954007033,-0.808517139089178,-1.34387631232322,-1.21871920548621,,2.04036475101448,4.09212128585659,2.95587905253347,2.62387004167954,-0.31664705728302,2.62387004167943,-1.79650297767681,-0.266547440134464,-1.46135006210381,-0.740796631791489,-1.19554924937184,,,-1.50927025426394,0.86629044293766,-1.13513998606244,0.747959576306317,-0.536351831858188,-0.258452176206182,-0.434745634658701,-0.469707930344215,3.57643968307936,2.50750454582573,2.5075045458241,,-2.07512571486055,,-0.451301441829322,-1.59946535442109,-1.26315130057116,0.242097031910515,-1.10014601855195,-1.10014601855632,-0.61016247221512,0.61016247221632,1.12047021782707,8.19200000000001,102,1638.73921568627,473.802450980392,603.955882352941,1639.19803921569,1638.28039215686,465.542156862745,482.062745098039,702.558823529412,505.352941176471,0
1162.9568,1.35007362048094,-0.704578288871599,0.532990999871668,-2.10929002910757,-0.668781402563739,-0.668781402564971,,-2.21042346336343,-2.5895142837446,-0.834574800265424,-1.18184517339002,-0.834574800264389,-1.39146127841829,-1.2767056368399,,2.03542578900288,4.10287271871881,2.95578526574232,2.60052758558466,-0.263270385207082,2.60052758558457,-1.72759200618735,-0.253256417287807,-1.40369490814377,-0.717521968773638,-1.21855300409976,,,-1.53163606254647,0.887676813135278,-1.11849464045659,0.735116065171018,-0.531173878031052,-0.172165827091885,-0.463315290284328,-0.412645231695501,3.53571021340072,2.47228886232738,2.47228886232574,,-2.05957189341016,,-0.451231507346333,-1.61742534627484,-1.27194837182142,0.173479684025055,-1.028443670636,-1.02844367064036,-0.607071005463121,0.607071005464341,1.15426154615554,8.2944,102,1615.25670456714,474.332514905031,612.335404686631,1618.0326421216,1612.48076701269,458.646099590916,490.018930219147,710.554027366342,514.11678200692,0
1163.0592,1.34541934272709,-0.640814892489545,0.564269251671279,-2.18707357311497,-0.650235848724511,-0.650235848725721,,-2.08424676229482,-2.47211268160955,-0.855812994058837,-1.13792482426368,-0.855812994057795,-1.43670298476893,-1.3340265799603,,2.02646031493002,4.10416000754648,2.94938357817751,2.57238146926657,-0.208773009295039,2.57238146926649,-1.65417089086509,-0.238007654185378,-1.3416986777819,-0.689588327089405,-1.24090335654353,,,-1.55315765572583,0.909410115694374,-1.09888743762929,0.720311585385697,-0.524609859324326,-0.0854670341371859,-0.492929828359645,-0.355831371637446,3.49141995321662,2.43223474527022,2.43223474526857,,-2.04066165491244,,-0.450117123969255,-1.63488875518518,-1.27940510109845,0.102765605698916,-0.953241297515524,-0.953241297519873,-0.602802399465273,0.602802399466513,1.1868455902906,8.39679999999999,103,1448.25281498865,467.838841034125,658.723483245489,1441.17568345324,1455.32994652406,441.769928057554,493.907754010695,776.94964028777,540.497326203209,0.669902912621359
1163.1616,1.3384791606139,-0.575768279316268,0.594693784593963,-2.26284125263472,-0.629890400840226,-0.629890400841411,,-1.95618046150126,-2.35307019229962,-0.872210638456689,-1.0879082197161,-0.872210638455643,-1.47956896291005,-1.39052386398957,,2.01346835788089,4.09602757699093,2.93668919800272,2.53946959601751,-0.153197969463326,2.53946959601745,-1.57654396469988,-0.220870872751432,-1.27562174696529,-0.657019965207402,-1.26249197327931,,,-1.57379296193834,0.931465290398845,-1.07635911904093,0.703594636254238,-0.516648005679651,0.00143992421939828,-0.523458591388487,-0.299365254296659,3.44367181968941,2.38752088754486,2.38752088754319,,-2.01844722330331,,-0.447947731600449,-1.65180628492967,-1.28548606909696,0.0300497510085404,-0.874730119148664,-0.874730119153004,-0.597373896424189,0.597373896425448,1.21821262499909,8.49919999999997,102,1269.88276295541,459.941484774747,708.602176547532,1251.97100719424,1287.79451871658,423.275683453237,496.607286096257,848.478417266187,568.725935828877,1
1163.264,1.32915336284919,-0.509573723463269,0.62412410062484,-2.33636135904793,-0.607634185969496,-0.607634185970661,,-1.82648031963108,-2.23267468788727,-0.883773498673374,-1.03192209551029,-0.883773498672326,-1.52004085684899,-1.44604410423719,,1.99646889809476,4.07856131072069,2.91774596758711,2.50184955265024,-0.0965902595118986,2.50184955265019,-1.49503378947569,-0.201924977852162,-1.20574269990508,-0.619860952845953,-1.28321457902717,,,-1.59350319576198,0.953816791018897,-1.05096255417477,0.685022629796202,-0.50728095758556,0.0883445559094227,-0.554769971360161,-0.243350528574222,3.39257457738063,2.33834372321237,2.33834372321068,,-1.99299405477702,,-0.444716198897512,-1.66813130074612,-1.29016076597213,-0.0445679679389207,-0.793114846288089,-0.793114846292413,-0.590805542885203,0.590805542886481,1.24835318418851,8.60159999999996,103,1091.51271092217,452.04412851537,758.480869849575,1062.76633093525,1120.25909090909,404.781438848921,499.306818181818,920.007194244604,596.954545454546,1
1163.3664,1.31735220218689,-0.442366842568276,0.65242625755716,-2.40740848347589,-0.583362486087286,-0.58336248608843,,-1.69540084839288,-2.11120839485432,-0.89053410405157,-0.970119953712071,-0.890534104050518,-1.55811416715888,-1.50043898357494,,1.97549980331831,4.05188820921452,2.89262619795632,2.45959860467126,-0.0389968127106634,2.45959860467124,-1.40997976088304,-0.18125775717857,-1.13235714581027,-0.578175421893655,-1.30297201966175,,,-1.61225300494661,0.976438658555717,-1.02276289890409,0.664661810848532,-0.496506104848001,0.175030958256796,-0.586732481249347,-0.187895519710874,3.33824228415219,2.28491580451093,2.28491580450923,,-1.96438046362385,,-0.440419208114857,-1.683820088066,-1.29340412262501,-0.120982783413144,-0.708612407187356,-0.708612407191661,-0.583120021783342,0.583120021784636,1.27725785326714,8.70400000000018,102,913.142658888932,444.146772255992,808.359563151618,873.561654676259,952.723663101605,386.287194244604,502.00635026738,991.535971223021,625.183155080214,1
1163.4688,1.30299737624791,-0.374283034360123,0.679474175068007,-2.47576481340066,-0.556978597027471,-0.556978597028596,,-1.56319512057743,-1.98894725731908,-0.892551391220789,-0.902681588562436,-0.892551391219737,-1.59379789856031,-1.55356542404333,,1.95061746258342,4.01617563033738,2.86143012972221,2.41281348358611,0.0195335091193356,2.41281348358609,-1.32173665441394,-0.158965520945622,-1.05577646063363,-0.532047679368688,-1.32167125826151,,,-1.63001059745713,0.999304588851775,-0.99183768472033,0.642587123801191,-0.484325903879827,0.261278693284294,-0.619215763610216,-0.133113063182692,3.28079371091743,2.22746405127972,2.22746405127802,,-1.93269711076697,,-0.435057618835804,-1.69883206986239,-1.29519699941499,-0.199085122979323,-0.621450451157667,-0.621450451161958,-0.574342475059334,0.574342475060647,1.30491708214074,8.80640000000017,102,735.642704670488,436.287939685685,857.994945754626,685.279928057554,786.005481283423,367.883165467626,504.692713903743,1062.71582733813,653.274064171123,1
1163.5712,1.28602344043794,-0.305456970666744,0.705150863838756,-2.54122136503977,-0.528395574230873,-0.528395574231981,,-1.43011458179381,-1.86616036849264,-0.889910063404086,-0.829812356187633,-0.889910063403035,-1.62711411307372,-1.60528563612748,,1.92189606223424,3.97163006146905,2.82428496087353,2.36160991908366,0.0789499088619118,2.36160991908366,-1.2306731328235,-0.135152692206613,-0.976326474762222,-0.481582166164471,-1.33922627784834,,,-1.64674783959276,1.02238798605962,-0.95827680938559,0.61888201639915,-0.470748145520965,0.346863732300457,-0.65209153398969,-0.0791202421783987,3.22035174452887,2.16622788595593,2.16622788595422,,-1.89804634016498,,-0.428636798555995,-1.71312998842277,-1.29552662254606,-0.278760599938449,-0.531865614847321,-0.53186561485159,-0.564500314250618,0.56450031425195,1.33132102759753,8.90880000000016,103,557.272652637249,428.390583426307,907.873639056669,496.075251798561,618.470053475936,349.388920863309,507.392245989305,1134.24460431655,681.502673796792,0.669902912621359
1163.6736,1.26637907973129,-0.236022135464681,0.72934953541087,-2.60357909772621,-0.497537785085391,-0.497537785086483,,-1.2964088381645,-1.74310944656781,-0.882719678121921,-0.751742186446936,-0.882719678120874,-1.65809738386985,-1.65546702686197,,1.88942650569044,3.91849542044473,2.78134344162551,2.30612188696633,0.139199614096706,2.30612188696635,-1.1371702121277,-0.109931349148423,-0.894346105134398,-0.426903243835767,-1.35555887315547,,,-1.66244031489592,1.04566200097385,-0.922182404871415,0.593638172117591,-0.45578615136636,0.431559463225655,-0.68523446123827,-0.02603803542144,3.15704278056309,2.10145726128123,2.10145726127951,,-1.86054135936596,,-0.421166907181283,-1.72668006664917,-1.29438696202218,-0.359889946439459,-0.440101570775422,-0.440101570779662,-0.553623012633655,0.553623012635007,1.3564594318107,9.01120000000014,102,441.402792541054,472.988828020629,927.835035431862,422.641254055579,460.164331026528,434.248547044717,511.72910899654,1146.10057836084,709.569492502884,0
1163.776,1.24402818170665,-0.166110388855469,0.751974563578081,-2.66264987120839,-0.464342214704565,-0.464342214705641,,-1.16232538740467,-1.62004832439524,-0.871113489538565,-0.668724358284681,-0.871113489537522,-1.68679412900843,-1.70398196085523,,1.85331505022979,3.85705092881941,2.73278210712576,2.24650058730838,0.200227795885504,2.24650058730842,-1.04161964377386,-0.0834207026349622,-0.810185891872109,-0.368154790932979,-1.37059932821068,,,-1.67706733606175,1.06909955690894,-0.88366856163085,0.566955155478692,-0.439458891316308,0.515137749634415,-0.718522993821854,0.0260091100502557,3.09099611705795,2.03341059120125,2.03341059119953,,-1.82030528283025,,-0.41266312096948,-1.73945215375451,-1.29177903840412,-0.442348923949209,-0.3464069396217,-0.34640693962591,-0.541741870631324,0.541741870632695,1.38032154234663,9.11360000000013,103,442.267961165049,535.467475728155,899.461165048544,458.13786407767,426.398058252427,537.952427184466,532.982524271845,1065.42718446602,733.495145631068,0
1163.8784,1.21895064247009,-0.095851560108898,0.772942249366635,-2.7182572192373,-0.428759493060978,-0.428759493062043,,-1.02810926820587,-1.49722243016241,-0.855247072504114,-0.58103406423952,-0.855247072503078,-1.71326180324447,-1.75070740465555,,1.81368176377933,3.78760861977734,2.67879924791374,2.18291320130943,0.26197744831134,2.18291320130949,-0.944422157017239,-0.0557464840377236,-0.724206385211701,-0.305499594540737,-1.38428698264773,,,-1.69061190601282,1.09267336564025,-0.84286088788668,0.538939948710355,-0.421791023097587,0.597370023274302,-0.751840143605874,0.0768937590292787,3.0223433662096,1.96235262420702,1.9623526242053,,-1.77747007435989,,-0.403145777657645,-1.75141983958785,-1.2877111314371,-0.526008273619021,-0.25103320337927,-0.251033203383452,-0.52888975141245,0.528889751413838,1.40289607519858,9.21600000000012,102,440.878921568627,538.100490196079,826.78431372549,455.53431372549,426.223529411765,542.7,533.500980392157,982.176470588235,671.392156862745,0
1163.9808,1.19114284430812,-0.0253730907124844,0.792181336921578,-2.77023692448322,-0.390754628076091,-0.39075462807714,,-0.894002625168982,-1.37486826112582,-0.835296749808097,-0.488966783476565,-0.835296749807071,-1.73756794718019,-1.79552451128887,,1.77065888789005,3.71051054643858,2.61961270637167,2.1155414822264,0.324389240803059,2.11554148222648,-0.845985532494263,-0.0270402259203232,-0.636776352285229,-0.239118533698023,-1.39657067907362,,,-1.70306063075775,1.11635593533639,-0.799895893379446,0.509706367755213,-0.402812855981647,0.678028389841507,-0.785074219423635,0.126486008407088,2.95121790539287,1.88855234267563,1.88855234267392,,-1.73217543072059,,-0.392640422450312,-1.76256051420158,-1.28219885768847,-0.610733764637737,-0.154232757709001,-0.154232757713154,-0.515100798001097,0.515100798002503,1.4241712215943,9.31840000000011,102,440.763235294118,524.457843137255,694.343137254902,447.386274509804,434.140196078431,536.233333333333,512.682352941177,831.088235294118,557.598039215686,0
1164.0832,1.16061781196021,0.0452002717371276,0.809633284508944,-2.81843740537409,-0.350307455881298,-0.35030745588233,,-0.760244203953699,-1.25321287203307,-0.811457852164807,-0.392836495507949,-0.81145785216379,-1.75978911891045,-1.83831819672678,,1.72438917571176,3.62612577166569,2.55545757940635,2.04458023743098,0.387401367185988,2.04458023743108,-0.746722514558079,0.00256156995733661,-0.548270806433335,-0.169209566142667,-1.40740906542635,,,-1.71440359576225,1.14011957196367,-0.754920212937846,0.479374367985987,-0.38256024562417,0.756886742603361,-0.818119471293227,0.17465406543292,2.87775439111486,1.81228099296496,1.81228099296326,,-1.68456765149909,,-0.381177742392521,-1.77285535582483,-1.27526509579945,-0.696386372272335,-0.0562571822191151,-0.0562571822232391,-0.500410161058767,0.50041016106019,1.44413470099054,9.4208000000001,103,697.833980582524,472.328640776699,605.854368932039,687.25145631068,708.416504854369,490.894174757282,453.763106796117,729.398058252427,482.31067961165,0
1164.1856,1.12740513951014,0.115746761006426,0.825252370265368,-2.86271996385806,-0.307412856964602,-0.307412856965618,,-0.627068796766868,-1.13247340278735,-0.783942863871551,-0.292973797426767,-0.783942863870544,-1.78000974405922,-1.87897673836103,,1.67502427641527,3.53484724195314,2.48658391695122,1.9702357712051,0.45094942320417,1.97023577120521,-0.647048584790848,0.0329183748539053,-0.45906887683144,-0.095986541944358,-1.41677071835685,,,-1.72463422301932,1.16393637521062,-0.708089709791568,0.448069269164404,-0.361074434256325,0.83372190466811,-0.850876595561241,0.221264930225891,2.80208835154499,1.73381031728004,1.73381031727834,,-1.63479854229258,,-0.368793396991517,-1.78228923853987,-1.26693976329741,-0.782822594084033,0.0426442674396599,0.0426442674355718,-0.484853774256017,0.48485377425746,1.46277385733618,9.52320000000009,102,787.80931372549,464.181862745098,566.176470588235,785.138235294118,790.480392156863,488.224509803922,440.139215686275,688.039215686275,444.313725490196,0
1164.288,1.09155082101993,0.186147891826693,0.839005739372662,-2.90295897340517,-0.262080820753467,-0.262080820754475,,-0.494706663464295,-1.01285666594926,-0.752979523137356,-0.189724002424186,-0.752979523136359,-1.7983209161572,-1.9173914090585,,1.6227232420568,3.43708865033074,2.41325451015087,1.89272436593654,0.514966339936095,1.89272436593668,-0.547379615890738,0.0638866733201298,-0.369551538904378,-0.019677873131406,-1.42463406957783,,,-1.73374912288881,1.18777822899352,-0.65956850854661,0.415920936773745,-0.338401853745266,0.908314831116512,-0.883253073192233,0.266185225071003,2.72435585083484,1.653410987359,1.65341098735729,,-1.58302439053142,,-0.355527774052704,-1.79085056037291,-1.25725947568993,-0.869894889277813,0.142225983818835,0.142225983814779,-0.468468202062278,0.468468202063738,1.4800757879171,9.62560000000008,103,813.451356783963,462.89753664373,565.450886408461,805.34164644013,821.561067127797,488.300340173581,437.49473311388,696.693972491909,434.207800325014,0
1164.3904,1.05311710550376,0.256288772589692,0.850873474769586,-2.93904208651665,-0.214336449754249,-0.214336449755247,,-0.363382958609463,-0.894558812228889,-0.718808940477611,-0.0834452810165535,-0.718808940476626,-1.81481917992663,-1.95345615775301,,1.56765122086709,3.33328137368875,2.3357428472502,1.81227086506546,0.579382386584426,1.81227086506562,-0.448129426873754,0.0953210720815849,-0.280099236307883,0.0594749094768249,-1.43098714689583,,,-1.74174794751657,1.21161678383042,-0.609528004589739,0.383062954385047,-0.314593908112975,0.980451879999916,-0.9151633443831,0.30928217634049,2.64469319752566,1.57135119033495,1.57135119033325,,-1.52940503603168,,-0.341425706973039,-1.7985310013465,-1.24626713055598,-0.957452196908996,0.242247189454569,0.242247189450545,-0.451290562066244,0.451290562067721,1.49602749597641,9.72800000000007,102,861.51155445279,465.884510949083,589.084696888412,845.084375,877.93873390558,482.470738636364,449.298283261803,745.71875,432.450643776824,0.970588235294118
1164.4928,1.01218245597271,0.326058414465748,0.860848736342258,-2.97087051347943,-0.164219971996404,-0.164219971997392,,-0.233317185634304,-0.77776508538204,-0.681683773409169,0.025493125720793,-0.681683773408197,-1.82960533737019,-1.98706734995743,,1.50997837455536,3.22387154403092,2.25433128621497,1.72910739146823,0.644125241295087,1.7291073914684,-0.349707269609464,0.127075435844845,-0.19108943832215,0.14121867991044,-1.43582716102329,,,-1.74863324792154,1.23542342525936,-0.558145887604068,0.349631812563033,-0.289706752348742,1.04992612642432,-0.946528837708416,0.350424716634971,2.56323666919336,1.48789532110607,1.48789532110438,,-1.47410304169727,,-0.326536183886282,-1.80532521915845,-1.234011452288,-1.04534047366991,0.342473007990525,0.342473007986542,-0.433358510629921,0.433358510631411,1.51061606684962,9.83040000000005,102,909.452192864807,468.769843079399,612.646660407725,884.821875,934.082510729614,476.771875,460.767811158798,794.59375,430.699570815451,1
1164.5952,0.968841645629186,0.395350026474829,0.868937985320423,-2.99835939043991,-0.111786790788284,-0.11178679078926,,-0.104722676222029,-0.662649662455588,-0.641866455560439,0.136712625022985,-0.64186645555948,-1.84278330738225,-2.0181235750593,,1.44987902668742,3.10931728432917,2.16930945995657,1.64347220529987,0.709120118613342,1.64347220530006,-0.252515275943797,0.159004019051295,-0.102894170350846,0.22529029310527,-1.43915997122108,,,-1.75441033476488,1.25916922402756,-0.505605203221455,0.315766127013384,-0.263801083349855,1.11653867822056,-0.977277870873353,0.389484662003299,2.48012224233212,1.40330276254785,1.40330276254617,,-1.41728295607581,,-0.310912069151927,-1.81123048647979,-1.22054652094164,-1.13340320535173,0.442675453506265,0.442675453502311,-0.414710280587871,0.414710280589376,1.52382887310344,9.93280000000004,103,957.627834406295,471.669318994668,636.324123748212,924.754166666667,990.501502145923,471.045075757576,472.29356223176,843.708333333333,428.93991416309,1
1164.6976,0.923205957738676,0.464061294452628,0.875161270122342,-3.0214382182926,-0.0571075479873188,-0.0571075479882789,,0.0221939232403534,-0.549375562701945,-0.599627439754935,0.249826961353983,-0.599627439753993,-1.85445904325618,-2.04652551936664,,1.38753101102819,2.9900860981748,2.0809728867268,1.55560867580105,0.77428993731396,1.55560867580127,-0.156945887023544,0.190962586428404,-0.0158775371652714,0.311418195149935,-1.44099945878232,,,-1.75908714056366,1.28282487097479,-0.452093452893295,0.281605884667721,-0.236941944973803,1.1800999585196,-1.00734543979528,0.426337925109974,2.3954853313068,1.31782674255293,1.31782674255127,,-1.35911064443067,,-0.294609844731819,-1.81624628981717,-1.20593130295421,-1.22148187858382,0.542634358815021,0.542634358811106,-0.39538475857723,0.395384758578748,1.53565381479856,10.0352,102,1000.48312334322,460.995726240408,666.693142251536,964.686458333333,1036.27978835311,465.318276515152,456.673175965665,892.822916666667,440.563367836405,0.254901960784314
1164.8,0.875403358735021,0.532094628933977,0.879552477308381,-3.04005131102848,-0.000268123050047889,-0.000268123050995267,,0.147233173083989,-0.438094609244286,-0.555243405391517,0.364443938440198,-0.555243405390591,-1.86473950038585,-2.07217591542125,,1.32311514121761,2.86665235543768,1.98962170592362,1.46576431331805,0.839555509670128,1.46576431331829,-0.0633792951989198,0.222809520783118,0.0696067379370057,0.399324055995626,-1.44136683596816,,,-1.76267407840531,1.30636060694902,-0.397801700758096,0.247291701962026,-0.209198525533241,1.24043092925821,-1.03667292212806,0.460865727238155,2.30946054506108,1.23171325482351,1.23171325482185,,-1.29975265522118,,-0.277689362143812,-1.82037393645622,-1.19022919694402,-1.30941643387989,0.642138231855597,0.642138231851713,-0.375421581161956,0.375421581163484,1.54607959560276,10.1376,103,1009.90837378641,437.131851279788,703.544902912621,1006.49053398058,1013.32621359223,494.805450132392,379.458252427184,893.847087378641,513.242718446602,0
1164.9024,0.825578453319692,0.599357333927031,0.882159392327531,-3.05415816865767,0.0586305210746433,0.0586305210737205,,0.270203370629217,-0.328947434845847,-0.508995405145639,0.480167231874914,-0.508995405144734,-1.87373165775381,-2.09497959986468,,1.25681469555828,2.73949480003938,1.89555943298819,1.37418980015757,0.904835733349473,1.37418980015782,0.0278190439718481,0.254406896667848,0.153217704569886,0.488724409926674,-1.4402899174923,,,-1.76518389115129,1.32974616094504,-0.342923639469525,0.212964069935493,-0.180643916042187,1.29736423111761,-1.06520772919762,0.492955768763902,2.22218147117699,1.14520005052911,1.14520005052745,,-1.23937559633501,,-0.260213585747319,-1.82361621877551,-1.1735075987566,-1.39704573755008,0.74098499195823,0.740984991954386,-0.354861222736534,0.354861222738073,1.55509602418103,10.24,102,1019.0637254902,470.562254901961,753,1030.11470588235,1008.01274509804,547.692156862745,393.432352941176,931.156862745098,574.843137254902,0
1165.0048,0.773892074649181,0.66576163233996,0.883043435982577,-3.06373370834712,0.119472691979697,0.119472691978797,,0.390921080094147,-0.222063525043291,-0.461166961106984,0.596598309601965,-0.461166961106099,-1.88154160645954,-2.11484370620549,,1.18881483555945,2.60909404383306,1.79909165900106,1.28113798272611,0.970047774575653,1.28113798272639,0.116300755158388,0.285621483502159,0.234629433488893,0.579332282966993,-1.43780237604098,,,-1.76663148792863,1.35295070423208,-0.287654585967939,0.178762568359533,-0.151354813598472,1.35074522028176,-1.09290293326696,0.522503325944191,2.1337804968131,1.05851573416776,1.05851573416611,,-1.1781455126666,,-0.24224831587865,-1.82597715603831,-1.15583748365004,-1.48420809835255,0.83898253541108,0.838982535407269,-0.333745053927579,0.333745053929129,1.56269432196689,10.3424,102,1020.40441176471,480.140196078431,781.333333333333,1030.12941176471,1010.67941176471,554.690196078431,405.590196078431,957.5,605.166666666667,0
1165.1072,0.720520470673607,0.73122451630874,0.882279033127475,-3.06876832736632,0.182128525213069,0.182128525212194,,0.509211652696776,-0.117561286154367,-0.412042149693475,0.713338428937102,-0.412042149692609,-1.88827371443907,-2.13167798218,,1.1193019395117,2.47593007131089,1.70052468913766,1.18686282349488,1.03510724416952,1.18686282349517,0.201736681639054,0.316325652679093,0.313533063797423,0.670858788615212,-1.43394299513701,,,-1.76703376945683,1.37594281835976,-0.232190420951101,0.144825054108991,-0.121411181919806,1.40043289220329,-1.11971688122812,0.549412259291812,2.04438867162214,0.971878994271079,0.971878994269433,,-1.11622726819384,,-0.223861895546034,-1.82746180012091,-1.13729300282102,-1.57074183194,0.93594911347373,0.935949113469962,-0.312115364587518,0.312115364589077,1.56886742177825,10.4448,103,984.373300970874,477.86359223301,722.97572815534,990.456310679612,978.290291262136,553.317475728155,402.409708737864,888.320388349515,557.631067961165,0
1165.2096,0.665654134920935,0.795667449728306,0.879952661012065,-3.06926780055936,0.246454733881002,0.24645473388015,,0.624909735210221,-0.0155481190300751,-0.361903735104697,0.829990648547839,-0.361903735103852,-1.89402987012562,-2.14539519556242,,1.04846288404314,2.34047981345395,1.60016416506301,1.09161833509499,1.09992837700983,1.0916183350953,0.283818790862417,0.346398185029245,0.38963862680139,0.763014683679147,-1.42875493060428,,,-1.76640944522254,1.39869047417473,-0.176726511816676,0.111286843872376,-0.0908958965785547,1.44630068525892,-1.14561279739127,0.573595925942886,1.95413561066193,0.885497978242206,0.885497978240568,,-1.05378394205001,,-0.205124909133664,-1.82807607765045,-1.11795108953517,-1.65648586468897,1.03171353778091,1.03171353777719,-0.290015357943777,0.290015357945346,1.57361025172367,10.5472,102,878.441666666667,465.148039215686,681.558823529412,889.728431372549,867.154901960784,535.643137254902,394.652941176471,837.313725490196,525.803921568627,0
1165.312,0.609496371515889,0.85901598968095,0.876161674031354,-3.06525302694677,0.312295533052619,0.312295533051785,,0.737859772080888,0.0838795185308939,-0.311031413338549,0.946161790217742,-0.311031413337724,-1.89890880458768,-2.15591159358438,,0.976484320140798,2.20321484452105,1.49831372512764,0.995657525088347,1.16442422439714,0.99565752508868,0.362261846920453,0.375724989808168,0.462676652140189,0.855511883600317,-1.42228499200725,,,-1.76477884389734,1.42116102516238,-0.121456651074513,0.0782799097308243,-0.0598943937133125,1.48823715592275,-1.17055837992482,0.594977986274163,1.86314943234686,0.799569806081153,0.799569806079517,,-0.990976250981873,,-0.186109876191197,-1.82782664877646,-1.09789106831996,-1.74128036659384,1.126115240836,1.12611524083232,-0.267489125476268,0.26748912547785,1.57692000494317,10.6496,102,877.885294117647,467.000980392157,659.053921568627,888.861764705882,866.908823529412,535.880392156863,398.121568627451,810.509803921569,507.598039215686,0
1165.4144,0.552261692324067,0.921199397245231,0.871013009163554,-3.05675964418994,0.37948371264373,0.379483712642915,,0.847916501036446,0.180636062963759,-0.259700206603989,1.06146430391307,-0.259700206603185,-1.9030054880651,-2.16314738801568,,0.903551978467459,2.06459923631127,1.39527374074978,0.899231376171084,1.22850686357031,0.899231376171439,0.436804861662152,0.404199753251978,0.532399574241932,0.948064935979531,-1.41458294931502,,,-1.76216371837054,1.44332121579572,-0.0665720263219014,0.0459321046228145,-0.0284943206343646,1.52614652494549,-1.19452539689778,0.613493100916538,1.77155672808854,0.714280211414402,0.714280211412775,,-0.92796200486036,,-0.166890938181454,-1.8267207783377,-1.07719426289638,-1.82496740047656,1.21900422425907,1.21900422425542,-0.244581611506014,0.244581611507608,1.57879639663987,10.752,103,957.998058252427,466.26359223301,640.718446601942,960.641747572816,955.354368932039,532.196116504854,400.331067961165,787.427184466019,494.009708737864,0
1165.5168,0.494174126806059,0.982150289642605,0.864621854670189,-3.04383753093347,0.44784183141989,0.447841831419094,,0.954945428520467,0.274646795102796,-0.208179018016562,1.17551801773308,-0.208179018015776,-1.90641059569308,-2.16702724133182,,0.829850024487436,1.92508758868234,1.29134015105838,0.802587878274418,1.29208762788359,0.802587878274793,0.507212335989382,0.431724532509367,0.598582955846308,1.04039244371107,-1.40570086531376,,,-1.75858704849713,1.4651371986856,-0.0122602347916807,0.014366436146527,0.00321481968250162,1.55994910434971,-1.2174892849652,0.629087524771616,1.67948256037668,0.629803292370371,0.629803292368757,,-0.864895592114008,,-0.147543534421484,-1.8247662213258,-1.05594359984132,-1.90739157345348,1.3102409302178,1.31024093021419,-0.221338575611235,0.221338575612841,1.57924191173581,10.8544000000002,102,985.557352941176,464.902450980392,631.666666666667,985.190196078431,985.924509803922,525.786274509804,404.01862745098,773.421568627451,489.911764705882,0
1165.6192,0.43546549203446,1.04180436293421,0.857110329935466,-3.02655021357022,0.517183515302742,0.517183515301964,,1.05882326680906,0.365847771683368,-0.156729341982792,1.28795177555661,-0.156729341982026,-1.90921004352219,-2.16748073847437,,0.755560472306615,1.7851232441539,1.18680340526907,0.70597111750456,1.35507736263729,0.705971117504955,0.573275296819747,0.45821029762758,0.661026534029052,1.13221841906183,-1.39569245944197,,,-1.75407284603918,1.48657455784528,0.0412956443937376,-0.0162995983980997,0.0351420300944989,1.58958161371521,-1.23942875519647,0.641719602662507,1.58705048217558,0.546301347469223,0.546301347467628,,-0.801927488564407,,-0.128144063909829,-1.82197112179946,-1.03422320409513,-1.98840068031364,1.39969606675584,1.39969606675227,-0.197806556829203,0.197806556830821,1.57826204957922,10.9568000000002,103,930.943689320388,464.258252427185,649.349514563107,934.745631067961,927.141747572816,522.206796116505,406.309708737864,791.864077669903,506.834951456311,0
1165.7216,0.376373641824885,1.10010019797296,0.848606196126188,-3.00497418829652,0.587314851890245,0.587314851889484,,1.1594383223631,0.454185729216937,-0.105604126673677,1.39840497163952,-0.10560412667293,-1.91148460338243,-2.16444284392929,,0.680862656698897,1.64513668739469,1.08194751266339,0.609620417256013,1.41738670751793,0.60962041725643,0.634812127907442,0.483577408367557,0.719555080496232,1.22327354423285,-1.38461251577884,,,-1.74864596721469,1.50759834293166,0.0939179133588472,-0.0459546108481885,0.0671951839944798,1.61499738657963,-1.26032541867926,0.651360160067288,1.49438256673142,0.463924769958673,0.463924769957096,,-0.73920378865632,,-0.108769530872095,-1.81834392671073,-1.01211798476322,-2.06784633553784,1.48725040322596,1.48725040322244,-0.174032837163236,0.174032837164865,1.57586556833927,11.0592000000001,102,923.721568627451,473.766666666667,682.450980392157,933.522549019608,913.920588235294,524.23431372549,423.299019607843,829.872549019608,535.029411764706,0
1165.824,0.317140707785388,1.15697915115899,0.839241607171044,-2.97919817003301,0.658035864430902,0.658035864430159,,1.25669083252875,0.539617958586596,-0.0550467848256748,1.50652898466886,-0.0550467848249452,-1.91330960134494,-2.15785435236162,,0.605932762214876,1.50554412949441,0.977049199294822,0.513769527791388,1.47892639757988,0.513769527791825,0.69166918888793,0.507756004616474,0.774019060923348,1.31329631807525,-1.37251634870749,,,-1.74233193625814,1.52817311632396,0.145435055925463,-0.0744938557421278,0.0992813947320412,1.63616646631219,-1.28016345017383,0.657992777894097,1.40159943740416,0.382811983734477,0.382811983732919,,-0.676865767590676,,-0.0894971742996129,-1.8138933226789,-0.989713215468609,-2.14558459529117,1.57279453566328,1.5727945356598,-0.150065399153512,0.150065399155152,1.57206471923085,11.1616000000001,103,925.531067961165,468.181067961165,729.330097087379,935.738834951456,915.323300970874,524.16213592233,412.2,884.388349514563,574.271844660194,0
1165.9264,0.25801135711071,1.21238531950994,0.829151912192904,-2.94932228829224,0.729142025939937,0.729142025939211,,1.35049324852674,0.622112150411005,-0.00529034149985,1.61198850272719,-0.00529034149913798,-1.91475468999881,-2.1476623358991,,0.530943414909359,1.36674627873655,0.872377176233193,0.418645870253154,1.53960756964255,0.41864587025361,0.74372121908699,0.530686292851413,0.824295081637834,1.40203408158863,-1.35945933666883,,,-1.73515677679602,1.54826300814313,0.195682485209784,-0.101819707244992,0.131307391309368,1.65307559411543,-1.29892930443616,0.661613945164109,1.30882028956101,0.303089419323077,0.303089419321541,,-0.615049488888425,,-0.0704040861650001,-1.80862820075744,-0.967094116658047,-2.22147656737358,1.65622861569531,1.65622861569187,-0.125952875225697,0.12595287522735,1.56687545008299,11.2640000000001,102,923.89362745098,475.498529411765,754.485294117647,936.777450980392,911.009803921569,522.808823529412,428.188235294118,915.313725490196,593.656862745098,0
1166.0288,0.199231101483821,1.26626555700027,0.818474520199503,-2.91545725626788,0.800425759301422,0.800425759300713,,1.4407704568447,0.701646207807544,0.0434432988700227,1.71446272706263,0.0434432988707173,-1.91588367456394,-2.13382058078224,,0.456063341790243,1.22912729670864,0.768191522843824,0.324469846961632,1.5993420654766,0.324469846962109,0.790871527276539,0.552318722913723,0.870286121520066,1.4892439288927,-1.34549652820306,,,-1.72714684331706,1.56783177791992,0.244503249083956,-0.127842091950395,0.163179897604196,1.66572809260722,-1.31661148747431,0.662233091241273,1.21616289675718,0.224871540899525,0.224871540898005,,-0.553885468833314,,-0.0515668262132831,-1.80255764279014,-0.944345444980671,-2.29538899891983,1.73746204243937,1.73746204243597,-0.101744490463943,0.101744490465606,1.56031755957963,11.3664000000001,102,921.484803921569,476.502941176471,771.838235294118,933.459803921569,909.509803921569,524.107843137255,428.898039215686,935.5,608.176470588235,0
1166.1312,0.141044685623584,1.31856951541344,0.807347831894541,-2.8777235345077,0.871677878337037,0.871677878336351,,1.52745992415554,0.778208017394163,0.0909439813722063,1.81364644782291,0.0909439813728847,-1.91675437613853,-2.11628999846359,,0.381457092906711,1.09305392934757,0.664743177667076,0.231454226356268,1.65804273155999,0.231454226356766,0.83305197291729,0.57261406178494,0.91192155669161,1.57469351557263,-1.33068231324536,,,-1.71832864954137,1.58684288645084,0.291748692724947,-0.152478880831204,0.194806009331229,1.67414364747548,-1.33320037079845,0.659872506587302,1.1237435943095,0.148260938917866,0.148260938916362,,-0.493498398427682,,-0.0330610399761649,-1.79569091973705,-0.921551091957833,-2.36719482636447,1.81641312466667,1.81641312466331,-0.0774900021254379,0.0774900021271142,1.55241479644919,11.4688000000001,103,920.573786407767,485.325242718447,774.533980582524,932.600970873786,908.546601941748,528.134951456311,442.515533980583,938.864077669903,610.203883495146,0
1166.2336,0.0836945699469305,1.36924969215469,0.795910238921234,-2.83625049835967,0.942688950039873,0.942688950039208,,1.61051175287628,0.851795169479414,0.137013833988056,1.90925099082273,0.137013833988719,-1.91741852502473,-2.09503899350227,,0.307284813084176,0.958874791806363,0.562273519766148,0.139803603486514,1.71562372035032,0.139803603487033,0.870222749982303,0.59154337776515,0.949156993148413,1.65816177164929,-1.31507014252819,,,-1.70872869986876,1.60525957518697,0.337279062539212,-0.175656229296259,0.226093562307247,1.67835798952606,-1.34868802904258,0.654567165285417,1.03167723869233,0.073348496777487,0.0733484967759967,,-0.43400691337353,,-0.0149610824211557,-1.78803749991687,-0.89879369345866,-2.43677367152146,1.89300872226371,1.89300872226038,-0.05323963932546,0.0532396393271487,1.54319491168074,11.5712000000001,102,966.39362745098,404.310294117647,754.544117647059,973.023529411765,959.763725490196,443.442156862745,365.178431372549,917.56862745098,591.519607843137,0
1166.336,0.0274195141652433,1.41826148074569,0.784299192841927,-2.79117560931203,1.01325057734585,1.01325057734521,,1.68988864730081,0.922414628426815,0.181467711301011,2.00100503845761,0.181467711301658,-1.91792168305992,-2.07004377578556,,0.233702048262003,0.826919781404338,0.461014020264494,0.0497139309981106,1.77200080054035,0.0497139309986523,0.902371989746263,0.609087948657071,0.981973926496404,1.73943952164023,-1.29871227601893,,,-1.69837333408105,1.62304494538555,0.380964030201969,-0.197308849317329,0.256951484877002,1.67842247932766,-1.36306808126257,0.646364462519146,0.940077147189531,0.000213631144951917,0.000213631143474435,,-0.37552340023852,,0.0026603537635313,-1.77960706706628,-0.876154248884738,-2.50401226999828,1.96718387726968,1.96718387726639,-0.0290440453214691,0.0290440453231704,1.532689677739,11.6736000000001,103,1041.3645631068,281.403883495146,744.834951456311,1052.54951456311,1030.17961165049,316.160194174757,246.647572815534,905.601941747573,584.067961165049,0
1166.4384,-0.0275467307350028,1.46556322812772,0.772650351122391,-2.74264358896192,1.0831566062686,1.08315660626798,,1.76556580312962,0.990082365788458,0.224133556574079,2.0886553326732,0.224133556574712,-1.91830319535373,-2.04128861555504,,0.160859570476954,0.697499598145451,0.361185944882907,-0.0386278869881023,1.82709168420412,-0.038627886987539,0.929515200639573,0.625239104767737,1.01037924775223,1.81833001431966,-1.28165954362665,,,-1.6872885921897,1.64016203807764,0.422683123115662,-0.217380203614968,0.28729012944312,1.67440360013857,-1.37633552056362,0.635323880659374,0.849055023227088,-0.0710753991687726,-0.0710753991702321,,-0.318153831484823,,0.0197326080580731,-1.77040954069889,-0.853711743405018,-2.56880482513339,2.03888145025508,2.03888145025184,-0.00495422332345555,0.00495422332516819,1.52093488352206,11.7760000000001,102,1039.3681372549,286.256862745098,782.882352941177,1054.75,1023.9862745098,321.571568627451,250.942156862745,955.725490196079,610.039215686275,0
1166.5408,-0.0809766163600685,1.51111630462671,0.761096807182984,-2.69080559612651,1.15220425923491,1.1522042592343,,1.83753073577866,1.05482297037233,0.264852690968886,2.17196727056685,0.264852690969505,-1.91859617434965,-2.00876605004286,,0.0889032068741873,0.570905361234919,0.263000092365814,-0.125044344589893,1.88081637390671,-0.125044344589312,0.951694560730196,0.639998012910774,1.03440460988995,1.89464936341343,-1.26396110520995,,,-1.67550010235098,1.65657392793815,0.462326062004655,-0.235822621087914,0.317021585283633,1.66638237178234,-1.38848652710593,0.621516597588279,0.758720869888872,-0.140461121129371,-0.140461121130816,,-0.261997629031835,,0.0361874231331237,-1.76045508993739,-0.831542765779283,-2.63105329010213,2.10805177608988,2.10805177608666,0.0189785160552787,-0.0189785160535542,1.50797030216753,11.8784000000001,102,1034.29558823529,282.275980392157,839.990196078431,1050.22352941176,1018.36764705882,313.03137254902,251.520588235294,1021.42156862745,658.558823529412,0
1166.6432,-0.132649879995675,1.55488518847774,0.749768403260864,-2.63581840520165,1.22019519489662,1.22019519489601,,1.90578305644723,1.11666924134215,0.303480033248405,2.25072539867586,0.30348003324901,-1.91882752438661,-1.97247705706816,,0.0179736626290151,0.447408315433256,0.166656558970465,-0.209367631927012,1.93309752397284,-0.209367631926411,0.968978071696933,0.653375399948243,1.05410566089536,1.96822689464961,-1.24566420748755,,,-1.66303299162787,1.67224384203891,0.499793013560253,-0.252597338847478,0.346059976186362,1.65445369788069,-1.39951827461516,0.605025042009949,0.669182893133333,-0.207896417869207,-0.207896417870637,,-0.207147561295961,,0.0519593147869804,-1.74975414030887,-0.80972112384368,-2.69066758369291,2.17465234045883,2.17465234045565,0.042702612128688,-0.0427026121269513,1.49383962181753,11.9808,103,1007.08980582524,228.73932038835,898.009708737864,1021.63203883495,992.547572815534,250.178640776699,207.3,1096.16504854369,699.854368932039,0
1166.7456,-0.182354530751188,1.59683756154998,0.738791114907218,-2.57784357853512,1.28693649509995,1.28693649509936,,1.97033419755293,1.17566176246818,0.339884246382656,2.32473380432017,0.339884246383249,-1.91901801608799,-1.93243120899912,,-0.0517936686100967,0.32725962464391,0.0723445232529682,-0.29143988517863,1.98386080390831,-0.291439885178012,0.981458575337532,0.665391208955845,1.06956114048703,2.03890539406575,-1.22681394680791,,,-1.64991181468787,1.68713529949683,0.534994761401476,-0.267674476418609,0.374321739557997,1.63872565191199,-1.40942874733249,0.585942390679232,0.58054739719418,-0.273344049331952,-0.273344049333369,,-0.153689677368811,,0.0669859297846514,-1.73831737725201,-0.788317471056743,-2.74756574037744,2.23864747182741,2.23864747182425,0.0661663217855627,-0.0661663217838143,1.47859033056707,12.0832,102,1000.20294117647,231.579411764706,929.764705882353,1012.93529411765,987.470588235294,248.310784313726,214.848039215686,1132.37254901961,727.156862745098,0
