time,S1-D1,S1-D8,S1-D9,S1-D15,S2-D1,S2-D2,S2-D3,S2-D9,S3-D1,S3-D2,S3-D16,S4-D2,S4-D3,S4-D5,S5-D3,S5-D4,S5-D5,S6-D2,S6-D5,S6-D17,S7-D6,S7-D7,S8-D6,S8-D7,S8-D18,S9-D3,S9-D4,S9-D9,S9-D11,S9-D19,S10-D8,S10-D9,S10-D10,S10-D11,S11-D8,S11-D10,S11-D20,S12-D10,S12-D11,S12-D12,S13-D4,S13-D11,S13-D12,S14-D10,S14-D12,S14-D21,S15-D13,S15-D14,S16-D13,S16-D14,S16-D22,t_rel_s,eye_n,xp,yp,ps,xpl_i,xpr_i,ypl_i,ypr_i,psl_i,psr_i,blink_prop
796.0576,-0.145648962949395,0.260201697906259,0.0106269745048785,-0.417867743268679,0.0170010544405652,0.0170010544406079,-1.57873079928256,0.418114493409402,-1.30579544371509,-1.66818242293269,0.804516251219976,-1.66818242293072,-0.927865410402179,-0.585941129969642,-1.01572182425257,-0.719034591158399,-0.981660785688041,-1.74238297633127,-0.225163292669482,1.15907290861441,-0.225163292667024,-2.25331827635121,-0.485861931878025,-2.38970132094111,0.481045875557022,-1.49331489566051,-1.49331489566152,0.22361661520773,-0.223616615209939,-0.873989533459548,-1.56897830912052,-1.45632643356398,-1.6583409649589,-0.813876880802863,0.647252929303332,-0.418887700355239,0.0364252091632363,-1.39803834239596,-1.39803834239641,0.547008968030572,-0.493981909183655,0.159248437158099,0.56901146504312,0.309628029503725,1.07502318616813,0.873222417208993,-0.600630328157991,-0.600630328157002,0.648667276795174,-0.64866727679662,-0.960772225739733,0,103,903.370388349515,535.245631067961,1430.13106796117,914.127184466019,892.61359223301,529.861165048544,540.630097087379,1490.02912621359,1370.23300970874,0
796.16,-0.154050218824862,0.311257858334273,0.0286881115098135,-0.41522274560586,0.0255370071646499,0.025537007164696,-1.56932022408416,0.442284842787008,-1.28243753523083,-1.6764406790232,0.854268577293317,-1.67644067902125,-0.907613637866937,-0.632711510849658,-1.02288447859959,-0.724734609812516,-0.986199245592557,-1.75313570740055,-0.205513924132866,1.15612178170601,-0.20551392413041,-2.2279296640459,-0.450312221684022,-2.34448554399771,0.543473288984507,-1.49464690487008,-1.49464690487109,0.193340360872169,-0.19334036087436,-0.836591543830185,-1.53678330170448,-1.45417426739738,-1.6322754620802,-0.841205368595488,0.618793338712133,-0.4580816911941,0.0457183441465565,-1.44389986575078,-1.44389986575122,0.577134722786587,-0.506408609618427,0.184961240273254,0.512123603964115,0.303747358811782,0.993786587014667,0.854939353928466,-0.6242526822763,-0.624252682275293,0.613716815756493,-0.613716815757939,-0.975444963074489,0.102399999999989,102,906.600980392157,535.014215686275,1407.12745098039,919.736274509804,893.46568627451,531.875490196078,538.152941176471,1471.17647058824,1343.07843137255,0
796.2624,-0.16397357495138,0.361100921432745,0.0449569224173381,-0.415690854876291,0.0327517635580832,0.0327517635581337,-1.56020059362966,0.465559072448816,-1.25988872493636,-1.68594912282676,0.903364221814978,-1.68594912282482,-0.887306597244859,-0.682929489614823,-1.03170170820194,-0.726951894178448,-0.990611555369816,-1.75981536744152,-0.187135601040159,1.15480207683118,-0.187135601037706,-2.20279070451828,-0.414164071793975,-2.29913784886533,0.60390106262562,-1.49667596968612,-1.49667596968711,0.16811389024143,-0.168113890243605,-0.79893238437117,-1.50513413891984,-1.45173569636597,-1.6065591613802,-0.865636568388049,0.585354440835584,-0.49712379111045,0.0538260324220815,-1.48920753899068,-1.48920753899111,0.603761488668377,-0.518940309743578,0.205912599619656,0.452575767959068,0.301268949977975,0.912599693094715,0.835959579866578,-0.646614845363311,-0.64661484536228,0.579146783309932,-0.579146783311381,-0.988536882466897,0.204799999999977,103,908.955339805825,531.267961165049,1381.0145631068,924.07572815534,893.834951456311,525.515533980583,537.020388349515,1451.47572815534,1310.55339805825,0
796.3648,-0.175426014861645,0.409598435606973,0.0593637667473801,-0.419375827436317,0.038581713973144,0.0385817139732011,-1.55133968735316,0.487919376302797,-1.23812777905389,-1.69664274217179,0.951756984090187,-1.69664274216985,-0.866874247068858,-0.736407416736954,-1.04202620809456,-0.725735242455875,-0.994920264204897,-1.76249863024703,-0.169932839262935,1.15513023038904,-0.169932839260485,-2.17796569917763,-0.377497189841344,-2.25376647153103,0.66219618655321,-1.49949461463903,-1.49949461464002,0.147964282905068,-0.147964282907231,-0.761021049145441,-1.47407892532453,-1.44898379916237,-1.58122235491965,-0.887215508645577,0.546969271206995,-0.536038564361912,0.0606892239630988,-1.53392729716747,-1.53392729716787,0.626978278541966,-0.53154298702376,0.222259585971405,0.390501718938678,0.302065988331933,0.831506337736139,0.816297583329555,-0.667867918875585,-0.667867918874536,0.54506060642521,-0.545060606426661,-0.999993712266834,0.307199999999966,102,912.245098039216,527.651470588235,1361.9068627451,927.453921568627,897.036274509804,521.154901960784,534.148039215686,1434.40196078431,1289.41176470588,0
796.4672,-0.188408115714467,0.456623083848613,0.071846561677048,-0.4263688033514,0.0429686755445757,0.0429686755446363,-1.54270397766514,0.509351803220693,-1.21712992877646,-1.70844973532922,0.999404058717629,-1.70844973532729,-0.846247918956244,-0.792940283096586,-1.05370320005183,-0.721147137661583,-0.999149480361893,-1.76127917719532,-0.153805075409188,1.15711458280774,-0.153805075406742,-2.15351740385598,-0.340393718191568,-2.20847969222532,0.718233069505949,-1.50319132168995,-1.50319132169093,0.132896405724113,-0.132896405726272,-0.722866003008118,-1.44365985449096,-1.4458911645196,-1.55629052191841,-0.906001017714044,0.50369355547612,-0.574851812567313,0.0662544426074459,-1.5780263593023,-1.57802635930268,0.646887096328384,-0.544182009731333,0.23417719986766,0.32604667343808,0.305993475140823,0.750546443042738,0.795967810064869,-0.688172976298173,-0.688172976297107,0.511559858513066,-0.51155985851452,-1.00976883176831,0.409600000000069,103,917.526699029126,530.139805825243,1360.28640776699,932.066990291262,902.98640776699,526.039805825243,534.239805825243,1428.41747572816,1292.15533980583,0
796.5696,-0.202913656153366,0.502053477217919,0.0823514765971936,-0.436747211703883,0.0458604267848285,0.0458604267848952,-1.53425862598152,0.529846345954534,-1.19686681443113,-1.72129127457761,1.0462664132447,-1.72129127457569,-0.825360894368245,-0.852306313377825,-1.0665711768235,-0.713263614110999,-1.00332482553261,-1.7562675025972,-0.1386475020019,1.16075477494122,-0.13864750199946,-2.12950633870238,-0.302938156145059,-2.16338514672892,0.771893915092379,-1.50784974225061,-1.50784974225158,0.122892183767958,-0.122892183770112,-0.684475158532758,-1.41391292231207,-1.44243028523202,-1.5317842152931,-0.92206568375649,0.455606247488026,-0.613590268753635,0.0704742836091797,-1.62147318793011,-1.62147318793047,0.663602838694675,-0.556822217988003,0.241858148308264,0.259367283054691,0.312888410616383,0.669756185590379,0.774984474949067,-0.707699909112843,-0.707699909111765,0.478743533975811,-0.478743533977271,-1.01782422913243,0.512000000000057,102,916.159792013972,548.170488013019,1385.31354687624,941.572473604826,890.747110423117,540.789969834088,555.551006191951,1454.94494720965,1315.68214654283,0
796.672,-0.218929266570387,0.54577492901347,0.0908335847461045,-0.450573729260711,0.0472112218825266,0.0472112218825985,-1.52596746067863,0.549396996302118,-1.17730643161138,-1.73508127789548,1.09230915722199,-1.73508127789357,-0.804148992304349,-0.914267668011573,-1.08046270839845,-0.702174052239394,-1.00747337662294,-1.74759062583437,-0.124351920874309,1.16604119685938,-0.124351920871877,-2.10599010405662,-0.265217264438478,-2.11858913247139,0.823069102215887,-1.51354791850737,-1.51354791850834,0.117909995991513,-0.117909995993666,-0.645855865858803,-1.38486766061571,-1.43857396876001,-1.50771896900889,-0.935495701077046,0.402809936417682,-0.652281253250604,0.0733078774448127,-1.66423747205985,-1.66423747206019,0.677253134005592,-0.569428021761159,0.245512518794642,0.190631553843334,0.322570122003178,0.589168233382793,0.753361422073861,-0.726626153022774,-0.726626153021682,0.446707321877133,-0.446707321878599,-1.02413143089146,0.614400000000046,102,911.265601503759,587.735181704261,1434.07330827068,931.364285714286,891.166917293233,579.140476190476,596.329887218045,1510.5,1357.64661654135,0.215686274509804
796.7744,-0.236434126256934,0.587680188846436,0.0972574583121233,-0.467895312473495,0.0469822729012994,0.0469822729013765,-1.51779293852071,0.568001758108701,-1.15841308571136,-1.74972619697184,1.13750189006825,-1.74972619696993,-0.782551168634367,-0.978571267128134,-1.0952053174766,-0.687980890659183,-1.01162360729427,-1.73539170930189,-0.110807616485704,1.17295450758227,-0.110807616483279,-2.08302272903312,-0.22731995678751,-2.07419593714977,0.87165756877178,-1.52035752725138,-1.52035752725234,0.117884227425867,-0.117884227428018,-0.60701492113706,-1.35654689742734,-1.43429576167571,-1.48410523046922,-0.946390587406331,0.345431086094481,-0.690952295807632,0.0747213036367459,-1.70629014113239,-1.7062901411327,0.687978091680115,-0.581963517076623,0.245367313647882,0.120018692161649,0.334840761864253,0.508812063843741,0.731112050605266,-0.745135290258317,-0.745135290257216,0.415542882937417,-0.41554288293889,-1.02867236874753,0.716800000000035,103,906.425159051475,614.168898207056,1504.23452862927,919.987912087912,892.862406015038,614.320879120879,614.016917293233,1581.46153846154,1427.00751879699,0.485436893203884
796.8768,-0.255399705115621,0.627670112992205,0.101597697410479,-0.488742322937929,0.0451421843093784,0.0451421843094625,-1.50969609163894,0.585662610820158,-1.14014736115841,-1.76512483955837,1.18181901555437,-1.76512483955646,-0.760510116760189,-1.044949754214,-1.11062242478485,-0.670799243652872,-1.01580535139527,-1.71982958963844,-0.0979022492146192,1.18146523828334,-0.0979022492122041,-2.06065407309938,-0.189337189170236,-2.03030721522585,0.917567194066106,-1.52834316509776,-1.5283431650987,0.122725007695468,-0.122725007697621,-0.567958590634424,-1.3289665583133,-1.42957038720932,-1.4609483291382,-0.954862763086187,0.283620066145973,-0.729630735872023,0.0746879389676778,-1.74760341361856,-1.74760341361885,0.695929942538518,-0.594392613153208,0.241665827215415,0.0477188698811888,0.349485987810318,0.428714365263966,0.708249316743118,-0.763415535368824,-0.763415535367713,0.385337137395725,-0.385337137397206,-1.03144015142147,0.819200000000024,102,902.105083126368,631.81715856383,1572.94004241373,909.650937297996,894.55922895474,637.752391725921,625.88192540174,1652.89291101056,1492.9871738169,0
796.9792,-0.275789545014943,0.665654246953213,0.103839385179506,-0.513127764532779,0.0416673236267351,0.0416673236268254,-1.50163646183403,0.602385416301033,-1.12246611133987,-1.7811682500114,1.22524001275046,-1.7811682500095,-0.737972854640871,-1.11312262099023,-1.12653436310538,-0.650756413126818,-1.02004980594121,-1.70107822644107,-0.0855227668408619,1.19153347996617,-0.0855227668384561,-2.03892929290515,-0.151361861500698,-1.98702143260236,0.96071517099996,-1.53756169798475,-1.53756169798568,0.13231816302239,-0.132318163024549,-0.528692639686399,-1.30213552449879,-1.424374197188,-1.43824849417162,-0.961036991875304,0.217550935029054,-0.76834332076564,0.0731887279293044,-1.78815087855572,-1.78815087855599,0.701272564664659,-0.606679168492376,0.234666860958471,-0.0260671019422236,0.36627583498908,0.348899519151028,0.68478581365004,-0.781658118327155,-0.781658118326039,0.356171575896745,-0.356171575898233,-1.03243971610737,0.921600000000012,103,902.923786407767,628.82572815534,1622.03883495146,903.463106796117,902.384466019418,636.07572815534,621.57572815534,1703.30097087379,1540.77669902913,0
797.0816,-0.297559077854196,0.701551297115181,0.103978460128361,-0.54104664645807,0.0365421125181422,0.0365421125182406,-1.49357202424901,0.618179761797386,-1.10532247539255,-1.79773966977645,1.26774965578741,-1.79773966977455,-0.714891280674896,-1.18279751051509,-1.14275945467037,-0.627991289384057,-1.02438957785494,-1.6793260660344,-0.0735563290257879,1.20310865313751,-0.0735563290233938,-2.0178883814295,-0.113488745165753,-1.94443339423988,1.00102835458234,-1.54806169895861,-1.54806169895953,0.146525402725756,-0.146525402727923,-0.489222350292776,-1.27605555965916,-1.41868563246244,-1.41600092876585,-0.965049695025075,0.147420939022492,-0.807115830379692,0.0702123690540845,-1.82790760297916,-1.82790760297941,0.704180896591941,-0.618787142147604,0.224643771683071,-0.10112819980192,0.384965785987635,0.269390156653449,0.66073392398979,-0.800055581184529,-0.800055581183408,0.328121609150595,-0.328121609152089,-1.03168834182788,1.024,102,854.805882352941,1268.13578431373,1708.55392156863,819.869607843137,889.742156862745,1266.46568627451,1269.80588235294,1778.21568627451,1638.89215686275,0
797.184,-0.32065548282426,0.735289472474746,0.102021994560892,-0.572475481958169,0.0297592258502372,0.0297592258503453,-1.48545910245952,0.633058736171029,-1.08866592554353,-1.81471458979164,1.3093381762181,-1.81471458978975,-0.691222671258997,-1.25367169581468,-1.15911512929426,-0.602653644130947,-1.0288587659179,-1.65477531610411,-0.0618912332326549,1.21612936544501,-0.0618912332302757,-1.99756578248287,-0.0758144379633534,-1.90263385847266,1.03844357326438,-1.55988299400357,-1.55988299400448,0.165184750744884,-0.165184750747063,-0.449552511534985,-1.25072130910569,-1.41248567279649,-1.39419593870293,-0.967048159356056,0.073449701627753,-0.845972760103612,0.0657554173177777,-1.86685025819917,-1.86685025819939,0.704840231959438,-0.630680761737691,0.211883343357196,-0.177243715307311,0.405298028330358,0.190207778218067,0.636106036834289,-0.818800004315139,-0.818800004314006,0.30125597081542,-0.301255970816918,-1.02921601090774,1.12639999999999,102,864.233823529412,1387.72696078431,1738.93137254902,814.672549019608,913.795098039216,1381.81666666667,1393.63725490196,1797.45098039216,1680.41176470588,0
797.2864,-0.345017590176451,0.766806686364577,0.0979883684099971,-0.607371930762644,0.021319693416253,0.0213196934163699,-1.4772522766004,0.647038644850428,-1.07244234341079,-1.83196089451,1.35000136164704,-1.83196089450812,-0.66693007652526,-1.32543370259987,-1.17541903367008,-0.574903328180317,-1.03349306379382,-1.62764113200771,-0.0504178251645572,1.2305233751748,-0.0504178251621932,-1.97799007970494,-0.0384373322594703,-1.8617092285993,1.07290789600761,-1.57305632545814,-1.57305632545904,0.188111221250311,-0.1881112212525,-0.40968737658901,-1.2261203630596,-1.40575825136062,-1.37281910138769,-0.967189658065895,-0.00412190209526548,-0.884937081826191,0.0598223058061167,-1.90495726232003,-1.90495726232022,0.703445386793573,-0.642324702871176,0.19668447689625,-0.254183881939159,0.427002881968408,0.111373420229654,0.61091481972032,-0.838081179218993,-0.838081179217849,0.275636182769954,-0.275636182771456,-1.02506560387734,1.22879999999998,103,887.588834951456,1460.85097087379,1793.14077669903,818.378640776699,956.799029126214,1449.49708737864,1472.20485436893,1851.80582524272,1734.47572815534,0
797.3888,-0.370575841721466,0.796050620616746,0.091907331570455,-0.645674594021415,0.0112329078913001,0.0112329078914248,-1.46890428892331,0.660138676450856,-1.05659412201261,-1.84933909104235,1.38974058422418,-1.84933909104047,-0.641982567175964,-1.39776502240657,-1.19149006850518,-0.544909392430797,-1.03832986837319,-1.59815072099748,-0.0390293745758042,1.24620768168343,-0.0390293745734578,-1.95918375796636,-0.00145757175187925,-1.82174130483654,1.10437885606619,-1.58760312943659,-1.58760312943747,0.215097728063056,-0.215097728065259,-0.369630594657118,-1.20223336726588,-1.39849061043912,-1.35185145542249,-0.965640490007213,-0.0850331624866535,-0.924030076346561,0.0524252899731422,-1.94220893615748,-1.94220893615765,0.700199746290376,-0.653684279015347,0.179356708143859,-0.331710606217918,0.449800377383027,0.0329083414583238,0.585173535829908,-0.858084749725114,-0.858084749723966,0.251316088150431,-0.251316088151938,-1.01929291232009,1.33119999999997,102,923.934803921569,1196.70931372549,1852.47549019608,841.353921568627,1006.51568627451,1192.38431372549,1201.03431372549,1909.04901960784,1795.90196078431,0
797.4912,-0.397252319975634,0.82297866815407,0.0838199530341786,-0.687302970435772,-0.000483448893051434,-0.000483448892918042,-1.46036595828872,0.672380538098683,-1.04106029482961,-1.86670261949938,1.42856275390239,-1.8667026194975,-0.616355309453245,-1.47034185822229,-1.20714930696772,-0.512849149723378,-1.04340837317186,-1.56654236522015,-0.0276228960983957,1.26308875081163,-0.0276228960960673,-1.94116303486596,0.0350230351739388,-1.78280707502058,1.13282463629371,-1.60353541230688,-1.60353541230775,0.245916209255328,-0.245916209257545,-0.329385136466997,-1.17903416436448,-1.3906735757171,-1.33126969111264,-0.962574930498483,-0.169005188298253,-0.963271203207292,0.0435843203112466,-1.9785876628139,-1.97858766281405,0.695314213756794,-0.664725646793669,0.1602185783888,-0.40957831603401,0.473401963416177,-0.0451653093690829,0.558896396256544,-0.878990349918083,-0.878990349916931,0.228341455344004,-0.228341455345515,-1.01196645742581,1.43360000000007,103,958.942718446602,592.985922330097,1848.8640776699,921.092233009709,996.793203883495,604.767961165049,581.203883495146,1916.28155339806,1781.44660194175,0
797.5936,-0.424960855961439,0.847557780240932,0.0737784616016805,-0.732157580802426,-0.0138035428637844,-0.0138035428636428,-1.45158612085328,0.683788077718258,-1.02577669820119,-1.88389824632157,1.46648019343345,-1.88389824631969,-0.590029480932032,-1.54283685845205,-1.22222078264588,-0.4789071843065,-1.04876962217925,-1.53306434792546,-0.016099894887899,1.28106286760555,-0.0160998948855901,-1.92393775431084,0.0709011812028307,-1.7449785148944,1.15822422007171,-1.6208557057793,-1.62085570578015,0.2803189416211,-0.280318941623336,-0.28895323344792,-1.15648995359831,-1.38230172942345,-1.31104632642146,-0.958174081126531,-0.25574272056534,-1.00267795885697,0.0333268526481376,-2.01407803402937,-2.0140780340295,0.689006084971512,-0.675416029349442,0.139595885246802,-0.487534940464593,0.497512325104924,-0.122823884420237,0.532098936176046,-0.900969771838542,-0.90096977183739,0.206749653172335,-0.206749653173845,-1.00316710781329,1.53600000000006,102,959.79068627451,586.459803921569,1859.91666666667,927.986274509804,991.595098039216,598.610784313726,574.308823529412,1935.36274509804,1784.47058823529,0
797.696,-0.453607220657377,0.86976424641516,0.061845987778282,-0.780120266248947,-0.0286935680586846,-0.0286935680585351,-1.4425116136993,0.694386910409253,-1.01067617349405,-1.90076654554971,1.50351043357487,-1.90076654554783,-0.562992059891614,-1.61492081552941,-1.23653216102073,-0.443274300915309,-1.05445650275856,-1.49797375362192,-0.004367018814427,1.30001661524811,-0.00436701881213993,-1.90751132410643,0.106072335223682,-1.70832236278038,1.18056750913465,-1.63955708180616,-1.63955708180699,0.318040018986545,-0.318040018988799,-0.248336345300544,-1.13456145986987,-1.37337347267942,-1.29114985849937,-0.952624605376308,-0.344936032675104,-1.04226567374645,0.0216876044402618,-2.04866696168701,-2.04866696168711,0.681497863981687,-0.685723953349127,0.117819840226043,-0.565323028320175,0.521831290777304,-0.200041717297738,0.504798401055518,-0.924185197706693,-0.924185197705542,0.186569396762344,-0.186569396763857,-0.992987496477378,1.63840000000005,102,953.204901960784,537.475980392157,1854.08823529412,918.874509803922,987.535294117647,545.988235294118,528.963725490196,1934.99019607843,1773.1862745098,0
797.7984,-0.483089403211532,0.889583429023185,0.0480962150002915,-0.831054662334672,-0.0451119546353583,-0.0451119546351983,-1.43308731405643,0.704204063494538,-0.995688812946197,-1.91714247330409,1.53967592738187,-1.91714247330221,-0.535235522014303,-1.6862643183661,-1.24991531557886,-0.406146399970642,-1.0605136633649,-1.46153511343164,0.0076634008018607,1.31982749928331,0.00766340080412625,-1.89188067731804,0.14043114681951,-1.67289983767715,1.1998554061504,-1.65962321426884,-1.65962321426966,0.358796973181967,-0.358796973184244,-0.207535163038213,-1.1132031078524,-1.36389097763515,-1.2715448875601,-0.946117343358796,-0.436262857919504,-1.08204721282274,0.00870826241910117,-2.08234373345915,-2.08234373345923,0.67301602696119,-0.695619487682159,0.0952251554564324,-0.642680999853921,0.546055799570022,-0.276790716101385,0.477014129255306,-0.948787528641667,-0.948787528640518,0.167820567333484,-0.167820567334996,-0.981531243765369,1.74080000000004,103,954.56213592233,539.782038834952,1858.68932038835,927.66213592233,981.46213592233,550.329126213592,529.234951456311,1952.98058252427,1764.39805825243,0
797.9008,-0.513297980637037,0.90700946575288,0.0326129429388422,-0.884806847819701,-0.0630095948530455,-0.063009594852876,-1.42325624306873,0.713267651053045,-0.98074225165987,-1.93285604046351,1.57500368289478,-1.93285604046163,-0.506757472482597,-1.75653935183445,-1.2622068272123,-0.367723275175667,-1.06698734564928,-1.42401888157752,0.020072937055047,1.34036473382221,0.0200729370572873,-1.87703624825137,0.173871990424576,-1.63876628600416,1.21609985821761,-1.68102848097477,-1.68102848097557,0.402292521680265,-0.402292521682565,-0.1665496485498,-1.09236320445918,-1.35386003367135,-1.25219221694343,-0.938845813454305,-0.529390309841373,-1.12203256918859,-0.00556285466458288,-2.11510000280572,-2.11510000280579,0.663789731366506,-0.705074468809559,0.0721480731674198,-0.71934451857823,0.569881900076151,-0.353040082434917,0.44876792180857,-0.974914832693016,-0.974914832691862,0.15051411200263,-0.15051411200414,-0.968911999655588,1.84320000000002,102,953.716176470588,536.258823529412,1867.12745098039,928.430392156863,979.001960784314,549.078431372549,523.439215686275,1972.3431372549,1761.91176470588,0
798.0032,-0.544116582974617,0.922044945438609,0.0154895622791201,-0.941206165553508,-0.0823300837349069,-0.0823300837347258,-1.41295973938196,0.721606583408401,-0.965762007726774,-1.94773308792864,1.60952481539153,-1.94773308792676,-0.477560235102941,-1.82542084019389,-1.27324842233397,-0.328207345529144,-1.07392512267032,-1.38569974883905,0.0329367915910412,1.36149018207087,0.032936791593254,-1.86296196797787,0.206289648444763,-1.60597076199982,1.22932385869537,-1.70373810620628,-1.70373810620706,0.448216429107849,-0.448216429110174,-0.125379109255341,-1.07198413855444,-1.34328979433379,-1.2330489383009,-0.93100462072917,-0.623976786480269,-1.16222836460231,-0.0210711765545895,-2.14692971933799,-2.14692971933804,0.654049466484303,-0.714062704202663,0.0489243425452716,-0.795047973949728,0.593006767274431,-0.428756157609171,0.420084393663662,-1.0026909237787,-1.00269092377755,0.134652026379821,-0.134652026381326,-0.955252321290915,1.94560000000001,103,955.623300970874,535.807281553398,1901.14077669903,932.133980582524,979.112621359223,549.404854368932,522.209708737864,2013.67961165049,1788.60194174757,0
798.1056,-0.575422454997582,0.934700556234912,-0.00317156031384441,-1.00006621257513,-0.103009976193048,-0.103009976192858,-1.40213770515732,0.729250313189653,-0.950671872100257,-1.96159616688293,1.64327402321205,-1.96159616688105,-0.447650414636762,-1.89258813592687,-1.28288736311121,-0.287802342014462,-1.08137553915255,-1.34685481214685,0.0463236460245957,1.38305943057698,0.0463236460267833,-1.84963529117629,0.237580121776177,-1.57455555974686,1.23956140568859,-1.7277083493472,-1.72770834934796,0.496247469867445,-0.496247469869794,-0.0840223070427381,-1.05200260664498,-1.33219243806353,-1.21406851256292,-0.922787793905831,-0.719673863049739,-1.20263727896776,-0.0377563061104532,-2.17782901274102,-2.17782901274105,0.644025648957727,-0.722560155501484,0.0258871468595755,-0.869526072366367,0.615130741711882,-0.503902388511389,0.390991299267402,-1.03222407897971,-1.03222407897857,0.120227415907109,-0.120227415908609,-0.940682401588861,2.048,102,956.398529411765,1266.68284313725,1995.36274509804,906.748039215686,1006.04901960784,1272.21274509804,1261.15294117647,2098.77450980392,1891.95098039216,0
798.208,-0.607087114562167,0.944994704822207,-0.0232597877712341,-1.06118599432418,-0.124979062775349,-0.124979062775151,-1.39072892869402,0.73622862037762,-0.935394350911045,-1.9742655238321,1.6762889936502,-1.97426552383022,-0.417038447306238,-1.95772645576107,-1.29097680242199,-0.246711965658662,-1.08938765570384,-1.30776162107352,0.0602956190141077,1.40492297981336,0.0602956190162682,-1.83702726493566,0.267641550392663,-1.54455571725751,1.24685741254793,-1.75288674460364,-1.75288674460437,0.546055474695722,-0.546055474698096,-0.0424776018152558,-1.03234987268856,-1.32058276023602,-1.19520085814739,-0.914387071112846,-0.816128171528869,-1.24325742651827,-0.0555524875754624,-2.20779603991606,-2.20779603991607,0.633947172412388,-0.730545105921894,0.00336498776469459,-0.942515533654977,0.635959396220853,-0.578439403889925,0.361519820270221,-1.06360590395489,-1.06360590395376,0.107224627046409,-0.107224627047901,-0.92533866572331,2.15039999999999,102,988.032843137255,1580.15196078431,2032.00980392157,919.559803921569,1056.50588235294,1587.24901960784,1573.05490196078,2118.10784313725,1945.91176470588,0
798.3104,-0.638977108433691,0.952953110635152,-0.0446570074642898,-1.1243512329958,-0.148160661622496,-0.148160661622292,-1.3786714911968,0.742571441148938,-0.919851164814698,-1.98556018843286,1.70860974712897,-1.98556018843097,-0.385738157951813,-2.02052826345951,-1.297376117808,-0.205138523940907,-1.0980105038548,-1.26869611561884,0.0749083037007463,1.42692753396799,0.07490830370288,-1.82510264474528,0.296375226071887,-1.51599850837948,1.25126756062046,-1.77921238968691,-1.77921238968761,0.597303439537474,-0.597303439539873,-0.000743129089986272,-1.01295207386548,-1.30847771030873,-1.17639245973595,-0.905990156117706,-0.912983254123946,-1.28408169197499,-0.074389112800886,-2.23683079849665,-2.23683079849665,0.624039918197628,-0.73799831152383,-0.0183204634736668,-1.01375688184722,0.65520562366385,-0.65232519307867,0.331704798859266,-1.09691035712703,-1.09691035712591,0.0956194382044062,-0.0956194382058892,-0.909362256453247,2.25279999999998,103,995.110679611651,1579.88398058252,2088.07281553398,916.345631067961,1073.87572815534,1592.17572815534,1567.59223300971,2167.43689320388,2008.70873786408,0
798.4128,-0.670954865419315,0.958608383840631,-0.0672385109578334,-1.18933581343514,-0.172471920113543,-0.172471920113331,-1.36590326396363,0.748308744888876,-0.903963808978715,-1.99529916118288,1.74027792949163,-1.99529916118099,-0.353766346901476,-2.08069460176383,-1.30195124367127,-0.163281545009603,-1.10729245887785,-1.22993046123874,0.0902108605810155,1.44891736735489,0.0902108605831196,-1.81382005852074,0.323686680435583,-1.48890293354361,1.25285808261446,-1.80661627452591,-1.80661627452658,0.649649674548346,-0.649649674550768,0.0411829920468689,-0.993730586932814,-1.29589588414989,-1.1575865120658,-0.897778969345656,-1.00988137589961,-1.3250970415046,-0.0941912550752435,-2.26493490618203,-2.26493490618201,0.614525227610974,-0.744903130040678,-0.0388565401166471,-1.08299630729999,0.672591727566399,-0.725515375862004,0.301584900599616,-1.13219294253694,-1.13219294253584,0.0853793023403156,-0.0853793023417883,-0.892897436796422,2.35519999999997,102,998.620098039216,1578.19166666667,2124.10784313725,909.48137254902,1087.75882352941,1589.65980392157,1566.72352941176,2192.86274509804,2055.35294117647,0
798.5152,-0.702879640494839,0.961999596831552,-0.0908739489481686,-1.25590334353444,-0.197824120391272,-0.197824120391053,-1.35236249667601,0.753470461672256,-0.887654173036292,-2.0033026967253,1.7713360649392,-2.00330269672341,-0.321142429707663,-2.13793638352669,-1.30457502480359,-0.121336366274101,-1.11728053621674,-1.1917307827197,0.106246142411296,1.47073574297674,0.10624614241337,-1.8031322222184,0.349486829979224,-1.46327922379923,1.25170547025868,-1.83502164180277,-1.83502164180341,0.702749969820678,-0.702749969823122,0.0833024278412766,-0.974602466171576,-1.28285698836899,-1.13872311226996,-0.889927921253909,-1.10646528966221,-1.36628383017917,-0.11488021870112,-2.29211134583673,-2.29211134583669,0.605618336257712,-0.751245620003905,-0.0579417702606651,-1.14998756767219,0.687851493386386,-0.797963543887426,0.271202694045567,-1.16949008447297,-1.16949008447188,0.0764636369714033,-0.0764636369728671,-0.876089948706654,2.45760000000007,103,931.529611650485,904.256310679612,2164.59223300971,838.144660194175,1024.9145631068,923.842718446602,884.669902912621,2241.45631067961,2087.72815533981,0
798.6176,-0.734608532559611,0.963171859363939,-0.11542834273367,-1.32380880070388,-0.224122987630933,-0.224122987630705,-1.33798849291238,0.758086460932416,-0.870845216777061,-2.00939367588924,1.80182678605789,-2.00939367588735,-0.28788814600398,-2.19197565379325,-1.30512760977702,-0.0794926979851,-1.12801962286791,-1.15435480829459,0.123050834115735,1.49222636109371,0.123050834117779,-1.792986220644,0.373693152273709,-1.43912838648313,1.24789611100426,-1.86434437792039,-1.86434437792099,0.756259748229696,-0.756259748232164,0.125616385351582,-0.955480958514846,-1.26938130666863,-1.11973951380316,-0.882602243838988,-1.20237995639071,-1.40761514024694,-0.136374093342854,-2.31836418061275,-2.31836418061269,0.597526790506448,-0.757014607798349,-0.0752880541291719,-1.21449388760552,0.700732210645162,-0.869621651790382,0.240604637115298,-1.20881870676082,-1.20881870675974,0.068824159284218,-0.0688241592856728,-0.859085376265406,2.56000000000006,102,923.348529411765,451.708333333333,2128.62254901961,881.941176470588,964.755882352941,477.646078431373,425.770588235294,2209.89215686275,2047.35294117647,0
798.72,-0.765997548262393,0.962175907722853,-0.14076312537224,-1.39280023099174,-0.251269005380331,-0.251269005380091,-1.32272236290183,0.762186578753527,-0.853461693271835,-2.01339905231455,1.83179206103028,-2.01339905231266,-0.25402734217927,-2.24254682493665,-1.30349688891358,-0.0379331826716562,-1.13955166509126,-1.1180494678581,0.140655602069102,1.51323481206046,0.140655602071116,-1.78332387272873,0.396230855843811,-1.41644183323768,1.24152586718116,-1.89449343959381,-1.89449343959438,0.809836167988874,-0.809836167991366,0.168125364992966,-0.936276100271457,-1.2554892085398,-1.10057045702139,-0.875956428574922,-1.29727423202635,-1.44905619971351,-0.158588304049194,-2.3436982504829,-2.34369825048283,0.590448894378411,-0.762201723964197,-0.0906227657410473,-1.27628980834251,0.710996598629351,-0.940440443156705,0.209840963353566,-1.2501760457362,-1.25017604573514,0.0624052625291086,-0.0624052625305518,-0.842027564314165,2.66240000000005,102,895.800980392157,513.652450980392,2153.25490196078,858.987254901961,932.614705882353,538.147058823529,489.157843137255,2236.87254901961,2069.63725490196,0
798.8224,-0.796902680397518,0.959067716509509,-0.166737183425584,-1.46262046614795,-0.279157744627603,-0.279157744627354,-1.30650782964061,0.765800685874559,-0.835430900609178,-2.01515134360445,1.86127243916244,-2.01515134360255,-0.219585818638245,-2.2893978742402,-1.2995789643761,0.00316799688197138,-1.15191484119823,-1.08304853221413,0.159085254390187,1.5336099933616,0.15908525439217,-1.77408218839169,0.417033998303179,-1.39520112461685,1.23269960796992,-1.92537132251489,-1.92537132251543,0.863140134933348,-0.863140134935866,0.210828917874654,-0.916895399111932,-1.241200741348,-1.08114859110055,-0.870132823746673,-1.39080252905571,-1.49056393380354,-0.181436150241917,-2.36811886791287,-2.36811886791278,0.58457224670042,-0.766801407182673,-0.103690697805225,-1.33516293588653,0.71842458085569,-1.0103699008453,0.178965466597874,-1.29353971034458,-1.29353971034354,0.0571444264783731,-0.0571444264798075,-0.825057131047238,2.76480000000004,103,882.780582524272,524.304854368932,2174.09708737864,845.305825242719,920.255339805825,547.633009708738,500.976699029126,2259.74757281553,2088.44660194175,0
798.9248,-0.827180973224265,0.953908137974356,-0.193207875016552,-1.53300882989553,-0.307680210774876,-0.307680210774616,-1.28929205103172,0.768958785812156,-0.816683431770699,-2.01449012062072,1.89030633218946,-2.01449012061882,-0.184591219977872,-2.33229148720284,-1.29327862716104,0.0436463926495268,-1.16514274943264,-1.0495703994061,0.178358912455706,1.55320544239448,0.17835891245766,-1.76519389922115,0.436046510691332,-1.37537784034278,1.22153069211516,-1.95687457279602,-1.95687457279653,0.91583819198915,-0.915838191991693,0.253725410079938,-0.89724459730514,-1.22653533123028,-1.0614049914227,-0.865260428914933,-1.4826264453916,-1.53208667999665,-0.204829329977229,-2.39163152905532,-2.39163152905522,0.580072414239462,-0.770810869143442,-0.114255781403217,-1.39091554852164,0.722814872102953,-1.0793597078356,0.148035189162009,-1.33886797171482,-1.3388679717138,0.0529726531596946,-0.0529726531611191,-0.808310090477188,2.86720000000003,102,875.454411764706,527.590196078432,2198.58333333333,838.007843137255,912.900980392157,548.686274509804,506.494117647059,2284.62745098039,2112.53921568627,0
799.0272,-0.856691557379573,0.946762568905262,-0.220032010473926,-1.60370281276356,-0.336723209338036,-0.33672320933776,-1.27102642012478,0.77169113428721,-0.797153890560764,-2.0112634464031,1.918929342232,-2.01126344640119,-0.149072942547599,-2.37100613086265,-1.28450981324982,0.083348394577253,-1.17926363474857,-1.01781611278941,0.19849019328405,1.57188055270508,0.198490193285972,-1.75658802831203,0.453223099797614,-1.3569335601568,1.20814039140087,-1.98889433429067,-1.98889433429115,0.967604269893329,-0.967604269895899,0.296811792944298,-0.877228499651864,-1.21151159045016,-1.04126975866993,-0.861453898089517,-1.5724163363431,-1.57356406508581,-0.228678448149851,-2.41424164761044,-2.41424164761032,0.577111760190778,-0.774230012678667,-0.122102546034585,-1.44336604414791,0.723986371138302,-1.14735969999676,0.117110025966949,-1.38610024463523,-1.38610024463422,0.0498149226962443,-0.0498149226976593,-0.791916584253045,2.96960000000001,103,887.919417475728,535.419417475728,2235.55825242718,845.95145631068,929.887378640777,554.765048543689,516.073786407767,2312.47572815534,2158.64077669903,0
799.1296,-0.885296646716432,0.937700640939212,-0.247066791493531,-1.67443970015028,-0.366169730154068,-0.366169730153782,-1.25166731229985,0.774028372994972,-0.776781547066502,-2.00532922579839,1.94717364279416,-2.00532922579648,-0.113062037332696,-2.40533704505664,-1.27319601567984,0.122132131748068,-1.19429966888627,-0.987967658776641,0.219487407174712,1.58950166922113,0.219487407176603,-1.74819046662093,0.468530015852213,-1.33981993260547,1.19265724795619,-2.0213169221422,-2.02131692214265,1.01812130105287,-1.01812130105546,0.340083379964055,-0.856751839859662,-1.19614720827777,-1.02067267228776,-0.858812747804823,-1.6598528050397,-1.61492702845038,-0.25289350708585,-2.4359543120279,-2.43595431202775,0.575838424160995,-0.77706130127833,-0.127037322981821,-1.4923502219362,0.721779371905817,-1.21432029016345,0.0862522634192726,-1.43515771989383,-1.43515771989283,0.0475906693756121,-0.0475906693770177,-0.775999718954431,3.072,102,954.695098039216,547.180392156863,2278.00980392157,909.08431372549,1000.30588235294,560.46568627451,533.895098039216,2344.30392156863,2211.71568627451,0
799.232,-0.912862490771384,0.926795929434818,-0.274170706183958,-1.74495814446211,-0.395899349348578,-0.395899349348278,-1.231176752951,0.776001669986315,-0.755510911201392,-1.99655643580708,1.97506741764707,-1.99655643580516,-0.0765910872803802,-2.43509714344319,-1.25927063214612,0.159868159851274,-1.2102662948958,-0.960186567993534,0.241353774124948,1.60594306885336,0.241353774126808,-1.73992453577378,0.481945681294451,-1.32397881572238,1.17521636493699,-2.05402441375806,-2.05402441375848,1.06708270757477,-1.0670827075774,0.383533633125293,-0.835720155068767,-1.18045890119073,-0.99954386742549,-0.85742076502839,-1.74462810069584,-1.65609798160302,-0.277384377503032,-2.4567740683975,-2.45677406839734,0.57638543828162,-0.779309584833418,-0.128889217930601,-1.53772239941388,0.716056612053486,-1.28019284523134,0.0555260727113506,-1.48594410932944,-1.48594410932846,0.0462142769894761,-0.0462142769908709,-0.760674506042391,3.17439999999999,102,949.396568627451,547.723039215686,2316.53921568627,901.58137254902,997.211764705882,559.717647058824,535.728431372549,2377.95098039216,2255.12745098039,0
799.3344,-0.939260273590207,0.914125675952928,-0.301204375053848,-1.81499967958444,-0.425788648619129,-0.42578864861881,-1.20952298574549,0.777642858885342,-0.733292209311893,-1.98482621362943,2.00263436079547,-1.98482621362751,-0.0396940372954204,-2.46011781993637,-1.24267722892762,0.196439935707912,-1.22717164951526,-0.934612831641241,0.264087651883183,1.6210878243441,0.264087651885012,-1.73171152878599,0.493461175443843,-1.30934248481543,1.15595863261284,-2.08689524879428,-2.08689524879467,1.11419377164592,-1.11419377164856,0.427153961422563,-0.814040640046282,-1.1644624068753,-0.977814508383583,-0.857345611204509,-1.82644742746806,-1.69699110201268,-0.302061250811385,-2.47670473416556,-2.47670473416538,0.578869968128324,-0.780981888228878,-0.127510875457776,-1.57935636539829,0.706704168992952,-1.34493000615417,0.024996971175034,-1.5383464757565,-1.53834647575555,0.0455955868709698,-0.0455955868723535,-0.746046901911799,3.27679999999998,103,944.898058252427,547.138349514563,2339.08737864078,895.010679611651,994.785436893204,559.843689320388,534.433009708738,2404.66019417476,2273.5145631068,0
799.4368,-0.964366950894424,0.899770516589416,-0.328031345346916,-1.88431017875099,-0.455711654786826,-0.455711654786492,-1.18668093215881,0.778984572707684,-0.710081757190755,-1.97003278705451,2.02989323914831,-1.97003278705259,-0.00240596157443365,-2.48024965825936,-1.22336970799437,0.231744084656241,-1.24501607430061,-0.911364136754395,0.287682758993669,1.63482854158758,0.287682758995466,-1.7234712276465,0.50308056641301,-1.29583391165208,1.13502989058968,-2.11980483026094,-2.1198048302613,1.15917288651288,-1.15917288651555,0.470933533293075,-0.791622960937313,-1.14817251053096,-0.955417439370276,-0.858638620857167,-1.90503017057481,-1.73751276310478,-0.326835077152053,-2.49574924724411,-2.49574924724391,0.583392682279893,-0.782087169166201,-0.122779037615803,-1.61714616151483,0.693632193929232,-1.40848595126371,-0.00526874346480946,-1.59223613587483,-1.59223613587391,0.0456404116407231,-0.0456404116420981,-0.732212948460912,3.37919999999997,102,939.79362745098,548.033333333333,2360.92156862745,887.066666666667,992.520588235294,561.530392156863,534.536274509804,2435.09803921569,2286.74509803922,0
799.5392,-0.988066022509033,0.883814206817548,-0.354518835808653,-1.95264125432238,-0.485540305604776,-0.485540305604424,-1.16263254122718,0.780060372175964,-0.685842228518135,-1.95208423794111,2.05685752007049,-1.95208423793919,0.0352372323816388,-2.4953630415787,-1.20131237528156,0.265690466674666,-1.26379171960988,-0.890535417552686,0.31212837630249,1.64706796201592,0.312128376304254,-1.7151224002068,0.510821082447291,-1.28336712206433,1.11258002550864,-2.15262612020886,-2.1526261202092,1.20175267736275,-1.20175267736543,0.514859103647984,-0.768380020392815,-1.1316030900633,-0.932287802249374,-0.861334796752816,-1.98011104215377,-1.77756210350329,-0.35161799205448,-2.51390955365557,-2.51390955365535,0.590037265085323,-0.782636051653055,-0.114594884669785,-1.65100667998687,0.676775461476132,-1.47081661008658,-0.0352045861660192,-1.6474696347126,-1.64746963471171,0.0462510524637689,-0.0462510524651348,-0.719258020490429,3.48160000000007,103,822.423300970874,538.474757281553,2385.55339805825,767.542718446602,877.303883495146,553.665048543689,523.284466019417,2457.93203883495,2313.17475728155,0
799.6416,-1.01024824187985,0.866343336867755,-0.380538436222995,-2.01975159260478,-0.515144946565435,-0.515144946565062,-1.13736703143777,0.780904869051277,-0.660542820313054,-1.93090309409851,2.08353506772129,-1.93090309409659,0.0731991490175596,-2.50534865677443,-1.17647991846718,0.298202052130667,-1.28348224265316,-0.872198711666392,0.337409519475994,1.6577194265932,0.337409519477726,-1.70658327760853,0.516713120373184,-1.27184763452939,1.08876200550336,-2.18523022447796,-2.18523022447826,1.24168097957821,-1.24168097958091,0.558914855587036,-0.744228674041699,-1.11476716704306,-0.9083636174855,-0.865453002000757,-2.05144114228441,-1.81703173357094,-0.376323729160214,-2.53118653424566,-2.53118653424542,0.598870080510866,-0.782640537370384,-0.102884150080095,-1.68087406882604,0.656093716422732,-1.53187983524073,-0.0647445015996171,-1.70388979198796,-1.7038897919871,0.04732681936074,-0.0473268193620929,-0.707256191544527,3.58400000000006,102,819.843137254902,542.281862745098,2408.14705882353,765.928431372549,873.757843137255,558.267647058824,526.296078431373,2463.53921568627,2352.75490196078,0
799.744,-1.03081226721894,0.847447036984288,-0.405966765632159,-2.08540821026855,-0.544394859994963,-0.544394859994568,-1.11088102628785,0.781553842099655,-0.634159318289046,-1.90642674885274,2.10992791212432,-1.90642674885082,0.111443277854878,-2.51011788553986,-1.14885730716499,0.329214627394519,-1.30406259995416,-0.856403298584388,0.363507087318075,1.66670720449208,0.363507087319774,-1.69777201033767,0.520800096285907,-1.2611729748291,1.06373085924096,-2.2174869623444,-2.21748696234467,1.27872166813832,-1.27872166814104,0.603082256936243,-0.719090397203771,-1.09767695694445,-0.883586325551863,-0.870996341375304,-2.118788924746,-1.85580856698253,-0.400868012144998,-2.54757996573953,-2.54757996573927,0.609939978657183,-0.782113691337539,-0.087597016781808,-1.70670594002949,0.631571809199918,-1.59163553545709,-0.0938234919458391,-1.76132681763936,-1.76132681763854,0.0487645524669234,-0.0487645524682676,-0.69626973251045,3.68640000000005,102,766.300490196078,541.954411764706,2418.12745098039,708.168627450981,824.432352941177,558.550980392157,525.357843137255,2476.62745098039,2359.62745098039,0
799.8464,-1.04966525443649,0.82721667612294,-0.43068608763979,-2.14938761606754,-0.57315882394276,-0.573158823942341,-1.08317858369693,0.782044340064356,-0.606674065583145,-1.87860770951505,2.1360320917627,-1.87860770951314,0.149933376037059,-2.50960307383403,-1.11843962583043,0.358676354802534,-1.32549892967461,-0.843176088235208,0.390397996584847,1.67396669791676,0.390397996586517,-1.6886070996148,0.523138150050787,-1.25123325669076,1.03764261564524,-2.24926541927993,-2.24926541928017,1.31265534027874,-1.31265534028148,0.647339930828222,-0.692891894225273,-1.08034392038809,-0.857901283274432,-0.877952715223789,-2.1819410528354,-1.89377475479867,-0.425168918745978,-2.56308850690059,-2.56308850690032,0.623278232729059,-0.781069301363128,-0.068707810379118,-1.72848137737422,0.60321961680087,-1.65004576862256,-0.122378237136953,-1.81959948793871,-1.81959948793791,0.0504591432066022,-0.0504591432079362,-0.686348755463904,3.78880000000004,103,704.926213592233,543.99854368932,2425.5,648.108737864078,761.743689320388,561.783495145631,526.21359223301,2481.66990291262,2369.33009708738,0
799.9488,-1.06672338226369,0.805745560010584,-0.454584872334251,-2.21147686479179,-0.601305694280905,-0.601305694280464,-1.05427112198898,0.782414765443355,-0.578075841147626,-1.84741367865276,2.16183756602161,-1.84741367865085,0.188633850095183,-2.5037576727656,-1.08523184395938,0.38654720931996,-1.34774851190809,-0.83252222310683,0.418055310528672,1.67944453925175,0.418055310530312,-1.67900780091037,0.52379571751631,-1.2419118169728,1.01065322550197,-2.28043448327255,-2.28043448327276,1.34327985577606,-1.34327985577882,0.691663537101995,-0.665565641694278,-1.06277882006093,-0.831258209543741,-0.88629552281579,-2.24070312815583,-1.93080869235756,-0.449147212902841,-2.57770969990609,-2.57770969990581,0.638898608757565,-0.779521521431176,-0.0462144978396661,-1.74620074437709,0.571071749429903,-1.70707479530801,-0.150347695039437,-1.87851636861015,-1.87851636860939,0.0523040575656554,-0.0523040575669812,-0.677531008535304,3.89120000000003,102,931.088725490196,542.820098039216,2450.47058823529,869.977450980392,992.2,557.129411764706,528.510784313726,2481.40196078431,2419.53921568627,0
800.0512,-1.08191229557195,0.783128633230756,-0.477558291493948,-2.27147449507223,-0.628705001189481,-0.628705001189017,-1.02417725222441,0.782704934460076,-0.548359660100344,-1.81282747874502,2.18732819228672,-1.81282747874311,0.227510131819903,-2.49255624743768,-1.04924852587859,0.412798311128333,-1.37075979447145,-0.824425860313386,0.446448364259094,1.68309859057122,0.446448364260703,-1.66889449712392,0.522852982343089,-1.23308589586858,0.982917487256287,-2.31086336760161,-2.31086336760178,1.37041073572406,-1.37041073572683,0.736025660685798,-0.637050364173292,-1.04499178662821,-0.803611580269273,-0.895984490534777,-2.29490027930363,-1.96678606998582,-0.472726644662012,-2.59143997998596,-2.59143997998566,0.656797583580619,-0.77748451460534,-0.0201379889859422,-1.75988530321937,0.535187052159265,-1.76268909732279,-0.17767367850522,-1.93787707054935,-1.93787707054863,0.0541918633032444,-0.0541918633045603,-0.669841818796262,3.99360000000002,103,1028.02038834951,539.660679611651,2459.74757281553,974.667961165049,1081.37281553398,557.176699029126,522.144660194175,2493.33009708738,2426.16504854369,0
800.1536,-1.0951674569963,0.759462186778779,-0.499508638543728,-2.32919134653668,-0.655227551604537,-0.655227551604046,-0.992922531407306,0.782956110662714,-0.517526511793196,-1.77484683637209,2.21248176468324,-1.77484683637019,0.266529042789148,-2.47599435445268,-1.01051348474349,0.43741117005781,-1.39447248232331,-0.818851113769152,0.475542891487486,1.68489784559616,0.475542891489064,-1.65818904178363,0.52040121709064,-1.22462735659562,0.954587999525332,-2.34042212594486,-2.34042212594501,1.39388141858411,-1.39388141858688,0.780395706844222,-0.607291447091321,-1.02699239629428,-0.774920977008612,-0.906966607091856,-2.34437761058723,-2.00158095132864,-0.495834219423478,-2.60427469101018,-2.60427469100986,0.676954722843231,-0.77497210488022,0.00947876400695069,-1.7695766624236,0.495647918143299,-1.81685736745379,-0.204301410041957,-1.99747352860959,-1.99747352860891,0.0560147592375423,-0.056014759238848,-0.663294172021724,4.096,102,1035.09852941176,536.26862745098,2470.20098039216,979.779411764706,1090.41764705882,553.649019607843,518.888235294118,2508.3137254902,2432.08823529412,0
800.256,-1.10643440511308,0.734843572367846,-0.520345671256559,-2.38445125510945,-0.680746030096514,-0.680746030095999,-0.960539151200916,0.783211012778053,-0.485583049599955,-1.73348404300053,2.23727011300932,-1.73348404299863,0.305659138217215,-2.45408829006798,-0.969059389039174,0.460376850548729,-1.41881769774143,-0.815743153338059,0.505301161006924,1.68482223764116,0.505301161008472,-1.64681507763948,0.516542026182858,-1.21640344188878,0.925814163462207,-2.36898216568004,-2.36898216568016,1.41354337539499,-1.41354337539777,0.824739809241573,-0.576241289498835,-1.00878976019427,-0.74515139146048,-0.9191771593,-2.38900052568623,-2.03506688086433,-0.51840043694615,-2.61620810708134,-2.61620810708101,0.699333216245156,-0.771997436374275,0.0425718672705293,-1.77533606689725,0.452559422157584,-1.86955047918307,-0.23018005088875,-2.05709130350422,-2.05709130350358,0.0576651039777595,-0.0576651039790564,-0.657888914044336,4.19839999999999,102,1024.43970588235,536.691666666667,2469.78921568627,969.948039215686,1078.93137254902,551.675490196078,521.707843137255,2514.3137254902,2425.26470588235,0
800.3584,-1.11566892614447,0.709370926884253,-0.539986881076277,-2.43709162495059,-0.705135591945253,-0.705135591944712,-0.927065574170974,0.783513799397589,-0.452541242718795,-1.68876550968326,2.26165925993546,-1.68876550968136,0.344871015607795,-2.4268747095102,-0.924927333211608,0.481695057767436,-1.44371821515202,-0.815029463921446,0.535682133139491,1.68286237119294,0.535682133141011,-1.63469833921244,0.51138651014351,-1.20827756346227,0.896741257383028,-2.39641676071372,-2.39641676071381,1.42926609276644,-1.42926609276923,0.869020760679027,-0.54385959430264,-0.990392618671161,-0.714273481943698,-0.932540868327366,-2.42865494662632,-2.06711803072994,-0.540359497545131,-2.62723346017618,-2.62723346017582,0.72388055446342,-0.768572636477738,0.0790577692861778,-1.77724353776263,0.406048271508403,-1.92074144926798,-0.255263191525801,-2.11651091240169,-2.11651091240108,0.0590359448653203,-0.0590359448666078,-0.653615061028271,4.30079999999998,103,967.22427184466,534.241262135922,2466.75242718447,915.190291262136,1019.25825242718,555.63786407767,512.844660194175,2524.09708737864,2409.40776699029,0
800.4608,-1.12283714849767,0.683142909884187,-0.558357695031052,-2.48696387250438,-0.728274444540774,-0.72827444454021,-0.892546123289325,0.783910029506462,-0.418417996195704,-1.64073123349899,2.28560963468874,-1.64073123349709,0.384137573875177,-2.39441012104651,-0.878166385436042,0.501373145368897,-1.46908876789579,-0.816621261363712,0.566641644394526,1.67901919689621,0.566641644396015,-1.62176694463575,0.505054371059722,-1.20011011726232,0.867509602178792,-2.42260156096916,-2.42260156096922,1.44093693714449,-1.44093693714728,0.913197974401997,-0.51011358966019,-0.971809430696881,-0.682263774068919,-0.946973123263778,-2.46324744387101,-2.09761039187844,-0.561649473378709,-2.63734297756215,-2.63734297756177,0.750529326224005,-0.764708491068874,0.118834690459352,-1.77539687266686,0.356261577383352,-1.97040540408481,-0.279509283004515,-2.17550918645627,-2.1755091864557,0.0600215482995203,-0.0600215483007988,-0.650450210473428,4.40319999999997,102,970.591176470588,533.486764705882,2463.66666666667,918.391176470588,1022.79117647059,553.466666666667,513.506862745098,2521.26470588235,2406.06862745098,0
800.5632,-1.12791556191369,0.656258453762032,-0.575391611821918,-2.53393373872227,-0.750044414678966,-0.750044414678379,-0.857030524409062,0.784446592029754,-0.38323474287217,-1.58943419274637,2.30907634163229,-1.58943419274447,0.423434217354828,-2.3567702677086,-0.828833123245526,0.519425052371392,-1.49483642153412,-0.820415051609167,0.598132621888684,1.6733036316343,0.598132621890146,-1.60795167539157,0.49767297107551,-1.19175931603482,0.838253829947363,-2.44741509493215,-2.44741509493218,1.44846091305365,-1.44846091305644,0.957227478100137,-0.474978173334535,-0.953048456674144,-0.649104798616362,-0.962381298242457,-2.49270528746577,-2.12642300198307,-0.582212448408951,-2.64652793894884,-2.64652793894844,0.779198113172404,-0.760414149094199,0.161784148751394,-1.76991052328588,0.303365464601199,-2.01851955300217,-0.302881991172317,-2.233860639688,-2.23386063968747,0.0605179278680457,-0.0605179278693144,-0.648361043224024,4.50560000000007,103,973.492718446602,533.558737864078,2461.47087378641,924.63786407767,1022.34757281553,552.065048543689,515.052427184466,2521.31067961165,2401.63106796117,0
800.6656,-1.13089095489102,0.628816523097394,-0.591030268761408,-2.5778814712697,-0.770331498985018,-0.77033149898441,-0.820573402087409,0.785171595885923,-0.347017012597546,-1.53493968711644,2.33200947987826,-1.53493968711455,0.462739008391601,-2.31404941614118,-0.776991163718707,0.535870183514771,-1.52086100739618,-0.826294310851677,0.630105321027941,1.66573610409783,0.630105321029373,-1.59318624012761,0.48937634860108,-1.18308203281244,0.809102262458121,-2.47073926206413,-2.47073926206413,1.4517603258486,-1.45176032585139,1.00106193965996,-0.438435974782819,-0.934117841082003,-0.614785164343823,-0.978666126757841,-2.51697642818328,-2.15343919050767,-0.601994635025635,-2.65477876379891,-2.6547787637985,0.809792461462708,-0.755696870126645,0.207772537800714,-1.76091436550963,0.247543540859588,-2.06506316714555,-0.325350465923614,-2.29133882761262,-2.29133882761212,0.0604233631981604,-0.0604233631994203,-0.647303899821661,4.60800000000006,102,925.575980392157,535.448039215686,2450.42647058824,880.517647058823,970.63431372549,553.110784313726,517.785294117647,2514.03921568627,2386.8137254902,0
800.768,-1.13176026279713,0.600915878548899,-0.605223435797294,-2.61870188540039,-0.789026393847327,-0.789026393846698,-0.783233734083661,0.786134216156009,-0.309793986501586,-1.47732463803011,2.35435450671753,-1.47732463802821,0.502032774252805,-2.26635957122792,-0.722710692909103,0.55073225482693,-1.54705561287713,-0.834131258719992,0.662507575315642,1.656346003694,0.662507575317046,-1.57740752210075,0.480304196201696,-1.17393465248947,0.780176401296142,-2.4924598123184,-2.49245981231837,1.45077436090211,-1.45077436090489,1.04465072532405,-0.400477337648551,-0.915025698407113,-0.579299568823957,-0.995723101087732,-2.53602941837161,-2.1785478165059,-0.620946473044514,-2.66208513441238,-2.66208513441194,0.842205911219156,-0.750561820855382,0.256652725710405,-1.74855237675534,0.188995244532512,-2.11001756268267,-0.346889527639509,-2.34771768007431,-2.34771768007385,0.0596389024216621,-0.0596389024229121,-0.647225409224874,4.71040000000005,102,897.792156862745,532.943627450981,2445.86274509804,856.337254901961,939.247058823529,552.819607843137,513.067647058824,2514.07843137255,2377.64705882353,0
800.8704,-1.13053032247967,0.57265484219507,-0.617928934805549,-2.65630431714431,-0.806025000431831,-0.806025000431191,-0.745074273829685,0.787384499535157,-0.271598043606017,-1.41667686268006,2.37605263590519,-1.41667686267816,0.541299170103748,-2.21382963108921,-0.666068000341691,0.564038136642215,-1.57330712949654,-0.843788688843456,0.695285046951902,1.64517103244832,0.695285046953278,-1.56055581348389,0.470600805729286,-1.16417393110888,0.751590527835122,-2.51246681157428,-2.51246681157422,1.44545859527538,-1.44545859527816,1.08793999363035,-0.361100232831419,-0.89578019523021,-0.542648753304788,-1.01344386705493,-2.5498532778744,-2.20164447466735,-0.639022711144004,-2.66843615518965,-2.66843615518919,0.876321067126681,-0.745011922292229,0.308265650247474,-1.73298124147244,0.127934094156756,-2.15336609221499,-0.367479779476578,-2.40277280444362,-2.40277280444319,0.0580688421745434,-0.0580688421757839,-0.648063148661121,4.81280000000004,103,712.190291262136,520.982038834952,2438.1213592233,666.22427184466,758.156310679612,546.741747572816,495.222330097087,2501.64077669903,2374.60194174757,0
800.9728,-1.12721753666432,0.544131062945521,-0.629112487421654,-2.69061248298819,-0.821228900742404,-0.821228900741743,-0.706160951865815,0.788973137561896,-0.232464305605709,-1.35309433473742,2.39704126189095,-1.35309433473552,0.580524694898792,-2.15660449189844,-0.607145025695283,0.575816733137239,-1.59949685434853,-0.85512180832469,0.728381471872833,1.63225648924694,0.728381471874181,-1.54257503870568,0.460413988420725,-1.15365786018083,0.723451407875798,-2.53065509272888,-2.53065509272879,1.43578446186746,-1.43578446187022,1.13087282966474,-0.320310113922952,-0.876389614670927,-0.504839406949259,-1.03171758647233,-2.55845730034525,-2.22263264202337,-0.656182467347512,-2.67382054134081,-2.67382054134032,0.912010693070612,-0.73904774671504,0.362441888921959,-1.71436891045911,0.0645858644746533,-2.1950941520666,-0.387107653244743,-2.45628276265088,-2.45628276265049,0.0556211815184423,-0.0556211815196767,-0.649746319893297,4.91520000000003,102,716.674019607843,535.141176470588,2445.42647058824,674.843137254902,758.504901960784,560.600980392157,509.68137254902,2490.97058823529,2399.88235294118,0
801.0752,-1.12184746128387,0.515441279749563,-0.638747502917648,-2.72156425496042,-0.834545802752556,-0.834545802751875,-0.666562266435727,0.790951214790342,-0.192430185642319,-1.28668444349095,2.41725440182291,-1.28668444348904,0.619698656261543,-2.09484410625673,-0.546028922589749,0.586097932312714,-1.62550112568878,-0.86798002943504,0.761738901501935,1.61765452918642,0.761738901503258,-1.52341296321635,0.449893982357889,-1.14224652514222,0.69585809201922,-2.54692468968669,-2.54692468968657,1.42173868723564,-1.42173868723837,1.17338942246512,-0.278119721205373,-0.856862392967164,-0.465884022416505,-1.05043224030424,-2.56187078739998,-2.24142473441056,-0.672389264939459,-2.67822682222674,-2.67822682222622,0.949138810822915,-0.732667461297167,0.419003180911954,-1.69289313446565,-0.00081329133707463,-2.23518921195137,-0.405765387809529,-2.50803032071044,-2.50803032071007,0.0522080492464801,-0.0522080492477049,-0.652196434900037,5.01760000000002,103,897.557281553398,1385.73446601942,2353.96601941748,875.606796116505,919.507766990291,1484.18834951456,1287.28058252427,2301.69902912621,2406.23300970874,0
801.1776,-1.1144543317381,0.486681079355648,-0.646814820364364,-2.74911135352273,-0.845889953171051,-0.84588995317035,-0.626348671252976,0.793369933868532,-0.151534947790674,-1.21756325950964,2.43662314765759,-1.21756325950774,0.658813085273665,-2.02872249832684,-0.482811640333615,0.594911649038951,-1.65119196793536,-0.882208664532059,0.795297945835089,1.60142342672716,0.795297945836387,-1.50302137906597,0.439192363376802,-1.12980294016825,0.668901800751307,-2.5611812478734,-2.56118124787326,1.40332272121964,-1.40332272122236,1.21542728348525,-0.234548833240158,-0.837207127315115,-0.425800701764432,-1.06947585064482,-2.5601426999673,-2.25794304737483,-0.687611042567836,-2.6816435418489,-2.68164354184835,0.987561782327373,-0.725866815615548,0.477763876931297,-1.66873998586703,-0.0680187554577012,-2.27364086658727,-0.4234509328754,-2.55780365678803,-2.55780365678768,0.047746103696004,-0.0477461036972195,-0.655328006711115,5.12000000000001,102,968.486274509804,1671.525,2541.60294117647,889.708823529412,1047.2637254902,1749.98235294118,1593.06764705882,2548.86274509804,2534.3431372549,0
801.28,-1.10508053801193,0.457944647674634,-0.653302413397448,-2.7732189590517,-0.855182513409301,-0.855182513408585,-0.585591967815398,0.796280316535777,-0.109819285076577,-1.14585481223175,2.45507612097857,-1.14585481222985,0.697862607823568,-1.95842674489615,-0.417589522935731,0.602286976316333,-1.67643773360416,-0.897650495225127,0.828998013956213,1.58362684093226,0.828998013957485,-1.48135625894445,0.428460973513127,-1.11619384300772,0.64266588414545,-2.57333640414978,-2.57333640414961,1.38055216926731,-1.38055216927001,1.25692149908761,-0.189623964997656,-0.817432559764421,-0.384612913221506,-1.08873760859555,-2.55334122548835,-2.27212056904904,-0.701820140577763,-2.68405944357216,-2.68405944357159,1.02712936049574,-0.718639171026429,0.538532299332598,-1.6421023826056,-0.136779370231316,-2.31044090183764,-0.440167776897508,-2.60539750639469,-2.60539750639437,0.0421569009318849,-0.0421569009330903,-0.65904923871717,5.22239999999999,102,973.682352941176,1669.61274509804,2547.54901960784,886.042156862745,1061.32254901961,1737.77058823529,1601.45490196078,2549.87254901961,2545.22549019608,0
801.3824,-1.0937760543835,0.429324517338764,-0.658205060870679,-2.79386524650613,-0.862351891661907,-0.862351891661189,-0.544364711466674,0.7997328814309,-0.0673249245370923,-1.07169038524083,2.47253992503658,-1.07169038523893,0.736844280052097,-1.88415593509426,-0.350462925741357,0.608251453000593,-1.70110374434805,-0.914147208468954,0.862777539723787,1.56433306259182,0.862777539725039,-1.45837787463123,0.417850875897709,-1.10129044065508,0.617225847282364,-2.58330813058569,-2.58330813058551,1.35345622910796,-1.35345622911063,1.2978050093859,-0.143378019078012,-0.797547541783229,-0.34234920533032,-1.10810890178033,-2.54155326660054,-2.2839016621095,-0.714993266126123,-2.68546363507647,-2.6854636350759,1.06768570028315,-0.710975568334623,0.601112005624422,-1.61317863279422,-0.206839341105164,-2.34558336523344,-0.455924709357623,-2.650614226501,-2.65061422650071,0.0353672259500326,-0.0353672259512279,-0.66326270461635,5.32479999999998,103,979.19854368932,1672.34223300971,2555.66019417476,893.65145631068,1064.74563106796,1744.1427184466,1600.54174757282,2555.69902912621,2555.6213592233,0
801.4848,-1.0805978316728,0.400911315182362,-0.661523987888119,-2.81104085494042,-0.86733402670221,-0.86733402670148,-0.502739642572723,0.803777304142802,-0.0240942673116458,-0.995207835906465,2.48893959330996,-0.995207835904571,0.775757392969487,-1.80612011872395,-0.281535850620467,0.612830446283672,-1.72505293763177,-0.931540707687627,0.896574182172372,1.54361423351253,0.896574182173602,-1.43405088088089,0.407511340281301,-1.08496910427159,0.592649433087019,-2.5910210395568,-2.5910210395566,1.32207712738821,-1.32207712739085,1.33800890918689,-0.0958499041273873,-0.777560982610131,-0.299042890506059,-1.12748423604167,-2.52488385615298,-2.2932426122575,-0.727111438465664,-2.68584573700704,-2.68584573700646,1.10907032930954,-0.702864829448612,0.665302959368382,-1.58217101743727,-0.277940087997834,-2.37906463283724,-0.470735534934367,-2.6932647704481,-2.69326477044783,0.0273093837379062,-0.0273093837390903,-0.66786601512452,5.42719999999997,102,1009.60735294118,1673.60245098039,2542.62745098039,924.840196078431,1094.37450980392,1737.01666666667,1610.18823529412,2544.21568627451,2541.03921568627,0
801.5872,-1.06560916321587,0.372793512259251,-0.663266484805285,-2.82474831094918,-0.870072625629408,-0.870072625628674,-0.460789154613746,0.808462067902463,0.0198299295558594,-0.916550946678654,2.5041990385084,-0.916550946676768,0.814603250163711,-1.72453924953464,-0.210915599753326,0.616046641681532,-1.74814652246723,-0.949674310389217,0.930325000857937,1.52154554936609,0.930325000859146,-1.40834437034565,0.397588860889719,-1.06711201752634,0.568996756362596,-2.59640665284681,-2.59640665284658,1.28646955296028,-1.28646955296289,1.37746277094571,-0.0470841368037952,-0.757481784907733,-0.2547317119459,-1.14676204276959,-2.50345549753285,-2.30011203491163,-0.73815991784958,-2.68519601777664,-2.68519601777603,1.1511190890663,-0.69429369287893,0.730902623262137,-1.54928442181318,-0.349822028178425,-2.41088346865931,-0.484618759394635,-2.73316957769496,-2.73316957769471,0.0179214511911534,-0.0179214511923247,-0.672752474476967,5.52960000000007,103,1074.1072815534,1682.2432038835,2513.91262135922,994.514563106796,1153.7,1739.70776699029,1624.7786407767,2533.18446601942,2494.64077669903,0
801.6896,-1.04887903796403,0.345057178051179,-0.663445514007719,-2.83500142747173,-0.870519362506352,-0.870519362505617,-0.418584808573331,0.813834112125308,0.0644048246040694,-0.835868815364753,2.51824150659873,-0.835868815362872,0.853384921912688,-1.63964212710533,-0.138712447223109,0.617919633484941,-1.77024464221822,-0.968393838390173,0.963966619804672,1.49820446682084,0.963966619805863,-1.3812319090053,0.38822621085722,-1.04760778457584,0.546320485300102,-2.59940364127003,-2.59940364126979,1.24670008942009,-1.24670008942266,1.41609499238372,0.00286955924941147,-0.737318773006253,-0.209457506045351,-1.16584536043278,-2.47740742386597,-2.30449112645436,-0.748128124302976,-2.68350551021454,-2.68350551021392,1.19366506463946,-0.685246985843059,0.797706995024573,-1.5147250214623,-0.422226281698865,-2.44104107509642,-0.497597263717573,-2.77015939230748,-2.77015939230726,0.00714749689459233,-0.00714749689575353,-0.677811735746938,5.63200000000006,102,1073.79803921569,1684.69607843137,2492.54901960784,1002.22549019608,1145.37058823529,1743.8068627451,1625.58529411765,2515.82352941177,2469.27450980392,0
801.792,-1.03048149580831,0.317785739906642,-0.662079315919737,-2.84182469383569,-0.868634045333248,-0.868634045332521,-0.376196896798503,0.819938481913121,0.109587715430204,-0.753315288345194,2.53099003816239,-0.753315288343318,0.892106978967472,-1.55166533770097,-0.0650393260345781,0.618465609091232,-1.7912070393605,-0.987548603298009,0.997435401456826,1.47366994134546,0.997435401457997,-1.35269156196621,0.379561542971733,-1.02635200092777,0.524666066228377,-2.59995803911229,-2.59995803911203,1.20284665340933,-1.20284665341186,1.45383317144347,0.0539566493949609,-0.717080618726856,-0.163265868099458,-1.18464238059024,-2.44689476868586,-2.30637374745124,-0.757009551402997,-2.68076610461497,-2.68076610461434,1.23653951080377,-0.675707829829265,0.865511600109568,-1.47869902939837,-0.494896288213074,-2.46954113144276,-0.509697972010672,-2.80407602663528,-2.80407602663507,-0.00506221919390076,0.00506221919274661,-0.682930466305459,5.73440000000005,102,1081.38480392157,1686.70490196078,2486.02941176471,1011.10490196078,1151.66470588235,1749.01568627451,1624.39411764706,2502.88235294118,2469.17647058824,0
801.8944,-1.01049499822564,0.291059747700712,-0.659191024617257,-2.84525266433685,-0.864384756271221,-0.864384756270493,-0.333694052553826,0.826817979097954,0.155336218203615,-0.669048434727312,2.54236793742399,-0.669048434725434,0.930775215303138,-1.46085219338603,0.00998847707970452,0.617697124611854,-1.81089372111748,-1.00699228919139,1.03066764773146,1.44802173433666,1.03066764773261,-1.32270591289767,0.371727548359751,-1.0032477831551,0.504071983607221,-2.59802343216283,-2.59802343216256,1.15499794185228,-1.15499794185477,1.49060450770148,0.106118176317535,-0.696775767910549,-0.116205824273472,-1.20306685779455,-2.41208764513114,-2.30576633583305,-0.764801679085349,-2.67697061990177,-2.67697061990113,1.27957276606303,-0.665657867926075,0.934112443479379,-1.44141151099886,-0.567579321742253,-2.49638981492773,-0.520951507250027,-2.83477307930361,-2.83477307930342,-0.0187510559108128,0.0187510559096651,-0.687993032122694,5.83680000000004,103,1082.54054371425,1656.41434067735,2500.02738950416,1013.83257578123,1151.24851164728,1718.44524708894,1594.38343426576,2517.79296350638,2482.26181550194,0
801.9968,-0.989001821789322,0.264956644171134,-0.654808298796233,-2.84532934825956,-0.857747965199671,-0.857747965198945,-0.291142902183751,0.834512817414562,0.201608407757372,-0.583230058310701,2.55229924838347,-0.583230058308828,0.9693963778041,-1.3674516725427,0.086253631595798,0.615622974902772,-1.82916563037908,-1.02658373308247,1.06359983296769,1.42133982989381,1.06359983296883,-1.29126207218159,0.364850682412118,-0.978206247227567,0.484570044163892,-2.59356111511272,-2.59356111511245,1.10325288552073,-1.10325288552318,1.52633622434883,0.15929114158263,-0.67641237194454,-0.0683295103494554,-1.22103839334514,-2.37317013714313,-2.30268766086941,-0.771505891246879,-2.67211286188564,-2.67211286188499,1.32259514389478,-0.655077503873684,1.00330691770354,-1.40306526951436,-0.640027893753277,-2.52159579807969,-0.531391827561492,-2.86211660233782,-2.86211660233766,-0.0339558089873984,0.0339558089862584,-0.692882203612608,5.93920000000003,102,1038.26706647353,1332.36814173379,2497.6135907803,973.600964630225,1102.93316831683,1387.8382636656,1276.89801980198,2525.89549839228,2469.33168316832,0.431372549019608
802.0992,-0.966087479356708,0.239550544649911,-0.648962970107167,-2.8421076056111,-0.848708611723711,-0.848708611722991,-0.248607766464804,0.843060287883518,0.248362915348712,-0.496025250657696,2.56070923729982,-0.496025250655825,1.00797791880394,-1.27171737036895,0.163637086130673,0.612248154267637,-1.84588532117525,-1.04618760673194,1.09616886437597,1.39370397602371,1.09616886437709,-1.25835166965065,0.359050465402402,-0.951146927094981,0.466185674835819,-2.5865402151505,-2.58654021515023,1.0477201076025,-1.04772010760491,1.56095600256154,0.213408879446686,-0.65599822964554,-0.0196918595716686,-1.23848260505505,-2.33033920905832,-2.29716843223832,-0.777127403428746,-2.66618767958304,-2.66618767958238,1.36543779993834,-0.643946153569838,1.07289466487108,-1.36385980248337,-0.712001039615187,-2.5451702176297,-0.541055844559893,-2.8859856995273,-2.88598569952715,-0.0507065427751723,0.0507065427740381,-0.69747988074511,6.04160000000002,103,980.701546698078,937.129064128278,2482.08299109654,922.845337620579,1038.55775577558,987.198392282958,887.059735973597,2523.5884244373,2440.57755775578,0.640776699029126
802.2016,-0.941840174813532,0.214912032843788,-0.641690710290381,-2.83564855617827,-0.837260149149892,-0.837260149149184,-0.206150424920729,0.85249444187827,0.295558974930901,-0.407601993477505,2.56752488136014,-0.407601993475637,1.04652777515477,-1.1739064699881,0.242018402014469,0.607573887541124,-1.86091762654333,-1.06567501138382,1.12831236431494,1.36519333212703,1.12831236431604,-1.22397083588701,0.354438863365912,-0.921998133827981,0.448938226668431,-2.57693778164643,-2.57693778164616,0.988517391818404,-0.988517391820777,1.59439242172962,0.268401414356129,-0.635540740188984,0.029649693443575,-1.25533119184377,-2.28380353866984,-2.28925077477626,-0.78167520142563,-2.65919102895121,-2.65919102895054,1.4079335769304,-0.632242512479832,1.14267839075434,-1.32399033031922,-0.783265484936969,-2.56712661296756,-0.549983035052475,-2.90627303743248,-2.90627303743236,-0.0690264441459581,0.0690264441448302,-0.70166783459269,6.14400000000001,102,928.431116737549,574.084596550728,2472.46122096605,877.175260071874,979.686973403223,613.641198537293,534.527994564162,2526.9840804489,2417.93836148321,0
802.304,-0.916350296332758,0.191107979004016,-0.633030717968519,-2.82602101146255,-0.823404546894381,-0.823404546893692,-0.163829953694778,0.862845799869507,0.343156412204146,-0.31813081415696,2.57267536393847,-0.318130814155093,1.08505416986773,-1.0742787425615,0.321276090267814,0.601597707007078,-1.87413030525989,-1.08492400052448,1.15996897086886,1.33588619767589,1.15996897086994,-1.18812018036033,0.351119748936667,-0.89069726319431,0.432841277242246,-2.56473884442332,-2.56473884442306,0.925771164832134,-0.925771164834465,1.6265754023774,0.324195789516734,-0.61504686352197,0.0796354837825253,-1.27152190174788,-2.23378227740771,-2.27898757857884,-0.785161988376835,-2.65112004947545,-2.65112004947477,1.44991782447566,-0.619944832164708,1.21246463514067,-1.28364690069935,-0.853596688988546,-2.5874808360131,-0.558215062363139,-2.92288526331364,-2.92288526331353,-0.0889317056284173,0.0889317056272943,-0.705328465176937,6.24639999999999,102,917.211764705882,496.688725490196,2510.43137254902,869.219607843137,965.203921568627,524.425490196078,468.951960784314,2581.14705882353,2439.71568627451,0
802.4064,-0.889709949140883,0.168201384470836,-0.623025423953363,-2.81330093842719,-0.807152253303973,-0.807152253303304,-0.121702638185853,0.874141093746694,0.391115579875204,-0.227784488664515,2.5760925765653,-0.22778448866265,1.12356543327059,-0.97309558049974,0.401287947573934,0.594313561882645,-1.88539466314805,-1.10382004168443,1.19107865415227,1.30585981518296,1.19107865415333,-1.1508047727235,0.349188435569481,-0.857191061540414,0.417902923647945,-2.54993644431991,-2.54993644431966,0.8596159900678,-0.859615990070092,1.65743665166116,0.380716358570683,-0.594523087827331,0.130203856123525,-1.28699841381445,-2.18050374194315,-2.26644173615994,-0.787604137498686,-2.64197315314976,-2.64197315314907,1.49122919404478,-0.607031195256704,1.28206451108571,-1.24301357116502,-0.922779767071122,-2.60625093763422,-0.565795424218408,-2.93574333993601,-2.93574333993592,-0.110431439049158,0.110431439048041,-0.708345577912276,6.34879999999998,103,912.410194174757,485.857281553398,2529.2427184466,861.980582524272,962.839805825243,509.116504854369,462.598058252427,2607.26213592233,2451.22330097087,0
802.5088,-0.862012525572128,0.146251253591199,-0.611720212826275,-2.79757095985735,-0.788522125884411,-0.788522125883767,-0.0798219519005836,0.886403047191267,0.439397250131847,-0.136737778060216,2.57771162685472,-0.136737778058354,1.16206984218403,-0.870619064533036,0.481931389696666,0.585711958512095,-1.89458615200271,-1.12225642226048,1.22158304524203,1.27519025694792,1.22158304524307,-1.11203412965063,0.348731278260752,-0.821435856382385,0.404126059757591,-2.53253163983181,-2.53253163983158,0.790194062607142,-0.790194062609395,1.68691011321881,0.437885038790435,-0.573975408484542,0.181291370907356,-1.30171014485662,-2.12420404431845,-2.25168528024702,-0.789021646786949,-2.63175012073977,-2.63175012073907,1.53171042034002,-0.593479788608732,1.35129442817797,-1.20226766619152,-0.990610303025682,-2.62345703738433,-0.572769140860362,-2.9447828144331,-2.94478281443302,-0.133527613348915,0.1335276133478,-0.710605180871625,6.45119999999997,102,756.944607843137,549.051470588235,2421.19607843137,699.643137254902,814.246078431373,572.430392156863,525.672549019608,2496.78431372549,2345.60784313726,0
802.6112,-0.833352308960477,0.125312489424867,-0.599163159795872,-2.77891988760202,-0.7675413377904,-0.767541337789777,-0.0382385846493686,0.899650191771624,0.487962479536463,-0.045167179039859,2.57747134997109,-0.0451671790379996,1.20057547520573,-0.767111065139532,0.563083780601154,0.575780134701338,-1.90158495018231,-1.14013459928212,1.25142577413053,1.24395240191418,1.25142577413156,-1.07182220394186,0.349825337856211,-0.783397750433005,0.391508635112816,-2.51253349200546,-2.51253349200524,0.717654696765806,-0.717654696768015,1.7149324230337,0.495621528486675,-0.553409323622124,0.232832977457431,-1.3156119960824,-2.0651256752879,-2.23479844326694,-0.789438089184736,-2.62045219873848,-2.62045219873777,1.57120909833569,-0.579269181201957,1.41997680461177,-1.16157909954725,-1.05689506924602,-2.63912118261467,-0.57918248757285,-2.94995403316414,-2.94995403316408,-0.158215007874594,0.158215007873481,-0.711996301642952,6.55360000000007,103,558.98932038835,623.396601941748,2227.31553398058,504.169902912621,613.808737864078,644.534951456311,602.258252427185,2275.6213592233,2179.00970873786,0
802.7136,-0.803824107417979,0.105435805185123,-0.585404783602454,-2.75744227444212,-0.744245266007417,-0.744245266006818,0.00299950156002183,0.913896709614328,0.536772462249493,0.0467493353972882,2.57531481798324,0.0467493353991474,1.23909008117973,-0.662832380618202,0.644622753860757,0.564502273364999,-1.90627652553532,-1.15736448788065,1.28055281206519,1.21221998621634,1.2805528120662,-1.03018736576387,0.352538109128711,-0.743052769537653,0.380043895961939,-2.48995902515389,-2.4899590251537,0.642153807300138,-0.642153807302303,1.74144336929759,0.553843498312406,-0.532829849369465,0.284762160810228,-1.32866406631722,-2.00351606679431,-2.21586867589244,-0.788880549263977,-2.60808219040873,-2.60808219040801,1.6095784467371,-0.564378608491481,1.48794075386491,-1.12110975309507,-1.12145266688281,-2.65326719856196,-0.585082762195426,-2.95122229916447,-2.95122229916442,-0.18448118015773,0.184481180156621,-0.712411815948231,6.65600000000006,102,563.257352941177,632.189705882353,2079.60294117647,509.103921568627,617.410784313725,652.325490196079,612.053921568627,2112.3137254902,2046.89215686275,0
802.816,-0.773522913315315,0.0866676440900421,-0.57049781570157,-2.73323796482401,-0.718677359149752,-0.718677359149182,0.0438470071749789,0.929152291207317,0.585788382809802,0.138832607659899,2.57118983784102,0.138832607661753,1.27762095432627,-0.558041915853345,0.726426519243731,0.551859760877412,-1.9085521755324,-1.17386467750163,1.30891280831671,1.18006568814804,1.30891280831771,-0.987152363257576,0.356927312219595,-0.700386952899267,0.36972061207575,-2.46483315484592,-2.46483315484575,0.56385339095144,-0.56385339095355,1.76638634659271,0.612466775478224,-0.51224155486178,0.337011077270366,-1.34083136762458,-1.93962616564107,-2.19498967338241,-0.787379539171388,-2.59464453468553,-2.5946445346848,1.64667803428548,-0.548788259385651,1.55502271907584,-1.08101290877339,-1.18411408717591,-2.66592052608592,-0.590518068969296,-2.94856795265052,-2.94856795265049,-0.212306458871587,0.212306458870483,-0.711749272693212,6.75840000000005,102,748.946568627451,588.267156862745,1971.61764705882,688.038235294118,809.854901960784,602.339215686275,574.195098039216,1987.77450980392,1955.46078431373,0
802.9184,-0.742543584483791,0.0690501055062684,-0.554496983600078,-2.70641162810573,-0.690888977354998,-0.690888977354457,0.0842612282100816,0.945422001452903,0.634971272221476,0.230902632937153,2.56504942729833,0.230902632939006,1.31617480379981,-0.452995908063542,0.80837414179425,0.537831495237785,-1.90830953758059,-1.18956256343319,1.33645740194224,1.14756120883739,1.33645740194323,-0.942744254059692,0.363040741510409,-0.655396381344328,0.360523296358229,-2.43718857324408,-2.43718857324394,0.482921014025843,-0.482921014027903,1.78970878723202,0.671405543608774,-0.491648614775804,0.389510697294676,-1.35208357281726,-1.87370905028135,-2.17226045261868,-0.784968893031054,-2.58014536893568,-2.58014536893493,1.68237444771948,-0.5324795604594,1.62106703320493,-1.04143273908012,-1.24472318493202,-2.67710804468195,-0.595537099957929,-2.94198634882161,-2.9419863488216,-0.241663976029672,0.241663976028573,-0.709911694143085,6.86080000000004,103,1152.95145631068,512.026699029126,1851.04854368932,1109.42330097087,1196.47961165049,518.273786407767,505.779611650485,1871.44660194175,1830.65048543689,0
803.0208,-0.71098054294436,0.0526208776886765,-0.537458804876802,-2.67707226597043,-0.660939197718969,-0.660939197718462,0.124201988859484,0.962706154644731,0.684281868762723,0.322778946058917,2.556852258755,0.322778946060767,1.35475760318584,-0.34794720800577,0.890345777880921,0.522394245908441,-1.90545306949276,-1.20439439151442,1.36314148322308,1.11477732815652,1.36314148322406,-0.896994307479258,0.370916157868984,-0.608087151937313,0.352432425697557,-2.40706558938807,-2.40706558938797,0.399529310243181,-0.399529310245187,1.81136255123617,0.730572574384185,-0.471054876326246,0.442190969347178,-1.36239480877984,-1.8060186243898,-2.14778450940056,-0.781685645190581,-2.56459257722773,-2.56459257722698,1.71654188797733,-0.515435449247518,1.68592639653274,-1.00250386829566,-1.30313705261073,-2.68685788484538,-0.600188899438597,-2.93148771512235,-2.93148771512235,-0.272519746525457,0.272519746524364,-0.706808325888309,6.96320000000003,102,1150.17303921569,511.173039215686,1765.48039215686,1111.13235294118,1189.2137254902,515.888235294118,506.457843137255,1795.59803921569,1735.36274509804,0
803.1232,-0.678927486151055,0.0374131753531787,-0.519441388772282,-2.64533269341575,-0.628894583650244,-0.628894583649767,0.163631575708834,0.981000203507665,0.733680488579711,0.414281058205865,2.54656306126355,0.414281058207712,1.39337440914752,-0.243144623107795,0.972222856569747,0.505523059261726,-1.89989450764546,-1.21830523001521,1.38892338351197,1.08178392474927,1.38892338351294,-0.849937885250613,0.380581206468171,-0.55847531713211,0.345424669346586,-2.3745119322272,-2.37451193222714,0.313855492068784,-0.313855492070746,1.83130426168417,0.789879494339021,-0.450463934024672,0.494981009314158,-1.3717434973678,-1.73680842048585,-2.12166907426427,-0.777569898544901,-2.5479958318271,-2.54799583182635,1.74906268597533,-0.497640626044651,1.74946227212419,-0.964351015172105,-1.35922629039042,-2.69519923910153,-0.604522600530152,-2.91709688725566,-2.91709688725568,-0.304832797766991,0.304832797765904,-0.702355310011343,7.06560000000002,103,1152.53009708738,510.13932038835,1696.53883495146,1117.73398058252,1187.32621359223,512.079611650485,508.199029126214,1724.09708737864,1668.98058252427,0
803.2256,-0.646477106575278,0.0234556800666309,-0.500504243018927,-2.61130899928413,-0.594828920135631,-0.594828920135188,0.202514677898451,1.00029464745199,0.783126913346954,0.505228942757174,2.53415297127721,0.505228942759018,1.43202914506219,-0.138832321609476,1.05388820351421,0.48719169706957,-1.89155330538544,-1.23124888536955,1.41376498466577,1.04864994400023,1.41376498466673,-0.801614312896221,0.392053349248125,-0.506586806290737,0.339473127187517,-2.33958252691632,-2.33958252691629,0.226080873674002,-0.226080873675913,1.84949557971415,0.849237080340836,-0.429879201255456,0.547809313502083,-1.38011223589997,-1.66633053086352,-2.09402446817822,-0.772664685080236,-2.53036663491733,-2.53036663491657,1.77982773621485,-0.479081777508944,1.81154520462476,-0.927088718232605,-1.41287517930987,-2.70216218063728,-0.608587128981033,-2.89885293711519,-2.89885293711522,-0.338555350198937,0.338555350197858,-0.696476259270695,7.16800000000001,102,1153.42696078431,510.904901960784,1656.6862745098,1121.99705882353,1184.8568627451,518.56568627451,503.244117647059,1677.96078431373,1635.41176470588,0
803.328,-0.613720819395472,0.0107724859187892,-0.480708084532033,-2.57511999595849,-0.558822916609578,-0.558822916609163,0.240818336712501,1.02057496320323,0.832580300252414,0.595443567445037,2.51959982534153,0.595443567446878,1.47072435153403,-0.0352492888920974,1.13522611318491,0.467373097125237,-1.88035704054573,-1.24318776364115,1.4376317530831,1.01544329817876,1.43763175308405,-0.752066750882596,0.405339816383828,-0.452457335451598,0.33454757724268,-2.30233924905081,-2.30233924905083,0.136390398386178,-0.136390398388039,1.86590342014135,0.908555575864151,-0.409303970455736,0.600603991345014,-1.38748769837598,-1.59483465495691,-2.06496353544868,-0.767015815199205,-2.51171835803135,-2.51171835803059,1.80873685378935,-0.459747773915694,1.87205506766214,-0.890821136495998,-1.46398177030651,-2.7077774934683,-0.6124308764095,-2.87680870786548,-2.87680870786553,-0.373633046350697,0.373633046349626,-0.689102720538893,7.2704,102,614.704901960784,608.200980392157,1675,578.179411764706,651.230392156863,622.869607843137,593.532352941177,1682.79411764706,1667.20588235294,0
803.4304,-0.580748502508076,-0.000616942562350525,-0.460114653930119,-2.53688666672064,-0.520963877202735,-0.520963877202355,0.278511906483608,1.04182155932824,0.881999117050634,0.684747468638261,2.50288839208069,0.6847474686401,1.50946091153457,0.0673711757315931,1.21612238128912,0.446039852216508,-1.86624177539974,-1.25409266628708,1.46049271218099,0.982230698595036,1.46049271218194,-0.701342066708258,0.420437593793954,-0.396132296045281,0.330614730011425,-2.26285065480555,-2.26285065480562,0.0449721648577871,-0.0449721648596033,1.88050011321971,0.967745024342618,-0.388741460241244,0.653293015359502,-1.39386053434326,-1.52256723220162,-2.03460111728213,-0.760671709204285,-2.49206626682083,-2.49206626682007,1.83569905928541,-0.439629848430638,1.93088123621914,-0.855641919418011,-1.51245789520384,-2.71207651228117,-0.616101349880439,-2.85103026527546,-2.85103026527552,-0.410005222400136,0.410005222399069,-0.680174527211449,7.37279999999998,103,538.992718446602,618.430582524272,1705.61650485437,509.280582524272,568.704854368932,635.046601941748,601.814563106796,1688.25242718447,1722.98058252427,0
803.5328,-0.547648253547964,-0.0106977924782721,-0.438786533833888,-2.49673161609729,-0.481345337453199,-0.481345337452844,0.315567027548709,1.06400975594397,0.931341103657762,0.772965362537063,2.48401054392429,0.772965362538904,1.54823776639609,0.168801930507582,1.29646431440032,0.423164709832081,-1.84915235993656,-1.26394250891495,1.48232036953885,0.949077437619928,1.48232036953978,-0.649490700362887,0.437333466166694,-0.33766660368664,0.327638485696082,-2.22119168303918,-2.22119168303929,-0.0479830489917908,0.0479830489900303,1.89326351916678,1.02671561898404,-0.368194849521769,0.705804487847999,-1.39922525189352,-1.44977062899705,-2.00305353794551,-0.753683207197338,-2.47142751825726,-2.4714275182565,1.86063278982888,-0.418721767640861,1.98792267106759,-0.82163414801205,-1.55822909296304,-2.71509096754569,-0.619644806489011,-2.82159626891901,-2.82159626891907,-0.447605215437728,0.447605215436668,-0.669640047301574,7.47519999999997,102,543.230392156863,618.948039215686,1774.58333333333,509.052941176471,577.407843137255,637.602941176471,600.293137254902,1753.58823529412,1795.57843137255,0
803.6352,-0.51450616512091,-0.0194598975283721,-0.416786968467834,-2.45477852758468,-0.4400666658774,-0.440066665877069,0.351957608225743,1.08710979205819,0.98056325874383,0.859924783798095,2.46296536991511,0.859924783799934,1.58705164564915,0.268822435041511,1.37614073680084,0.398721098806595,-1.82904267933491,-1.27272395681626,1.50309061218841,0.916047146393532,1.50309061218933,-0.596566511596962,0.456004130894984,-0.277124486937724,0.325580190097038,-2.17744332696675,-2.17744332696691,-0.14228226196051,0.142282261958804,1.90417709999521,1.08537806741041,-0.347667296467571,0.758066923670391,-1.40358008491404,-1.37668236044945,-1.97043809396644,-0.746103360470506,-2.44982112433069,-2.44982112432992,1.8834660346095,-0.397019998186077,2.0430879075007,-0.788870355562452,-1.60123443913711,-2.71685283437851,-0.623105883406395,-2.7885972674421,-2.78859726744217,-0.486360700171295,0.486360700170239,-0.65745633568543,7.57760000000008,103,546.48640776699,621.121359223301,1844.32038834951,513.253398058252,579.719417475728,641.619417475728,600.623300970874,1838.73786407767,1849.90291262136,0
803.7376,-0.48140611714121,-0.0268976993742835,-0.394179680539533,-2.41115163403238,-0.397232627676321,-0.397232627676017,0.387659807055848,1.11108686458717,1.02962184508894,0.945456736531106,2.43975923115347,0.945456736532943,1.62589682998307,0.367219167832118,1.45504201034593,0.372683688690843,-1.80587585033379,-1.2804309751379,1.52278257740497,0.883201551657707,1.52278257740589,-0.54262660077197,0.476416392399218,-0.21457920262858,0.324398886575698,-2.13169227470227,-2.13169227470249,-0.237730761226837,0.237730761225178,1.9132299507762,1.14364396677805,-0.327161941618719,0.810009545852608,-1.40692684813195,-1.30353433973492,-1.93687254601812,-0.73798721073025,-2.42726788190344,-2.42726788190266,1.9041364012772,-0.374523869913226,2.09629495635927,-0.757412636258238,-1.641426271907,-2.71739418922142,-0.62652723489815,-2.75213492689427,-2.75213492689435,-0.526194048904952,0.526194048903903,-0.643589198564401,7.68000000000006,102,541.778921568627,620.151470588235,1889.78431372549,509.371568627451,574.186274509804,641.149019607843,599.153921568628,1900.67647058824,1878.89215686275,0
803.84,-0.448429585567342,-0.0330101714739886,-0.371028682936401,-2.365975206116,-0.352952909717231,-0.35295290971695,0.422652005575984,1.13590120356068,1.07847240677988,1.02939634258969,2.41440576232516,1.02939634259152,1.66476495529272,0.46378601734371,1.53306007349511,0.345028980580502,-1.77962437083558,-1.28706429922023,1.54137850091436,0.850600247125162,1.54137850091528,-0.487731101772435,0.498527437506894,-0.150112675917272,0.324051562744131,-2.08403051994114,-2.08403051994141,-0.334132566436044,0.334132566434436,1.92041679202415,1.2014261832626,-0.306681898630535,0.861562588195699,-1.40927077965257,-1.23055215562531,-1.90247461348784,-0.729391561344266,-2.40379027026051,-2.40379027025974,1.92259112645213,-0.351235735279386,2.14747113523094,-0.72731284392295,-1.67876981868918,-2.71674708138048,-0.629949187834607,-2.71232120423886,-2.71232120423894,-0.567022710235848,0.567022710234805,-0.628013178046642,7.78240000000005,102,540.155392156863,620.408823529412,1914.19607843137,512.449019607843,567.861764705882,641.823529411765,598.994117647059,1933.01960784314,1895.37254901961,0
803.9424,-0.415655467043598,-0.0378007055366657,-0.347398084923375,-2.31937306395952,-0.307341611240451,-0.307341611240196,0.456914766411053,1.16150818698481,1.12706979515812,1.11158347842311,2.38692582501245,1.11158347842494,1.7036448565781,0.558324645549875,1.61008849801813,0.315735920570529,-1.75027022764348,-1.29263083975385,1.5588635429775,0.818300488733966,1.55886354297842,-0.431942951546672,0.522285183092951,-0.0838150746830579,0.324493390463246,-2.03455494676672,-2.03455494676705,-0.431290888548858,0.431290888547296,1.92573792603849,1.25863922835154,-0.286230234515693,0.912657598377597,-1.41062037101142,-1.15795438266192,-1.86736147399243,-0.720374741584891,-2.37941231955592,-2.37941231955516,1.93878704386557,-0.327161123586548,2.19655284937585,-0.698612872530284,-1.71324274057054,-2.71494342651618,-0.633409427180928,-2.66927748002527,-2.66927748002536,-0.608759604465874,0.60875960446484,-0.610711465396085,7.88480000000004,103,539.433009708738,614.37572815534,1940.25242718447,516.61359223301,562.252427184466,638.328155339806,590.423300970874,1961.25242718447,1919.25242718447,0
804.0448,-0.383159919214084,-0.0412769628229387,-0.323351893733381,-2.27146811642221,-0.260516708831715,-0.260516708831486,0.490430775711085,1.18785849693199,1.17536820347938,1.19186339818075,2.3573474179986,1.19186339818258,1.74252244496448,0.650644825723074,1.68602255897344,0.284786523200653,-1.7178049666534,-1.29714304117507,1.57522559463217,0.786357022858696,1.57522559463308,-0.375327645842743,0.547628683432285,-0.015784334775199,0.325677958459962,-1.9833668942275,-1.9833668942279,-0.529008590668163,0.529008590666635,1.92919916109492,1.31519962436713,-0.265809937325375,0.963227736149377,-1.41098718963818,-1.08595192829019,-1.83164927447112,-0.710996362440736,-2.35415945574114,-2.35415945574037,1.95269052040389,-0.302308886451834,2.24348534012643,-0.671345001826437,-1.74483462142415,-2.71201492817258,-0.6369427206778,-2.62313366825545,-2.62313366825555,-0.651313532919408,0.651313532918382,-0.591675753081179,7.98720000000003,102,540.530392156863,612.327941176471,1968.30392156863,517.73431372549,563.326470588235,639.35,585.305882352941,1987.78431372549,1948.82352941176,0
804.1472,-0.351016218527931,-0.0434506932414407,-0.298953814419001,-2.22238192975621,-0.212599504261841,-0.212599504261648,0.523184772538089,1.21489831555496,1.22332121208052,1.270087343734,2.32570554754572,1.27008734373583,1.78138060918026,0.740564760677333,1.76075931422733,0.252166487715845,-1.68222972327557,-1.30061821070196,1.59045506992224,0.754821954792903,1.59045506992315,-0.317952991265055,0.574488587272831,0.053874348395634,0.327557498245493,-1.93057170590157,-1.93057170590203,-0.627088656186006,0.627088656184512,1.93081170744403,1.37102625497447,-0.245423873412741,1.01320806265499,-1.41038570203675,-1.01474741897058,-1.7954526624449,-0.701317061351848,-2.32805832935013,-2.32805832934937,1.96427736467441,-0.276691332593184,2.28822240908915,-0.645532291887327,-1.7735464242313,-2.70799302957426,-0.640580684956344,-2.57402732230567,-2.57402732230577,-0.694589595165004,0.694589595163988,-0.570906037237796,8.08960000000002,103,542.252427184466,609.241262135922,2003.38349514563,517.98640776699,566.518446601942,634.809708737864,583.672815533981,2023.44660194175,1983.32038834951,0
804.2496,-0.319294638901769,-0.0443375272671123,-0.274267053062981,-2.17223432252279,-0.163714062010325,-0.163714062010169,0.555163472002911,1.24256955663638,1.27088184816726,1.34611314272386,2.29204205954409,1.34611314272568,1.82019913784489,0.827911387591447,1.83419769367279,0.217865787569402,-1.64355520454759,-1.30307783217761,1.60454469331795,0.723744658364855,1.60454469331886,-0.259888857397134,0.602787638373812,0.125049054637989,0.330083103378237,-1.87627826764453,-1.87627826764505,-0.725334663680004,0.725334663678548,1.93059204794851,1.42604070016359,-0.225074742390296,1.06253581814121,-1.40883310578279,-0.944534627889471,-1.75888434615138,-0.691398235019664,-2.30113663643381,-2.30113663643305,1.97353270450229,-0.250324352848258,2.33072611233293,-0.621189016561177,-1.79938992344651,-2.70290889167459,-0.644351586532386,-2.5221027474794,-2.5221027474795,-0.738489607803593,0.738489607802588,-0.548410381425846,8.19200000000001,102,729.919607843137,601.245588235294,2030.79411764706,695.399019607843,764.440196078432,619.039215686275,583.451960784314,2060.40196078431,2001.1862745098,0
804.352,-0.288062352815154,-0.0439567471148863,-0.249354127709215,-2.12114298179429,-0.11398664216301,-0.11398664216289,0.586355489411883,1.27081012608873,1.31800266350383,1.41980579325425,2.2564054355189,1.41980579325606,1.85895466748778,0.912520670181683,1.90623860238311,0.181879221226131,-1.6018016200483,-1.30454687555262,1.61748929038053,0.693171722686736,1.61748929038144,-0.201206925900019,0.632441214346904,0.197621699865251,0.333204940601053,-1.82059853487417,-1.82059853487475,-0.823551264692244,0.823551264690818,1.92856178398512,1.48016755611985,-0.204765036505042,1.11115068645449,-1.40634917476873,-0.875497950763073,-1.72205469084907,-0.681301763498131,-2.27342294042724,-2.27342294042649,1.98045082456838,-0.223227534131468,2.37096641438984,-0.598321131635485,-1.8223871105614,-2.69679338898741,-0.648280167494104,-2.46751011907185,-2.46751011907196,-0.782912521271832,0.782912521270833,-0.524204648441959,8.2944,102,997.45,581.787745098039,2028.49509803922,974.522549019608,1020.37745098039,591.896078431373,571.679411764706,2090.43137254902,1966.55882352941,0
804.4544,-0.257383353167766,-0.0423310420495981,-0.224276688053562,-2.06922309915849,-0.0635451337400461,-0.0635451337399618,0.616751268134868,1.2995542032571,1.36463582790789,1.4910380284148,2.2188505544906,1.49103802841661,1.89762066472639,0.994237872842431,1.97678504165508,0.144206923956514,-1.55699857284628,-1.30505311295506,1.6292855836808,0.663146931436136,1.62928558368171,-0.141980432995796,0.663357897033059,0.271468622307618,0.336872452224116,-1.76364705153384,-1.7636470515345,-0.921544660673675,0.92154466067228,1.92474745529077,1.53333473864492,-0.184497007346161,1.15899504443023,-1.40295611659071,-0.807811938915096,-1.68507135487863,-0.671089731445213,-2.24494650353876,-2.24494650353801,1.98503495676261,-0.195424255147952,2.40892080045167,-0.576926778633107,-1.84256956226415,-2.68967711329986,-0.652387490324164,-2.41040459945601,-2.41040459945612,-0.827754833313752,0.827754833312761,-0.498312200957734,8.39679999999999,103,888.471359223301,580.40145631068,2020.23786407767,853.387378640777,923.555339805825,588.277669902913,572.525242718447,2094.27184466019,1946.20388349515,0
804.5568,-0.227318392375587,-0.0394862510986748,-0.199095342686387,-2.01658702978732,-0.0125184931069916,-0.0125184931069404,0.646343009821656,1.32873253545304,1.41073323277946,1.55969084988676,2.17943842262244,1.55969084988857,1.93616744793104,1.07291780859992,2.04574224810078,0.104854844843115,-1.5091849289336,-1.30462645396042,1.63993199225448,0.63371127368894,1.6399319922554,-0.082283905641993,0.695440065377253,0.346461188269981,0.341034551354467,-1.70554046585079,-1.70554046585152,-1.01912307629559,1.01912307629422,1.91918033257476,1.58547376503868,-0.164272639758675,1.20601419218805,-1.39867843806936,-0.741640899176473,-1.64803896660237,-0.660824152310243,-2.21573713452621,-2.21573713452546,1.98729702119917,-0.166941753285222,2.44457385616609,-0.556996826461398,-1.85997776069445,-2.68159037721343,-0.656690803433555,-2.3509454527164,-2.35094545271651,-0.872910998177616,0.872910998176629,-0.470763567903694,8.49919999999997,102,636.952941176471,590.226470588235,1992.95588235294,607.522549019608,666.383333333333,587.640196078431,592.812745098039,2055.70588235294,1930.20588235294,0
804.6592,-0.197924934665395,-0.0354510973969166,-0.173869492734685,-1.96334398014959,0.0389638075407601,0.0389638075407738,0.675124605030428,1.35827274155182,1.45624660032878,1.62565402083545,2.13823587289502,1.62565402083726,1.97456224804935,1.14842505455969,2.1130178474193,0.063835189976096,-1.45840867846818,-1.30329831152104,1.64942843482238,0.604902987184277,1.64942843482331,-0.0221928964172855,0.728584500599905,0.422466406565825,0.345639812373438,-1.64639705059932,-1.64639705060012,-1.11609722776252,1.11609722776119,1.91189618379833,1.63652000589989,-0.144093630478889,1.25215655829437,-1.39354281698191,-0.67713857023331,-1.61105884528632,-0.650566699691713,-2.18582505730323,-2.18582505730249,1.9872573217445,-0.137811153582686,2.47791683057316,-0.53851544794484,-1.87466036696589,-2.67256321482024,-0.6612034316909,-2.28929516637704,-2.28929516637715,-0.918273831080443,0.918273831079464,-0.441596074300532,8.60160000000008,103,657.634764182344,589.072212179546,1994.38929198358,633.688547941322,681.580980423365,586.754992558997,591.389431800096,2040.84065622564,1947.93792774153,0
804.7616,-0.169257118995742,-0.0302569199942905,-0.148657172689902,-1.90959972987071,0.0907723160640673,0.0907723160640392,0.703091563691343,1.38809962330209,1.50112759714712,1.68882651274184,2.09531523737796,1.68882651274365,2.01276930198046,1.2206341341055,2.17852201730288,0.0211668244530636,-1.4047267911015,-1.30110100908686,1.65777613953827,0.576757625894299,1.65777613953921,0.0382162727215419,0.762682994026653,0.499347536322872,0.350636658292453,-1.58633623642723,-1.5863362364281,-1.21228078696363,1.21228078696233,1.90293501714193,1.68641289806369,-0.123961371300612,1.29737387290584,-1.3875779826996,-0.614447883390995,-1.57422877237307,-0.64037844752365,-2.15524080429213,-2.15524080429141,1.98494420309279,-0.108067454788163,2.50894719723384,-0.521460721408147,-1.88667346302464,-2.66262538230623,-0.665934694103341,-2.2256185963549,-2.22561859635501,-0.963734908623444,0.963734908622471,-0.410853435985713,8.70400000000007,102,790.599252871844,583.136630220175,2012.44483666387,768.467153284672,812.731352459016,584.482481751825,581.790778688525,2053.18065693431,1971.70901639344,0.382352941176471
804.864,-0.141365734528242,-0.0239374095165515,-0.123514903037539,-1.85545639062405,0.142778114607609,0.142778114607536,0.730240947008703,1.4181354837791,1.54532795336279,1.749116906682,2.05075399424043,1.7491169066838,2.05074996706303,1.28942967215408,2.24216765362016,-0.0231243823533594,-1.3482050594584,-1.29806724095971,1.66497746374586,0.549308133901092,1.66497746374682,0.0988667450822259,0.797622949319816,0.57696467130883,0.35597354602777,-1.52547816502191,-1.52547816502286,-1.30749084247602,1.30749084247474,1.89234080446184,1.73509611285188,-0.103876940002327,1.34162130336261,-1.38081461008108,-0.553700809662058,-1.53764281807185,-0.630319617789145,-2.12401513834501,-2.12401513834429,1.98039367625085,-0.0777494733179567,2.53766822171676,-0.505805242561171,-1.89607978516038,-2.65180636341489,-0.670889845521899,-2.16008214827902,-2.16008214827913,-1.0091849649231,1.00918496492213,-0.378585324487675,8.80640000000005,102,964.458936370707,571.667122621754,2033.31596266603,934.049635036496,994.868237704918,580.313138686131,563.021106557377,2070.67700729927,1995.95491803279,0.333333333333333
804.9664,-0.114298214036489,-0.0165283551051989,-0.0984975625487232,-1.80101220003442,0.194853305145399,0.194853305145284,0.756571306453571,1.44830045188165,1.58879959228898,1.80644375435935,2.00463439047484,1.80644375436115,2.08846284705434,1.35470653287687,2.30387053696995,-0.0690052820277579,-1.28891792452987,-1.29422959562628,1.67103572785448,0.522584911097223,1.67103572785544,0.15968133449537,0.833287971752047,0.655175289067151,0.361599151202486,-1.46394326551033,-1.46394326551135,-1.40154835423854,1.40154835423728,1.88016118794677,1.78251767810085,-0.0838410998909398,1.38485755077239,-1.37328522637235,-0.495018288590664,-1.5013912207415,-0.620449334858643,-2.09217900368409,-2.09217900368339,1.97364901765991,-0.0468997523857424,2.56408853404749,-0.4915167288237,-1.90294797379446,-2.64013538196721,-0.676070031863199,-2.092853001674,-2.0928530016741,-1.0545142799471,1.05451427994614,-0.344846908952364,8.90880000000004,103,1084.32678627649,562.591789860486,2052.01506207807,1061.64239954645,1107.01117300653,564.069732832542,561.113846888429,2093.48961802849,2010.54050612765,0
805.0688,-0.0880986476558866,-0.00806741091396923,-0.0736582861430457,-1.74636134514765,0.246871459312655,0.246871459312497,0.78208263984375,1.47851280972422,1.63149477853933,1.8607359042961,1.95704304036787,1.8607359042979,2.12586392953966,1.41636994437852,2.36354950176923,-0.116435245524178,-1.22694828126832,-1.2896201434992,1.67595506674421,0.496615864834738,1.67595506674519,0.220582703694924,0.869558438270549,0.733834763390345,0.367462554176543,-1.40185185586763,-1.40185185586873,-1.49427859416925,1.494278594168,1.86644716981526,1.82863005563131,-0.0638543056052451,1.42704490957731,-1.36502412567326,-0.4385102328477,-1.46556031111398,-0.610825390596693,-2.0597635031168,-2.05976350311611,1.96476034442201,-0.0155644453568169,2.58822169901136,-0.478558601064727,-1.90735185459053,-2.62764141735078,-0.681472244374066,-2.02409837955803,-2.02409837955812,-1.09961305527948,1.09961305527853,-0.309698379909219,9.01120000000003,102,1083.63676470588,551.189215686275,2056.25490196078,1066.64509803922,1100.62843137255,547.86568627451,554.512745098039,2097.1862745098,2015.32352941176,0
805.1712,-0.0628078128017681,0.00140611336088532,-0.0490483871860488,-1.69159381164447,0.298708029422469,0.298708029422271,0.806776371749106,1.50868931862067,1.67336628920397,1.91193279235702,1.90807049988873,1.91193279235882,2.16290674304204,1.47433560690396,2.42112661266817,-0.165366026639246,-1.16238726696993,-1.2842700822863,1.67974029977291,0.471426445058013,1.6797402997739,0.281493525604381,0.906312045085453,0.812796847237162,0.373513427024889,-1.33932377091237,-1.33932377091355,-1.58551156508805,1.58551156508681,1.8512527825485,1.87339017627375,-0.0439167145200061,1.46814929196397,-1.35606728447054,-0.384275602100705,-1.4302324721729,-0.601504027687203,-2.02679989905107,-2.0267998990504,1.95378416454936,0.0162068228421304,2.6100857784839,-0.466890537954532,-1.90936974975888,-2.61435321546,-0.687089263989667,-1.95398486236919,-1.95398486236927,-1.14437177499965,1.14437177499871,-0.273204455382491,9.11360000000002,103,1082.87912621359,546.160194174757,2066.51941747573,1062.50582524272,1103.25242718447,539.406796116505,552.91359223301,2105.52427184466,2027.5145631068,0
805.2736,-0.0384632135352651,0.0118514419446978,-0.0247172969505236,-1.63679525964918,0.350240724182866,0.350240724182623,0.830655353285584,1.53874554182248,1.71436760216582,1.95998468648386,1.85781081855045,1.95998468648566,2.19954253991114,1.52852977825665,2.47652734994466,-0.215741677081637,-1.09533403723709,-1.2782094292229,1.68239681978277,0.447039661238565,1.68239681978377,0.342336637161563,0.943424334897083,0.891914136332454,0.379702218868674,-1.27647801628799,-1.27647801628924,-1.67508239397674,1.67508239397551,1.8346347385916,1.91675943379,-0.0240282046098411,1.50814021792914,-1.34645227110693,-0.332402533246281,-1.39548612171386,-0.592539744687387,-1.9933196348104,-1.99331963480975,1.94078289923811,0.0483611190598447,2.62970288502426,-0.456469008528079,-1.90908380732592,-2.60029928967895,-0.692909598835304,-1.88267774014317,-1.88267774014324,-1.18868155292577,1.18868155292483,-0.235433868725285,9.21600000000001,102,1087.19166666667,547.348039215686,2070.63725490196,1063.24607843137,1111.13725490196,541.287254901961,553.408823529412,2104.75490196078,2036.51960784314,0
805.376,-0.0150991247977624,0.0232265132303697,-0.000712512394466036,-1.58204693000102,0.401349856669809,0.401349856669521,0.853723865007634,1.5685961664928,1.75445308701272,2.00485287026352,1.80636107274247,2.00485287026532,2.23572050206408,1.57888933203768,2.52968079942236,-0.267498502128977,-1.02589553293705,-1.27146675089066,1.68393050215032,0.423476079085554,1.68393050215134,0.40303519041178,0.980769211854251,0.971038522766862,0.385980336362559,-1.21343244454058,-1.21343244454192,-1.7628316999631,1.76283169996188,1.81665206303853,1.95870363944489,-0.00418839689884273,1.54699077292591,-1.33621814208529,-0.282968506381499,-1.36139570077971,-0.583985119402701,-1.95935436929639,-1.95935436929575,1.9258243757389,0.0808423964295763,2.64709873220422,-0.447247793432053,-1.90657933288603,-2.5855079095265,-0.69891742771863,-1.8103403971832,-1.81034039718325,-1.23243446984856,1.23243446984763,-0.196458841625089,9.3184,102,1091.31666666667,539.974509803922,2073.78431372549,1067.31862745098,1115.31470588235,533.377450980392,546.571568627451,2100.79411764706,2046.77450980392,0
805.4784,0.00725336062746173,0.0354881625235307,0.022920455111352,-1.52742558486639,0.451918671610123,0.451918671609793,0.875987605650739,1.59815533039914,1.79357818481314,2.04650975342638,1.75382088729385,2.04650975342818,2.27138796177555,1.6253617867408,2.58051983982962,-0.320565057211546,-0.954186235634965,-1.26406892862968,1.6843476333291,0.400753794839267,1.68434763333014,0.46351280175401,1.01821945473055,1.05002164579618,0.392300316548271,-1.15030344799974,-1.15030344800115,-1.84860594056048,1.84860594055927,1.79736571646792,1.99919294045726,0.015603321687644,1.58467753684391,-1.32540532210995,-0.236040524794482,-1.32803165426929,-0.575890644085336,-1.92493601659648,-1.92493601659586,1.90898129429575,0.113591727437302,2.66230219474596,-0.439178503264301,-1.90194411367609,-2.57000707742954,-0.705092565827745,-1.73713373015992,-1.73713373015995,-1.275523904225,1.27552390422407,-0.156354550113066,9.42079999999999,103,1092.09514563107,539.491262135922,2076.61165048544,1067.09902912621,1117.09126213592,535.485436893204,543.497087378641,2100.65048543689,2052.57281553398,0
805.5808,0.0285662826011436,0.0485923159328191,0.0461381344295083,-1.47300348513421,0.501833656955829,0.501833656955458,0.89745365758126,1.62733695901843,1.83169957110483,2.08493890719256,1.70029195356898,2.08493890719437,2.30649063158974,1.66790530697461,2.62898132358007,-0.374862200625265,-0.880327898802285,-1.25604096482392,1.68365485557495,0.378888390116916,1.683654855576,0.523693700412074,1.05564723585164,1.12871534541792,0.398615989585593,-1.08720566306331,-1.0872056630648,-1.93225774123165,1.93225774123045,1.77683821569286,2.03820170709035,0.0353477771273448,1.62118048867708,-1.31405546918549,-0.191675291503668,-1.29546039617834,-0.568304566794887,-1.89009678249387,-1.89009678249327,1.89033068077186,0.146547577594823,2.67534489622482,-0.432211093620977,-1.89526774085306,-2.55382449927049,-0.711410466748914,-1.66321560513559,-1.66321560513561,-1.3178448570611,1.31784485706018,-0.115198592049887,9.52319999999997,102,1090.09068627451,541.065196078431,2000.91176470588,1059.24411764706,1120.93725490196,534.160784313726,547.969607843137,2024.72549019608,1977.09803921569,0
805.6832,0.0488147589603681,0.0624941994657807,0.0688991525816914,-1.41884840468803,0.55098484254271,0.550984842542297,0.91813042995415,1.65605511591146,1.86877530474763,2.12013503171569,1.64587755176655,2.1201350317175,2.34097284000583,1.70648868286546,2.67500625133233,-0.430303223056096,-0.804449234360029,-1.2474058342591,1.68185912511787,0.35789287946953,1.68185912511893,0.583502878919455,1.09292464815381,1.20697212276446,0.404882629548725,-1.02425168018985,-1.02425168019142,-2.01364621430678,2.01364621430558,1.75513325880188,2.07570839431453,0.0550459883932376,1.65648289146289,-1.30221132562732,-0.149919370081706,-1.2637442541128,-0.561272735040642,-1.85486918921972,-1.85486918921914,1.86995334300953,0.179646110108835,2.68626083725913,-0.426294367064414,-1.88664095195012,-2.53698755878888,-0.717842268106445,-1.58874035920213,-1.58874035920214,-1.35929426831076,1.35929426830984,-0.0730704632861499,9.62560000000008,103,925.734951456311,601.977669902913,1791.90776699029,890.484466019418,960.985436893204,593.872815533981,610.082524271845,1842.39805825243,1741.41747572816,0
805.7856,0.0679769214694572,0.0771485617867999,0.0911642918594512,-1.36502367792274,0.599266085080432,0.599266085079975,0.938027587619112,1.68422436427319,1.90476496931187,2.15210386682128,1.59068208336903,2.15210386682309,2.37477777013587,1.74109129505553,2.71853994178487,-0.486794063208337,-0.72668554017126,-1.23818437753231,1.67896768505639,0.337777666377497,1.67896768505746,0.642866249674565,1.12992423809896,1.28464560969962,0.411057092554395,-0.961551754456148,-0.961551754457794,-2.09263727215453,2.09263727215333,1.73231535910725,2.11169538413479,0.0746991500432189,1.69057116265571,-1.28991655279635,-0.110809324213525,-1.23294138829845,-0.55483843998568,-1.81928608016356,-1.819286080163,1.84793334291437,0.212821506712555,2.69508606308556,-0.421376451576156,-1.87615501426486,-2.51952330378236,-0.724354878137443,-1.51385835099588,-1.51385835099587,-1.39977132053713,1.39977132053622,-0.0300510486114337,9.72800000000007,102,789.261764705882,651.166666666667,1575.51960784314,761.716666666667,816.806862745098,643.287254901961,659.046078431373,1631.64705882353,1519.39215686275,0
805.888,0.0860338411328285,0.0925099042675293,0.112896542041958,-1.31158827376838,0.646575335513377,0.646575335512878,0.957155976381575,1.71176013301577,1.93962981353563,2.18086205568604,1.5348106185221,2.18086205568785,2.40784770022549,1.77170306679064,2.75953219657264,-0.544233601566833,-0.647178271502306,-1.22839523031349,1.67498805564056,0.318550516590301,1.67498805564165,0.701710813181223,1.16651953800991,1.36159104892285,0.417097942017024,-0.89921351402637,-0.899213514028095,-2.16910393532581,2.16910393532462,1.70844949085401,2.14614881405598,0.0943086211671518,1.72343473536881,-1.27721555006393,-0.0743718399064895,-1.20310568751077,-0.549042262260911,-1.78338060189149,-1.78338060189096,1.82435748066331,0.246006295330863,2.70185835504986,-0.417405254490521,-1.863901151165,-2.50145844485872,-0.730911093746063,-1.43871555916217,-1.43871555916215,-1.43917772757945,1.43917772757854,0.013777867931239,9.83040000000005,102,788.942647058824,647.124509803922,1408.63725490196,772.624509803922,805.260784313725,639.114705882353,655.13431372549,1474.94117647059,1342.33333333333,0
805.9904,0.102969447540769,0.108532711527373,0.134061148126453,-1.25859689035462,0.692814885536486,0.692814885535939,0.975527552690097,1.73857907921131,1.9733328940015,2.20643696591048,1.47836846210011,2.2064369659123,2.44012424854102,1.79832439632296,2.79793745889108,-0.602514014808078,-0.566074572623478,-1.21805478386166,1.66992804011625,0.300216548697521,1.66992804011735,0.759964843409329,1.20258558910377,1.43766578432791,0.422965561803233,-0.837341666984511,-0.837341666986314,-2.24292663186779,2.2429266318666,1.68360074768692,2.17905839772861,0.113875923979487,1.75506591620558,-1.26415326553379,-0.0406238424560274,-1.17428665485466,-0.543921923020499,-1.74718616773639,-1.74718616773587,1.79931477979874,0.27913168070262,2.70661692666276,-0.41432889919994,-1.84996999761727,-2.48281936203119,-0.737469742245902,-1.36345322040231,-1.36345322040227,-1.47741801083804,1.47741801083714,0.0583340710727473,9.93280000000004,103,793.620388349515,651.377184466019,1274.91262135922,787.185436893204,800.055339805825,649.597087378641,653.157281553398,1356.5145631068,1193.31067961165,0
806.0928,0.118770449750295,0.125171679297886,0.154625657978792,-1.20610006826435,0.737891593610009,0.737891593609416,0.993155319573258,1.76459944019847,2.0058392179116,2.22886646637356,1.42146074028991,2.22886646637538,2.47154862686399,1.82096605955942,2.83371496421205,-0.661521171838794,-0.483526785749956,-1.20717717142638,1.6637957394458,0.282778240448048,1.66379573944691,0.81755809187207,1.23799944822321,1.51272975884225,0.428622260662201,-0.776037708869013,-0.776037708870892,-2.31399348131695,2.31399348131576,1.65783401367454,2.21041724586363,0.133402750887822,1.7854597457372,-1.25077500581956,-0.0095726215143771,-1.14652929673883,-0.539512145660319,-1.71073640601453,-1.71073640601403,1.77289596911682,0.312127874804257,2.709402115176,-0.412096147902258,-1.83445107450445,-2.46363211255317,-0.743985845035745,-1.28820749792111,-1.28820749792106,-1.51439976979653,1.51439976979565,0.10353536023569,10.0352,102,806.022058823529,639.512745098039,1172.80882352941,801.062745098039,810.98137254902,637.196078431373,641.829411764706,1262.37254901961,1083.24509803922,0
806.1952,0.133426263755723,0.142381939833206,0.174559974013694,-1.15414432263653,0.781717092733928,0.781717092733292,1.01005326575446,1.78974137083281,2.03711588030496,2.24819865518568,1.36419200803316,2.2481986551875,2.5020619039084,1.83964907590218,2.86682888064866,-0.721135057165129,-0.399691946420249,-1.19577427288475,1.65659956810341,0.266235453478274,1.65659956810454,0.874422007772461,1.2726406749313,1.58664601525929,0.434032372786026,-0.715399633372654,-0.71539963337461,-2.38220055860165,2.38220055860045,1.63121364650836,2.24022169489093,0.152890974497975,1.81461386594438,-1.23712624566232,0.0187840275789924,-1.11987401984537,-0.535844534217996,-1.67406508881489,-1.67406508881441,1.74519297190868,0.344924422992409,2.71025507800357,-0.410656803088065,-1.81743228583154,-2.44392243464653,-0.750410804581267,-1.21310918013496,-1.21310918013489,-1.55003395258664,1.55003395258576,0.149299972736297,10.1376,103,977.950485436893,571.184466019418,1098.96116504854,977.825242718447,978.07572815534,562.435922330097,579.933009708738,1190.14563106796,1007.77669902913,0
806.2976,0.146928946597038,0.16011928655743,0.193836409761206,-1.10277229383337,0.824207981881694,0.824207981881015,1.02623630324708,1.81392726335717,2.06713218963074,2.26449153518729,1.30666587796232,2.26449153518912,2.53160527348807,1.85440453653151,2.8972484345463,-0.781230218770323,-0.314731263957848,-1.18385573313197,1.64834826330195,0.250585479427585,1.64834826330309,0.930489969648659,1.30639179717745,1.65928119472541,0.439162356888127,-0.655521647615461,-0.655521647617491,-2.44745213967704,2.44745213967582,1.6038031722998,2.26847114524874,0.172342655625805,1.84252839469909,-1.22325243695372,0.0444576441956902,-1.09435653670391,-0.532947473270163,-1.63720603544049,-1.63720603544002,1.71629842408911,0.377450522181908,2.70921751832848,-0.409962077615534,-1.79899945198408,-2.42371574749874,-0.756692615902787,-1.1382834201793,-1.13828342017921,-1.58423512701772,1.58423512701685,0.195546981700343,10.24,102,975.597058823529,575.894607843137,1056.20588235294,980.178431372549,971.01568627451,565.980392156863,585.808823529412,1149.02941176471,963.382352941177,0
806.4,0.15927313208754,0.178340399855278,0.212429748268659,-1.05202291439999,0.865286003066433,0.865286003065712,1.0417201980481,1.83708205056285,2.09585977678527,2.27781263674449,1.24898467222383,2.27781263674631,2.56012031673291,1.86527340055935,2.9249480155866,-0.841676250629608,-0.228809579311971,-1.17142899845777,1.63905088155185,0.235823105189822,1.639050881553,0.985697522984388,1.33913875373048,1.73050602664172,0.443980892055671,-0.5964938926115,-0.596493892613604,-2.50966093503319,2.50966093503196,1.57566499093008,2.29516790610263,0.191760047779378,1.86920580431485,-1.20919882137971,0.0674689259975576,-1.0700077829911,-0.530846051312249,-1.60019299041353,-1.60019299041307,1.68630524039454,0.409635329884227,2.70633146399133,-0.409964929033258,-1.77923589062195,-2.40303715392338,-0.76277610387296,-1.06384952788469,-1.06384952788459,-1.61692174759102,1.61692174759015,0.242196665101965,10.3424,102,977.254411764706,567.644607843137,1030.97058823529,982.339215686275,972.169607843137,558.119607843137,577.169607843137,1123.50980392157,938.43137254902,0
806.5024,0.170455959331627,0.197003074467894,0.230317295571036,-1.00193158700741,0.904878206660689,0.904878206659922,1.05652148945291,1.85913349640948,2.12327268565148,2.28823859157308,1.19124909835466,2.2882385915749,2.58754924765301,1.87230626836148,2.94990725760215,-0.902338327521251,-0.142094790102874,-1.15849938135912,1.62871678235631,0.22194069308294,1.62871678235748,1.03998261762657,1.37077131356531,1.8001958043709,0.448458966459272,-0.538402169789509,-0.538402169791686,-2.56874831392607,2.56874831392482,1.54686009152936,2.32031704346609,0.211145599103998,1.89465080205712,-1.19501025393545,0.0878475378617586,-1.04685385208993,-0.52956200586909,-1.56305948374479,-1.56305948374435,1.65530623336245,0.441408264107984,2.70163910591239,-0.410620357809495,-1.75822205149276,-2.38191145180941,-0.768603186779613,-0.989920815039748,-0.989920815039629,-1.64801641280351,1.64801641280264,0.289170843623557,10.4448,103,979.72572815534,564.314077669903,1017.23300970874,985.725242718447,973.726213592233,555.696116504854,572.932038834951,1107.94174757282,926.52427184466,0
806.6048,0.180476985302723,0.216066446237188,0.247478921225419,-0.952530366005505,0.942917106563376,0.94291710656257,1.0706573972309,1.88001247828755,2.14934744683812,2.29585466494121,1.13355794940979,2.29585466494304,2.61383513659701,1.87556314092999,2.97211109518255,-0.963077807986944,-0.0547572328406672,-1.14507016232545,1.61735560689711,0.208928276451151,1.61735560689828,1.09328583896495,1.40118347493632,1.86823084279279,0.452569955036952,-0.481327675592408,-0.481327675594658,-2.62464451524919,2.62464451524793,1.51744778006743,2.34392623075584,0.230501956475035,1.91887021319489,-1.18073104388957,0.105631906611153,-1.02491595268348,-0.529113685522913,-1.52583868627613,-1.5258386862757,1.62339377598428,0.472699292308052,2.69518268188763,-0.411885667082634,-1.73603520817285,-2.36036315435888,-0.774113161994319,-0.916604481678281,-0.916604481678147,-1.67744610762068,1.6774461076198,0.336393186881442,10.5472,102,554.396568627451,645.548039215686,1024.75,549.596078431373,559.19705882353,645.878431372549,645.217647058824,1122.00980392157,927.490196078431,0
806.7072,0.189338079212252,0.235491213614301,0.263897081893868,-0.90384813832874,0.979340824081788,0.979340824080942,1.08414571798096,1.89965326109328,2.17406313601308,2.30075425375447,1.07600782746607,2.3007542537563,2.63892211187077,1.87511316714227,2.99154979721399,-1.02375290824545,0.0330309798410564,-1.13114272974335,1.60497726224746,0.196773674067395,1.60497726224865,1.14555062530409,1.43027384544025,1.93449691146587,0.456289683683762,-0.42534674870544,-0.425346748707764,-2.67728883531137,2.6772888353101,1.48748542413447,2.3660056007036,0.249831979661812,1.94187286801643,-1.16640481667924,0.120868996420381,-1.00421039512948,-0.529516024503532,-1.48856327208041,-1.48856327208,1.59065949760709,0.503439203850504,2.68700438558832,-0.413720679938885,-1.71274920596447,-2.33841651303454,-0.779243005153429,-0.844001526915704,-0.844001526915554,-1.70514242672338,1.7051424267225,0.383789489056969,10.6496,103,483.340291262136,656.069902912621,1020.83980582524,485.22427184466,481.456310679612,655.605825242718,656.533980582524,1107.97087378641,933.708737864078,0
806.8096,0.197043304429687,0.25523984817358,0.279556829747985,-0.855910806056438,1.01409321735407,1.01409321735318,1.09700470905815,1.91799375893858,2.1974014128111,2.30303835279961,1.01869288858515,2.30303835280144,2.66275554182674,1.87103437157769,3.00821897553413,-1.08421943394572,0.121096657838759,-1.11671675161455,1.59159191621931,0.185462621655541,1.59159191622051,1.19672346015422,1.45794600109146,1.99888563171493,0.459596479965457,-0.370530637131765,-0.370530637134156,-2.72662978009439,2.7266297800931,1.45702822189614,2.38656759660892,0.269138769229327,1.96366949226903,-1.15207439513448,0.133614052213446,-0.984748611503399,-0.530780529453661,-1.4512652922724,-1.451265292272,1.55719401196242,0.533559856727533,2.67714628865423,-0.41608791397466,-1.68843426016491,-2.316095536844,-0.783927675221226,-0.772206673617649,-0.772206673617481,-1.73104177576609,1.73104177576522,0.431287916652006,10.7520000000001,102,485.591176470588,659.53431372549,1028.6568627451,485.427450980392,485.754901960784,653.094117647059,665.974509803922,1106.83333333333,950.480392156863,0
806.912,0.20359879539104,0.275276788396845,0.294445808807733,-0.808741475960939,1.04712399325858,1.04712399325766,1.10925295520556,1.93497577944759,2.2193465325898,2.30281498557736,0.96170460661811,2.30281498557919,2.68528219872092,1.86341335272032,3.02211956471397,-1.14433155285862,0.209266258895382,-1.10179036860105,1.57721000189252,0.17497890894359,1.57721000189373,1.24675402825535,1.4841088219395,2.06129482574646,0.462471212258235,-0.31694529232971,-0.316945292332168,-2.77262517206223,2.77262517206093,1.42612900127497,2.40562682221276,0.288425701049008,1.9842725984065,-1.1377816936799,0.143930297210485,-0.966537210442478,-0.532915281951238,-1.41397605543602,-1.41397605543563,1.52308668373462,0.562994391406689,2.66565027622812,-0.418952717447892,-1.66315679860462,-2.29342400725471,-0.78810042235306,-0.701308305975909,-0.701308305975725,-1.75508555043783,1.75508555043696,0.478819232116828,10.8544000000001,102,572.948529411765,890.849019607843,1060.65196078431,571.719607843137,574.177450980392,882.987254901961,898.710784313726,1132.72549019608,988.578431372549,0
807.0144,0.209012633834166,0.295568612315533,0.308554240513734,-0.762360659885171,1.07838880049804,1.07838880049707,1.12090921420524,1.95054524915304,2.23988532654604,2.30019859598796,0.905131553759464,2.30019859598979,2.70645040534416,1.85234494638738,3.03325777121455,-1.20394259901288,0.297366640143599,-1.08636039802886,1.56184223022584,0.16530450513289,1.56184223022704,1.29559533102791,1.50867680188816,2.12162881236591,0.46489731930358,-0.264651195402589,-0.264651195405114,-2.8152422100405,2.81524221003918,1.39483805175142,2.42319989266414,0.307696453767039,2.00369637567829,-1.12356761758691,0.151888579558389,-0.949578062090223,-0.535924962728927,-1.37672600564275,-1.37672600564237,1.4884254412848,0.591677413193783,2.65255800761486,-0.42228337291127,-1.63697934560008,-2.27042549353053,-0.791693099200556,-0.631388428946698,-0.631388428946502,-1.77722029450553,1.77722029450466,0.52631699629021,10.9568,103,603.07572815534,981.47572815534,1085.92233009709,606.093203883495,600.058252427185,974.714563106796,988.236893203884,1163.28155339806,1008.56310679612,0
