time,S1-D1,S1-D8,S1-D9,S1-D15,S2-D1,S2-D2,S2-D3,S2-D9,S3-D1,S3-D2,S3-D16,S4-D2,S4-D3,S4-D5,S5-D3,S5-D4,S5-D5,S6-D2,S6-D5,S6-D17,S7-D6,S7-D7,S8-D6,S8-D7,S8-D18,S9-D3,S9-D4,S9-D9,S9-D11,S9-D19,S10-D8,S10-D9,S10-D10,S10-D11,S11-D8,S11-D10,S11-D20,S12-D10,S12-D11,S12-D12,S13-D4,S13-D11,S13-D12,S14-D10,S14-D12,S14-D21,S15-D13,S15-D14,S16-D13,S16-D14,S16-D22,t_rel_s,eye_n,xp,yp,ps,xpl_i,xpr_i,ypl_i,ypr_i,psl_i,psr_i,blink_prop
371.2,-0.856270478805066,-0.159822429366265,-0.977477164250799,-0.0737824350391754,-1.20759195885336,-1.20759195885581,,-0.0360839995009257,-0.391388470132695,-0.229914764527379,-0.00141777966486979,-0.229914764526385,-2.4344487946067,2.13678843718803,,,,0.30095549676924,0.0162590348458793,-1.25394768703594,0.0162590348467243,,0.465585323859821,0.135218320803055,-0.463690636657758,-1.01624037114687,,,0.0673358049653273,0.209852627595086,-1.13620630249548,1.68338142758801,,0.0687084765673797,0.254527622469696,,0.602808089350814,,-1.5028520461336,,,0.147492504108362,,,0.0429225879122552,-0.17664805164204,1.40777283693897,1.40777283693823,,0.00301418593118932,-0.155660306817885,0,103,954.01359223301,555.474757281553,572.956310679612,956.570873786408,951.456310679612,553.414563106796,557.534951456311,598.029126213592,547.883495145631,0
371.3024,-0.855828822616133,-0.166065436622758,-0.980563680242797,-0.0795230294200369,-1.2069057084793,-1.20690570848174,,-0.0437767004599944,-0.398401052619739,-0.216656167295203,-0.0126022960588865,-0.216656167294206,-2.43806892345803,2.13971277467918,,,,0.3130714483265,0.0217074649120697,-1.26653097846634,0.0217074649129091,,0.473939563194665,0.124975839208979,-0.465465194731121,-1.00639530834954,,,0.0581762421521401,0.206380123806969,-1.12182843782653,1.6789202958015,,0.0540299641260538,0.259065539853116,,0.591618362561326,,-1.49725753148476,,,0.138148249453809,,,0.0491607349561074,-0.196120846715912,1.47198118421773,1.471981184217,,0.0117201201448556,-0.15420083156451,0.102399999999989,102,953.89362745098,551.908823529412,565.676470588235,953.439215686275,954.348039215686,545.120588235294,558.69705882353,589.745098039216,541.607843137255,0
371.4048,-0.855387034987303,-0.172387127199331,-0.983694725351813,-0.0858755102273152,-1.20595211870114,-1.20595211870359,,-0.0510868302337877,-0.405374230723921,-0.203089559968254,-0.0229653801571471,-0.203089559967254,-2.43988595089735,2.14148006511932,,,,0.324230431867752,0.0266221242724385,-1.27783305608579,0.0266221242732727,,0.481556221899528,0.114421706220869,-0.467893241490068,-0.996890749937621,,,0.049562741337802,0.203229015352114,-1.10710314513436,1.67372461653048,,0.0396077687850506,0.263089214329875,,0.580858316681581,,-1.48963083706789,,,0.12921592360836,,,0.0553998994146174,-0.215420822993632,1.53397677728777,1.53397677728704,,0.0196254770352121,-0.153587221470586,0.204800000000034,103,957.012235337478,545.172007119095,554.874630224145,953.341000746826,960.68346992813,541.555563853622,548.788450384567,578.258401792382,531.490858655907,0
371.5072,-0.854943420718002,-0.178741929243854,-0.986842674792276,-0.0928274559817794,-1.20472055369457,-1.20472055369701,,-0.0579874378288108,-0.4122655530571,-0.189255830392722,-0.0325162964994794,-0.189255830391718,-2.43992167536539,2.14207375991637,,,,0.334436265820132,0.0310020893411521,-1.28785322914452,0.0310020893419802,,0.488477133111582,0.103572070303535,-0.470966613284479,-0.987740346567795,,,0.0414967559473116,0.200404041754356,-1.09198473123058,1.66776610702787,,0.0254107746906924,0.26665785200546,,0.570525937616937,,-1.48002160544729,,,0.120655176234995,,,0.0616076343534534,-0.234513767025174,1.59367806293248,1.59367806293176,,0.0267772684084822,-0.153801117837822,0.307200000000023,102,959.272886835387,560.620632145632,561.758283383283,951.158760683761,967.387012987013,558.189316239316,563.051948051948,583.057692307692,540.458874458875,0.284313725490196
371.6096,-0.854496386771522,-0.185085204207001,-0.989980539376429,-0.10036362778063,-1.20320055995875,-1.20320055996119,,-0.0644535457334018,-0.419033014125269,-0.175196868306597,-0.0412655576979858,-0.175196868305589,-2.43820199357141,2.14148059924299,,,,0.343695951734868,0.0348479279994584,-1.29659312537957,0.0348479280002814,,0.494744930387439,0.0924448704138189,-0.474674154939116,-0.97895528088882,,,0.033977639608582,0.197909136593568,-1.07642829883313,1.66101843369956,,0.0114086750613706,0.269831117966863,,0.560618361559294,,-1.46848581421112,,,0.11242514025193,,,0.0677515581697162,-0.253367110127307,1.65101352644774,1.65101352644703,,0.0332239604293139,-0.15482070341486,0.409600000000012,103,962.322913197913,581.667321567322,574.771312021312,949.538034188034,975.107792207792,590.165811965812,573.168831168831,594.884615384615,554.658008658009,0.0388349514563107
371.712,-0.854044597091702,-0.191373334852297,-0.993082175801919,-0.108465981930816,-1.2013818312315,-1.20138183123395,,-0.0704621905296989,-0.425635217519345,-0.160955573715214,-0.0492248466635905,-0.160955573714203,-2.43475682700688,2.13969061750641,,,,0.352019666504237,0.0381616872605224,-1.30405659171445,0.0381616872613405,,0.500402892986886,0.081059660528158,-0.479001809067605,-0.970544218634555,,,0.0270026421715537,0.195747402027881,-1.06039002049798,1.6534573288675,,-0.00242784113987446,0.272668902454465,,0.55113191838616,,-1.45508563162731,,,0.104484581458417,,,0.0737993902173064,-0.271949948542224,1.70592165785883,1.70592165785812,,0.0390153541738909,-0.156620783583801,0.512000000000001,102,956.426669055346,586.817104572987,605.817382780618,952.181527568292,960.671810542399,588.633216021451,585.000993124523,627.851809954751,583.782955606485,0
371.8144,-0.853587086352006,-0.197563798972326,-0.996122446295813,-0.117113696218033,-1.19925416465053,-1.19925416465298,,-0.0759924410825263,-0.432031516040576,-0.146575851768103,-0.0564069518742824,-0.14657585176709,-2.42962002443864,2.13669712234429,,,,0.359420709921147,0.0409468778584267,-1.3102495906745,0.0409468778592402,,0.505494756794897,0.0694374237442234,-0.483932704140831,-0.962513266052983,,,0.0205669265909731,0.193921098298775,-1.04382740763947,1.64506069355572,,-0.0161269103006145,0.27523106821037,,0.542062186446155,,-1.43988923036023,,,0.0967920580366625,,,0.0797189969558767,-0.290233061089581,1.75835085406345,1.75835085406275,,0.0442024499119889,-0.159172881148323,0.614399999999989,102,953.111764705882,597.88431372549,651.117647058824,953.41568627451,952.807843137255,589.792156862745,605.976470588235,675.019607843137,627.21568627451,0
371.9168,-0.853123323384795,-0.203615239603885,-0.999077324160084,-0.126283222282656,-1.19680741854638,-1.19680741854884,,-0.0810253977016226,-0.43818213088787,-0.132102583064258,-0.062825713379635,-0.132102583063242,-2.42282924029472,2.13249665834662,,,,0.365915405028674,0.0432084542413992,-1.31518009555522,0.0432084542422084,,0.510064476152388,0.0576003791677418,-0.489447253687185,-0.954865936941766,,,0.0146636094987188,0.192431648965231,-1.0266995781171,1.63580868993281,,-0.0297153233109484,0.277577179797636,,0.533404052328592,,-1.42297055620945,,,0.0893060987495876,,,0.0854784592379276,-0.308188925971591,1.80825926065363,1.80825926065293,,0.048837284132143,-0.162445356013265,0.716800000000035,103,951.177184466019,598.430097087379,690.116504854369,949.914563106796,952.439805825243,593.863106796117,602.997087378641,715.330097087379,664.902912621359,0
372.0192,-0.852653242013638,-0.209487535908971,-1.0019239659377,-0.135948367737837,-1.19403147853641,-1.19403147853887,,-0.0855441836963608,-0.44404826038827,-0.117581572264064,-0.0684959713472842,-0.117581572263047,-2.41442580002915,2.12708897056067,,,,0.371522970546289,0.0449527876277017,-1.31885799188763,0.044952787628507,,0.51415595134993,0.0455717820137535,-0.495523276414583,-0.947603134006114,,,0.00928382772712999,0.191279654386018,-1.00896752853017,1.62568383241649,,-0.043218371091136,0.279766227934093,,0.525151760382227,,-1.40440906096819,,,0.0819853960765465,,,0.0910461579419894,-0.325791728109086,1.85561456306354,1.85561456306285,,0.0529727446756015,-0.166403555631594,0.819200000000024,102,950.259668211963,605.804987399475,719.976554311425,946.972158524427,953.5471778995,603.336457294782,608.273517504168,748.13334995015,691.8197586727,0
372.1216,-0.852177259640574,-0.215141879068989,-1.00464077374354,-0.146080401233324,-1.19091623573174,-1.1909162357342,,-0.0895339323891274,-0.449592184791109,-0.103059484714286,-0.073433510645424,-0.103059484713266,-2.4044545634792,2.12047697053533,,,,0.376265381553851,0.0461876294714861,-1.32129498952064,0.0461876294722847,,0.517812747904344,0.0333757272596338,-0.502136134357893,-0.940723153212254,,,0.00441682952067164,0.190464908925615,-0.990594411037642,1.61467107832183,,-0.0566597137663694,0.281856360676532,,0.517298945243822,,-1.38428940603476,,,0.0747890037012826,,,0.096390863695092,-0.343017349340059,1.90039373413794,1.90039373413725,,0.0566623732155355,-0.171009989588702,0.921600000000012,103,949.444976154532,604.080777808276,730.898142112125,943.683474576271,955.206477732794,611.082203389831,597.079352226721,756.334745762712,705.461538461539,0.339805825242718
372.224,-0.851696290173657,-0.220540859382451,-1.00720745809384,-0.156648165520186,-1.18745157766932,-1.18745157767178,,-0.0929817629803296,-0.454777363491123,-0.0885837792487369,-0.0776549978661965,-0.0885837792477169,-2.39296378910317,2.1126666940153,,,,0.380167222711212,0.0469220661943838,-1.32250454803561,0.0469220661951776,,0.521077827385631,0.0210369754377779,-0.509258874961517,-0.934221717712214,,,5.00814251341845e-05,0.189986422154445,-0.971545806510161,1.60275790757284,,-0.0700612751628071,0.283904625398903,,0.509838651863437,,-1.36270113432878,,,0.0676765319743651,,,0.101481817098602,-0.359843341630089,1.94258273964572,1.94258273964502,,0.0599601592164081,-0.176224510811446,1.024,102,948.128382539628,599.684629966376,735.057610821382,938.601906779661,957.654858299595,615.859745762712,583.509514170041,756.76906779661,713.346153846154,0.107843137254902
372.3264,-0.85121174819893,-0.225648567124468,-1.00960509948048,-0.167618179887005,-1.18362738867102,-1.18362738867348,,-0.0958767383971892,-0.459568517938276,-0.0742026425531062,-0.081177908136431,-0.0742026425520866,-2.38000499285044,2.10366723606777,,,,0.383255531418495,0.047166466209745,-1.32250181865467,0.0471664662105339,,0.523993300476337,0.00858081608118598,-0.516862359689886,-0.928092039509635,,,-0.00383062360913184,0.18984244379778,-0.951789984260603,1.58993438027187,,-0.0834431592649446,0.285966721774385,,0.502763350854488,,-1.33973830749686,,,0.060608343233315,,,0.106288793310879,-0.376248887584961,1.98217620248947,1.98217620248877,,0.062920328873295,-0.182004483599952,1.12639999999999,102,942.397659602165,580.808224651282,765.91918155789,935.416641741442,949.378677462888,582.859022931206,578.757426371358,798.0487703556,733.789592760181,0
372.4288,-0.850725544718235,-0.230430700672924,-1.01181620533568,-0.17895471959973,-1.17943355323179,-1.17943355323425,,-0.0982098035649812,-0.463931701281338,-0.0599649297695799,-0.0840204404064565,-0.0599649297685623,-2.36563279203311,2.09349065780636,,,,0.385559626213331,0.0469324134115182,-1.32130360363494,0.0469324134123025,,0.526600204497969,-0.00396703170561824,-0.524915367899854,-0.922324903320696,,,-0.00724106797388529,0.190030489482845,-0.931298144730653,1.57619317322041,,-0.0968235825309192,0.288096768621964,,0.496064955214627,,-1.31549911348146,,,0.0535457500438899,,,0.110782148723147,-0.392214750954476,2.01917703026734,2.01917703026664,,0.0655971408328838,-0.188304927788016,1.22880000000004,103,934.447572815534,578.88640776699,782.106796116505,935.683495145631,933.211650485437,585.670873786408,572.101941747573,813.572815533981,750.640776699029,0
372.5312,-0.850240085661385,-0.234854667274125,-1.01382476569177,-0.190619875966683,-1.17485995728012,-1.17485995728258,,-0.0999737113083138,-0.467834365563619,-0.0459201138460062,-0.0862014233667202,-0.0459201138449912,-2.34990473126796,2.08215187486875,,,,0.387110921767983,0.0462326173759127,-1.31892833084694,0.046232617376693,,0.528938300770672,-0.0165805031518201,-0.533384680253421,-0.916908770316898,,,-0.0101985218306838,0.190547361346366,-0.910044650337249,1.56152961099097,,-0.110218816553874,0.290347089754571,,0.489734837672856,,-1.29008545709527,,,0.0464512133666172,,,0.114932851126046,-0.407723216879167,2.05359601635609,2.05359601635539,,0.068044705884826,-0.195078645280012,1.33120000000002,102,932.750980392157,578.580392156863,786.289215686275,934.763725490196,930.738235294118,580.409803921569,576.750980392157,818.627450980392,753.950980392157,0
372.6336,-0.849758289556976,-0.23888966179348,-1.01561631618444,-0.20257361193078,-1.16989648563947,-1.16989648564193,,-0.101162947240744,-0.471245435844448,-0.0321182416897427,-0.0877402186033624,-0.0321182416887317,-2.33288109684655,2.06966854596875,,,,0.387942739948142,0.0450807941147768,-1.31539603835265,0.0450807941155527,,0.531045888400307,-0.0292332857725134,-0.542235159034636,-0.911829899278547,,,-0.0127216600757755,0.191389156766607,-0.888007250757884,1.54594170864355,,-0.123643139676948,0.292768022485149,,0.483763842335413,,-1.26360254452139,,,0.0392885342282916,,,0.118712503574246,-0.422758021300977,2.08545142745373,2.08545142745302,,0.0703168406859913,-0.202276345186853,1.43360000000001,103,928.606310679612,578.128155339806,795.383495145631,932.432038834951,924.780582524272,575.673786407767,580.582524271845,831.339805825243,759.427184466019,0
372.736,-0.849283634883408,-0.242506715142668,-1.01717801457953,-0.214773824541784,-1.16453301327614,-1.16453301327859,,-0.101773657364659,-0.474135389220703,-0.0186098927527034,-0.0886566296543839,-0.0186098927516959,-2.31462472778917,2.05606097193203,,,,0.388090125129955,0.0434915174633288,-1.31072836367542,0.0434915174641002,,0.532959638223281,-0.0418989489862088,-0.551429840948337,-0.907072476515868,,,-0.0148304791715479,0.192551262082652,-0.865167301741803,1.52943023263888,,-0.137108801583999,0.295407751606352,,0.478142288445278,,-1.23615846369913,,,0.0320230344969894,,,0.122093376958792,-0.437304270937143,2.11476858703198,2.11476858703128,,0.0724669552106143,-0.209846778048197,1.536,102,926.677941176471,578.613235294118,805.024509803922,930.848039215686,922.507843137255,581.505882352941,575.720588235294,843.754901960784,766.294117647059,0
372.8384,-0.848820237866985,-0.245678709210507,-1.01849872981627,-0.227176416334723,-1.15875938503452,-1.15875938503697,,-0.101803574722706,-0.476476330423672,-0.00544613644094687,-0.0889708235413566,-0.00544613643994315,-2.29520082752396,2.04135200510506,,,,0.38758966780784,0.0414800485468866,-1.30494853713208,0.0414800485476525,,0.534714452241526,-0.0545511078298221,-0.560930047130945,-0.902618743998123,,,-0.0165462147095922,0.194028332548481,-0.841509971966369,1.51199877752481,,-0.150626009393082,0.298312173539052,,0.472859969662555,,-1.20786375913315,,,0.0246217232683981,,,0.12504845956978,-0.451348356999317,2.1415794581822,2.14157945818149,,0.0745479704198051,-0.217736879410332,1.63839999999999,102,927.937745098039,567.501470588235,730.235294117647,928.504901960784,927.370588235294,576.497058823529,558.505882352941,765.627450980392,694.843137254902,0
372.9408,-0.848372951649064,-0.248380359861577,-1.01956913505368,-0.239735372807476,-1.15256537922255,-1.152565379225,,-0.101251941761079,-0.478242056457483,0.0073215137303479,-0.0887032666719217,0.00732151373134928,-2.27467677579286,2.02556696397185,,,,0.386479339938495,0.0390621578380561,-1.29808138119193,0.0390621578388173,,0.536343347188506,-0.0671636170011503,-0.570695505959965,-0.898449119441545,,,-0.0178912626701104,0.195814264417503,-0.817024430889593,1.49365384915962,,-0.164202944252881,0.301524794621308,,0.467906152064864,,-1.17883100303867,,,0.0170534440842451,,,0.127551521998708,-0.464877866109473,2.165922225299,2.16592222529827,,0.076612261011624,-0.225891917944363,1.74080000000004,103,930.018446601942,547.090776699029,591.582524271845,929.272815533981,930.764077669903,566.295145631068,527.88640776699,622.95145631068,560.21359223301,0
373.0432,-0.847947467864486,-0.250588178360539,-1.02038179096726,-0.252402843309101,-1.14594065467225,-1.1459406546747,,-0.100119424330415,-0.479408102677581,0.0196411497478873,-0.0878746728740268,0.0196411497488872,-2.2531219392679,2.0087335427458,,,,0.384798342835369,0.036253955337396,-1.29015331397463,0.0362539553381522,,0.537877354938389,-0.0797107866799803,-0.580684480098916,-0.894542303256975,,,-0.0188891036843211,0.197902170573384,-0.791704007452088,1.4744049371986,,-0.177845809755685,0.305086661658399,,0.463269574776959,,-1.14917436565886,,,0.00928899953044879,,,0.129577189472228,-0.477881491041079,2.18784087164932,2.18784087164859,,0.0787116124833859,-0.234255641850828,1.84320000000002,102,938.500980392157,525.245098039216,461.68137254902,938.486274509804,938.51568627451,538.671568627451,511.81862745098,487.754901960784,435.607843137255,0
373.1456,-0.847550400219457,-0.252280428983035,-1.0209312082396,-0.26512922855017,-1.13887468862671,-1.13887468862917,,-0.0984080124279261,-0.47995176635288,0.0314605216496008,-0.086505960494788,0.0314605216506006,-2.23060748036701,1.99088170293794,,,,0.382586966175408,0.0330717380677939,-1.28119235260281,0.0330717380685445,,0.53934543388261,-0.0921676052528297,-0.590853893545971,-0.890875367247669,,,-0.0195642257086415,0.200284369071823,-0.765546311285644,1.45426455955708,,-0.191558902622979,0.309036318287243,,0.458938458435072,,-1.11900918758731,,,0.00130125173086685,,,0.131101008054524,-0.490348943121534,2.20738475098485,2.20738475098411,,0.0808971785979479,-0.242770422185719,1.94560000000001,103,946.267475728155,512.251941747573,371.092233009709,944.015533980583,948.519417475728,526.925242718447,497.578640776699,391.466019417476,350.718446601942,0
373.248,-0.847189340307185,-0.253437099022138,-1.02121388833696,-0.277863287005271,-1.13135671923019,-1.13135671923266,,-0.0961209067989961,-0.479852112299441,0.0427270932021314,-0.0846182157338096,0.0427270932031295,-2.2072061627712,1.97204353849002,,,,0.379886458256196,0.0295318560509757,-1.27122811491847,0.0295318560517207,,0.540774391193504,-0.104509953797219,-0.601159465392109,-0.887423827574265,,,-0.0199420399546974,0.202952383028737,-0.738553316987111,1.43324827230811,,-0.205344692862472,0.313409781363886,,0.454900524061285,,-1.08845155835661,,,-0.00693480364291518,,,0.132099490336579,-0.502270867105735,2.22460815568146,2.22460815568071,,0.0832194289762963,-0.251377401510396,2.048,102,945.136957432546,499.229462041227,314.541645718116,943.11628959276,947.157625272331,517.409577677225,481.049346405229,332.052790346908,297.030501089325,0
373.3504,-0.846872885736278,-0.254039890222417,-1.02122834777641,-0.290552273716753,-1.12337570274374,-1.12337570274622,,-0.093262393190529,-0.479089966253431,0.0533881047525988,-0.0822326562105852,0.053388104753596,-2.18299214968351,1.95225311353079,,,,0.376738906019693,0.0256505943743882,-1.26029182063438,0.0256505943751275,,0.542188819186435,-0.116714801833782,-0.611555862150336,-0.884161712555286,,,-0.0200487845870021,0.205896944434782,-0.710731418496337,1.41137464807724,,-0.219203904742951,0.318240532531643,,0.451143023676989,,-1.05761790334474,,,-0.0154419914550797,,,0.132550137490608,-0.513638757389928,2.23956988496222,2.23956988496146,,0.0857280811001244,-0.260016658186542,2.15039999999999,102,951.874898399531,492.564636752137,282.901478967655,950.068778280543,953.681018518519,509.215384615385,475.913888888889,297.81221719457,267.990740740741,0.176470588235294
373.4528,-0.846610638938622,-0.254072236038338,-1.02097512668817,-0.303142114551129,-1.11492028840557,-1.11492028840805,,-0.0898377059796363,-0.477647894552702,0.0633906516996803,-0.079370585655804,0.0633906517006755,-2.15804079074694,1.93154627673987,,,,0.373187117732042,0.0214440710419901,-1.24841629332001,0.0214440710427232,,0.543611046031608,-0.128760374522631,-0.621996873734821,-0.881061634931181,,,-0.0199114117350681,0.209107997794229,-0.682091459199865,1.38866522643023,,-0.233135594457345,0.323559517585496,,0.447652784943821,,-1.0266245751982,,,-0.0242409348495534,,,0.132431449055519,-0.524444874343788,2.25233281352804,2.25233281352728,,0.0884720106061486,-0.268627387781496,2.25280000000004,103,963.669812671148,492.91361090366,258.284478466517,962.776923076923,964.562702265372,513.946153846154,471.881067961165,273.230769230769,243.338187702265,0.0194174757281553
373.5552,-0.846413168630856,-0.253519348220285,-1.02045677535012,-0.315577605688917,-1.10597881445014,-1.10597881445262,,-0.0858528834018033,-0.475510163945601,0.0726817881009515,-0.0760533332493907,0.0726817881019453,-2.13242839409157,1.9099604555212,,,,0.369274499104895,0.0169281539431599,-1.23563596397877,0.0169281539438867,,0.545061095630083,-0.140626279184933,-0.632435606336412,-0.878094873690333,,,-0.0195574618477534,0.212574702212618,-0.652648735853784,1.36514443230589,,-0.247137223067894,0.329395144115956,,0.444416270175178,,-0.995587438921425,,,-0.0333500466922129,,,0.131722935746353,-0.534682164169442,2.2629634586608,2.26296345866004,,0.0914991305173184,-0.27714809285329,2.35520000000003,102,978.598529411765,505.485294117647,241.671568627451,977.522549019608,979.674509803922,518.945098039216,492.025490196078,257.450980392157,225.892156862745,0
373.6576,-0.846291928539974,-0.252368293053603,-1.01967781329782,-0.327802619297198,-1.09653932991462,-1.09653932991711,,-0.0813146147511329,-0.472662675617216,0.0812086586400124,-0.0723021761271183,0.081208658641005,-2.10623198003554,1.88753442741676,,,,0.365044916978944,0.0121184009794877,-1.22198687600143,0.0121184009802075,,0.546556652737257,-0.152293581745813,-0.642824675603073,-0.875231467717563,,,-0.0190149392808958,0.216285431205783,-0.622422965577274,1.34083945090515,,-0.261204723640572,0.335773270818912,,0.441419647224076,,-0.964621435836213,,,-0.0427855271818823,,,0.130405142349832,-0.544344189782431,2.27153154340465,2.27153154340388,,0.0948562335904205,-0.285516765524695,2.45760000000001,103,978.945145631068,503.832524271845,237.26213592233,978.593203883495,979.297087378641,507.870873786408,499.794174757282,251.126213592233,223.398058252427,0
373.76,-0.846259138646006,-0.250608089905673,-1.01864466228067,-0.339760292570854,-1.08658964125749,-1.08658964125998,,-0.0762300749030072,-0.469092871006212,0.088918652679517,-0.0681382470918804,0.0889186526805092,-2.07952901531274,1.86430806435693,,,,0.360542546079924,0.00703002267091234,-1.20750669124606,0.00703002267162527,,0.548113038247342,-0.16374482696693,-0.653116377766892,-0.872440322455973,,,-0.0183121993460036,0.220227773578086,-0.591438204226172,1.31578005048297,,-0.275332560076406,0.342717187449562,,0.438648868893163,,-0.93384011655125,,,-0.0525613660306609,,,0.128459676083064,-0.553425076380952,2.27810955198914,2.27810955198836,,0.098588806392204,-0.293671044397162,2.56,102,978.862745098039,506.036274509804,238.392156862745,979.521568627451,978.203921568628,508.887254901961,503.185294117647,252.264705882353,224.519607843137,0
373.8624,-0.846327638108471,-0.24822981959672,-1.0173655554703,-0.351393183379164,-1.07611737809917,-1.07611737810166,,-0.0706067379656556,-0.464789611930117,0.0957595724506214,-0.0635824347024594,0.0957595724516134,-2.05239713051381,1.84032205215515,,,,0.355811688761188,0.00167785855240272,-1.19223469730469,0.00167785855310785,,0.549743202559501,-0.174963996976609,-0.663262819313232,-0.869689331857993,,,-0.0174778428541364,0.224388544693328,-0.559722714308178,1.28999835825189,,-0.289513777282175,0.350247589313037,,0.436089758663977,,-0.903355139276227,,,-0.0626893482319635,,,0.125869230636099,-0.561919468885891,2.28277227282682,2.28277227282605,,0.102740835720829,-0.301548333597511,2.66239999999999,102,980.761764705882,509.695588235294,238.333333333333,982.639215686275,978.88431372549,517.238235294118,502.152941176471,252.382352941177,224.28431372549,0
373.9648,-0.846510715521953,-0.245226731152693,-1.01585042227259,-0.362643395503317,-1.06511007292279,-1.06511007292527,,-0.0644521670094739,-0.459743042748034,0.101679814582972,-0.058655289612155,0.101679814583965,-2.02491382579701,1.81561759744849,,,,0.350896556911091,-0.00392364422181474,-1.17621181504817,-0.00392364422111741,,0.551457738638483,-0.185936412789555,-0.673216001336282,-0.866945518806092,,,-0.0165406079407297,0.22875381773015,-0.52730879016223,1.26352860661305,,-0.303740050179964,0.358382555376912,,0.433728101516852,,-0.873275730935755,,,-0.0731790622824685,,,0.122617598851993,-0.569822499140966,2.28559632906847,2.28559632906771,,0.107354624867557,-0.309085889516865,2.76480000000004,103,978.829601074316,513.570570858015,236.47682450517,981.147239944521,976.511962204111,526.933439667129,500.207702048901,250.137725381415,222.815923628925,0
374.0672,-0.846821924728036,-0.241594336693649,-1.01411075144697,-0.373452694866529,-1.05355525131562,-1.05355525131811,,-0.0577737939721057,-0.453944449218081,0.106628570828323,-0.0533769525499081,0.106628570829317,-1.99715617000202,1.79023614177144,,,,0.34584102091001,-0.00976045703253496,-1.15948060516807,-0.00976045703184537,,0.553264917126965,-0.196648599795149,-0.682927872936327,-0.864175195501071,,,-0.0155292554927854,0.233308974313267,-0.494232549579704,1.23640686971617,,-0.318001746193264,0.367137542754818,,0.431549732768016,,-0.843708118080032,,,-0.0840379132090634,,,0.1186896731615,-0.577129764568555,2.2866597058445,2.28665970584375,,0.112470627844085,-0.316220897906926,2.86720000000003,102,953.312575848065,599.54758092451,235.28558588151,949.251071428571,957.374080267559,612.200178571429,586.894983277592,245.541071428571,225.030100334448,0.254901960784314
374.1696,-0.847274901836818,-0.237330482913973,-1.01215944219038,-0.383762637823682,-1.04144052876102,-1.04144052876352,,-0.0505787193194979,-0.447386133463634,0.110556055069829,-0.0477671137997315,0.110556055070823,-1.96920049692165,1.76421910349757,,,,0.34068834905947,-0.0158190027516271,-1.1420852743524,-0.0158190027509453,,0.555170753595609,-0.207088143400424,-0.692350374758172,-0.861344140261956,,,-0.0144724532046156,0.238038760249325,-0.46053369709213,1.20867080557374,,-0.332288014983771,0.376525408837491,,0.429540608529869,,-0.814754953381443,,,-0.0952711433445965,,,0.114071439982812,-0.583837319532094,2.28604128901888,2.28604128901815,,0.118127306461332,-0.322890565607698,2.96960000000001,103,915.678596512184,724.199860845676,234.962977783087,901.442142857143,929.915050167224,739.190357142857,709.209364548495,240.782142857143,229.14381270903,0.699029126213592
374.272,-0.847883199575345,-0.232435389104708,-1.01001065417248,-0.393514720334241,-1.02875370801022,-1.02875370801272,,-0.0428735572046743,-0.440061319296884,0.113413759433246,-0.0418450071926413,0.113413759434239,-1.94112210196682,1.73760765879559,,,,0.3354809631859,-0.0220861935980353,-1.12407168287857,-0.0220861935973615,,0.55717911414555,-0.217243557645604,-0.701435488922324,-0.858417780896444,,,-0.0133986653196143,0.242927329514077,-0.426255257509826,1.18035940932563,,-0.346586911276062,0.386556467289101,,0.427686843468432,,-0.786514768833244,,,-0.106881863679756,,,0.108749976963838,-0.58994167982075,2.28382042772219,2.28382042772146,,0.12436101402747,-0.329032240052421,3.072,102,885.840420706744,836.358012551174,237.086476513682,867.48906162465,904.191779788839,852.31549719888,820.400527903469,240.289845938375,233.883107088989,0
374.3744,-0.848660148880349,-0.226911647652166,-1.00767966448425,-0.402650547568053,-1.01548287158262,-1.01548287158513,,-0.0346643343737959,-0.431964090509109,0.115154732826596,-0.0356294362282671,0.115154732827589,-1.91299494264372,1.71044255687778,,,,0.330260224776901,-0.0285494663375847,-1.10548735313184,-0.0285494663369182,,0.559291854969717,-0.227104185375348,-0.71013530298655,-0.855361373218068,,,-0.0123360482023014,0.247958271251686,-0.391443273532427,1.1515127737307,,-0.360885548638598,0.397238578855863,,0.425974715349719,,-0.759081475819349,,,-0.118871104609618,,,0.102713455597186,-0.595439841514027,2.2800765259573,2.28007652595658,,0.131205905063053,-0.334583558721365,3.17439999999999,102,892.110294117647,851.054901960784,254.166666666667,880.404901960784,903.81568627451,858.540196078431,843.569607843137,266.490196078431,241.843137254902,0
374.4768,-0.849618750794939,-0.220764188635974,-1.00518273559016,-0.411112021573773,-1.00161646779226,-1.00161646779478,,-0.0259564403287939,-0.423089359100007,0.115733865303573,-0.0291388236570407,0.115733865304565,-1.88489134384858,1.68276395435759,,,,0.325066255125037,-0.0351968048929667,-1.08638147264106,-0.0351968048923083,,0.561508990293285,-0.236660141211839,-0.718402089576726,-0.852140165501559,,,-0.0113123441515667,0.253114627745749,-0.356146463738644,1.12217185023768,,-0.375170278994669,0.408577275852603,,0.424390644915454,,-0.732543926551447,,,-0.131237899579977,,,0.095951142482244,-0.600329314538632,2.27488866435111,2.27488866435041,,0.13869386686435,-0.339482628171241,3.27680000000004,103,898.858737864078,859.799029126214,276.572815533981,897.033009708738,900.684466019418,866.023300970874,853.574757281553,291.73786407767,261.407766990291,0
374.5792,-0.850771595689495,-0.214000213428517,-1.00253699398059,-0.418841551019644,-0.987143393077513,-0.98714339308004,,-0.0167546288368379,-0.413432865563482,0.115108159004827,-0.0223912685872544,0.115108159005819,-1.85688170434411,1.65461125440181,,,,0.319937788987029,-0.0420167447752604,-1.06680487581095,-0.0420167447746118,,0.563828885969243,-0.245902301320554,-0.72618840492798,-0.848719540053791,,,-0.0103547698605257,0.258378914534101,-0.320415843623751,1.0923782083058,,-0.389426894172756,0.420575923291314,,0.422921156636631,,-0.706985556939925,,,-0.143979411395591,,,0.0884533894521736,-0.604608170804369,2.26833525415883,2.26833525415815,,0.146854467736788,-0.34366823949533,3.37920000000003,102,900.955392156863,853.849019607843,290.544117647059,902.544117647059,899.366666666667,851.812745098039,855.885294117647,304.254901960784,276.833333333333,0
374.6816,-0.852130803396141,-0.206629105263094,-0.999760317408442,-0.425782297413889,-0.972053075759203,-0.972053075761738,,-0.00706307511327473,-0.402991220407005,0.113236973876619,-0.0154045915296079,0.113236973877613,-1.82903419812762,1.62602294374472,,,,0.314912061101021,-0.0489983586761819,-1.04680998165249,-0.0489983586755421,,0.566248474652327,-0.254822340072085,-0.733447216686644,-0.845065125463869,,,-0.00948990777937015,0.263733148356097,-0.284304314361046,1.06217379477498,,-0.403640847898194,0.433235923961803,,0.42155282062843,,-0.682484132555302,,,-0.157091104414594,,,0.0802116077290765,-0.608275108945414,2.26049372824402,2.26049372824334,,0.155714914990027,-0.34708013574954,3.48160000000001,103,670.883495145631,748.149514563107,288.388349514563,662.723300970874,679.043689320388,748.045631067961,748.253398058252,298.495145631068,278.281553398058,0
374.784,-0.853707977566909,-0.198662328205585,-0.996871230272938,-0.431878472784301,-0.956335566646244,-0.956335566648787,,0.00311451239751893,-0.391761994048252,0.110082248631686,-0.00819635215518169,0.110082248632681,-1.80141446782621,1.59703642864264,,,,0.310024722553762,-0.0561312235776212,-1.0264506706454,-0.0561312235769905,,0.568763486615575,-0.263412806085483,-0.740132072137122,-0.841142883969342,,,-0.00874361229850733,0.269158883354333,-0.247866222286287,1.03160069484479,,-0.417797494135338,0.44655696694702,,0.420272178047752,,-0.659111605570077,,,-0.170566958959404,,,0.0712182292580446,-0.6113295370476,2.25144027330146,2.2514402733008,,0.16530001337471,-0.349659343698982,3.584,102,111.485294117647,525.751960784314,281.720588235294,121.089215686275,101.88137254902,533.972549019608,517.53137254902,289.264705882353,274.176470588235,0
374.8864,-0.855514166472655,-0.190113327689997,-0.993888806561218,-0.437075687460623,-0.939981640958379,-0.939981640960928,,0.0137747389166395,-0.379743850637028,0.105608706494906,-0.000783834970723851,0.105608706495904,-1.77408531980006,1.56768788000009,,,,0.305309778243238,-0.0634053705373421,-1.00578210204552,-0.0634053705367192,,0.571368687930774,-0.271667217662893,-0.746197305715051,-0.836919190492716,,,-0.00814093385810022,0.274637253978524,-0.211156899841691,1.00070089827266,,-0.431882330019914,0.460537298549335,,0.419065660326326,,-0.636934064263061,,,-0.184399712319413,,,0.0614666651355921,-0.61377166841343,2.24124960269237,2.24124960269173,,0.175632114620061,-0.351348564179332,3.68639999999999,102,83.5401960784314,530.989215686275,277.102941176471,92.7333333333333,74.3470588235294,544.021568627451,517.956862745098,284.637254901961,269.56862745098,0
374.9888,-0.857559819878346,-0.18099744340535,-0.990832575737957,-0.441321327746475,-0.922982912439684,-0.922982912442238,,0.0249143486728883,-0.366936709471232,0.0997840578666436,0.0068159915047853,0.0997840578676444,-1.74710644398566,1.53801210469369,,,,0.300799534200326,-0.0708112208757746,-0.984860489363257,-0.0708112208751596,,0.574058112364628,-0.279580151879572,-0.751598271329921,-0.832360918899423,,,-0.00770605295391451,0.280149020910601,-0.174232216079981,0.969516081477669,,-0.44588122631951,0.475173979797878,,0.417919517682905,,-0.61601173482301,,,-0.198581100192978,,,0.0509512760132359,-0.61560261986732,2.22999476336534,2.22999476336472,,0.186731051373497,-0.352092596734235,3.78880000000004,103,87.9067961165049,524.866019417476,277.194174757282,94.6873786407767,81.126213592233,536.231067961165,513.500970873786,287.281553398058,267.106796116505,0
375.0912,-0.859854731805817,-0.171331839315245,-0.987722423745584,-0.444564940737654,-0.905331956187763,-0.905331956190325,,0.036530040887222,-0.353341916311259,0.092579209976011,0.0145865306461608,0.0925792099770141,-1.72053417739675,1.50804245645353,,,,0.296524549501675,-0.0783395123085103,-0.963742854518853,-0.0783395123079028,,0.576825271776875,-0.28714730793642,-0.756291585122191,-0.827435539668292,,,-0.00746221237566017,0.285674615368307,-0.137148167093178,0.938087416779517,,-0.45978063386435,0.490463102314569,,0.416819766620925,,-0.596398999381134,,,-0.213102076633254,,,0.039667368954409,-0.616824504594118,2.21774696869431,2.2177469686937,,0.198614051882383,-0.351838772476866,3.89120000000003,102,103.720588235294,520.188235294118,282.220588235294,107.809803921569,99.6313725490196,527.811764705882,512.564705882353,294.656862745098,269.78431372549,0
375.1936,-0.862407961977744,-0.161135449184497,-0.984578480729495,-0.446758612680332,-0.887022435756935,-0.887022435759502,,0.0486182742191375,-0.338962415794972,0.0839684894817997,0.0225116177852236,0.0839684894828081,-1.6944213122925,1.47781079192381,,,,0.292513596225615,-0.0859812140385567,-0.942486774219525,-0.0859812140379569,,0.579663336924229,-0.294365537480956,-0.760235370887816,-0.822111229380124,,,-0.007431639792762,0.291194179157273,-0.099960517303761,0.906455411976626,,-0.473567766203071,0.506399955622087,,0.415752155798378,,-0.578144420695548,,,-0.227953003115258,,,0.0276112270198384,-0.617440518711015,2.20457545134178,2.20457545134119,,0.211295634856004,-0.350537380228523,3.99360000000002,103,113.750485436893,528.485436893204,286.970873786408,120.092233009709,107.408737864078,539.493203883495,517.477669902913,299.699029126214,274.242718446602,0
375.296,-0.865227730694586,-0.150428931325366,-0.981420986484069,-0.447857330746069,-0.868049230250569,-0.868049230253145,,0.0611750535039978,-0.323802922175226,0.0739298783854006,0.0305755770574262,0.0739298783864138,-1.66881694215937,1.4473474763362,,,,0.288793633907998,-0.0937274268113951,-0.921150127067068,-0.0937274268108032,,0.582565287290323,-0.301232845918639,-0.763389500288784,-0.816356998198726,,,-0.00763545752061755,0.296687598783191,-0.0627244861772643,0.874659778514881,,-0.487230764038173,0.522979153191879,,0.414702148431715,,-0.561290784449928,,,-0.243123801565716,,,0.0147801674770652,-0.617455023596161,2.1905473322073,2.19054733220673,,0.224787488539187,-0.34814207599665,4.096,102,127.483823529412,528.48137254902,293.313725490196,133.113725490196,121.853921568627,537.453921568628,519.508823529412,305.71568627451,280.911764705882,0
375.3984,-0.868321282127681,-0.139234625176446,-0.978270124230817,-0.447819317347393,-0.848408557116758,-0.848408557119344,,0.0741957024425696,-0.307870083887606,0.0624452586671295,0.0387632699868628,0.06244525866815,-1.64376634142267,1.4166814410422,,,,0.285389801259413,-0.101569267151979,-0.899790848942931,-0.101569267151394,,0.585524027232064,-0.307748374142168,-0.765715817555475,-0.810142842011961,,,-0.00809358012775786,0.302134532577734,-0.0254944718375181,0.842739324908446,,-0.500758843585235,0.54019472613349,,0.413654925538733,,-0.545875169882936,,,-0.258604064982554,,,0.00117261862587057,-0.616873623070504,2.17572750361234,2.17572750361178,,0.239098342001859,-0.344610264664909,4.19839999999999,102,139.107843137255,528.767156862745,297.529411764706,142.591176470588,135.624509803922,534.969607843137,522.564705882353,309.058823529412,286,0
375.5008,-0.871694713025478,-0.127576506053551,-0.975145817540743,-0.446606333364863,-0.828098089061568,-0.828098089064164,,0.0876746354773565,-0.29117263638194,0.0495006607118106,0.0470601336654191,0.0495006607128387,-1.6193108731591,1.38584028442803,,,,0.282325422121472,-0.10949774128585,-0.878466701859017,-0.109497741285273,,0.588532463693352,-0.313912365777191,-0.767178343645959,-0.803439917267444,,,-0.00882460717717059,0.307514433715246,0.0116761942658069,0.810731870470581,,-0.514142426276452,0.558040188333426,,0.412595414382424,,-0.531929045034973,,,-0.274383124409477,,,-0.0132117927022539,-0.615703231354816,2.16017852900418,2.16017852900363,,0.254233835908861,-0.339903448979133,4.30080000000004,103,130.336893203884,525.140776699029,300.616504854369,133.423300970874,127.250485436893,532.021359223301,518.260194174757,313.398058252427,287.834951456311,0
375.6032,-0.875352770926475,-0.115480138952625,-0.972067495139749,-0.444183958519639,-0.807117065977136,-0.807117065979741,,0.101605142696903,-0.273721540065732,0.0350865119207228,0.0554522083044967,0.0350865119217576,-1.59548791822694,1.35485039912723,,,,0.279622020195476,-0.117503617978206,-0.857235057673438,-0.117503617977637,,0.591583546818206,-0.319726115013239,-0.767743465003012,-0.796220728237994,,,-0.00984572476862409,0.312806575851755,0.0487354609668209,0.778674176995346,,-0.527373246500207,0.576508572304258,,0.411508337671391,,-0.51947837176392,,,-0.290450080233915,,,-0.0283721438232609,-0.613952127817709,2.14396056439073,2.14396056439019,,0.270196396648136,-0.333987551560071,4.40320000000003,102,106.948529411765,526.128921568628,312.333333333333,113.606862745098,100.290196078431,538.169607843137,514.088235294118,327.676470588235,296.990196078431,0
375.7056,-0.87929863451325,-0.102972632898012,-0.969053837528955,-0.440521860556762,-0.785466401482487,-0.785466401485101,,0.115979197216753,-0.255530102695735,0.0191978804777639,0.0639261496892619,0.0191978804788061,-1.57233082553605,1.32373711303432,,,,0.277299338046828,-0.125577308966998,-0.836152696121305,-0.125577308966438,,0.59467028557819,-0.325191885862828,-0.767380116463164,-0.788459318261304,,,-0.0111726263909559,0.317990089275531,0.0856327342942191,0.746601900844941,,-0.540444438103769,0.595592437162859,,0.41037827538268,,-0.508543710620609,,,-0.306793809094307,,,-0.0443061069348113,-0.611629996932928,2.12713130568472,2.1271313056842,,0.286985117243898,-0.326833217984207,4.50560000000002,103,116.727669902913,525.407766990291,328.334951456311,122.34854368932,111.106796116505,541.357281553398,509.458252427185,343.47572815534,313.194174757282,0
375.808,-0.883533691814736,-0.0900825941455231,-0.966122520726593,-0.435594057085042,-0.763148780559412,-0.763148780562033,,0.130787289978834,-0.236614085223075,0.00183470921619679,0.0724692181355907,0.00183470921724645,-1.54986888428931,1.29252484205157,,,,0.275375356058874,-0.133708761172308,-0.815275618893949,-0.133708761171754,,0.597785756645654,-0.330312803162294,-0.766059962490628,-0.780131467779615,,,-0.0128194536897583,0.323044013717432,0.122319015104374,0.714549570386048,,-0.55335060455093,0.615283854226046,,0.409189739485209,,-0.499140322776943,,,-0.323402951940661,,,-0.0610098272813988,-0.608747952881117,2.10974596288631,2.1097459628858,,0.304595651069308,-0.318416101820245,4.608,102,123.379411764706,529.251470588235,337.156862745098,129.494117647059,117.264705882353,539.671568627451,518.83137254902,352.705882352941,321.607843137255,0
375.9104,-0.88805732996026,-0.076840072177533,-0.963289967881222,-0.429379162236438,-0.740168742000807,-0.740168742003436,,0.146018295390609,-0.216991783607019,-0.016997964041417,0.0810692395707328,-0.0169979640403587,-1.52812731228949,1.26123725136819,,,,0.273866307268666,-0.141887359725781,-0.794658887298045,-0.141887359725235,,0.600923121431925,-0.335092730819147,-0.763757572864326,-0.771214904846876,,,-0.0147987551861438,0.327947367696684,0.158746996557841,0.682550591697266,,-0.566087876902201,0.635574373263462,,0.407927265863301,,-0.491278262047625,,,-0.340265881488558,,,-0.0784777868879788,-0.605318546445444,2.09185725889599,2.09185725889549,,0.323020125491734,-0.308717122572421,4.71039999999999,102,203.295588235294,527.486764705882,343.941176470588,205.629411764706,200.961764705882,533.626470588235,521.347058823529,362.578431372549,325.303921568628,0
376.0128,-0.892866746957413,-0.0632764914276465,-0.960571115592068,-0.421860602358782,-0.716532740344279,-0.716532740346917,,0.161659373589875,-0.196684071745085,-0.0372898070847913,0.0897145409001538,-0.0372898070837269,-1.50712725433576,1.22989740966025,,,,0.272786686301621,-0.150101841453389,-0.774356490436324,-0.15010184145285,,0.604075656832531,-0.339536156270306,-0.760450584932497,-0.761689519544973,,,-0.0171214669724324,0.332679228039392,0.194871121914793,0.650637276797667,,-0.578653960074762,0.65645496875481,,0.406575519456989,,-0.484962448367673,,,-0.357370647666477,,,-0.0967026512315372,-0.601355750404073,2.07351544921185,2.07351544921137,,0.342247080171294,-0.297722680359963,4.81280000000004,103,220.941262135922,531.176699029126,352.703883495146,221.826213592233,220.056310679612,533.182524271845,529.170873786408,373.087378640777,332.320388349515,0
376.1152,-0.897956790833723,-0.0494245663298335,-0.957979199101279,-0.413026787178731,-0.692249189177635,-0.692249189180281,,0.177695914439951,-0.175714395228939,-0.0590250261755559,0.0983938658000796,-0.0590250261744827,-1.48688579129657,1.19852791785767,,,,0.27214925217889,-0.15834022283063,-0.754421240634801,-0.158340222830098,,0.607236797002035,-0.343648089388064,-0.756119845511271,-0.751537563865377,,,-0.0197969201780815,0.337218813438607,0.230647608338824,0.618840882258338,,-0.591048166056225,0.677915968096946,,0.40511940198212,,-0.480192721999953,,,-0.374704905732749,,,-0.115675103178847,-0.596874921658878,2.05476835856348,2.05476835856303,,0.362261431363713,-0.285424814019285,4.91520000000003,102,234.439705882353,528.399019607843,360.779411764706,236.205882352941,232.673529411765,532.703921568628,524.094117647059,383.254901960784,338.303921568627,0
376.2176,-0.903319824987496,-0.035318203034166,-0.955525557059542,-0.402871236430065,-0.667328495443256,-0.667328495445911,,0.194111520090137,-0.154108720719793,-0.0821822373492628,0.107096280007318,-0.0821822373481827,-1.46741596147534,1.16715100869285,,,,0.271965024876025,-0.166589745666154,-0.734904685573854,-0.166589745665629,,0.610400179567104,-0.347433972138917,-0.750749531783353,-0.740743827148305,,,-0.0228328711997461,0.341545569176816,0.266034442362552,0.587191652872,,-0.603271434379377,0.699946967828531,,0.403544149985216,,-0.476963883601383,,,-0.392255834340774,,,-0.135383676695454,-0.591892743271029,2.03566142963415,2.03566142963371,,0.383044460841242,-0.271821303975558,5.01760000000002,103,247.080582524272,526.483009708738,367.014563106796,247.257281553398,246.903883495146,531.316504854369,521.649514563107,389.660194174757,344.368932038835,0
376.32,-0.908945615970055,-0.0209923934938017,-0.953219455191132,-0.391392674435771,-0.641783094108224,-0.641783094110887,,0.210888016170261,-0.131895454799601,-0.106734373531202,0.115811075901633,-0.106734373530115,-1.44872679427293,1.13578862814904,,,,0.27224327547961,-0.174836838825171,-0.715857027223536,-0.174836838824653,,0.613559688271023,-0.350899588591682,-0.744327257561355,-0.729295788505391,,,-0.0262355422897078,0.345639252075246,0.300991343297975,0.555718878018542,,-0.61532634220056,0.722536742021485,,0.401835410588761,,-0.475265724216019,,,-0.410010047717936,,,-0.155814600180581,-0.58642715305748,2.01623777801822,2.01623777801779,,0.404573824375883,-0.256915733578147,5.12000000000001,102,234.15637254902,620.672549019608,319.029411764706,229.535294117647,238.777450980392,612.310784313726,629.03431372549,342.754901960784,295.303921568627,0
376.4224,-0.914821241973351,-0.00648310632931535,-0.951067929572012,-0.378595104309428,-0.615627484747119,-0.615627484749787,,0.228005483025062,-0.10910534184625,-0.132648620702691,0.124527680847498,-0.132648620701596,-1.43082335641316,1.10446251085612,,,,0.272991509347774,-0.183067092953485,-0.697327041719287,-0.183067092952974,,0.616709481584135,-0.354050964347224,-0.736844171554661,-0.717183750582932,,,-0.0300096587452163,0.349480018309713,0.335479686305593,0.52445097197956,,-0.627217105686466,0.745673138489302,,0.399979286698232,,-0.475083049207652,,,-0.427953502950201,,,-0.176951649463456,-0.580497263982944,1.99653824933894,1.99653824933853,,0.426823571919526,-0.240717520599198,5.22239999999999,102,242.205882352941,675.994607843137,289.598039215686,222.653921568627,261.757843137255,655.746078431373,696.243137254902,308.549019607843,270.64705882353,0
376.5248,-0.92093102164153,0.00817282443329451,-0.949075649748403,-0.364487864710006,-0.588878266080312,-0.58887826608299,,0.245442301753507,-0.0857713419048157,-0.159886376240632,0.133235565028925,-0.159886376239529,-1.4137068074824,1.07319425312382,,,,0.274215441496547,-0.191265247171072,-0.679361999633433,-0.191265247170569,,0.619843994242043,-0.356894251374971,-0.728295049761696,-0.704400960303769,,,-0.0341584728049782,0.353048519744666,0.369462386171852,0.493415579035088,,-0.638949573139266,0.769342951122871,,0.397962349301375,,-0.476395706462781,,,-0.446071403463074,,,-0.19877600736481,-0.574123278004921,1.97660147827321,1.97660147827282,,0.449764173116346,-0.223241921844339,5.32480000000004,103,280.88786407767,512.863106796117,365.941747572816,285.239805825243,276.535922330097,518.271844660194,507.454368932039,385.106796116505,346.776699029126,0
376.6272,-0.927256460588302,0.0229378130217894,-0.947244798830659,-0.349085666706138,-0.561554167292993,-0.561554167295675,,0.263175209907085,-0.0619284872671916,-0.188403223807259,0.141924142848926,-0.188403223806147,-1.39737445784601,1.04200538175056,,,,0.275918965489496,-0.199415185436268,-0.662007587458711,-0.199415185435773,,0.622957904087976,-0.359435601102163,-0.718678381769094,-0.690943721454389,,,-0.0386837703281943,0.356326010287702,0.402903756618364,0.462639689914016,,-0.650531210892903,0.793531760118197,,0.395771617819385,,-0.479178633990079,,,-0.464348102499932,,,-0.221266130668407,-0.567326394370579,1.95646395119641,1.95646395119604,,0.473362544420001,-0.204510009329524,5.42720000000003,102,291.594117647059,528.525490196078,364.892156862745,295.48431372549,287.703921568627,532.302941176471,524.748039215686,383.862745098039,345.921568627451,0
376.7296,-0.933776207151239,0.0377736355136582,-0.945574963188791,-0.332408608546494,-0.533676080313063,-0.533676080315755,,0.281179356620651,-0.0376137237892581,-0.218148919942699,0.150582671757498,-0.218148919941578,-1.38181982361878,1.01091741867998,,,,0.278104123210492,-0.207499932072605,-0.645307827875981,-0.207499932072117,,0.62604606940229,-0.361681028350363,-0.70799645115961,-0.676811495138505,,,-0.0435858617654532,0.359294456871804,0.435769367745947,0.432149750588304,,-0.661971084152655,0.818223745251362,,0.393394514487939,,-0.483401940453292,,,-0.482767014600961,,,-0.244397627370532,-0.560128716282155,1.93616007297378,1.93616007297343,,0.497582073425343,-0.1845486182605,5.52960000000002,103,301.333980582524,524.709708737864,375.174757281553,302.4,300.267961165049,526.447572815534,522.971844660194,392.68932038835,357.660194174757,0
376.832,-0.940466001980517,0.0526415379501218,-0.944063018874814,-0.314482168911971,-0.505267097571018,-0.505267097573722,,0.299428338191615,-0.0128657543686536,-0.24906738691819,0.159200162482702,-0.249067386917057,-1.36703267520241,0.979951946954937,,,,0.280771090657803,-0.215501626389288,-0.629304998030956,-0.215501626388808,,0.629103447875251,-0.363636268459685,-0.696255409511307,-0.662006977666369,,,-0.0488635600882554,0.361936646306196,0.468025922477556,0.401971749659504,,-0.673279835213903,0.843401489454993,,0.390818805055735,,-0.489031030523553,,,-0.501310545261979,,,-0.268143148679038,-0.552553163229596,1.91572223567287,1.91572223567254,,0.522382635494764,-0.163390272196131,5.63200000000001,102,313.873039215686,520.047549019608,375.627450980392,308.016666666667,319.729411764706,520.210784313726,519.88431372549,392.039215686275,359.21568627451,0
376.9344,-0.947298606725512,0.0675023340361789,-0.942703002310449,-0.295337182784313,-0.476352555643205,-0.476352555645919,,0.317894194810954,0.012275094337428,-0.281096708131975,0.167765312115352,-0.281096708130831,-1.35299907831521,0.949130685063895,,,,0.283918195138263,-0.22340145841066,-0.614039552465031,-0.223401458410187,,0.632125002077265,-0.365306635571837,-0.683465341255373,-0.646536153167343,,,-0.0545141456838069,0.364236277671773,0.499641161844952,0.372131279187964,,-0.684469659410006,0.86904579009234,,0.388032541237559,,-0.496026782565618,,,-0.51996004718665,,,-0.292472307462606,-0.544623396878958,1.89518088516106,1.89518088516075,,0.547720602094664,-0.141073093953079,5.73439999999999,102,321.480882352941,517.103431372549,361.916666666667,315.197058823529,327.764705882353,517.744117647059,516.462745098039,378.823529411765,345.009803921569,0
377.0368,-0.954243709105638,0.0823164895304904,-0.941485964073978,-0.275009807394612,-0.446960083250117,-0.44696008325284,,0.336547363153769,0.0377669692479279,-0.314169128414826,0.17626646157785,-0.314169128413669,-1.33970143200007,0.918475571511601,,,,0.287541967459754,-0.231179564729184,-0.599550057909416,-0.231179564728718,,0.635105589505123,-0.366696891771905,-0.669640316554897,-0.630408329828722,,,-0.0605333190039425,0.366178030977754,0.530583798529988,0.342653567341779,,-0.695554274303874,0.89513548313616,,0.385024017083346,,-0.504345772937968,,,-0.538695807909906,,,-0.317351640155519,-0.53636376503235,1.8745645827539,1.87456458275361,,0.573548845224381,-0.11764070959623,5.83680000000004,103,332.821844660194,517.741747572816,351.218446601942,328.387378640777,337.256310679612,513.823300970874,521.660194174757,366.902912621359,335.533980582524,0
377.1392,-0.961267815498691,0.0970441920842258,-0.940399818020272,-0.253541483892667,-0.417119653987128,-0.417119653989855,,0.355356595445663,0.0635665531154387,-0.348211066820322,0.184691576700161,-0.348211066819152,-1.3271185104494,0.888008853239155,,,,0.291637218067716,-0.238814900855099,-0.585873136214396,-0.23881490085464,,0.638039838060054,-0.367811127809625,-0.654798430846295,-0.613636169113679,,,-0.0669151477661701,0.367747606944856,0.560823475447784,0.313563481200455,,-0.706548874519783,0.921647273096567,,0.381781741100732,,-0.513940527091265,,,-0.557497066840324,,,-0.342744618517385,-0.527799262424199,1.85390006141747,1.8539000614172,,0.599816741819212,-0.0931421475967311,5.93920000000003,102,348.112745098039,517.698039215686,343.279411764706,346.921568627451,349.303921568627,514.000980392157,521.395098039216,358.21568627451,328.343137254902,0
377.2416,-0.968334148805826,0.111645408194097,-0.939429203180031,-0.230978890358776,-0.386863643344346,-0.386863643347078,,0.374288864761939,0.0896291042674277,-0.383143149995812,0.193028256364434,-0.38314314999463,-1.31522551359394,0.857753166257278,,,,0.296197119059794,-0.246285112134933,-0.573043401791788,-0.24628511213448,,0.640922014673193,-0.368652648060387,-0.638961827796057,-0.59623570927535,,,-0.0736520183669003,0.368931736326601,0.590330743609421,0.284885502688205,,-0.717470066882589,0.948555561343535,,0.378294418151377,,-0.52475977222069,,,-0.576342050166497,,,-0.368611697317837,-0.518955501688093,1.83321227669295,1.8332122766927,,0.626470180155665,-0.0676317262261698,6.04160000000002,103,363.29854368932,515.46359223301,339.325242718447,364.132038834951,362.465048543689,511.863106796117,519.064077669903,353.145631067961,325.504854368932,0
377.344,-0.975402567323576,0.126079932725011,-0.938555371631797,-0.207373872016172,-0.356226884858663,-0.356226884861403,,0.393309277521669,0.115908489683182,-0.418880271135236,0.201263772160854,-0.418880271134042,-1.30399412980397,0.827731599465884,,,,0.301213276819038,-0.253566420528984,-0.561093381955793,-0.253566420528537,,0.643745896096414,-0.369223854878331,-0.622156697469407,-0.578226380962889,,,-0.0807345964953986,0.369718160074513,0.619077048825998,0.256643688888638,,-0.72833578536161,0.975832275145363,,0.374550939714013,,-0.536748670374072,,,-0.595208007236334,,,-0.394910376302606,-0.509858685285831,1.81252445227903,1.8125244522788,,0.653451572530591,-0.0411689154171339,6.14400000000001,102,376.023529411765,514.358823529412,337.96568627451,379.110784313726,372.936274509804,510.458823529412,518.258823529412,352.617647058824,323.313725490196,0
377.4464,-0.982429512079272,0.140307438732746,-0.937756105680333,-0.182783333643405,-0.325246716611743,-0.325246716614487,,0.412381005414574,0.14235722188108,-0.455331676072955,0.209385141817062,-0.455331676071748,-1.29339261072656,0.797967740178897,,,,0.306675790809003,-0.260633533880766,-0.550053419753317,-0.260633533880324,,0.646504647726747,-0.369526133181706,-0.604413239520728,-0.559631014978282,,,-0.0881517969061898,0.370095583858139,0.647034719353097,0.228861628620407,,-0.739165188117657,1.00344670625996,,0.370540388639344,,-0.549849022531198,,,-0.614071236584891,,,-0.421595264971902,-0.500535570624108,1.79185811961886,1.79185811961865,,0.680699881345765,-0.0138181596283952,6.24639999999999,102,391.48137254902,509.910294117647,341.970588235294,395.476470588235,387.486274509804,510.920588235294,508.9,356.813725490196,327.127450980392,0
377.5488,-0.989367986322774,0.154287536306213,-0.937005663215992,-0.157269083430483,-0.293963006502709,-0.293963006505462,,0.43146524243202,0.168926507772869,-0.492401082025338,0.217379233005236,-0.492401082024119,-1.28338585519316,0.768485698344334,,,,0.31257330622456,-0.267459577426594,-0.5399515707135,-0.267459577426159,,0.649190718490651,-0.369559738935568,-0.585765585548391,-0.540475836781629,,,-0.0958907663359585,0.370053610761469,0.674176956577208,0.201562396543829,,-0.749978540255005,1.03136537143281,,0.366252060272141,,-0.563999448693177,,,-0.632907101770019,,,-0.44861815339624,-0.491013423627838,1.77123315008751,1.77123315008732,,0.708150668226293,0.0143513500829076,6.34880000000004,103,439.673300970874,571.566504854369,297.257281553398,419.27572815534,460.070873786408,555.443689320388,587.68932038835,325.961165048544,268.553398058252,0
377.6512,-0.996167577876785,0.167979848838524,-0.936274757564769,-0.13089762277811,-0.26241814452785,-0.262418144530607,,0.45052119829745,0.195566319121421,-0.529986844612033,0.22523288471479,-0.529986844610802,-1.27393550273272,0.739310097534918,,,,0.318893072716404,-0.274016050368879,-0.530813510167197,-0.274016050368449,,0.651795770365434,-0.369323700199116,-0.566251682738784,-0.520790430008477,,,-0.103936892908453,0.369582656639873,0.700477839044096,0.174768497449918,,-0.760797089005348,1.05955191964057,,0.361675491050276,,-0.579135561087646,,,-0.651690050798091,,,-0.475928102153843,-0.48131995890235,1.750667779139,1.75066777913883,,0.735736180225461,0.0432659643967161,6.45120000000003,102,446.339705882353,501.59068627451,338.93137254902,449.393137254902,443.286274509804,508.410784313726,494.770588235294,354.627450980392,323.235294117647,0
377.7536,-1.00277453659248,0.181344112135243,-0.935530581441636,-0.103739885212587,-0.230656998629943,-0.230656998632699,,0.469506138978073,0.222225485889688,-0.567982187704435,0.232933030066581,-0.567982187703191,-1.26500004180021,0.710466025535833,,,,0.325621017092562,-0.280272811955417,-0.522662464890477,-0.280272811954994,,0.654310664364438,-0.368815744945724,-0.545913145737545,-0.500607654646685,,,-0.112273853404213,0.36867385322373,0.725912350507548,0.148501796715517,,-0.77164293983947,1.08796711870536,,0.356800482025328,,-0.595190154011505,,,-0.670393655989056,,,-0.503471566375654,-0.471483268775798,1.73017862334852,1.73017862334836,,0.763385486210153,0.0728479224772089,6.55360000000002,103,459.161650485437,510.090291262136,344,457.900970873786,460.422330097087,506.503883495146,513.676699029126,356.902912621359,331.097087378641,0
377.856,-1.00913190530833,0.194340297326461,-0.934736872799291,-0.0758709351211456,-0.198726841651366,-0.198726841654128,,0.488375469494326,0.248851800776889,-0.606275495177657,0.240466810444767,-0.606275495176401,-1.25653493517341,0.681978953379342,,,,0.332741829097829,-0.28619809620451,-0.515519174646676,-0.286198096204093,,0.656725508528718,-0.36803226495748,-0.52479508072495,-0.479963526963762,,,-0.120883692548327,0.367318942893027,0.750456434741522,0.122783440127132,,-0.782538936211839,1.11656893300195,,0.351617109642648,,-0.612093429740094,,,-0.688990677772546,,,-0.531192561676326,-0.461531746746953,1.70978069181183,1.70978069181169,,0.791024665660224,0.103015740849514,6.65600000000001,102,470.450980392157,513.542647058824,345.470588235294,469.210784313726,471.691176470588,511.791176470588,515.294117647059,359.539215686275,331.401960784314,0
377.9584,-1.0151796922964,0.206928755954756,-0.933854011052949,-0.0473696347409081,-0.166677257953188,-0.166677257955952,,0.507082846578217,0.275392124353978,-0.644750652803771,0.247821676115347,-0.644750652802502,-1.24849275824222,0.653874635375712,,,,0.340239050949891,-0.291758553480925,-0.509401879567086,-0.291758553480515,,0.659029754743393,-0.366968311421775,-0.502945879443449,-0.458897079901977,,,-0.129746915747987,0.365510170429553,0.774087070302538,0.0976337695699016,,-0.793508537296837,1.14531267293832,,0.346115721737594,,-0.629773263838599,,,-0.707453140326156,,,-0.559032867472203,-0.451494008328606,1.68948739361956,1.68948739361943,,0.818577042183337,0.133684628755995,6.7584,102,485.38431372549,518.146568627451,347.588235294118,483.775490196079,486.993137254902,513.411764705882,522.88137254902,360.735294117647,334.441176470588,0
378.0608,-1.02085507895626,0.219070386350974,-0.9328391377233,-0.0183182794975723,-0.134560030559665,-0.13456003056243,,0.525580318173108,0.301792493920332,-0.683287431332544,0.254985469291166,-0.683287431331263,-1.24082333864363,0.626178988720031,,,,0.34809515901489,-0.296919321786153,-0.504326324737637,-0.29691932178575,,0.661212327425896,-0.365617610011448,-0.480416979109306,-0.43745021151397,,,-0.138842584680236,0.363240182088812,0.79678235843615,0.0730722390480347,,-0.804575688431054,1.17415118989269,,0.340286914951095,,-0.648155498204837,,,-0.725752405634482,,,-0.586932254382702,-0.441398806384696,1.66931054417589,1.66931054417578,,0.845963453220149,0.164766926778808,6.86079999999998,103,499.069902912621,508.48786407767,344.368932038835,497.42427184466,500.715533980583,506.796116504854,510.179611650485,356.446601941748,332.291262135922,0
378.1632,-1.02609266620015,0.230726821375343,-0.931646305019899,0.0111978025870686,-0.102429005298357,-0.102429005301131,,0.543818496692206,0.327998247835127,-0.721761909929268,0.261946488501704,-0.721761909927975,-1.2334738814413,0.598917934467949,,,,0.356291631195346,-0.301644132014806,-0.500305775379491,-0.301644132014409,,0.66326177089426,-0.363972586546831,-0.457262586535216,-0.415667513114245,,,-0.148148423712927,0.360501942736242,0.818521627133715,0.0491173261718436,,-0.815764686950531,1.20303510417918,,0.334121483894343,,-0.667164250493577,,,-0.743859243964646,,,-0.614828724337575,-0.431274935681151,1.6492603740199,1.6492603740198,,0.873102550637404,0.196172573454609,6.96320000000003,102,506.153431372549,512.827941176471,341.039215686275,507.929411764706,504.377450980392,509.376470588235,516.279411764706,354.745098039216,327.333333333333,0
378.2656,-1.03082476239134,0.241860634536739,-0.930226657024491,0.0410906907541112,-0.0703399327443981,-0.0703399327471846,,0.561746769259028,0.353954170879388,-0.760046941891229,0.268693540466891,-0.760046941889924,-1.2263890709232,0.572117183090681,,,,0.364809002151025,-0.305895446662076,-0.497351037623097,-0.305895446661685,,0.665166405888165,-0.362024400264284,-0.433539365746077,-0.393596067456112,,,-0.15764095121677,0.357288673765396,0.839285560884883,0.025786426631447,,-0.827100051271407,1.23191306556982,,0.3276103350263,,-0.686722240420419,,,-0.761743908938321,,,-0.642658762009489,-0.421151124770828,1.62934554244572,1.62934554244565,,0.899911127416461,0.227809603662855,7.06560000000002,103,519.345145631068,511.070388349515,341.839805825243,519.552427184466,519.13786407767,506.620388349515,515.520388349515,354.631067961165,329.04854368932,0
378.368,-1.03498170510595,0.252435556729404,-0.92852863987473,0.0712703528478583,-0.0383502945471849,-0.0383502945499786,,0.57931353437503,0.379604653967911,-0.798012659618029,0.275215990594687,-0.79801265961671,-1.2195111547064,0.545801970341356,,,,0.373626916551363,-0.309634622821436,-0.495470479555635,-0.309634622821052,,0.666914490334474,-0.359762981511802,-0.409306086058309,-0.371285215845718,,,-0.167295637913254,0.353593805595438,0.859056362354924,0.00309572333242908,,-0.838606399698468,1.26073204635908,,0.320744367255385,,-0.706751143031305,,,-0.779376224887537,,,-0.67035760430019,-0.411055918583084,1.60957315378846,1.6095731537884,,0.926304463606382,0.259584679839049,7.16800000000001,102,536.721078431373,514.070098039216,347.828431372549,537.893137254902,535.549019607843,507.271568627451,520.86862745098,360.5,335.156862745098,0
378.4704,-1.03849220307194,0.262416694722524,-0.926498231848352,0.101645170142412,-0.00651911921884007,-0.00651911922164088,,0.59646644970271,0.404893859386886,-0.835527014185205,0.281503820313322,-0.835527014183874,-1.2127800260834,0.519996764466366,,,,0.382724193032052,-0.31282208685448,-0.494670048902398,-0.312822086854101,,0.668494383744644,-0.357177067269537,-0.384623226629605,-0.348786294615474,,,-0.177087083358665,0.349410936041518,0.877817943904806,-0.0189399699828232,,-0.850308340662632,1.28943766257695,,0.313514324380455,,-0.727171975965451,,,-0.796725688894768,,,-0.697859538369632,-0.401017556382897,1.58994877029465,1.5899487702946,,0.952196685835724,0.291403658117745,7.2704,102,551.195098039216,508.15637254902,349.941176470588,551.786274509804,550.603921568628,512.775490196078,503.537254901961,364.764705882353,335.117647058824,0
378.5728,-1.04128369293925,0.271770744842124,-0.924079191535656,0.132122502653585,0.0250932123204109,0.0250932123176081,,0.613152686737211,0.429765889278417,-0.872456350401,0.287547692510827,-0.872456350399656,-1.20613332334449,0.494724960857235,,,,0.392078903971011,-0.315417515639468,-0.494953285888094,-0.315417515639094,,0.669894717686979,-0.354254231611415,-0.35955253950768,-0.326152339047098,,,-0.186989203546655,0.344733789736697,0.89555613809899,-0.0403073846079961,,-0.862230371327165,1.31797451858908,,0.305910623304167,,-0.747905513745472,,,-0.813761589649734,,,-0.725098238618475,-0.391063847205758,1.57047641702994,1.5704764170299,,0.97750113970246,0.323172189923839,7.37279999999998,103,561,509.465048543689,351.723300970874,560.932038834952,561.067961165049,507.92718446602,511.002912621359,364.291262135922,339.155339805825,0
378.6752,-1.04328271391991,0.280466199128492,-0.921213328789315,0.162609281564444,0.0564251719806914,0.0564251719778913,,0.629319196311436,0.454164957501913,-0.908666016130333,0.293339021840544,-0.908666016128978,-1.19950656071679,0.470008576512578,,,,0.401668465395097,-0.31738002542098,-0.496321330876232,-0.317380025420611,,0.671104573208841,-0.35098091893182,-0.334156583987389,-0.303437761447119,,,-0.196975426342789,0.339556179647948,0.91225891092255,-0.0609949788557016,,-0.874396779008138,1.34628656865665,,0.297923164338349,,-0.76887271247026,,,-0.830453147808579,,,-0.752007142769487,-0.381222043954329,1.55115858032785,1.55115858032782,,1.00213077577398,0.354796347638679,7.47520000000003,102,572.94068627451,510.925,355.754901960784,571.667647058824,574.213725490196,514.566666666667,507.283333333333,369.588235294118,341.921568627451,0
378.7776,-1.04441529763778,0.288473546493039,-0.917840794263951,0.193012609044953,0.0874143011546578,0.0874143011518596,,0.644912984293672,0.478035563370947,-0.944020992293345,0.298870044892978,-0.944020992291979,-1.19283329598362,0.445867962234659,,,,0.411469728020595,-0.318668364750357,-0.498772927479614,-0.318668364749992,,0.672113657591206,-0.347342493022123,-0.308498251250537,-0.280698021544617,,,-0.207018888332526,0.333871974777113,0.927916562855987,-0.0809931088043669,,-0.886831539321182,1.37431748046507,,0.289541135944575,,-0.789995131540362,,,-0.846769680999437,,,-0.778519850629213,-0.371518718889605,1.53199620638032,1.5319962063803,,1.02599854652477,0.386183250167003,7.57760000000002,103,583.767961165049,516.540776699029,359.305825242718,584.282524271845,583.253398058252,518.129126213592,514.952427184466,375.281553398058,343.330097087379,0
378.88,-1.04460736012173,0.295765472985309,-0.913900371680575,0.223240346285111,0.117997439688383,0.117997439685594,,0.659881389920542,0.501322664319072,-0.978386523332448,0.304133883955548,-0.97838652333107,-1.18604533214729,0.422321552159926,,,,0.421459063328743,-0.319241104362642,-0.502304422118945,-0.319241104362282,,0.672912468001845,-0.343323309646528,-0.282640296722221,-0.257989306379698,,,-0.217092623891785,0.327675077641154,0.942521909735822,-0.100294174687657,,-0.899558205367492,1.40201098192118,,0.280752831806619,,-0.81119534746786,,,-0.86268078856708,,,-0.804570522754064,-0.361979643678953,1.51298870779131,1.5129887077913,,1.04901780942124,0.417241662663429,7.68000000000001,102,598.396078431373,508.933823529412,364.098039215686,597.959803921569,598.832352941177,518.213725490196,499.653921568627,378.774509803922,349.421568627451,0
378.9824,-1.04378508131732,0.302317058122306,-0.90932975940044,0.253201671720939,0.14811096358492,0.148110963582139,,0.674172356721657,0.523971842127095,-1.01162873177906,0.309124598388138,-1.01162873177767,-1.17907294787086,0.399385663570273,,,,0.431612440638486,-0.319056822712525,-0.506909761982092,-0.319056822712169,,0.673492436240466,-0.338906811993341,-0.256644895343637,-0.235368228407384,,,-0.227169740071083,0.32095941420231,0.956070442037763,-0.118892737431293,,-0.912599783721051,1.42931118063021,,0.271545499663828,,-0.832397358642909,,,-0.878156539562132,,,-0.830094261688776,-0.352629676252931,1.49413398369424,1.49413398369423,,1.07110273004513,0.447882551844702,7.7824,102,610.976960784314,515.430392156863,366.436274509804,610.079411764706,611.874509803922,520.291176470588,510.569607843137,378.421568627451,354.450980392157,0
379.0848,-1.04187526448508,0.308105954984825,-0.904065840384253,0.282807593820258,0.177691023760441,0.177691023757668,,0.687734687996739,0.545929457227698,-1.04361520701535,0.313837220294368,-1.04361520701395,-1.17184514912764,0.377074349180108,,,,0.441905491556723,-0.318074293819376,-0.512580497783504,-0.318074293819024,,0.673846056796896,-0.33407564398131,-0.230573234924266,-0.21289154490588,,,-0.237223574746783,0.313718938626549,0.96856046282274,-0.136785605092309,,-0.925978595138154,1.45616285442121,,0.26190523789644,,-0.853526974998708,,,-0.893167642701162,,,-0.855027464071161,-0.343492656244607,1.47542845526291,1.47542845526292,,1.09216867663968,0.478019587674214,7.88479999999998,103,623.696601941748,514.189805825243,364.703883495146,624.995145631068,622.398058252427,517.859223300971,510.520388349515,377.485436893204,351.922330097087,0
379.1872,-1.03880567640488,0.313112540756109,-0.898044949052944,0.311971410624938,0.206673781594484,0.206673781591723,,0.700518284904206,0.567142790961016,-1.07421556455815,0.318267774426348,-1.07421556455673,-1.16428993309128,0.355399294048165,,,,0.452313559571643,-0.316252686268948,-0.519305801095866,-0.3162526862686,,0.673967000776665,-0.328811775040291,-0.204485159056273,-0.190615900156193,,,-0.247227837259886,0.305947654383167,0.979993201839748,-0.153971890887518,,-0.939716120943932,1.48251171307331,,0.25181694823449,,-0.874512176906785,,,-0.907685585861029,,,-0.87930813639728,-0.334591310313947,1.45686711539633,1.45686711539635,,1.11213259805074,0.507569591010146,7.98720000000003,102,635.365196078431,517.508823529412,360.446078431373,642.440196078432,628.290196078431,520.943137254902,514.074509803922,373.843137254902,347.049019607843,0
379.2896,-1.03450537342397,0.317320030626723,-0.891203144283536,0.34060911760175,0.234995642009613,0.234995642006862,,0.71247437198276,0.587560183522954,-1.10330197817607,0.322413284496206,-1.10330197817463,-1.15633455989442,0.334369744900262,,,,0.462811735659261,-0.31355177878795,-0.527072502668463,-0.313551778787607,,0.673850214957368,-0.323096629971531,-0.178438862706311,-0.168597592583562,,,-0.257156731843558,0.297639652083753,0.990372901633781,-0.170453045848883,,-0.953832840896993,1.5083046298004,,0.241264345944605,,-0.895283425266601,,,-0.921682747219964,,,-0.90287617357524,-0.325947167487497,1.43844359059904,1.43844359059908,,1.13091338097599,0.536452932832942,8.08960000000002,103,651.389320388349,517.11359223301,363.708737864078,653.905825242719,648.872815533981,516.765048543689,517.46213592233,374.73786407767,352.679611650485,0
379.392,-1.02890501729658,0.320714554298094,-0.88347649306438,0.368639771420419,0.26259348637617,0.262593486373434,,0.723555719376689,0.607131182257984,-1.13074969081474,0.326271767071132,-1.13074969081329,-1.14790583295388,0.31399246107202,,,,0.473374884017366,-0.309932193523857,-0.535865151018047,-0.309932193523518,,0.673492003480022,-0.316911218796719,-0.152490636093212,-0.14689236854832,,,-0.266985064850275,0.288789163403044,0.9997068742505,-0.186232872574385,,-0.968348073313079,1.53348984196224,,0.230230028517648,,-0.915773915184197,,,-0.935132488970393,,,-0.925673603394822,-0.317580483610425,1.42015021473576,1.42015021473582,,1.14843218565818,0.564593893311309,8.19200000000001,102,660.661764705882,522.103921568627,380.377450980392,661.887254901961,659.436274509804,519.708823529412,524.499019607843,391.28431372549,369.470588235294,0
379.4944,-1.02193718319317,0.323285199301816,-0.874801364878567,0.395985820415544,0.289404910396153,0.289404910393434,,0.733716873504517,0.625806717697574,-1.15643751125468,0.329842211057186,-1.15643751125323,-1.13893038664019,0.294271679849034,,,,0.48397766351786,-0.305355645554396,-0.545666085143881,-0.30535564555406,,0.6728900899614,-0.31023626398214,-0.126694647811649,-0.125555239643131,,,-0.276688336879013,0.279390629105694,1.0080055328507,-0.201317529800503,,-0.983279829083359,1.55801712375164,,0.218695604237496,,-0.935919779502708,,,-0.948009245579662,,,-0.947644800054944,-0.309510173674614,1.40197811594521,1.40197811594529,,1.16461276272936,0.591920989176508,8.2944,102,667.39068627451,525.234803921569,397.916666666667,666.196078431373,668.585294117647,527.817647058824,522.651960784314,410.127450980392,385.705882352941,0
379.5968,-1.01353666090188,0.325024028827961,-0.865114733507439,0.422573411283098,0.315368474494554,0.315368474491849,,0.742914405012983,0.643539318885518,-1.1802483024887,0.333124541379729,-1.18024830248724,-1.12933497889719,0.275209094142216,,,,0.494594549480253,-0.299785203444382,-0.556455512713266,-0.29978520344405,,0.672043659275266,-0.303052326038306,-0.10110275644085,-0.104640315737029,,,-0.286242822025281,0.269438778960361,1.0152824038675,-0.215715534174698,,-0.998644685409853,1.58183793278283,,0.206641874044967,,-0.955660253890638,,,-0.960288615573117,,,-0.968736670368782,-0.301753750888002,1.38391731718662,1.38391731718672,,1.17938175680446,0.618367274478768,8.39679999999999,103,672.794174757282,529.592233009709,404.04854368932,668.433009708738,677.155339805825,529.52718446602,529.657281553398,416.388349514563,391.708737864078,0
379.6992,-1.00364074823067,0.325926078325006,-0.854354482807527,0.448332674839576,0.340423967327921,0.340423967325227,,0.751107170783613,0.660283362920727,-1.20206946582075,0.336119568027995,-1.20206946581928,-1.11904679460401,0.256803847900871,,,,0.505199856468017,-0.293185554759945,-0.568211586191226,-0.293185554759618,,0.670953381004237,-0.295339930855287,-0.0757643419075163,-0.0842006478355925,,,-0.295625638466765,0.258928722701701,1.02155411712117,-0.229437754688762,,-1.01445767532263,1.60490552765751,,0.194049049223135,,-0.974937810414401,,,-0.971947458728748,,,-0.988898819657989,-0.294327271892987,1.36595684896995,1.36595684897006,,1.19266900003678,0.643870612900487,8.49920000000003,102,680.925490196078,526.89068627451,403.299019607843,675.540196078431,686.310784313726,533.187254901961,520.594117647059,414.705882352941,391.892156862745,0
379.8016,-0.992189538812063,0.325989326144541,-0.842459721424561,0.473197987825852,0.364512671166396,0.36451267116372,,0.758256574140475,0.675995335142551,-1.22179342379138,0.338828918210491,-1.2217934237899,-1.10799377557915,0.239052561355385,,,,0.515767758054383,-0.285523278981186,-0.58091047394854,-0.285523278980864,,0.669621422110846,-0.287079699847069,-0.0507261513969357,-0.0642880806998722,,,-0.304814814731588,0.24785605199302,1.02684036266193,-0.242497385772535,,-1.03073218310233,1.62717505476888,,0.180896982142995,,-0.993698257451501,,,-0.98296398825501,,,-1.00808370660093,-0.287245288012775,1.34808487155089,1.34808487155101,,1.20440779530144,0.668373915997338,8.60160000000002,103,698.330267457058,522.994933252427,402.356516056759,688.328155339806,708.332379574309,531.48640776699,514.503458737864,413.436893203884,391.276138909634,0
379.904,-0.979126212733254,0.325214630790731,-0.829371119390506,0.497108208204183,0.387577616305245,0.387577616302588,,0.76432680581829,0.690634073255009,-1.23931810413132,0.341254944695186,-1.23931810412983,-1.09610499239943,0.221949399005556,,,,0.526272298502884,-0.276767137176961,-0.594526426117403,-0.276767137176644,,0.668051459715617,-0.278252479775628,-0.0260321577976388,-0.0449531181227958,,,-0.313789353363821,0.23621695226137,1.03116380511764,-0.254909885612784,,-1.04747983879146,1.64860360967179,,0.16716539101216,,-1.01189079868639,,,-0.993317837672391,,,-1.02624678979719,-0.280520801917829,1.33028880385261,1.33028880385274,,1.2145351888686,0.691825344659345,8.70400000000001,102,813.1599288273,630.710447303922,306.775546757164,820.745098039216,805.574759615385,762.399019607843,499.021875,227.656862745098,385.894230769231,0.0686274509803922
380.0064,-0.964397335573317,0.323605635090693,-0.815031272204613,0.520006884093867,0.409563822966364,0.409563822963732,,0.769285055326726,0.704160984003901,-1.25454742246234,0.343400608356703,-1.25454742246085,-1.08331105799883,0.20548618563731,,,,0.536687393436553,-0.266888380525967,-0.609031832954659,-0.266888380525655,,0.666248696568693,-0.268839467809026,-0.0017234329776691,-0.0262448019080369,,,-0.322529290108954,0.224008321852422,1.03454995630416,-0.266692876102722,,-1.06471041256765,1.66915027910989,,0.15283407231008,,-1.02946804846384,,,-1.00299008445833,,,-1.0433466545679,-0.274165228500433,1.31255545839609,1.31255545839623,,1.22299223180153,0.71417847346246,8.8064,102,910.318575603318,539.226286764706,369.330128205128,903.197058823529,917.440092383107,599.677450980392,478.77512254902,357.470588235294,381.189668174962,0
380.1088,-0.947953162858416,0.321168646847454,-0.79938508387518,0.5418424382403,0.430418540327011,0.430418540324404,,0.773101690374748,0.716540238463178,-1.26739175767311,0.345269343957123,-1.26739175767161,-1.06954456441682,0.189652563456306,,,,0.546986817343598,-0.255861069032298,-0.624397272390516,-0.255861069031992,,0.664219866902036,-0.258822328412585,0.0221619583457647,-0.00821060242499795,,,-0.331015745300226,0.211227895753452,1.03702701612523,-0.277866011540654,,-1.08243171418072,1.6887761632776,,0.137883104723057,,-1.04638601180063,,,-1.0119632258094,,,-1.05934510149083,-0.268188359448704,1.29487118339814,1.29487118339829,,1.22972422712236,0.735392416214647,8.90879999999999,103,865.391262135922,495.577669902913,411.621359223301,863.053398058253,867.729126213592,494.92718446602,496.228155339806,425.728155339806,397.514563106796,0
380.2112,-0.929747945283627,0.317912509030631,-0.782380156694224,0.562568333824705,0.450091495471217,0.450091495468635,,0.775750409942336,0.727738960589344,-1.27776841714385,0.346864922499053,-1.27776841714235,-1.05474051915006,0.174436175731447,,,,0.557144175964134,-0.24366239088333,-0.640591546426431,-0.24366239088303,,0.661973214946483,-0.248183302057187,0.0455890403007579,0.00910368280844884,,,-0.339230965631477,0.197874371765283,1.03862569499353,-0.28845082682365,,-1.10064950228002,1.70744437340331,,0.122293047332459,,-1.06260404620094,,,-1.02022111709511,,,-1.07420718584002,-0.262598332301992,1.27722201240489,1.27722201240505,,1.23468096152541,0.755431913049142,9.01120000000003,102,778.400980392157,504.148039215686,419.808823529412,779.696078431373,777.105882352941,492.63137254902,515.664705882353,432.5,407.117647058824,0
380.3136,-0.909740231557841,0.313848470951063,-0.763967177992076,0.582143231764281,0.468535164984347,0.468535164981793,,0.777208384120176,0.737727426676122,-1.28560209371617,0.3481913182708,-1.28560209371467,-1.03883676624475,0.159822862435709,,,,0.567132863888009,-0.230272976270217,-0.657581708645029,-0.230272976269923,,0.659518435395363,-0.236905313096993,0.0685259843267876,0.0256540258326237,,,-0.347158355303945,0.183947537575919,1.03937902805386,-0.298470574535764,,-1.11936740608183,1.7251199988255,,0.106045137014478,,-1.07808482401471,,,-1.02774889196293,,,-1.08790120590308,-0.257401605009348,1.25959382137398,1.25959382137416,,1.23781692350322,0.774267385119633,9.11360000000002,103,791.565048543689,503.475242718447,423.936893203883,793.230097087379,789.9,493.392233009709,513.558252427185,437.902912621359,409.970873786408,0
380.416,-0.887893163142555,0.30899006629325,-0.744100294604391,0.600531147237033,0.48570507905457,0.48570507905205,,0.777456395418683,0.746479289913812,-1.29082531498109,0.349252582426744,-1.29082531497959,-1.021774386476,0.14579685750516,,,,0.576926010294797,-0.215677200384141,-0.675333086122074,-0.215677200383851,,0.656866574468733,-0.224972088399277,0.090944148141688,0.0413982633217528,,,-0.354782494970623,0.169448398051687,1.03932218675212,-0.307950059115775,,-1.13858685883007,1.74177003968272,,0.0891215017848575,,-1.09279430783307,,,-1.03453288072274,,,-1.10039864123576,-0.252602936179484,1.24197249449423,1.24197249449441,,1.23909150891019,0.791874964345961,9.21600000000001,102,801.967647058824,507.13137254902,409.887254901961,802.464705882353,801.470588235294,511.245098039216,503.017647058824,423.901960784314,395.872549019608,0
380.5184,-0.86417475431155,0.303352996574835,-0.722737469056792,0.617701602991289,0.501560155263665,0.50156015526118,,0.776478987710779,0.753971829623932,-1.29337887964176,0.350052722865295,-1.29337887964027,-1.00349807726023,0.132340983986927,,,,0.586496417217363,-0.199863471804414,-0.693809299423979,-0.19986347180413,,0.654029897065278,-0.212368289323443,0.112818098270411,0.0562961934055766,,,-0.36208914910172,0.154379303059004,1.03849228940638,-0.316915472207075,,-1.15830703858234,1.75736330919202,,0.0715054070956836,,-1.1067017398149,,,-1.04056053285238,,,-1.11167404854235,-0.248205370438968,1.22434409901642,1.22434409901659,,1.23846921304418,0.808236501718161,9.3184,102,810.396078431373,507.889705882353,391.323529411765,810.796078431373,809.996078431373,510.303921568628,505.475490196078,405.921568627451,376.725490196078,0
380.6208,-0.838558154312262,0.29695501646494,-0.699840816158855,0.633629767539888,0.516063041760194,0.516063041757751,,0.774264616941493,0.760186208727266,-1.2932122682774,0.350595590506037,-1.29321226827591,-0.98395651467883,0.1194368480368,,,,0.59581649678137,-0.182824503930712,-0.712972282378486,-0.182824503930434,,0.65102173026061,-0.19907964496867,0.134125617846069,0.0703096770100731,,,-0.369065266433444,0.13874407527755,1.03692820948501,-0.325394227319472,,-1.17852480871128,1.7718703181681,,0.0531815356694599,,-1.11977963675135,,,-1.04582033890384,,,-1.12170493077539,-0.244210228262736,1.20669506539976,1.20669506539994,,1.23591980691442,0.823339554650056,9.42079999999999,103,820.185922330097,507.449514563107,381.111650485437,819.655339805825,820.716504854369,516.94854368932,497.950485436893,396.21359223301,366.009708737864,0
380.7232,-0.811021891440573,0.289815819251108,-0.675376920783286,0.648296567382854,0.529180444248125,0.529180444245723,,0.77080579375969,0.76510771904371,-1.29028401207921,0.350884772421564,-1.29028401207773,-0.963102694580412,0.107065029692937,,,,0.604858217241268,-0.164557566111927,-0.732782303101279,-0.164557566111653,,0.647856294514034,-0.185093073478441,0.154847702374707,0.0834027443944604,,,-0.375698978459072,0.12254813471845,1.03467037896464,-0.333414791431765,,-1.19923465031653,1.78526315764464,,0.0341362923796364,,-1.13200378286216,,,-1.05030174808916,,,-1.13047159797193,-0.240617100106921,1.18901236684705,1.18901236684722,,1.23141849333199,0.837177355737801,9.52320000000003,102,824.496568627451,509.182352941177,378.926470588235,823.495098039216,825.498039215686,514.780392156863,503.58431372549,394.78431372549,363.06862745098,0
380.8256,-0.781550103439329,0.281956917981361,-0.64931714393705,0.661688772744088,0.540883424306055,0.540883424303689,,0.766099214638008,0.768726001028704,-1.28456201160549,0.350923490793472,-1.28456201160401,-0.940894248316658,0.095205264386292,,,,0.613593069636173,-0.145064712649856,-0.753197991827454,-0.145064712649588,,0.644548531339168,-0.170396791501361,0.174968549226397,0.0955417066531652,,,-0.381979596683616,0.105798615187735,1.03176058398924,-0.341006513550716,,-1.22042858333535,1.79751539775826,,0.0143581313002228,,-1.14335321676086,,,-1.0539950879554,,,-1.13795704034684,-0.23742384501138,1.17128369370647,1.17128369370665,,1.22494604075056,0.849748768878153,9.62560000000002,103,646.96359223301,515.902427184466,366.402912621359,640.163106796117,653.764077669903,521.376699029126,510.428155339806,379.621359223301,353.184466019418,0
380.928,-0.750132763434397,0.273401517076895,-0.621637929620561,0.673799064435496,0.551147673822847,0.551147673820517,,0.760145887497516,0.771035237991256,-1.27602381304803,0.350714504642525,-1.27602381304655,-0.917293735885503,0.0838366100794296,,,,0.621992063808605,-0.124352990626438,-0.774176380368069,-0.124352990626174,,0.64111393291989,-0.154980421584653,0.194475546527991,0.106695272938077,,,-0.387897605462025,0.0885044694068228,1.02824175224754,-0.348199451052007,,-1.24209608372931,1.80860202091337,,-0.00616209904448915,,-1.15381020997261,,,-1.05689149857341,,,-1.14414683000641,-0.234626593608745,1.1534976203966,1.15349762039678,,1.21648890027839,0.861058238218367,9.72800000000001,102,338.736764705882,512.984803921569,346.637254901961,340.966666666667,336.506862745098,518.026470588235,507.943137254902,356.098039215686,337.176470588235,0
381.0304,-0.716765906029067,0.264174380542214,-0.592321113782388,0.684626088616464,0.559953773143657,0.559953773141366,,0.752951259736182,0.772034336192718,-1.26465685345658,0.350260012992904,-1.26465685345511,-0.892268920016368,0.0729375953898042,,,,0.630025755867301,-0.102434622080925,-0.795672952109766,-0.102434622080666,,0.637568376686775,-0.138835106524454,0.213359263121434,0.116834672306302,,,-0.393444647860038,0.0706765622905035,1.02415773806722,-0.355024197940344,,-1.26422401181569,1.81849939605983,,-0.0274308116828686,,-1.16336023520972,,,-1.05898289471792,,,-1.14902905415469,-0.232219755126647,1.13564376243512,1.13564376243529,,1.20603931464064,0.871115730735081,9.8304,102,362.120588235294,516.839215686275,335.583333333333,362.102941176471,362.138235294118,512.498039215686,521.180392156863,345.166666666667,326,0
381.1328,-0.681451846453312,0.254301712844656,-0.561354218889666,0.694174498606498,0.567287427640152,0.567287427637902,,0.744525346083604,0.771727097115953,-1.25045867431044,0.349561564098329,-1.25045867430897,-0.865793017664112,0.0624863447201476,,,,0.637664305404513,-0.0793271469996344,-0.817641699783387,-0.0793271469993799,,0.633927966287445,-0.121953635636213,0.231613438114324,0.125933774239002,,,-0.398613506291516,0.052327753649234,1.019553115189,-0.361511722781035,,-1.28679655913327,1.82718528562587,,-0.0494513674331874,,-1.17199192779572,,,-1.06026196805515,,,-1.15259427603888,-0.230196028246393,1.1177129196945,1.11771291969467,,1.19359542371822,0.879936668461936,9.93279999999999,103,382.55,513.696601941748,333.368932038835,383.285436893204,381.814563106796,514.090291262136,513.302912621359,345.184466019418,321.553398058252,0
381.2352,-0.644199380689838,0.243811061216626,-0.528730716637327,0.702454975025077,0.573139664804425,0.573139664802219,,0.734882841628598,0.770122371763974,-1.23343709162262,0.348619980458545,-1.23343709162117,-0.837844926845752,0.0524606809315809,,,,0.644877559887553,-0.0550535158434406,-0.84003518835541,-0.0550535158431909,,0.630208880103104,-0.104330580253379,0.249234967219961,0.13396920202335,,,-0.40339808326555,0.0334729714285049,1.01447298117206,-0.367693221024281,,-1.30979520285871,1.83463887064296,,-0.0722238141152063,,-1.17969704613457,,,-1.06072223166111,,,-1.15483552455031,-0.228546416155972,1.0996972019316,1.09969720193176,,1.17916136476179,0.88754184433877,10.0352,102,403.641666666667,509.396078431373,336.553921568627,405.305882352941,401.977450980392,510.243137254902,508.549019607843,348.21568627451,324.892156862745,0
381.3376,-0.60502395957189,0.232731232430039,-0.494450255487252,0.709484215255454,0.577506975094084,0.577506975091917,,0.724043205132774,0.76723417986346,-1.21361031362096,0.347435306250414,-1.21361031361951,-0.808409434645409,0.0428382099384559,,,,0.651635160403894,-0.0296421327838839,-0.862804618592716,-0.0296421327836381,,0.62642722876453,-0.0859624258471032,0.266223882187412,0.140920439346783,,,-0.407793386439818,0.0141292756231406,1.00896276912892,-0.373599979695447,,-1.33319864641547,1.84084078337534,,-0.095744691176267,,-1.18647043055934,,,-1.06035809689169,,,-1.15574831371908,-0.227260245872972,1.08159013459897,1.08159013459912,,1.16274735976683,0.893957317439826,10.1376,103,422.967475728155,502.011650485437,344.538834951456,423.847572815534,422.087378640777,505.244660194175,498.778640776699,357.572815533981,331.504854368932,0
381.44,-0.563947836128444,0.221092212109514,-0.4585188590613,0.715284889066519,0.580391394484658,0.580391394482532,,0.712030707238435,0.763081784514475,-1.19100700607557,0.346006774030732,-1.19100700607413,-0.777477409527869,0.0335963915473063,,,,0.657906659870543,-0.00312685842407188,-0.885899887216231,-0.00312685842383083,,0.622598921933739,-0.0668476893153399,0.282583319173999,0.146769933111518,,,-0.411795516900275,-0.00568408699122529,1.00306806177578,-0.379263248407354,,-1.35698273535485,1.84577314314969,,-0.120006899490337,,-1.19230995248725,,,-1.05916497010667,,,-1.15533068404513,-0.226325191172912,1.06338674629001,1.06338674629014,,1.14436978117815,0.899214286304812,10.24,102,439.187745098039,509.757843137255,355.240196078431,440.330392156863,438.045098039216,509.519607843137,509.996078431373,372.647058823529,337.833333333333,0
381.5424,-0.521000187466826,0.208925084391948,-0.420949097968691,0.719885559310629,0.581800542035046,0.581800542032957,,0.69887444774615,0.757689724511019,-1.16566630594308,0.344332784740838,-1.16566630594165,-0.745045968706299,0.0247125966218631,,,,0.663661647997266,0.0244530223467783,-0.909269641619371,0.0244530223470146,,0.618739542133765,-0.0469870213987249,0.298319472086614,0.151503192029287,,,-0.41540165643264,-0.0259456364539592,0.996834408184149,-0.384714113907912,,-1.38112035934748,1.84941959334399,,-0.144999618700686,,-1.19721644712432,,,-1.05713936292331,,,-1.15358324991723,-0.225727298068008,1.04508364178668,1.04508364178681,,1.12405119204723,0.903348940284424,10.3424,102,621.451470588235,500.996078431373,375.28431372549,618.037254901961,624.86568627451,503.530392156863,498.461764705882,400.813725490196,349.754901960784,0
381.6448,-0.476217212467784,0.196261961135526,-0.381760231164008,0.723320566312247,0.58174762713594,0.581747627133894,,0.684608350548263,0.751087812616286,-1.13763777730526,0.342410903901872,-1.13763777730384,-0.711118605028262,0.0161641434395065,,,,0.668869885124524,0.053052869699259,-0.93286133060125,0.0530528696994897,,0.614864223516948,-0.0263832996810821,0.31344152947295,0.155108878170409,,,-0.418610052825729,-0.0466316216568574,0.990307150273432,-0.389983386264347,,-1.40558135960561,1.8517653361538,,-0.170708249404598,,-1.20119363045346,,,-1.05427901987899,,,-1.15050924327535,-0.225451012003946,1.02667906280189,1.02667906280201,,1.10182036284646,0.906402291565525,10.4448,103,1110.95145631068,447.882524271845,391.495145631068,1107.83786407767,1114.06504854369,446.265048543689,449.5,426.796116504854,356.194174757282,0
381.7472,-0.429642206119308,0.183135931498653,-0.340978311549127,0.725629880288537,0.580251431326159,0.58025143132415,,0.669271143056089,0.743311107111016,-1.10698130284183,0.340237884583063,-1.10698130284042,-0.675705263320721,0.00792830347514614,,,,0.673501452482235,0.0826228041062484,-0.956621259647742,0.0826228041064746,,0.610987537613225,-0.00504171705061382,0.327961598886943,0.157578889892807,,,-0.421420007312305,-0.067715993251574,0.983531270352052,-0.395101511967457,,-1.4303324503273,1.85279716349872,,-0.197114372896254,,-1.20424800853415,,,-1.05058307856152,,,-1.14611456038913,-0.225479206551753,1.00817293321672,1.00817293321683,,1.07771226909886,0.908419996350174,10.5472,102,1066.40982602814,461.9807071599,413.372719359222,1066.95335857115,1065.86629348514,461.650029120559,462.311385199241,446.170549407882,380.574889310563,0
381.8496,-0.381325608321786,0.169581035509399,-0.298636251519324,0.726858931687459,0.577336264984187,0.577336264982214,,0.652906322736796,0.734399861068375,-1.07376691237777,0.337809723850479,-1.07376691237638,-0.638822364939427,-1.7726813165467e-05,,,,0.677526924105254,0.113107876060478,-0.980494663684954,0.113107876060698,,0.607123390769353,0.0170301285199827,0.341894625209847,0.158908435959048,,,-0.423831868093029,-0.0891703904615058,0.976551269722963,-0.400098522996118,,-1.4553371518821,1.8525034865994,,-0.224195735221115,,-1.20638878892128,,,-1.04605227753623,,,-1.14040782746244,-0.225793214100228,0.989566883814506,0.98956688381461,,1.05176807243012,0.909452174362792,10.6496,103,909.266692217609,503.665000532311,429.922293197062,910.092739273927,908.44064516129,505.442904290429,501.887096774194,457.831683168317,402.012903225806,0.766990291262136
381.952,-0.331325020322705,0.155632255308066,-0.254773844954222,0.727058422994501,0.573031903370059,0.573031903368128,,0.635562110781305,0.724399451591819,-1.0380745566582,0.33512174817798,-1.03807455665683,-0.600492783401133,-0.00769688168448037,,,,0.680917557995387,0.144448290924615,-1.00442580671619,0.14444829092483,,0.603284934503346,0.0398221401159325,0.355258304186697,0.159096100169385,,,-0.425847028948926,-0.110964144218924,0.96941108042299,-0.405004017142914,,-1.48055573533379,1.85087436879468,,-0.251926258658317,,-1.20762779830259,,,-1.0406892086337,,,-1.13340049159959,-0.226372859961276,0.970864255538603,0.970864255538701,,1.02403508478395,0.909553226192361,10.752,102,746.686447620569,546.292582242095,445.919298946024,747.378217821782,745.994677419355,550.028712871287,542.556451612903,468.995049504951,422.843548387097,0.294117647058824
382.0544,-0.279705180712383,0.141325510763183,-0.209437744847655,0.726284114266582,0.567373507675924,0.567373507674029,,0.617291390289263,0.713360288509022,-0.999993833398908,0.332168715883648,-0.999993833397544,-0.560745774897358,-0.0151322959883706,,,,0.683645499656158,0.176579680790548,-1.02835811151865,0.176579680790759,,0.599484485490778,0.0633216300467028,0.36807298473451,0.158143894211677,,,-0.427467928828204,-0.133064299548717,0.962154001044972,-0.409847154505385,,-1.50594518521556,1.84790156723206,,-0.280276075831032,,-1.20797940215597,,,-1.03449858661349,,,-1.12510692797511,-0.227196502047403,0.952070084341913,0.952070084342009,,0.99456671193137,0.908781637887935,10.8544,102,635.285154798212,576.228719864396,460.048705231055,637.760069242218,632.810240354206,578.873031126642,573.584408602151,480.347505338769,439.74990512334,0
382.1568,-0.226537896317081,0.126697646269171,-0.16268139923505,0.724596574529025,0.560401529678848,0.56040152967699,,0.598151623230717,0.701337701321815,-0.959623669249843,0.328944926859228,-0.959623669248495,-0.519616868554832,-0.0223473774975935,,,,0.68568399162494,0.20943341297418,-1.05223431710971,0.209433412974386,,0.595733453084624,0.0875132398187092,0.380361552755921,0.156057296814688,,,-0.42869805017483,-0.155435660367989,0.954822641408562,-0.414656654067573,,-1.5314591889264,1.84357858790228,,-0.309211585541972,,-1.20746041560695,,,-1.02748750268767,,,-1.11554454456182,-0.228241077924048,0.933191070307899,0.933191070307991,,0.963422368317109,0.907199764057245,10.9568,103,645.82726931585,574.065364007897,470.571330282744,645.385305902296,646.269232729404,579.868477423332,568.262250592462,494.011095700416,447.131564865072,0
382.2592,-0.171901926378834,0.111786400838498,-0.114564948227649,0.72206090192913,0.552161590910593,0.552161590908772,,0.578204741050743,0.68839180691895,-0.917071960074164,0.325444336218281,-0.917071960072834,-0.477147718865212,-0.0293658806831082,,,,0.687007582596792,0.242936927447799,-1.07599665738587,0.242936927447999,,0.592042276204634,0.112378876510545,0.392149294635016,0.152845282047852,,,-0.429541916298886,-0.178040857936695,0.947458864899262,-0.419460782540769,,-1.55704815663046,1.83790075326482,,-0.338695536693287,,-1.20608999287751,,,-1.01966564045019,,,-1.10473386322621,-0.229482159620058,0.914235531661615,0.914235531661703,,0.930667352612138,0.904873591020331,11.0592,102,665.587011519394,571.698275736366,483.277559055118,662.834259259259,668.339763779528,575.995370370371,567.401181102362,508.5,458.055118110236,0.784313725490196
382.3616,-0.115882818793915,0.0966303583560208,-0.0651550826598049,0.718746424668048,0.542704327738484,0.542704327736693,,0.557517007623551,0.674587364250295,-0.872455172198363,0.32166067028528,-0.872455172197052,-0.433385917479765,-0.0362119904750018,,,,0.687592329959038,0.277014098876996,-1.09958705419756,0.277014098877192,,0.588420373035105,0.137897663975583,0.403463744495834,0.148520343546229,,,-0.430005087635824,-0.200840441919995,0.940103727097638,-0.424287337647206,,-1.58265927276856,1.83086527867504,,-0.368687143897897,,-1.20388948905306,,,-1.01104544850668,,,-1.09269856032674,-0.230894015284258,0.895213344080128,0.895213344080207,,0.896372675291717,0.901872489041456,11.1616,103,685.295404741074,569.79916677082,496.248593925759,680.432804232804,690.158005249344,571.955026455027,567.643307086614,523.142857142857,469.354330708661,0.990291262135922
382.464,-0.0585726968375983,0.0812688778021261,-0.0145248628308005,0.714726396480041,0.53208520157718,0.532085201575424,,0.536158855158924,0.659993620829033,-0.825897908411818,0.317587541011603,-0.825897908410524,-0.388384763811196,-0.0429104226478285,,,,0.687415993401299,0.311585622749439,-1.12294732098913,0.31158562274963,,0.584876105785769,0.164045906081874,0.414334525394514,0.143098517056409,,,-0.430094156294852,-0.223792993177048,0.932797414090499,-0.429163631721713,,-1.60823658246093,1.8224713549598,,-0.399142233701937,,-1.20088229753179,,,-1.00164227633178,,,-1.07946546320066,-0.232449676545672,0.876135866272059,0.876135866272134,,0.860614835935091,0.898268963233417,11.264,102,705.005043109399,567.933374555713,509.325850812766,698.04304129059,711.967044928208,567.993150223052,567.873598888374,538.001400560224,480.650301065308,0
382.5664,-6.99921656327199e-05,0.0657420058912465,0.0372465084069938,0.710077695905252,0.520364279099441,0.520364279097718,,0.514204692691414,0.64468415001476,-0.777532441424584,0.31321855554052,-0.777532441423308,-0.342203001301558,-0.0494865391861021,,,,0.68645821970824,0.346569428910389,-1.14601937520394,0.346569428910575,,0.581416757587465,0.190797061913024,0.42479319840591,0.136599394613647,,,-0.429816739921461,-0.246855259400441,0.925579178897233,-0.434116478205464,,-1.63372111846729,1.81272023310073,,-0.430013421556653,,-1.19709367263681,,,-0.991474488380075,,,-1.06506451347241,-0.234121011350428,0.857015853016365,0.857015853016433,,0.823475552589721,0.894138406921965,11.3664,102,704.993851076713,568.012759080415,523.114340108326,698.602855796974,711.384846356453,574.635076252723,561.390441908107,554.220602955897,492.008077260755,0
382.6688,0.0595208863214179,0.0500903754025911,0.0900739708584286,0.704880528729821,0.507605985712016,0.507605985710327,,0.491732684566148,0.628736670962965,-0.727498209948629,0.308547422544468,-0.727498209947371,-0.294904524851063,-0.0559664720297835,,,,0.684700715526121,0.381881127846282,-1.16874546053493,0.381881127846464,,0.578048511301829,0.218121737115485,0.434873127771469,0.129046121026278,,,-0.429181476662783,-0.269982315821591,0.918487268104555,-0.439172177904596,,-1.65905107207226,1.80161530249354,,-0.4612503181616,,-1.19255054778074,,,-0.980563567666235,,,-1.04952870964809,-0.235878803289717,0.837867357548089,0.83786735754816,,0.785041444039067,0.889558851102703,11.4688,103,593.586275828067,568.818325041459,523.003652906638,590.102402402402,597.070149253731,578.988888888889,558.64776119403,549.723723723724,496.283582089552,0.446601941747573
382.7712,0.120089960780176,0.034355089749357,0.14386696429737,0.699218122002224,0.493878832120628,0.493878832118968,,0.468824492850129,0.612232837437261,-0.675941263792527,0.303568060142152,-0.675941263791286,-0.246558058072645,-0.0623772453815697,,,,0.682127401012466,0.417434493943747,-1.19106838554414,0.417434493943926,,0.574776419366322,0.245987700165924,0.444609358262903,0.120465368144228,,,-0.428198022350488,-0.293127752559003,0.911558831666333,-0.444356497725291,,-1.68416200514279,1.78916215231723,,-0.492799760688322,,-1.18728135354303,,,-0.968934201690287,,,-1.03289403068833,-0.237692839109151,0.818705624962737,0.818705624962802,,0.745403662146026,0.884610696001445,11.5712,102,457.516205010981,568.352570480929,519.770752095379,455.128678678679,459.903731343284,576.711111111111,559.994029850746,542.951951951952,496.589552238806,0.862745098039216
382.8736,0.181522175572629,0.0185775896480825,0.198529861412891,0.693176395095192,0.47925511378069,0.479255113779057,,0.445564976429051,0.595257979091634,-0.623013645367528,0.298274708991615,-0.623013645366304,-0.197236798768112,-0.0687468841861886,,,,0.678724537738998,0.453141983523658,-1.21293178944532,0.453141983523833,,0.571604362180061,0.274359932699742,0.454038496311837,0.11088728506376,,,-0.426877051789927,-0.316243889130638,0.904829813822437,-0.449694634975981,,-1.70898709560343,1.77536860940968,,-0.52460606990263,,-1.18131583053089,,,-0.956614331613444,,,-1.01519933732838,-0.239532006189409,0.799546975772697,0.799546975772758,,0.704657471612896,0.879376412301762,11.6736,103,323.519299696741,567.986882577404,516.775187823674,322.702291612,324.336307781481,574.235275080906,561.738490073902,536.2121927753,497.338182872048,0
382.976,0.243697967110606,0.00279949547921641,0.253962468454193,0.686843600559605,0.46381058525545,0.463810585253844,,0.422041844892272,0.577900782494744,-0.568872704018525,0.292662052986681,-0.568872704017316,-0.147018030172672,-0.075104502358153,,,,0.674480827359067,0.488915278227758,-1.23428044508374,0.488915278227929,,0.568535000289863,0.303200715109735,0.463198591324011,0.100345420281533,,,-0.425230267552496,-0.339282015955441,0.898334826924185,-0.455211166336323,,-1.73345741181777,1.76024475481742,,-0.55661134084927,,-1.17468482936641,,,-0.943635154020043,,,-0.996486253019666,-0.241364401602728,0.78040867645049,0.780408676450538,,0.662901777400593,0.873940208014318,11.776,102,287.560294117647,580.323039215686,500.450980392157,288.35,286.770588235294,585.669607843137,574.976470588235,516.666666666667,484.235294117647,0
383.0784,0.306493908641923,-0.0129375783184998,0.310060587609763,0.680309935823847,0.447624113389811,0.447624113388235,,0.398345271915732,0.560252910235574,-0.513680343211941,0.286725350829165,-0.513680343210748,-0.0959826834262024,-0.0814803786280732,,,,0.669387481498618,0.524665847854826,-1.25506060534187,0.524665847854994,,0.565569724886921,0.332469737726815,0.47212901634338,0.0888766110458546,,,-0.423270417998141,-0.362192663014138,0.892107011129987,-0.460929986690837,,-1.75750222421076,1.74380292837074,,-0.588755769619195,,-1.1674200966511,,,-0.930031077480505,,,-0.976799024446581,-0.24315745399692,0.761308794272606,0.761308794272642,,0.620238599891002,0.868387664151769,11.8784,102,307.285294117647,591.671078431373,496.676470588235,306.354901960784,308.21568627451,594.285294117647,589.056862745098,515.823529411765,477.529411764706,0
383.1808,0.369783433921785,-0.0285922362897161,0.36671664550572,0.673667129919631,0.430777313734521,0.430777313732966,,0.37456747417253,0.542408568494093,-0.45760219754202,0.280460580337068,-0.457602197540842,-0.0442148258004874,-0.0879060372370435,,,,0.663438267216116,0.560305537148843,-1.27522039509771,0.560305537149007,,0.562708606190693,0.36212422373562,0.480870344363194,0.076520839229929,,,-0.421011321715783,-0.384925897548385,0.88617788114411,-0.466874243181081,,-1.7810493703761,1.72605772936228,,-0.620978007610956,,-1.15955405142475,,,-0.915839639167574,,,-0.956184350887671,-0.24487805914064,0.742266036202363,0.742266036202393,,0.576772494914026,0.862805344874433,11.9808,103,336.771844660194,590.709708737864,514.019417475728,331.84854368932,341.695145631068,592.055339805825,589.364077669903,532.990291262136,495.04854368932,0
383.2832,0.433437641941513,-0.0441235395322135,0.423820391723459,0.667008009990201,0.413354174601256,0.413354174599723,,0.35080226051523,0.524464038969889,-0.400806740718362,0.273864593786046,-0.4008067407172,0.00819894028585536,-0.0944143458132842,,,,0.656629534404977,0.595747179880703,-1.29471024138291,0.595747179880864,,0.559950339229851,0.392119055939493,0.489464214887559,0.0633210617117844,,,-0.418467893565775,-0.407431652946035,0.880577162260121,-0.473066268181448,,-1.804025679096,1.7070260146041,,-0.653215530177755,,-1.15111955605009,,,-0.901101386794025,,,-0.934691170308738,-0.246492729232284,0.723299574545928,0.723299574545956,,0.532609917888396,0.857280388008351,12.0832,102,362.115196078431,593.619607843137,505.122549019608,359.804901960784,364.425490196078,594.661764705882,592.577450980392,525.617647058824,484.627450980392,0
383.3856,0.497326168286967,-0.0594912620937281,0.481259655631561,0.660426053015367,0.39544067385246,0.395440673850947,,0.32714455706452,0.506517191515611,-0.343464341548603,0.266935281616792,-0.343464341547456,0.0611701529153252,-0.10103962775042,,,,0.648960231776231,0.630905227966162,-1.31348331661589,0.63090522796632,,0.557292191585495,0.422406910548339,0.497953186587776,0.0493230330500918,,,-0.415656170103254,-0.429660086427403,0.875332626896561,-0.479527517325745,,-1.82635743938809,1.68672689128068,,-0.685405008385969,,-1.1421496854048,,,-0.885859732928646,,,-0.912370401421139,-0.247967754651088,0.704428865257937,0.704428865257963,,0.487858541796204,0.851900082485959,12.1856,103,389.019902912621,590.425242718447,483.305825242719,387.042718446602,390.997087378641,598.268932038835,582.581553398058,503.776699029126,462.834951456311,0
383.488,0.56131809095116,-0.0746561566757087,0.538921133615294,0.654014931013168,0.377124394146603,0.37712439414511,,0.303689917091901,0.488666993898816,-0.285746299332426,0.259671741026907,-0.285746299331295,0.11460920245651,-0.107817772115273,,,,0.640431916959759,0.665696367969191,-1.33149595752852,0.665696367969344,,0.554729961296099,0.45293840942009,0.506380575211447,0.0345751393486408,,,-0.412593334626012,-0.451561954578545,0.870469950834678,-0.486278521087336,,-1.84797089065886,1.66518170196587,,-0.717482675089039,,-1.13267750400843,,,-0.870160785509443,,,-0.889274652221619,-0.24926937438491,0.685673466571139,0.685673466571162,,0.442626551584064,0.846751442427806,12.288,102,415.834803921569,592.298529411765,474.882352941177,410.259803921569,421.409803921569,598.750980392157,585.846078431373,493.147058823529,456.617647058824,0
383.5904,0.62528283158374,-0.0895802153635638,0.59669117440378,0.647868064361829,0.358494143183794,0.35849414318232,,0.280534027855133,0.471013033097401,-0.227823891942508,0.252074440736658,-0.227823891941392,0.168426040211117,-0.114786317162047,,,,0.631048762195168,0.700040092534478,-1.34870803040115,0.700040092534624,,0.552257953423488,0.48366230198239,0.514790282775744,0.0191282485306441,,,-0.409297740888051,-0.473088987995434,0.866012605766571,-0.493338853936192,,-1.86879271065581,1.64241399874693,,-0.749384680062909,,-1.12273586675645,,,-0.854053148,,,-0.865457910607123,-0.250363948376546,0.66705286422214,0.667052864222164,,0.397021948451069,0.841920792681391,12.3904,102,430.649509803922,599.121568627451,472.470588235294,425.528431372549,435.770588235294,597.789215686275,600.453921568628,491.460784313725,453.480392156863,0
383.6928,0.689091014907263,-0.10422690338853,0.654456536383565,0.642078200255437,0.339639588187249,0.339639588185798,,0.257772227694178,0.453655055048124,-0.169867461748967,0.244145367956939,-0.169867461747866,0.222530858214442,-0.121984483373812,,,,0.620817550049631,0.733859199864761,-1.36508323355206,0.7338591998649,,0.549868981835221,0.514525676646953,0.523226628942613,0.00303556378256608,,,-0.405788930669885,-0.494194245830603,0.861981793994876,-0.500727114358754,,-1.88875048268594,1.61844950395968,,-0.781047432454884,,-1.11235725586635,,,-0.837587677795396,,,-0.840975234495316,-0.25121812472663,0.64858630651657,0.648586306516597,,0.351151904087362,0.837493379776711,12.4928,103,354.77427184466,729.527669902913,470.218446601942,348.579611650485,360.968932038835,728.338834951456,730.716504854369,488.203883495146,452.233009708738,0
383.7952,0.752615254489329,-0.118561340564298,0.712105098349257,0.636737023468516,0.320650912423141,0.320650912421713,,0.235499043904509,0.436692519509245,-0.112045553659806,0.235888143187945,-0.112045553658721,0.276834721712281,-0.129453134815918,,,,0.609747646721863,0.767080204252727,-1.38058934034502,0.767080204252858,,0.547554399461554,0.545474186701851,0.531734191005515,-0.0136475420217744,,,-0.402087635512327,-0.514832439772001,0.858396419435485,-0.508460899971629,,-1.90777312969188,1.59331605751705,,-0.812407927608429,,-1.10157365107596,,,-0.82081720310311,,,-0.815882458662986,-0.251798999257885,0.63029265144667,0.630292651446703,,0.305122198301488,0.833553010797423,12.5952,102,372.626960784314,728.110784313726,472.598039215686,366.274509803922,378.979411764706,716.648039215686,739.573529411765,492.852941176471,452.343137254902,0
383.8976,0.815730845490588,-0.132550418248052,0.769526510518617,0.6319347927812,0.301618489763021,0.301618489761619,,0.213807753818019,0.420224160595629,-0.0545241088806281,0.227308091577167,-0.0545241088795602,0.331250134987821,-0.137234652717728,,,,0.597850939766969,0.799633650764304,-1.39519838437549,0.799633650764426,,0.545304158782706,0.576452275362644,0.540357651161103,-0.0308637304890277,,,-0.398215750920864,-0.534960227539343,0.855273084114835,-0.516556764190112,,-1.92579131003081,1.56704355042734,,-0.843404053663926,,-1.0904164148747,,,-0.803796213004809,,,-0.790235929374018,-0.252074270068691,0.612190228759182,0.612190228759218,,0.259036748853017,0.830181710742001,12.6976,103,395.402427184466,727.56213592233,482.47572815534,387.095145631068,403.709708737864,715.808737864078,739.315533980583,502.805825242719,462.145631067961,0
384,0.878316365122703,-0.146162863195949,0.826612780117967,0.627759991408074,0.282632560288709,0.282632560287331,,0.192789961241158,0.404347545497436,0.0025342906240577,0.218412266013524,0.00253429062511008,0.385691528169369,-0.145372716221305,,,,0.585141736779155,0.831454339025136,-1.40888678533118,0.83145433902525,,0.543106903093689,0.607403399832438,0.549141646889793,-0.0485539508790984,,,-0.394196275592502,-0.554536479233064,0.852626105314452,-0.525030154552513,,-1.94273777823341,1.53966384113736,,-0.873974877714138,,-1.07891617919253,,,-0.786580532924322,,,-0.764092266161317,-0.252012390536466,0.594296719234867,0.594296719234907,,0.212997214305117,0.827459386424136,12.8,102,413.562745098039,726.213725490196,473.661764705882,405.574509803922,421.550980392157,712.95,739.477450980392,494.078431372549,453.245098039216,0
384.1024,0.940254197690653,-0.159369272143812,0.883258795485357,0.624298983186506,0.263782890129079,0.26378289012772,,0.172535176569059,0.389158631530879,0.0589711358234676,0.209209426360811,0.0589711358245047,0.440075670308391,-0.153911999926161,,,,0.571636633210957,0.862481471750222,-1.42163541716221,0.862481471750325,,0.540950083596891,0.638270264566747,0.558130619715876,-0.0666577410147959,,,-0.390053213939572,-0.573522514322088,0.850467557718566,-0.533895344543515,,-1.95854771908356,1.51121065031501,,-0.904060916052684,,-1.06710273951681,,,-0.769226983676334,,,-0.737508139381142,-0.251582721907119,0.576629051769741,0.576629051769789,,0.167102639890277,0.825463488743076,12.9024,102,435.590196078431,721.34068627451,461.990196078431,426.659803921569,444.520588235294,709.693137254902,732.988235294118,481.833333333333,442.147058823529,0
384.2048,1.00143100278405,-0.172142134617687,0.939362797980287,0.621635672850585,0.245158411975395,0.245158411974058,,0.153130396477019,0.374751330027913,0.114632669446173,0.199709986375329,0.114632669447197,0.494322026954516,-0.162897808225236,,,,0.557354358768537,0.892658745737389,-1.43342962205731,0.892658745737482,,0.538820091782949,0.668995070852022,0.567368657886186,-0.0851135640019515,,,-0.385811442786154,-0.591882299638997,0.84880734637779,-0.543165371087228,,-1.97315906025228,1.48171943110784,,-0.933604391516307,,-1.05500497218691,,,-0.75179301584207,,,-0.710540046315443,-0.250755684026465,0.559203318090595,0.559203318090648,,0.12144912562405,0.824268671265264,13.0048,103,459.584466019417,717.720873786408,453.26213592233,448.828155339806,470.340776699029,707.384466019418,728.057281553398,472.747572815534,433.776699029126,0
384.3072,1.0617381362191,-0.184455849190055,0.994826808682722,0.61985117581453,0.226846856438893,0.226846856437582,,0.134659690652743,0.361217090009614,0.169370529533335,0.189925943107281,0.169370529534346,0.548353078249967,-0.172375672056972,,,,0.542315608503779,0.921934399743608,-1.44425917230238,0.921934399743689,,0.536702395108638,0.699519781477843,0.57689933229724,-0.103859161350139,,,-0.381496545849784,-0.609582599448091,0.847653309881314,-0.552851984988267,,-1.98651276348653,1.45122721771731,,-0.962549476197423,,-1.0426507851102,,,-0.734336320407924,,,-0.683244072068558,-0.249502901355074,0.542034704108843,0.542034704108897,,0.0761295112145652,0.823946451112348,13.1072,102,484.212745098039,714.126470588235,452.642156862745,474.578431372549,493.84705882353,704.26568627451,723.987254901961,473.166666666667,432.117647058824,0
384.4096,1.12107202498749,-0.196286732475045,1.04955701158347,0.619023506429254,0.208934389728608,0.20893438972732,,0.117203806514731,0.348644512123036,0.223042348190233,0.179870803113534,0.22304234819123,0.602094602002859,-0.18239093702256,,,,0.526542868622375,0.950261232504566,-1.45411818595643,0.950261232504635,,0.534581664120361,0.729786392641764,0.586765529492001,-0.122831900571631,,,-0.37713462494083,-0.626593080019353,0.847011347132587,-0.562965619891374,,-1.99855309490159,1.41977246450421,,-0.990842514250133,,-1.03006710417612,,,-0.716914432631794,,,-0.65567563710752,-0.247797341963094,0.525137435101838,0.525137435101894,,0.0312330817438226,0.824564884116722,13.2096,103,539.592718446602,702.279611650485,458.155339805825,528.257281553398,550.928155339806,696.166990291262,708.392233009709,480.116504854369,436.194174757282,0
384.512,1.17933449689734,-0.207613021278868,1.10346409373926,0.619227289989502,0.1915052695949,0.191505269593648,,0.100839797069418,0.337118995312796,0.275512294183139,0.169559514643489,0.275512294184124,0.655475917474353,-0.192988366760012,,,,0.510060251577742,0.977596601971657,-1.46300500667991,0.977596601971714,,0.532441883225984,0.759737206258493,0.597009285799087,-0.141969100364401,,,-0.372752101588522,-0.642886382841104,0.84688556079346,-0.573515384503034,,-2.00922787657727,1.38739488952083,,-1.01843221750397,,-1.01727989014342,,,-0.699584351816691,,,-0.627889249180381,-0.245613448990215,0.508524731449432,0.508524731449488,,-0.0131547005616083,0.826188264765602,13.312,102,835.80637254902,573.478921568628,455.147058823529,826.163725490196,845.449019607843,569.454901960784,577.502941176471,482.539215686275,427.754901960784,0
384.6144,1.23643306965464,-0.218414872411488,1.15646354475198,0.620533494816933,0.174641521611631,0.174641521610403,,0.0856406715130685,0.3267224107079,0.326651556690437,0.159008410026548,0.32665155669141,0.708430084258116,-0.204211768185354,,,,0.49289334909307,1.00390241003845,-1.47092205211615,1.0039024100385,,0.530266447328804,0.789315104893432,0.607671621837909,-0.161208326425958,,,-0.368375522386831,-0.658438181490245,0.847278410584601,-0.584509075435353,,-2.0184887178099,1.3541353274131,,-1.04526982631169,,-1.00431416985042,,,-0.682402189253313,,,-0.599938276671508,-0.242927265334458,0.492208773419627,0.492208773419678,,-0.056952437395568,0.82887685291626,13.4144,102,802.244117647059,495.385784313726,454.416666666667,796.957843137255,807.530392156863,493.890196078431,496.88137254902,479.696078431373,429.137254901961,0
384.7168,1.29228120384771,-0.228674366841278,1.20847591640069,0.623009174391432,0.158422628638046,0.158422628636848,,0.0716750687648069,0.317532795002396,0.376338776624347,0.148235162517615,0.376338776625311,0.760894051210841,-0.216103628106703,,,,0.475069101370982,1.02914507079231,-1.47787562724331,1.02914507079234,,0.528038254979038,0.818463836376447,0.618792370136073,-0.180487657679245,,,-0.364031374651666,-0.673227231222081,0.84819086471733,-0.595953197041329,,-2.02629122100747,1.32003559121273,,-1.07130923158743,,-0.991194058339128,,,-0.665422842738481,,,-0.571874744439149,-0.239716552792553,0.476200674070467,0.476200674070516,,-0.100083012018802,0.832686621253974,13.5168,103,732.295631067961,357.668446601942,453.533980582524,739.180582524272,725.410679611651,357.709708737864,357.627184466019,476.21359223301,430.854368932039,0
384.8192,1.34679851843783,-0.238375521576163,1.25942703905896,0.626717211260686,0.142925226347833,0.142925226346665,,0.0590069570911851,0.309624059253674,0.424460431674278,0.137258760982291,0.424460431675232,0.812808750394979,-0.228704749509803,,,,0.456615677394821,1.05329545855112,-1.48387570321434,1.05329545855114,,0.525739809965929,0.847128309126283,0.630409986827814,-0.19974592504308,,,-0.359745911176443,-0.687235417209076,0.849622535427875,-0.607852973758137,,-2.032595161515,1.28513834536939,,-1.09650706054838,,-0.977942755835258,,,-0.648699691316195,,,-0.543749141041165,-0.235960907117627,0.460510457531056,0.460510457531104,,-0.142473787086533,0.837669016585769,13.6192,102,733.944117647059,361.498529411765,465.102941176471,744.435294117647,723.452941176471,362.051960784314,360.945098039216,486.892156862745,443.313725490196,0
384.9216,1.39991096285954,-0.247504305689806,1.30924819082443,0.631716060236519,0.128222806354497,0.128222806353366,,0.0476953640790267,0.303065713524267,0.470911174623452,0.126099498110544,0.470911174624398,0.86411913574365,-0.242053887147469,,,,0.437562364988566,1.07632883343783,-1.4889356755617,1.07632883343784,,0.523353338598476,0.875254890429563,0.642561342999814,-0.21892292758446,,,-0.355544981392132,-0.700447804105199,0.851571792211586,-0.620212351645996,,-2.03736464814378,1.24948699406183,,-1.12082273496154,,-0.964582522443295,,,-0.632284307253028,,,-0.515610229888788,-0.231641870094095,0.445147039728636,0.445147039728686,,-0.18405678040864,0.843870731403712,13.7216,103,733.586893203884,357.02427184466,478.796116504854,744.441747572816,722.732038834952,351.488349514563,362.560194174757,499.514563106796,458.077669902913,0
385.024,1.45155093951257,-0.256048651102051,1.35787621825159,0.638059493007302,0.114385437469402,0.114385437468306,,0.0377941416483155,0.297922611567361,0.515594118873712,0.114778958029366,0.515594118874647,0.914774173729327,-0.256187390858035,,,,0.417939474233727,1.09822474504112,-1.49307212517327,1.09822474504111,,0.520860921681753,0.902791694939813,0.655281497145502,-0.237959630910942,,,-0.35145387250098,-0.712852682810942,0.854035855802801,-0.633033995448069,,-2.04056827535592,1.21312558992377,,-1.14421851696375,,-0.951134648621502,,,-0.616226186151048,,,-0.487504866348174,-0.226743038325461,0.430118211417862,0.430118211417916,,-0.224768810053743,0.851333485539924,13.824,102,731.25,356.826470588235,479.25,739.960784313726,722.539215686275,366.030392156863,347.622549019608,499.323529411765,459.176470588235,0
385.1264,1.50165737371094,-0.263998447301568,1.40525361178678,0.645796350395098,0.101479518867011,0.101479518865953,,0.02935177036643,0.294254722847318,0.558421063983699,0.103319985529159,0.558421063984624,0.964726793729394,-0.271138864185903,,,,0.397778259497491,1.11896691704706,-1.4963046036825,1.11896691704703,,0.518244632551974,0.92968884892966,0.668603454981865,-0.256798347794195,,,-0.347497168761368,-0.724441606931481,0.857010877375024,-0.646319287745005,,-2.04217927767556,1.17609877173063,,-1.16665955998601,,-0.937619440641151,,,-0.600572495928179,,,-0.459477825610382,-0.221250166854221,0.415430625456013,0.415430625456075,,-0.264551599013955,0.860093821668605,13.9264,102,732.15931372549,355.424019607843,482.446078431373,742.332352941177,721.986274509804,353.05,357.798039215686,504.372549019608,460.519607843137,0
385.2288,1.55017573499948,-0.271345512653262,1.4513285441311,0.654970309547386,0.0895675738951429,0.089567573894114,,0.0224112023705606,0.292116937047892,0.599312658632349,0.0917466235588121,0.599312658633268,1.01393380126857,-0.286938837794001,,,,0.377110861433048,1.13854311671335,-1.49865545465282,1.13854311671331,,0.515486669072902,0.955898716777693,0.682557926006952,-0.275382898831781,,,-0.343698631504876,-0.735209411679152,0.860492002856188,-0.66006832911577,,-2.04217569201492,1.13845173723876,,-1.18811397611839,,-0.924056233175387,,,-0.585367842839498,,,-0.431571645177114,-0.215151265014821,0.401089790314589,0.401089790314665,,-0.303351833740946,0.870182918748701,14.0288,103,793.455825242719,364.163106796117,499.859223300971,798.593203883495,788.318446601942,356.877669902913,371.44854368932,521.73786407767,477.980582524272,0
385.3312,1.59705801945294,-0.278083541511348,1.49605488193113,0.665619666419818,0.078708080844093,0.0787080808430982,,0.0170097354089044,0.291558898374584,0.638198504960385,0.0800840134793336,0.638198504961295,1.06235575947249,-0.303614451519737,,,,0.355970263241274,1.15694501182827,-1.50014966867498,1.15694501182822,,0.512569467369797,0.981376081175691,0.697173082730046,-0.29365875413161,,,-0.340081093697339,-0.745154206130702,0.86447341898808,-0.674279929495527,,-2.04054052610576,1.10023024773693,,-1.20855292495398,,-0.910463436804972,,,-0.570654051673065,,,-0.403826486504549,-0.208436682137791,0.387100072331784,0.387100072331875,,-0.34112117735925,0.881626419854355,14.1312,102,1313.05392156863,414.116176470588,518.367647058824,1314.36666666667,1311.74117647059,402.761764705882,425.470588235294,545.127450980392,491.607843137255,0
