time,S1-D1,S1-D8,S1-D9,S1-D15,S2-D1,S2-D2,S2-D3,S2-D9,S3-D1,S3-D2,S3-D16,S4-D2,S4-D3,S4-D5,S5-D3,S5-D4,S5-D5,S6-D2,S6-D5,S6-D17,S7-D6,S7-D7,S8-D6,S8-D7,S8-D18,S9-D3,S9-D4,S9-D9,S9-D11,S9-D19,S10-D8,S10-D9,S10-D10,S10-D11,S11-D8,S11-D10,S11-D20,S12-D10,S12-D11,S12-D12,S13-D4,S13-D11,S13-D12,S14-D10,S14-D12,S14-D21,S15-D13,S15-D14,S16-D13,S16-D14,S16-D22,t_rel_s,eye_n,xp,yp,ps,xpl_i,xpr_i,ypl_i,ypr_i,psl_i,psr_i,blink_prop
401.5104,0.830640303164692,1.1001278326676,1.09161840526781,-0.988622356904921,0.40144606949509,0.401446069497093,1.04173166978096,0.723311523329556,1.40858899278993,1.17347749615232,-0.375676332801681,1.17347749615292,0.751556029451659,,,,,-0.392568990298138,0.00286543254428651,2.14011893258815,0.00286543254369712,0.378821204733442,0.310358353433269,,0.32625134643343,1.05206978639166,,,1.1644825247877,-1.39883052913073,0.297786278396285,-0.79385811336584,-0.392952823288955,-0.944936029933104,-0.476713762668999,-1.01681418283271,0.497364885630497,1.36055012898786,1.36055012898616,,-2.45822213697408,,,-0.180361650658178,-1.58878007740722,-0.254258234750718,-1.66900989895012,-1.66900989895022,-0.923238295896073,0.923238295895037,0.62160658504488,0,103,925.758737864078,569.178155339806,838.398058252427,925.549514563107,925.967961165049,571.205825242719,567.150485436893,904.669902912621,772.126213592233,0
401.6128,0.839668414922992,1.13283362635601,1.11132452276975,-0.994290133378954,0.432025152785045,0.432025152787041,1.06578380936727,0.723078750393182,1.43247400134808,1.19971331759458,-0.381955106110374,1.19971331759516,0.7752407143669,,,,,-0.441249120519371,-0.00675205242472863,2.1730667781303,-0.0067520524253283,0.386036290638764,0.336294943447805,,0.365382695917713,1.04962674399735,,,1.13631079423709,-1.35173966314302,0.300704481986096,-0.82214288102384,-0.410490003427982,-0.970847649853355,-0.508731938923908,-1.05122993156896,0.499516209047385,1.37028146166754,1.37028146166585,,-2.42748599901671,,,-0.150191787533684,-1.6096768961349,-0.253564402330595,-1.66005585618435,-1.66005585618444,-0.883472328819445,0.883472328818431,0.624366240197111,0.102399999999989,102,927.776960784314,572.526960784314,815.911764705882,928.377450980392,927.176470588235,575.401960784314,569.651960784314,879.970588235294,751.852941176471,0
401.7152,0.849076730121143,1.16544628723711,1.1313047955632,-0.999673117672704,0.46261406870681,0.462614068708796,1.09070575392965,0.722349255639323,1.4569736922673,1.22550402034473,-0.388311498215936,1.22550402034529,0.799568136465745,,,,,-0.489198364030361,-0.0159614594955354,2.20509900221459,-0.0159614594961446,0.393762403135217,0.361812765396378,,0.40444025894093,1.04701672048925,,,1.10871623752713,-1.30416690082292,0.303141283514093,-0.849994329188057,-0.427959296616584,-0.99670931452953,-0.540026597180146,-1.08535112526488,0.501781965020536,1.37988775589708,1.37988775589541,,-2.39484881681027,,,-0.120093802335399,-1.62931608650081,-0.252744536295806,-1.65002976536578,-1.65002976536586,-0.843963639752366,0.843963639751379,0.62677344681608,0.204799999999977,103,930.324757281553,578.622330097087,796.077669902913,931.552427184466,929.097087378641,588.411650485437,568.833009708738,858.067961165049,734.087378640777,0
401.8176,0.858852526991901,1.19791999483244,1.15153155579762,-1.00479254399948,0.493212975864219,0.493212975866194,1.11643367171213,0.721169709316372,1.48204816822094,1.25082706360934,-0.394739631062628,1.25082706360987,0.824483587437462,,,,,-0.536360200167928,-0.0247406101931546,2.23615987194519,-0.024740610193773,0.401978079360576,0.386898002974365,,0.44335314555106,1.04424006021173,,,1.08173365080957,-1.2561576175621,0.305088135102,-0.87738826600793,-0.445348485895394,-1.0225059197786,-0.570533659738923,-1.11914204252253,0.504095864207308,1.38934599916954,1.38934599916789,,-2.36036779732198,,,-0.0901325807093825,-1.64764674400658,-0.251828899193631,-1.63892846564226,-1.63892846564233,-0.804762020607515,0.804762020606556,0.628825584145154,0.307200000000023,102,930.36568627451,580.163235294118,810.838235294118,932.028431372549,928.702941176471,583.717647058824,576.608823529412,874.735294117647,746.941176470588,0
401.92,0.868980904118556,1.23020765834929,1.17197488206434,-1.00967136319333,0.523820031702134,0.523820031704085,1.14289934064616,0.719588487270235,1.50765402041054,1.27566057346112,-0.401233632244393,1.27566057346163,0.849929031155046,,,,,-0.582678163718154,-0.0330690804463857,2.26619544398989,-0.033069080447013,0.410659274340177,0.411538122292057,,0.482048808296529,1.04129626126912,,,1.05539326321899,-1.20775682935161,0.306536599362242,-0.90430019000975,-0.462645096844027,-1.04822007164171,-0.600190548972697,-1.15256541359989,0.506390517031315,1.39863246676028,1.39863246675865,,-2.32410317941357,,,-0.0603714194660289,-1.66462101820251,-0.250848655089562,-1.62675195839333,-1.62675195839339,-0.765914959232787,0.765914959231847,0.630519803656124,0.409600000000012,103,930.655228755826,588.836262190803,860.447521879355,929.159925366054,932.150532145598,582.618098731855,595.054425649752,928.009012997691,792.886030761018,0
402.0224,0.87944489852812,1.26226102007042,1.19260273455676,-1.01433399196403,0.554431286286674,0.554431286288598,1.170030401727,0.717655406830265,1.53374444671074,1.29998334379058,-0.407787722864716,1.29998334379106,0.875843314800346,,,,,-0.628096028629569,-0.0409283851931948,2.2951535592114,-0.0409283851938313,0.419779478601441,0.435721939992127,,0.520453268667074,1.03818387044238,,,1.02972059166079,-1.15900914656601,0.307478337353289,-0.930705370982235,-0.479836457106591,-1.07383208689867,-0.628936313720002,-1.18558246445967,0.508597794633374,1.40772280214676,1.40772280214514,,-2.28611778085672,,,-0.0308718533279506,-1.68019426282428,-0.249835768605329,-1.61350344515395,-1.613503445154,-0.727467414851062,0.727467414850153,0.631853089164331,0.512000000000001,102,945.64320914067,634.752066892777,912.537123476275,941.068892508143,950.217525773196,627.368566775244,642.135567010309,982.337133550489,842.737113402062,0.656862745098039
402.1248,0.890225617268983,1.29403076870363,1.2133811049665,-1.01880603384236,0.585040602402239,0.585040602404134,1.19775061953039,0.715421449818076,1.56026937037149,1.32377484140868,-0.414396313521312,1.32377484140915,0.902162387899315,,,,,-0.672557984656487,-0.0483021551285382,2.32298382870386,-0.0483021551291865,0.42930984122958,0.459439684802678,,0.558491353430454,1.03490039331521,,,1.00473632404063,-1.10995874880845,0.307905120186313,-0.956578937140642,-0.496909749233644,-1.09931999811762,-0.65671173380578,-1.21815295736626,0.510649166872727,1.41659210039914,1.41659210039752,,-2.24647656730551,,,-0.00169349356119917,-1.69432514364814,-0.248822932689973,-1.59918932921183,-1.59918932921187,-0.68946160388866,0.689461603887758,0.63282232580391,0.614399999999989,102,962.080500520501,683.063030994997,963.311629000302,954.524918566775,969.636082474227,674.182247557003,691.94381443299,1035.16449511401,891.458762886598,0.382352941176471
402.2272,0.901302386384246,1.32546666196001,1.23427418402108,-1.02311397141249,0.615639599351078,0.615639599352939,1.22598014946188,0.712938469169604,1.5871755570807,1.34701521656592,-0.421054100438084,1.34701521656637,0.928819522704159,,,,,-0.716008818537299,-0.0551763034963719,2.34963762174585,-0.0551763034970326,0.439219299154519,0.482683048662128,,0.596086948841807,1.03144221117121,,,0.980456227315436,-1.06064938388286,0.307808857388503,-0.98189597593917,-0.513852064929545,-1.12465957327204,-0.683459411520028,-1.25023524012689,0.512476026475149,1.42521499600271,1.42521499600109,,-2.20524624445956,,,0.0271061250550292,-1.70697571048899,-0.24784352983235,-1.58381918401354,-1.58381918401358,-0.651936792749274,0.651936792748409,0.633424373878155,0.716799999999978,103,972.859641288452,719.058495240722,1020.76536401763,964.350086967522,981.369195609382,702.910221055628,735.206769425817,1107.96995667436,933.560771360892,0
402.3296,0.912652923634805,1.35651766407909,1.25524455399464,-1.02728482836216,0.646217621227699,0.646217621229532,1.25463582233633,0.710258885039399,1.61440674395722,1.36968532561248,-0.427756155131862,1.36968532561291,0.955745543580503,,,,,-0.758394109335549,-0.0615391800930657,2.37506805377163,-0.0615391800937396,0.449474717932243,0.505445235610252,,0.633163281259601,1.02780450225361,,,0.956891085768497,-1.01112438808797,0.307181634316609,-1.00663165761773,-0.530650470312976,-1.14982436413156,-0.709123855921556,-1.28178631881546,0.514010010736155,1.43356575748592,1.4335657574843,,-2.16249487057695,,,0.0554716919706314,-1.71811143609307,-0.246931619833347,-1.5674056839922,-1.56740568399223,-0.614929093139065,0.614929093138216,0.633656140768535,0.819200000000024,102,969.511943155964,696.676887724047,1128.11354199603,955.438765408443,983.585120903485,644.771044900045,748.58273054805,1284.79003001852,971.437053973533,0
402.432,0.924253539439146,1.38713210672322,1.27625341300885,-1.03134580225778,0.676761733405605,0.676761733407402,1.28363146366817,0.707435382900005,1.64190380420239,1.39176677609696,-0.434498005645932,1.39176677609739,0.982869084773626,,,,,-0.799660443034194,-0.067381709515687,2.39922996449394,-0.0673817095163772,0.46004105307804,0.527721021903377,,0.669643234933972,1.02398117322355,,,0.93404667977776,-0.961426716621277,0.306015750996546,-1.03076138844569,-0.547292090343311,-1.17478579364254,-0.733651564153081,-1.31276196463864,0.515183326288551,1.4416183949115,1.44161839490987,,-2.11829148419874,,,0.0833502642574926,-1.72770121923892,-0.246121939937763,-1.54996448955612,-1.54996448955615,-0.578471258651806,0.578471258650971,0.633514642419887,0.921600000000012,103,980.473725555645,683.475144738205,1183.52336529276,960.865472312704,1000.08197879859,615.857003257329,751.093286219081,1352.61563517915,1014.43109540636,0.0776699029126214
402.5344,0.936079368624604,1.41725787966639,1.29726083566387,-1.03532387284845,0.707256752018986,0.707256752020755,1.31287826857225,0.704520624144784,1.66960497362815,1.41324200669649,-0.441275710040389,1.4132420066969,1.0101169022218,,,,,-0.83975564554404,-0.0726975071790044,2.42207987570421,-0.072697507179713,0.470881545985713,0.549506835128547,,0.705449719937937,1.01996480918198,,,0.911923814410938,-0.911598967780831,0.304303755976621,-1.05426099484178,-0.563764216148083,-1.19951328544464,-0.756991101401803,-1.34311685834589,0.515929079748217,1.44934678444808,1.44934678444645,,-2.07270573958312,,,0.110691404868271,-1.73571734757074,-0.245449901590866,-1.53151408361832,-1.53151408361835,-0.542592484409472,0.542592484408645,0.632997046225367,1.024,102,1004.95664472094,672.675605713562,1205.66537562873,983.101628664495,1026.81166077739,616.858631921824,728.4925795053,1342.9332247557,1068.39752650177,0.96078431372549
402.6368,0.94810463305082,1.44684265188607,1.31822607027846,-1.03924539313218,0.737685307697254,0.737685307699,1.34228524748466,0.701566973176613,1.69744615627186,1.4340944077329,-0.448085922337703,1.4340944077333,1.03741425762789,,,,,-0.878629027749543,-0.0774829631675067,2.44357592559736,-0.0774829631682322,0.481957967986588,0.57080084843043,,0.740506097597777,1.01574664659632,,,0.890518402969267,-0.861683386236715,0.30203847140524,-1.07710693293257,-0.580054433364411,-1.22397443484284,-0.779093177665761,-1.37280477093502,0.516181620114002,1.45672480410805,1.45672480410642,,-2.02580754278426,,,0.137447314928807,-1.74213542151028,-0.24495156751751,-1.51207556334309,-1.51207556334311,-0.507318211441908,0.507318211441091,0.632100692037756,1.12639999999999,102,1029.17215984632,662.148095699301,1233.97199781491,1005.20329565051,1053.14102404213,618.611780673181,705.684410725421,1333.12566264291,1134.81833298691,0
402.7392,0.960302926775732,1.4758341129694,1.33910786214928,-1.04313567360286,0.768027936602248,0.768027936603979,1.37175973592294,0.698626240091645,1.72536130187663,1.45430847023028,-0.454925950123789,1.45430847023067,1.06468536700275,,,,,-0.916231632408255,-0.0817372859552962,2.46367778520886,-0.0817372859560392,0.493230911816512,0.591603076219348,,0.774736653458141,1.01131656956801,,,0.869821603056649,-0.811721837231399,0.299213010821197,-1.0992765103092,-0.596150761972787,-1.24813521649386,-0.799910719436637,-1.40177877572501,0.515876894553707,1.46372646838175,1.46372646838011,,-1.97766669053926,,,0.163572959483405,-1.74693424987951,-0.244663594754073,-1.49167239650504,-1.49167239650506,-0.472669942066134,0.472669942065332,0.630823097954368,1.22879999999998,103,1024.09805825243,659.207281553398,1324.31067961165,995.043689320388,1053.15242718447,582.565048543689,735.849514563107,1483.65048543689,1164.97087378641,0
402.8416,0.972647503497815,1.50418021297734,1.35986477807937,-1.04701857565493,0.798263183673782,0.798263183675498,1.40120793557571,0.69574943468397,1.75328282041255,1.47386993451703,-0.461793803551622,1.47386993451741,1.09185387600407,,,,,-0.952516472353907,-0.0854625040960399,2.48234656611923,-0.0854625040967983,0.504660110663063,0.611915453853516,,0.808067088745971,1.00666312726741,,,0.849819992442432,-0.761755752534531,0.295820794709617,-1.12074810144123,-0.612041792924521,-1.27196021700504,-0.819398940062396,-1.4299914824472,0.514952809062902,1.47032605497511,1.47032605497348,,-1.92835252673157,,,0.189026184371289,-1.75009573418645,-0.24462313739308,-1.47033015776806,-1.47033015776808,-0.438665081016019,0.438665081015218,0.629161966489956,1.33120000000002,102,1029.99264705882,716.202941176471,1295.55882352941,1009.67254901961,1050.31274509804,674.155882352941,758.25,1417.27450980392,1173.8431372549,0
402.944,0.985111540045617,1.53182937958459,1.38045550282949,-1.05091613276988,0.828367703775616,0.828367703777316,1.43053544696068,0.692986526574995,1.78114199130759,1.49276590633242,-0.468688236546386,1.49276590633278,1.11884331611627,,,,,-0.987438754265791,-0.0886634311532159,2.49954472515463,-0.0886634311539865,0.516204758920104,0.631741887613667,,0.840424996232332,1.00177356909407,,,0.830495767302635,-0.711826055626499,0.291855566387726,-1.14150134341006,-0.627716811481711,-1.29541287830781,-0.837515415718431,-1.45739528299018,0.513349584186545,1.47649822445208,1.47649822445044,,-1.87793363407416,,,0.213767818998895,-1.75160475407757,-0.244867716018575,-1.44807625799778,-1.44807625799779,-0.405316814668045,0.405316814667249,0.627115205907493,1.43360000000001,103,1027.8786407767,717.90145631068,1308.43203883495,1008.80873786408,1046.94854368932,681.603883495146,754.199029126214,1433.76699029126,1183.09708737864,0
403.0464,0.99766835546323,1.55873070537848,1.40083908816236,-1.05484821478692,0.858316356387554,0.858316356389237,1.45964776913806,0.690386210417841,1.80886934238874,1.51098491978434,-0.47560877963372,1.5109849197847,1.14557751564979,,,,,-1.02095608706776,-0.0913476039756005,2.51523596381246,-0.0913476039763836,0.527823818337222,0.651088270708059,,0.871740297122551,0.996633896924573,,,0.811826949867919,-0.661973074404327,0.287311407060076,-1.16151731060527,-0.643165906897741,-1.31845574206979,-0.854220168121881,-1.4839426004069,0.511010102629489,1.48221813426564,1.482218134264,,-1.82647757273947,,,0.237761759500451,-1.75144905118575,-0.245435071143261,-1.42493967157249,-1.42493967157251,-0.372634031218612,0.372634031217799,0.624680971024881,1.536,102,956.693137254902,662.479901960784,1256.0931372549,940.845098039216,972.541176470588,631.06568627451,693.894117647059,1388.29411764706,1123.89215686275,0
403.1488,1.01029157997836,1.58483411003445,1.42097515161395,-1.05883224470469,0.888082298129464,0.888082298131131,1.48845076217836,0.687995680886404,1.83639499664363,1.52851694503233,-0.482555761776998,1.52851694503268,1.17198096740975,,,,,-1.05302867435998,-0.09352520389406,2.52938511674197,-0.0935252038948542,0.539476305005685,0.669962470729247,,0.901945631045846,0.991228936206474,,,0.793787598384457,-0.612236446366104,0.282182750089781,-1.1807786743771,-0.658380072417023,-1.34105068935867,-0.869475749100888,-1.50958613427812,0.507880247850087,1.48746154649226,1.48746154649061,,-1.77405067263142,,,0.260975031368275,-1.74961909879016,-0.246363016985231,-1.40095066523476,-1.40095066523477,-0.340621284321412,0.340621284320595,0.621857719659807,1.63839999999999,102,864.453431372549,577.113235294118,979.593137254902,860.26862745098,868.638235294118,575.945098039216,578.28137254902,1059.92156862745,899.264705882353,0
403.2512,1.02295528226684,1.61009048794719,1.44082403583614,-1.06288297001984,0.917637082143772,0.917637082145422,1.51685107707437,0.685860425836165,1.86364899576103,1.54535335675175,-0.489530320190605,1.5453533567521,1.19797916961151,,,,,-1.08361949293765,-0.0952089699908414,2.54195802901642,-0.0952089699916458,0.551121554663774,0.688374302926415,,0.930976702623776,0.985542425399599,,,0.776348017844883,-0.562655019022116,0.276464400236208,-1.199269855242,-0.673351298020833,-1.3631591742684,-0.883247324022262,-1.53427910023543,0.503909226476139,1.49220492719022,1.49220492718857,,-1.72071788248942,,,0.283377837960936,-1.74610795097116,-0.247689303109674,-1.37614053701748,-1.37614053701749,-0.309278806687812,0.309278806686995,0.618644282892965,1.74079999999998,103,871.496601941748,563.797572815534,759.203883495146,869.039805825243,873.953398058253,567.490291262136,560.104854368932,813.650485436893,704.757281553398,0
403.3536,1.03563406864599,1.6344518559641,1.46034694513777,-1.06701228211733,0.946950776355667,0.946950776357289,1.54475655603889,0.684024047048295,1.89056160818661,1.56148688924738,-0.496534399937745,1.56148688924773,1.22349895697105,,,,,-1.11269446709034,-0.0964141149105603,2.55292142533447,-0.0964141149113741,0.562719459839307,0.706335508499327,,0.95877259469153,0.979557120998218,,,0.759474977620509,-0.513266748692394,0.270151568742146,-1.21697717545032,-0.688072656127695,-1.38474245918045,-0.895502756331779,-1.5579754713431,0.499049861571574,1.49642553441627,1.49642553441462,,-1.66654267536041,,,0.304943605137351,-1.74091107495389,-0.249451481710116,-1.35054137391434,-1.35054137391435,-0.278602578462132,0.278602578461304,0.615039952786015,1.84319999999997,102,875.038725490196,553.848039215686,630.308823529412,872.102941176471,877.974509803922,562.508823529412,545.187254901961,674.343137254902,586.274509803922,0
403.456,1.04830316570563,1.65787151331122,1.47950607315769,-1.07122907231311,0.975992108334363,0.975992108335956,1.57207660653293,0.682528113355966,1.9170636274799,1.57691159990886,-0.50357074438911,1.5769115999092,1.24846883434888,,,,,-1.14022265215572,-0.097158247813148,2.56224277137193,-0.0971582478139725,0.574230674804592,0.723859749480392,,0.985276062742015,0.9732549156688,,,0.743131947285774,-0.464108597666793,0.263239934303583,-1.23388901701873,-0.702538379041123,-1.40576186750436,-0.90621269817896,-1.58063023734602,0.49325885112264,1.50010149305175,1.5001014930501,,-1.61158700773605,,,0.325649028791495,-1.73402617063998,-0.251686766865837,-1.32418582926956,-1.32418582926958,-0.24858445155331,0.248584451552476,0.611044589277766,1.94560000000001,103,971.874757281553,728.492718446602,570.810679611651,969.115533980583,974.633980582524,737.741747572816,719.243689320388,612.029126213592,529.592233009709,0
403.5584,1.06093849432218,1.68030421765874,1.49826472962618,-1.07553911314937,1.00472863423247,1.00472863423404,1.59872255738511,0.68141204226763,1.94308666733437,1.59162284867955,-0.51064287577194,1.59162284867988,1.27281931888271,,,,,-1.16617643593951,-0.0974612989755016,2.56989012899386,-0.097461298976339,0.585616791950037,0.740962617142025,,1.01043382349098,0.966616967146125,,,0.727279361781023,-0.41521642318341,0.255725732524772,-1.24999598445552,-0.716743926432882,-1.42617907010234,-0.915350689896072,-1.60219969735741,0.486497001376233,1.5032118554827,1.50321185548105,,-1.55591132709282,,,0.345474125708284,-1.72545297834634,-0.254431866854685,-1.29710691342124,-1.29710691342125,-0.219212327691648,0.219212327690807,0.60665874004656,2.048,102,979.875980392157,742.285294117647,542.666666666667,976.307843137255,983.444117647059,751.527450980392,733.043137254902,583.637254901961,501.696078431373,0
403.6608,1.07351673774231,1.70170637406707,1.51658746716904,-1.07994495561003,1.03312692308863,1.03312692309017,1.62460800247061,0.680713001608948,1.96856345439354,1.60561728709009,-0.51775506722179,1.60561728709043,1.29648328518365,,,,,-1.19053175612857,-0.0973454382506211,2.57583201409257,-0.0973454382514683,0.596840493706731,0.757661644028372,,1.03419683724194,0.959623835100004,,,0.711874921056002,-0.3666248542409,0.247605868264518,-1.26529106631449,-0.730686041519675,-1.44595641012772,-0.922893264261097,-1.62264178884935,0.478729445527121,1.50573664628034,1.50573664627869,,-1.49957461957706,,,0.364402284995914,-1.71519308046686,-0.257722784812339,-1.26933779139919,-1.2693377913992,-0.190470386169827,0.190470386168978,0.601883764352787,2.15039999999999,102,980.954901960784,737.296568627451,531.691176470588,978.3,983.609803921569,751.035294117647,723.557843137255,572.166666666667,491.21568627451,0
403.7632,1.08601539725411,1.72203622570658,1.53444019868252,-1.08444583461976,1.06115274561595,1.06115274561745,1.6496491244278,0.680465823102005,1.99342810723386,1.61889284062416,-0.52491231195006,1.6188928406245,1.31939629439767,,,,,-1.21326832242403,-0.0968349849286319,2.5800372669738,-0.0968349849294907,0.607865676934341,0.773976309393028,,1.05652057093421,0.952255624782826,,,0.696873916466947,-0.318367165527064,0.238878042411643,-1.27976978596319,-0.744362793406649,-1.46505725273756,-0.928820045833146,-1.6419164373832,0.469925842198133,1.50765688970531,1.50765688970367,,-1.44263448847457,,,0.382420317417542,-1.7032497102297,-0.261594605063609,-1.24091158986708,-1.24091158986708,-0.162339360597475,0.162339360596599,0.59672195750467,2.25279999999998,103,981.884951456311,731.383495145631,516.23786407767,980.199029126214,983.570873786408,745.138834951456,717.628155339806,554.660194174757,477.815533980583,0
403.8656,1.09841282319653,1.74125403091621,1.5517902894793,-1.08903757760156,1.08877125636482,1.08877125636629,1.67376498274916,0.680702920360202,2.01761638204609,1.63144866629978,-0.532120293877501,1.63144866630011,1.34149688275927,,,,,-1.23436983103227,-0.0959563131506304,2.58247493818939,-0.0959563131514979,0.618657542146285,0.789928026776518,,1.07736523023318,0.944492139595563,,,0.682229565639432,-0.270475165384052,0.229540886809193,-1.29343033071685,-0.757773601244381,-1.48344633809424,-0.933113837085598,-1.65998590475452,0.460060540007922,1.50895461959425,1.50895461959261,,-1.38514725212809,,,0.399518500762842,-1.68962758091475,-0.266081288848301,-1.21186122446571,-1.21186122446571,-0.134796865977375,0.134796865976471,0.591176676129617,2.35519999999997,102,984.776470588235,732.10931372549,499.936274509804,984.029411764706,985.523529411765,754.554901960784,709.663725490196,537.656862745098,462.21568627451,0
403.968,1.11068821603267,1.75932221993428,1.56860661739452,-1.09371251911477,1.1159471654943,1.11594716549572,1.6968777563359,0.681454206033937,2.04106587243873,1.64328507786218,-0.539385355228188,1.64328507786251,1.36272679619527,,,,,-1.25382416388629,-0.0947377618551201,2.58311418661307,-0.0947377618559959,0.629182643089963,0.805540106053295,,1.0966959560095,0.936313046393977,,,0.667893340627099,-0.222979107742359,0.219594104439231,-1.30627365287893,-0.770919237216071,-1.50109012405243,-0.935760690658227,-1.67681512304653,0.449112704523876,1.50961287053718,1.50961287053555,,-1.32716805038334,,,0.415690620768842,-1.67433274275854,-0.271215492827259,-1.18221925709972,-1.18221925709972,-0.107817774210541,0.107817774209619,0.585252455391073,2.45760000000001,103,985.93640776699,729.928155339806,482.980582524272,986.120388349515,985.752427184466,750.674757281553,709.181553398058,520.466019417476,445.495145631068,0
404.0704,1.12282160472268,1.77620553841969,1.58485960942943,-1.09845943648777,1.14264490772553,1.14264490772691,1.7189129419951,0.682747008734735,2.06371616515968,1.65440344542647,-0.546714449648735,1.65440344542679,1.3830311760667,,,,,-1.2716235667535,-0.0932095587689099,2.58192418741969,-0.093209558769794,0.639408898592587,0.820837693292454,,1.11448298245637,0.927698056444039,,,0.653815286775408,-0.175907627417045,0.209038616069485,-1.31830354232725,-0.783801807561566,-1.51795711299017,-0.936749974364821,-1.69237201188177,0.437066413576304,1.50961565142842,1.50961565142679,,-1.26875096363819,,,0.430934006220998,-1.65737246704125,-0.27702840996522,-1.15201778219664,-1.15201778219664,-0.0813746343461986,0.0813746343452573,0.578955095910438,2.56,102,985.678431372549,726.162254901961,464.43137254902,983.437254901961,987.919607843137,750.66862745098,701.655882352941,501.558823529412,427.303921568628,0
404.1728,1.13479381322032,1.79187118678343,1.60052126714832,-1.1032635245918,1.16882881845525,1.1688288184566,1.73979951635046,0.684605993597312,2.08550896116077,1.66480608196322,-0.554115074140547,1.66480608196355,1.4023587109567,,,,,-1.28776479888626,-0.091403760381784,2.57887405369513,-0.0914037603826762,0.649305572938495,0.835847699832432,,1.13070175696355,0.918627121910582,,,0.639944338585427,-0.129287698221732,0.197876720274263,-1.32952667203771,-0.796424709389263,-1.53401815371331,-0.936074436619465,-1.70662777333191,0.423910723765338,1.50894790722296,1.50894790722134,,-1.20994917125381,,,0.445249549366432,-1.63875515053566,-0.28354962359371,-1.12128833648645,-1.12128833648645,-0.055438129496463,0.0554381294955162,0.572291704576657,2.66239999999999,102,987.575,718.626470588235,444.651960784314,983.71862745098,991.43137254902,739.871568627451,697.38137254902,480.637254901961,408.666666666667,0
404.2752,1.14658642070216,1.80628895410929,1.61556518493124,-1.10810641888062,1.19446331842606,1.19446331842738,1.75947006907822,0.687053085647134,2.10638816947617,1.6744961271944,-0.561595183560263,1.67449612719474,1.42066176433991,,,,,-1.302249248423,-0.0893541957308721,2.57393277786705,-0.0893541957317731,0.658843232969032,0.850598728197411,,1.14533302871084,0.90908064268502,,,0.626228637226626,-0.083144620531282,0.186112276522262,-1.33995261654953,-0.808792558822102,-1.54924670360109,-0.933730276045413,-1.71955715240299,0.40963970500688,1.50759547807937,1.50759547807775,,-1.15081517907099,,,0.458641696746622,-1.61849023285379,-0.290806960835752,-1.09006183189355,-1.09006183189355,-0.0299775519929506,0.0299775519920019,0.565270703271487,2.76479999999998,103,987.751941747573,757.672330097087,427.033980582524,983.653398058252,991.850485436893,777.227184466019,738.117475728155,462.184466019418,391.883495145631,0
404.3776,1.15818171672875,1.81943133728534,1.62996655851386,-1.11296626473126,1.21951309947281,1.2195130994741,1.77786091443067,0.690107390154283,2.1262999778949,1.68347743599976,-0.569163095331747,1.68347743600011,1.43789647708739,,,,,-1.31508301339059,-0.087096395092502,2.56706919242407,-0.087096395093414,0.667993690017118,0.865120992721095,,1.15836291448891,0.899039674287483,,,0.612615846325253,-0.0375020437584285,0.173750914673837,-1.34959384270183,-0.820911088493494,-1.56361904035507,-0.929717214804101,-1.73113865334082,0.39425244008415,1.50554506471398,1.50554506471236,,-1.09140112349522,,,0.471118402282506,-1.5965881228604,-0.29882632892546,-1.05836851511537,-1.05836851511537,-0.00496127806002956,0.0049612780590833,0.557901838977189,2.86719999999997,102,991.894117647059,1001.09509803922,414.220588235294,995.886274509804,987.901960784314,1018.11078431373,984.079411764706,450.990196078431,377.450980392157,0
404.48,1.16956265212908,1.83127363858043,1.6437021819013,-1.11781782616579,1.24394330343994,1.2439433034412,1.79491218474741,0.693785110128475,2.14519290419903,1.6917544733156,-0.576827390924804,1.69175447331595,1.45402284079813,,,,,-1.32627695096732,-0.0846674946927772,2.55825194677955,-0.0846674946936955,0.6767299319274,0.879446230540809,,1.16978294287008,0.888486127569939,,,0.599053458880334,0.00761798117855696,0.160800263735405,-1.35846567259883,-0.832787017653087,-1.57711442030423,-0.924038570572134,-1.74135470725811,0.377752985927768,1.50278420448303,1.5027842044814,,-1.03175913718918,,,0.482691044896294,-1.5730601328158,-0.307631526717961,-1.02623795717981,-1.02623795717982,0.0196427645339849,-0.0196427645349366,0.550196216208238,2.96960000000001,103,992.055825242718,971.620388349515,403.791262135922,994.388349514563,989.723300970874,989.709708737864,953.531067961165,441.427184466019,366.155339805825,0
404.5824,1.1807127849023,1.84179404147696,1.65675043201029,-1.12263263118533,1.26771969085232,1.26771969085355,1.81056790300792,0.698099472574503,2.16301783095392,1.69933221093794,-0.584596823613328,1.6993322109383,1.46900474233008,,,,,-1.33584669394672,-0.0821061232213169,2.54744951020119,-0.0821061232222443,0.685026045272486,0.893607603368769,,1.17959007102687,0.877402953704382,,,0.585489092074071,0.0521949296389078,0.147270190720197,-1.36658621852817,-0.844427898905836,-1.58971517855749,-0.916701319283815,-1.75019178411787,0.360150288632929,1.49930125886241,1.49930125886077,,-0.971941752611456,,,0.493374313032543,-1.54791842227223,-0.317244045729188,-0.993699076009057,-0.993699076009063,0.0438666409407186,-0.0438666409416544,0.542166357303945,3.072,102,520.950980392157,733.85931372549,414.083333333333,522.69705882353,519.204901960784,750.43431372549,717.28431372549,445.205882352941,382.960784313726,0
404.6848,1.19161621674399,1.85097366586813,1.66909123788425,-1.12737916041234,1.29080879698707,1.29080879698827,1.82477602600394,0.703060677306235,2.17972802248438,1.70621601741127,-0.59248024546784,1.70621601741164,1.48280997998696,,,,,-1.3438126291733,-0.0794522809019143,2.53463022419935,-0.0794522809028499,0.69285712341601,0.90763958907952,,1.18778666932547,0.86577431096445,,,0.571870770919635,0.0962097164411093,0.133173045739048,-1.37397628814887,-0.855841942242897,-1.60140676120187,-0.907716143108263,-1.75764043832329,0.341458044651689,1.49508541231282,1.49508541231117,,-0.912002314819355,,,0.503186053651494,-1.52117595995103,-0.327682888696181,-0.960780194664807,-0.960780194664819,0.0677419839862075,-0.0677419839871308,0.533826302149577,3.17439999999999,102,127.600980392157,506.230392156863,424.436274509804,137.979411764706,117.222549019608,531.049019607843,481.411764705882,437.578431372549,411.294117647059,0
404.7872,1.20225751808321,1.85879660316372,1.68070603296712,-1.13202308524869,1.31317807216269,1.31317807216385,1.83748845098105,0.708675875187362,2.19527912040362,1.71241153590654,-0.600486559876368,1.71241153590692,1.49541024853499,,,,,-1.35019983259672,-0.0767472185629684,2.51976242499515,-0.0767472185639107,0.700199156998334,0.92157785560317,,1.19438047315752,0.853585711879651,,,0.558147201895989,0.139644592057985,0.11852390685151,-1.38065926106553,-0.867037820084212,-1.61217768547203,-0.897097459750765,-1.7636952828906,0.321694512253425,1.49012668126131,1.49012668125965,,-0.851995371839659,,,0.512147084480878,-1.49284651346046,-0.338964427310855,-0.92750913622831,-0.927509136228328,0.0912996206518747,-0.0912996206527889,0.52519175952287,3.27679999999998,103,45.3257281553398,553.815048543689,448.276699029126,62.3543689320388,28.2970873786408,573.116504854369,534.51359223301,460.203883495146,436.349514563107,0
404.8896,1.21262164836299,1.86524993640696,1.69157769784218,-1.13652754787297,1.33479600688336,1.33479600688449,1.848660986308,0.714949177216275,2.20962911897581,1.71792455565835,-0.608624691332006,1.71792455565874,1.50678109262006,,,,,-1.35503795750616,-0.0740333192942385,2.50281464190278,-0.0740333192951877,0.707028909234869,0.935459110859107,,1.19938450423882,0.840824151742481,,,0.544268037214829,0.182483019160539,0.103340806544397,-1.38666094682903,-0.878024468371321,-1.6220194396567,-0.884863427039102,-1.7683549007359,0.30088229054692,1.48441592918258,1.48441592918091,,-0.79197702020109,,,0.520280973408409,-1.46294466875581,-0.351102305390963,-0.893913352135152,-0.893913352135176,0.114569255838747,-0.114569255839657,0.516280297401615,3.37919999999997,102,55.9019607843137,556.098529411765,466.764705882353,72.4490196078432,39.3549019607843,572.750980392157,539.446078431373,480.294117647059,453.235294117647,0
404.992,1.22269388239763,1.87032375630343,1.70169050637044,-1.14085346601215,1.35563224804645,1.35563224804755,1.85825329502043,0.721881694567933,2.22273832919821,1.72276089019805,-0.616903555000512,1.72276089019845,1.5169018340007,,,,,-1.35836107612798,-0.0713539812743391,2.4837558622381,-0.0713539812752949,0.713323782259103,0.949320931392894,,1.20281696544452,0.82747822436781,,,0.530184131850703,0.224709534845081,0.0876449180063968,-1.39200943925327,-0.888810903685921,-1.63092634775407,-0.871035918101162,-1.77162171402094,0.279048086376365,1.47794488319583,1.47794488319414,,-0.732005203192267,,,0.527613793122081,-1.43148587270203,-0.364107376810592,-0.860020074057186,-0.86002007405722,0.137579201804299,-0.13757920180521,0.507111538490184,3.48160000000001,103,72.473786407767,556.697087378641,489.140776699029,88.3980582524272,56.5495145631068,571.482524271845,541.911650485437,506.466019417476,471.815533980583,0
405.0944,1.23245974979277,1.8740111836457,1.71103008487462,-1.14495984862235,1.37565771285976,1.37565771286082,1.86622882385442,0.729471609489831,2.23456934414089,1.72692627550436,-0.625332010152507,1.72692627550476,1.52575548125216,,,,,-1.36020748077359,-0.0687534968726479,2.46255584571788,-0.0687534968736102,0.719061681225876,0.963201577251317,,1.2047011146734,0.81353823557868,,,0.515847798596734,0.266309609345856,0.071460691593338,-1.3967349742307,-0.899406065604689,-1.63889542566575,-0.855640468395352,-1.77350183615981,0.256222483110789,1.47070614995307,1.47070614995137,,-0.672139969225712,,,0.534173864116003,-1.39848649481138,-0.377987655707491,-0.825856476707702,-0.825856476707745,0.160356139641982,-0.160356139642887,0.497707336592075,3.584,102,61.1019607843137,560.286764705882,510.656862745098,77.6088235294118,44.5950980392157,574.998039215686,545.575490196079,531.539215686275,489.774509803922,0
405.1968,1.24190499135521,1.87630840356355,1.71958338961602,-1.14880411596437,1.39484470471946,1.39484470472049,1.8725547290929,0.737714276709147,2.24508701666896,1.73042629807241,-0.633918786612455,1.73042629807281,1.53332863161575,,,,,-1.36061945509455,-0.0662769209547177,2.43918547231219,-0.066276920955685,0.724220883957499,0.977139797178729,,1.20506512072203,0.798996323814624,,,0.501213067890433,0.307269508756026,0.0548159475997821,-1.40086978580047,-0.909818677977028,-1.64592624839961,-0.838706199966606,-1.77400492590356,0.232439717031364,1.4626932306593,1.46269323065759,,-0.612443686645317,,,0.53999150132697,-1.36396391171869,-0.392748261913551,-0.791449843668494,-0.791449843668549,0.182924906415593,-0.182924906416509,0.488091930979791,3.68639999999999,102,60.55,563.027941176471,530.745098039216,76.5117647058824,44.5882352941177,573.416666666667,552.639215686275,555.264705882353,506.225490196079,0
405.2992,1.25101553721356,1.87721471058016,1.7273387060204,-1.15234242396454,1.41316703369638,1.41316703369736,1.87720180791085,0.746602351630565,2.25425845631831,1.73326635678974,-0.64267237652183,1.73326635679016,1.53961137205624,,,,,-1.35964302359367,-0.0639699243768861,2.41361711382311,-0.0639699243778593,0.728779924676952,0.991174620140324,,1.20394189715555,0.783846590705205,,,0.486235954081822,0.347576167432639,0.0377419324289469,-1.40444795193468,-0.920057120168439,-1.6520208385161,-0.820265729806765,-1.77314405510731,0.207737456952604,1.45390053512509,1.45390053512337,,-0.552981201969107,,,0.545098771789249,-1.32793661504631,-0.408391362149728,-0.756827732078316,-0.756827732078387,0.205308298727911,-0.205308298728821,0.478292075221266,3.78879999999998,103,74.9674757281553,563.145631067961,534.679611650485,88.8708737864078,61.0640776699029,576.066990291262,550.22427184466,559.174757281553,510.184466019418,0
405.4016,1.25977750912397,1.87673255376202,1.73428566761728,-1.15552999766275,1.43060013934049,1.43060013934144,1.88014444288505,0.756125933112389,2.26205304674548,1.73545165025487,-0.651600889305425,1.73545165025529,1.54459717767258,,,,,-1.3573276805866,-0.0618786356830675,2.38582502903062,-0.0618786356840439,0.732717498828475,1.00534512184068,,1.20136890646959,0.768085235944498,,,0.470874718850777,0.387217081228142,0.0202733314602199,-1.40750522819022,-0.930129310114049,-1.65718357526153,-0.800355071863994,-1.77093559296904,0.182156570709948,1.44432339671804,1.44432339671633,,-0.493819942873284,,,0.549529260598937,-1.29042433572607,-0.424916117324509,-0.72201812950493,-0.722018129505015,0.227526870899782,-0.227526870900701,0.468337116001927,3.89119999999997,102,88.6887254901961,561.246568627451,526.352941176471,103.839215686275,73.5382352941176,573.179411764706,549.313725490196,549.833333333333,502.872549019608,0
405.504,1.26817724347509,1.87486756238365,1.7404152844574,-1.15832148036381,1.44712120512106,1.44712120512199,1.88136056548397,0.766272702474172,2.26844248019741,1.73698717279775,-0.660711877686286,1.73698717279818,1.54828279670321,,,,,-1.35372609616048,-0.060049474776208,2.35578578652108,-0.0600494747771867,0.736012394373463,1.0196901550562,,1.19738793147886,0.751710682798448,,,0.455090113745049,0.4261802339991,0.00244822474132654,-1.41007887338394,-0.94004260833563,-1.66142111169479,-0.779013544052334,-1.76739909920363,0.155740859267489,1.43395809687793,1.43395809687622,,-0.435029987149613,,,0.553317843516337,-1.25144817908365,-0.442318641956125,-0.687049594945091,-0.687049594945187,0.249598705519919,-0.24959870552085,0.458258994627333,3.99360000000002,103,98.6490291262136,559.666019417476,521.844660194175,114.44854368932,82.8495145631068,570.654368932039,548.677669902913,545.242718446602,498.446601941748,0
405.6064,1.2762013302813,1.87162853315448,1.74571997001224,-1.16067130379174,1.46270925052646,1.46270925052736,1.8808316413174,0.777028042573499,2.27340080353048,1.73787770837975,-0.670012148745294,1.73787770838019,1.5506681112051,,,,,-1.34889379811641,-0.0585289748431905,2.32347870977475,-0.058528974844174,0.738643455200487,1.03424803958222,,1.19204481725579,0.734723678023993,,,0.438845583768455,0.464454061938598,-0.015692020942973,-1.41220747136472,-0.949803748605854,-1.66474228291722,-0.756283687961696,-1.76255721357036,0.128536750113774,1.42280191308338,1.42280191308167,,-0.376684117737601,,,0.556500474292345,-1.21103076915484,-0.460591973075162,-0.651951381396398,-0.651951381396508,0.271539147026653,-0.271539147027615,0.448092167389391,4.096,102,109.300980392157,558.753921568628,522.848039215686,124.302941176471,94.2990196078431,569.563725490196,547.944117647059,545.950980392157,499.745098039216,0
405.7088,1.28383666798887,1.86702737080304,1.75019356331226,-1.16253408238896,1.47734519364872,1.47734519364959,1.87854267961494,0.788375129054546,2.27690447421484,1.7381278239539,-0.679507570670113,1.73812782395434,1.55175597128141,,,,,-1.34288883187759,-0.057363584624339,2.28888632689576,-0.0573635846253269,0.740589582805001,1.0490562142822,,1.1853891880665,0.717127358039183,,,0.42210742227994,0.502027452341637,-0.034102920334893,-1.41393074907771,-0.959418793877043,-1.66715799669091,-0.732211202902399,-1.75643553445608,0.100592953827802,1.41085319861956,1.41085319861786,,-0.318857865262635,,,0.559114000142662,-1.16919640153922,-0.479726042004254,-0.616753543721175,-0.616753543721298,0.293360500243654,-0.293360500244635,0.437873458889381,4.19839999999999,102,119.503921568627,559.334803921569,518.995098039216,132.639215686275,106.36862745098,570.9,547.769607843137,541.421568627451,496.56862745098,0
405.8112,1.2910705371916,1.8610789893282,1.75383135160585,-1.1638650335079,1.49101189006511,1.49101189006595,1.87448226951036,0.800294997952477,2.27893243103006,1.73774187260118,-0.689202878159751,1.73774187260163,1.55155201260548,,,,,-1.33577140418482,-0.0565994456681342,2.25199480432163,-0.0565994456691278,0.741829781023718,1.06415086005832,,1.17747413967599,0.69892728670987,,,0.404844879427245,0.538889768875997,-0.0527370859151643,-1.41528938656001,-0.968893108869473,-1.66868110996863,-0.706844891724338,-1.74906248880933,0.0719600947385069,1.39811148720171,1.39811148720002,,-0.261629520137393,,,0.561196010257634,-1.12597120462845,-0.499707643769505,-0.581487035612344,-0.58148703561248,0.315071708299448,-0.315071708300457,0.427641866101842,4.30079999999998,103,127.190291262136,558.916990291262,522.854368932039,139.96213592233,114.418446601942,569.853398058252,547.980582524272,546.864077669903,498.844660194175,0
405.9136,1.2978906956583,1.8538011920913,1.75663010236213,-1.16462042492538,1.50369416222601,1.50369416222682,1.86864264262387,0.812766601336754,2.27946618490449,1.73672401846224,-0.699101475003817,1.7367240184627,1.55006447309565,,,,,-1.32760351941644,-0.0562821392519463,2.21279434475312,-0.0562821392529433,0.742343247080125,1.07956650763517,,1.16835590026847,0.680131476219215,,,0.387030233717437,0.575030893685025,-0.0715444731453472,-1.41632481293872,-0.978231336664383,-1.66932630184479,-0.680236611972615,-1.74046920068613,0.042690331985875,1.38457760374388,1.3845776037422,,-0.205080086562621,,,0.562784705010015,-1.08138330422463,-0.520520400921071,-0.54618379276667,-0.546183792766816,0.336678037407706,-0.336678037408746,0.417438331322879,4.40319999999997,102,134.707352941176,560.590196078432,531.656862745098,146.633333333333,122.78137254902,570.849019607843,550.33137254902,556.901960784314,506.411764705882,0
406.016,1.30428549437358,1.84521454454479,1.75858810958831,-1.16475805097357,1.51537882818881,1.5153788281896,1.86101975834275,0.825766856805027,2.27848992927063,1.73507828686006,-0.709205233964797,1.73507828686052,1.54730401936811,,,,,-1.31844861727514,-0.0564563938103771,2.1712795347264,-0.0564563938113776,0.742109511780542,1.09533564086537,,1.1580934485809,0.660750396030368,,,0.36863883234105,0.610441280457599,-0.0904726396093062,-1.41707898451704,-0.987437369732019,-1.66910995169429,-0.652441223507611,-1.73068936325658,0.0128369870726374,1.37025376501051,1.37025376500884,,-0.149293154453315,,,0.563918766089699,-1.03546297711412,-0.542144719355939,-0.51087679006425,-0.510876790064408,0.358180796156317,-0.358180796157377,0.407305495175971,4.50560000000002,103,142.461650485437,561.627669902913,538.679611650485,153.211650485437,131.711650485437,573.227184466019,550.028155339806,563.679611650485,513.679611650485,0
406.1184,1.31024401156636,1.83534223862895,1.75970525163394,-1.16423773376815,1.52605472608595,1.52605472608673,1.85161340647328,0.839270688089422,2.27599066322334,1.7328086304163,-0.71951430008321,1.73280863041679,1.5432835839702,,,,,-1.30837121969082,-0.0571657456305976,2.12744964160353,-0.0571657456316005,0.741108628605844,1.11148829876708,,1.14674808209242,0.640796964126819,,,0.34964909483179,0.645112018538014,-0.109467009856011,-1.41759414310188,-0.996514310392975,-1.66805002318734,-0.62351652548059,-1.71975911244163,-0.0175458160564256,1.35514366443037,1.3551436644287,,-0.0943546786004309,,,0.564637218442714,-0.988242777773724,-0.564557737669013,-0.475600058715868,-0.475600058716037,0.379577108213983,-0.379577108215063,0.397287429882338,4.608,102,153.727941176471,563.910784313725,547.225490196079,166.256862745098,141.199019607843,573.860784313726,553.960784313726,572.303921568627,522.147058823529,0
406.2208,1.31575619986341,1.82420993981304,1.75998305311521,-1.16302183408035,1.53571272524628,1.53571272524703,1.8404273208863,0.853251053378768,2.27195831938355,1.72991899780789,-0.730026909726942,1.72991899780838,1.53801821021369,,,,,-1.29743659347889,-0.0584521540895651,2.08130887436682,-0.0584521540905742,0.739321407466359,1.12805167690128,,1.13438293709306,0.620286509448042,,,0.330042468465754,0.679034909037388,-0.128471142390511,-1.41791255542316,-1.00546441964676,-1.6661659478143,-0.593523177895966,-1.70771689479293,-0.0484035020118061,1.33925254209075,1.33925254208909,,-0.0403526682261773,,,0.564979290631367,-0.939757628818375,-0.587733280911532,-0.440388657025808,-0.440388657025989,0.400859753139059,-0.400859753140144,0.387429350303466,4.71039999999999,102,221.026470588235,561.366176470588,556.093137254902,229.03431372549,213.01862745098,574.926470588235,547.805882352941,580.372549019608,531.813725490196,0
406.3232,1.32081304126759,1.81184561122515,1.7594247445471,-1.16107574926468,1.54434571724527,1.54434571724599,1.82746930057028,0.867678957362375,2.26638589085122,1.72641339645107,-0.740739239982696,1.72641339645157,1.53152490260238,,,,,-1.28571043151246,-0.060355575516638,2.0328666263213,-0.0603555755176523,0.736729692165254,1.14504972763736,,1.12106246722142,0.599236695740386,,,0.30980332648097,0.712202550503128,-0.147427004480429,-1.41807623951075,-1.01428906088843,-1.6634785012386,-0.562524603447515,-1.69460332210071,-0.0796813871662877,1.32258724300362,1.32258724300197,,0.0126232053814281,,,0.564984286252476,-0.890044872197176,-0.611641837521995,-0.405278592439263,-0.405278592439453,0.422017089438242,-0.422017089439319,0.377777302479396,4.81279999999998,103,240.264077669903,566.769902912621,574.179611650486,248.496116504854,232.032038834951,576.17572815534,557.364077669903,599.388349514563,548.970873786408,0
406.4256,1.32540670587773,1.79827931653657,1.75803531699047,-1.15836838311378,1.55194858475931,1.55194858476,1.81275133841073,0.882523443506262,2.25926955578577,1.72229594797062,-0.751645298842957,1.72229594797113,1.52382248439956,,,,,-1.27325855266653,-0.0629134957125676,1.98213770773218,-0.0629134957135865,0.733316684340462,1.1625027579932,,1.10685189034951,0.577667401413203,,,0.288918809131528,0.74460842956882,-0.16627526650243,-1.41812668725792,-1.02298865006392,-1.66000966961771,-0.530586867235374,-1.68046100932446,-0.111325008663964,1.30515626736047,1.30515626735883,,0.0644820810058659,,,0.56469147453083,-0.839144287360995,-0.63625057835529,-0.370306694200444,-0.370306694200642,0.44303306815168,-0.443033068152752,0.368377830445774,4.91519999999997,102,227.09068627451,564.806862745098,595.509803921569,235.858823529412,218.322549019608,571.794117647059,557.819607843137,621.235294117647,569.78431372549,0
406.528,1.32953071132083,1.78354301004376,1.75582157244066,-1.15487257943517,1.55851815293597,1.55851815293662,1.79628975257472,0.897751576990889,2.25060879982298,1.71757094231268,-0.762736857382266,1.71757094231319,1.51493146826357,,,,,-1.26014662419027,-0.0661604271035784,1.9291425584006,-0.0661604271046046,0.729067303007019,1.18042703355729,,1.09181662345812,0.555600556143106,,,0.267378624890489,0.776247011534017,-0.184955619140403,-1.41810459214634,-1.03156261977699,-1.65578250523563,-0.497778536457129,-1.66533439597595,-0.143280433739618,1.28696981271738,1.28696981271575,,0.115132456598659,,,0.564140001088261,-0.78709809598825,-0.661523432535862,-0.335510453949758,-0.335510453949964,0.463887330333715,-0.46388733033477,0.359277623485658,5.01760000000002,103,240.069902912621,565.353398058252,602.864077669903,249.296116504854,230.843689320388,575.455339805825,555.25145631068,629.009708737864,576.718446601942,0
406.6304,1.33318007936022,1.76767032817184,1.75279217245529,-1.15056550417625,1.56405313513021,1.56405313513084,1.77810530312689,0.913328446142866,2.24040653318665,1.71224289902841,-0.774003415741374,1.71224289902893,1.50487394703623,,,,,-1.24643991549613,-0.0701273944490967,1.87390742075128,-0.0701273944501298,0.723968544535539,1.19883441495007,,1.0760217354294,0.533059942526136,,,0.245174849637363,0.80711382421958,-0.203407103880469,-1.41804958951259,-1.04000939788071,-1.65082097181228,-0.464170525355696,-1.64926955310598,-0.175494551386578,1.26803979991531,1.2680397999137,,0.164482796964265,,,0.563368816452671,-0.733950979084984,-0.687421229046764,-0.300927875143348,-0.300927875143564,0.48455536622276,-0.484555366223799,0.350523145901483,5.12000000000001,102,252.900980392157,569.232843137255,598.975490196079,261.421568627451,244.380392156863,573.005882352941,565.459803921569,622.696078431373,575.254901960784,0
406.7328,1.33635148616667,1.75069639853035,1.74895768825953,-1.14542895590489,1.56855408619631,1.5685540861969,1.75822327461183,0.929217207901479,2.22866919629678,1.70631664180103,-0.78543218905263,1.70631664180156,1.49367350827365,,,,,-1.2322030914509,-0.0748414411331197,1.81646446426366,-0.0748414411341622,0.718009802117004,1.2177320583956,,1.05953144419287,0.510070978582514,,,0.222301765215011,0.837205527632227,-0.221568441890151,-1.41800001310339,-1.04832639619798,-1.6451497829667,-0.429835929001328,-1.63231398026464,-0.207915353905411,1.24837987118945,1.24837987118784,,0.212442168929226,,,0.562416620947669,-0.679750121578671,-0.713901900714014,-0.266597366144419,-0.266597366144646,0.505008711446288,-0.505008711447293,0.342160250779423,5.22239999999999,102,264.492156862745,559.145588235294,594.647058823529,270.819607843137,258.164705882353,562.637254901961,555.653921568627,616.470588235294,572.823529411765,0
406.8352,1.33904340371804,1.73265767729507,1.7443306543382,-1.13944959608491,1.57202337051554,1.5720233705161,1.73667351679307,0.945379182213724,2.21540684857651,1.69979738625449,-0.797008099511821,1.69979738625503,1.48135517166888,,,,,-1.21750004489701,-0.080325177927817,1.75685187162993,-0.0803251779288671,0.711183123738548,1.23712219596513,,1.04240866788307,0.486660500803671,,,0.198755756503365,0.866519964831379,-0.239378346087963,-1.41799266527631,-1.05651000062131,-1.6387942392951,-0.394849845920752,-1.61451639736641,-0.240492216955794,1.22800535671816,1.22800535671657,,0.258920875692229,,,0.561321827213591,-0.624545279068994,-0.740920731180623,-0.232557679111567,-0.232557679111806,0.525215166618595,-0.525215166619565,0.334233782051012,5.32479999999998,103,276.121844660194,558.071359223301,593.077669902913,282.235922330097,270.007766990291,559.352427184466,556.790291262136,617.339805825243,568.815533980582,0
406.9376,1.34125622820246,1.71359181441327,1.73892562196853,-1.13261910818192,1.57446514315692,1.57446514315745,1.71349044564216,0.961773982782923,2.20063323613265,1.692690831832,-0.80871376815349,1.69269083183256,1.46794534483115,,,,,-1.20239375943743,-0.0865963840643422,1.69511390767931,-0.0865963840653989,0.703483410617648,1.25700198966292,,1.0247146252652,0.462856564069797,,,0.174535257207441,0.895056193692103,-0.256775803017111,-1.41806259348958,-1.06455555152699,-1.63178006575966,-0.359289190970918,-1.5959265334715,-0.27317618333702,1.2069332187537,1.20693321875212,,0.3038310696868,,,0.560122541627411,-0.568388848780393,-0.76843062193409,-0.198847874828058,-0.198847874828311,0.545139037792511,-0.545139037793436,0.326787172288269,5.42719999999997,102,286.297549019608,556.764705882353,581.642156862745,292.817647058824,279.777450980392,565.543137254902,547.986274509804,607.519607843137,555.764705882353,0
407.04,1.3429923870054,1.6935375377149,1.73275920247281,-1.12493430369406,1.5758853366928,1.5758853366933,1.68871300941394,0.978359669293329,2.18436583554732,1.6850032404133,-0.820529509713606,1.68500324041387,1.4534717893349,,,,,-1.18694619056255,-0.0936676687370442,1.63130098825707,-0.0936676687381074,0.694908565496259,1.27736344471532,,1.00650847703217,0.438688266543263,,,0.149640723878574,0.922814502076403,-0.273700318283008,-1.41824286759672,-1.07245730797419,-1.62413324755847,-0.323232504491447,-1.57659491291384,-0.305920248081302,1.1851819875223,1.18518198752074,,0.347087327454089,,,0.55885656109321,-0.51133593037271,-0.796382368196555,-0.165507295306854,-0.165507295307122,0.564741398470691,-0.564741398471571,0.31986204512266,5.52960000000002,103,935.796601941748,670.383495145631,572.140776699029,924.2,947.393203883495,680.494174757282,660.272815533981,610.26213592233,534.019417475728,0
407.1424,1.34425641496519,1.67253454865351,1.72585008986136,-1.11639719203641,1.57629164662524,1.57629164662571,1.66238462618123,0.995092914124983,2.16662587657788,1.67674148603123,-0.832433337396763,1.67674148603181,1.43796358804165,,,,,-1.17121815496488,-0.101546204352924,1.56546975409953,-0.101546204353993,0.685459595630914,1.2981933733987,,0.987847001016142,0.414185600358394,,,0.124074627003525,0.9497964094906,-0.290092131094429,-1.41856435953829,-1.08020839929861,-1.6158798659724,-0.286759763232194,-1.55657264202035,-0.338679633838667,1.16277169618528,1.16277169618375,,0.388607174517654,,,0.557561375412746,-0.453444373404432,-0.824724939855524,-0.132575535195258,-0.132575535195541,0.583980371425643,-0.583980371426502,0.313497831430929,5.63200000000001,102,1281.44950980392,748.850490196079,555.171568627451,1273.97647058824,1288.92254901961,759.137254901961,738.563725490196,611.313725490196,499.029411764706,0
407.2448,1.34505499664225,1.65062342923261,1.71821906004996,-1.1070150257132,1.57569351436017,1.57569351436061,1.63455310043091,1.01192918327905,2.14743835120876,1.66791307373407,-0.844400981281851,1.66791307373466,1.42145110932384,,,,,-1.15526922062136,-0.110233539728212,1.49768314164748,-0.110233539729289,0.675140672067219,1.31947340968861,,0.968784295148558,0.389379325057446,,,0.0978414581232547,0.97600465625088,-0.30589241101305,-1.41905553195147,-1.0878007744784,-1.60704593883888,-0.24995219224764,-1.53591120033764,-0.371412041321694,1.13972381422072,1.13972381421922,,0.428311555325594,,,0.55627416352004,-0.394774813517803,-0.853405759941937,-0.100092408763995,-0.100092408764292,0.602811424228738,-0.602811424229589,0.307731404136854,5.73439999999999,102,1274.72990196078,748.517647058824,554.980392156863,1270.27745098039,1279.18235294118,764.455882352941,732.579411764706,614.509803921569,495.450980392157,0
407.3472,1.34539697857046,1.62784556269068,1.70988895085289,-1.09680032758433,1.57410211272884,1.57410211272925,1.60527052538838,1.02882293148578,2.12683201569504,1.65852614068096,-0.856405921385594,1.65852614068155,1.40396597059546,,,,,-1.1391575929497,-0.119725490876972,1.42801043446063,-0.119725490878055,0.663959150457584,1.34118007607294,,0.949371502430659,0.364300860021162,,,0.0709477527413002,1.00144317842714,-0.321043447269839,-1.41974224144638,-1.09522515787183,-1.59765726748769,-0.212892072533041,-1.51466223621962,-0.404077861952027,1.11606117836525,1.11606117836378,,0.466125250190985,,,0.555031774513754,-0.335390697016787,-0.882370972236006,-0.0680979117388209,-0.0680979117391316,0.621187669233484,-0.621187669234339,0.302596729624538,5.83679999999998,103,1275.40339805825,743.991747572816,543.558252427185,1270.8572815534,1279.94951456311,757.035922330097,730.947572815534,597.970873786408,489.145631067961,0
407.4496,1.34529335726522,1.60424306884926,1.70088462779202,-1.08577090311486,1.57153033994958,1.57153033994996,1.574593175989,1.04572780973198,2.10483938960669,1.64858945679238,-0.86841943564988,1.64858945679299,1.38554100578417,,,,,-1.12293999507796,-0.13001210022867,1.35652727985351,-0.130012100229759,0.651925562651427,1.36328489911486,,0.929656553791187,0.338982192035755,,,0.0434021275004433,1.02611706700199,-0.335488834045483,-1.42064756093424,-1.10247101581586,-1.58773928956777,-0.175662540551505,-1.49287736493326,-0.436640343809356,1.09180792246377,1.09180792246232,,0.501977244791969,,,0.553870687803148,-0.275358290985054,-0.911565695039844,-0.0366321770417075,-0.0366321770420338,0.639060159613675,-0.639060159614549,0.298124529827179,5.93919999999997,102,1196.53676470588,659.323529411765,546.137254901961,1192.31568627451,1200.75784313726,671.494117647059,647.152941176471,595.656862745098,496.617647058824,0
407.552,1.34475724675587,1.57985875403278,1.69123293875291,-1.07394983536387,1.56799282518296,1.5679928251833,1.54258139465325,1.06259688477985,2.08149675380784,1.6381124359326,-0.880410662545295,1.63811243593321,1.36621023801344,,,,,-1.1066715410558,-0.141077659200461,1.28331566340447,-0.141077659201553,0.639053585579983,1.38575456888346,,0.909683926280428,0.313455793215744,,,0.0152153319805112,1.0500325132798,-0.349173652200527,-1.42179162591917,-1.10952653758681,-1.57731693889461,-0.138347377760355,-1.47060796964899,-0.469065702743083,1.06698940535757,1.06698940535614,,0.535801057793983,,,0.55282694931546,-0.214746676065399,-0.940934261524745,-0.00573542155223813,-0.00573542155257928,0.656378179226867,-0.656378179227755,0.294341948550818,6.04160000000002,103,1104.84757281553,546.457766990291,563.349514563107,1103.66796116505,1106.02718446602,559.278640776699,533.636893203884,605.310679611651,521.388349514563,0
407.6544,1.34380382644793,1.55473607694017,1.68096265866492,-1.06136545572519,1.56350594680106,1.56350594680138,1.50929946552902,1.07938287362229,2.05684414454519,1.62710515855462,-0.892346679594343,1.62710515855523,1.34600885335661,,,,,-1.09040559933512,-0.152900798819005,1.20846384111772,-0.152900798820103,0.625359985900863,1.40855114197021,,0.889494412166209,0.287754546071213,,,-0.0135996839449133,1.07319674604817,-0.362044646759837,-1.42319150747664,-1.11637863222145,-1.56641451463547,-0.1010307856853,-1.44790500587141,-0.501323172445093,1.04163213088224,1.04163213088083,,0.567535028720441,,,0.551936083003959,-0.153627717173081,-0.97042044667269,0.0245521204534469,0.0245521204530935,0.673089533179451,-0.673089533180341,0.291272218734269,6.14400000000001,102,1105.49166666667,553.213725490196,570.514705882353,1105.82450980392,1105.15882352941,561.617647058824,544.809803921569,609.519607843137,531.509803921569,0
407.7568,1.34245026728954,1.52891913118274,1.67010442282701,-1.04805128248979,1.55808786194869,1.55808786194897,1.47481546402775,1.09603839624226,2.03092533221674,1.61557839823085,-0.904192602948848,1.61557839823147,1.32497316626865,,,,,-1.07419364542083,-0.165454660231161,1.1320662320026,-0.165454660232263,0.61086453137851,1.43163229191494,,0.869124892878352,0.261911675054647,,,-0.0430276926639835,1.0956179656806,-0.374050396788479,-1.42486111084665,-1.12301293893647,-1.55505556149904,-0.0637971408855959,-1.42481880886274,-0.533384994103127,1.01576365186908,1.01576365186769,,0.597122563519218,,,0.551232977883945,-0.0920760031543556,-0.999967679734877,0.0541902816381705,0.0541902816378046,0.689140851759302,-0.689140851760209,0.288934334668741,6.24639999999999,102,1101.73676470588,551.982843137255,568.068627450981,1101.50784313725,1101.96568627451,557.708823529412,546.256862745098,608.254901960784,527.882352941177,0
407.8592,1.34071563575908,1.50245264071937,1.6586906470622,-1.03404592148881,1.55175854022912,1.55175854022937,1.43920106612826,1.11251624462887,2.00378776828154,1.60354364263104,-0.915911714156464,1.60354364263166,1.30314056574158,,,,,-1.05808511106237,-0.178707154078704,1.05422327512702,-0.178707154079812,0.595589859178271,1.45495160714602,,0.848608120140616,0.23596068134611,,,-0.0730511168089479,1.11730527706091,-0.385141474709193,-1.42681110006506,-1.12941385007293,-1.54326276431767,-0.0267307304619974,-1.40139890734062,-0.565226351325453,0.989412455133794,0.989412455132412,,0.624512337253988,,,0.550751748958749,-0.0301687456909392,-1.0295192384766,0.0831390667457369,0.083139066745361,0.704477919691222,-0.704477919692138,0.28734274401981,6.34879999999998,103,1094.49466019417,548.665533980583,561.063106796116,1093.17572815534,1095.81359223301,557.48640776699,539.844660194175,603.563106796117,518.563106796117,0
407.9616,1.33862077993925,1.47538196065459,1.6467554353232,-1.01939292289433,1.54453978908882,1.54453978908904,1.40253131106265,1.12876965913734,1.97548248939134,1.59101310313362,-0.927465617639994,1.59101310313424,1.28054943745326,,,,,-1.04212724482762,-0.192621303229368,0.975041254217959,-0.192621303230481,0.579561299055553,1.47845892790196,,0.827972521539529,0.209935274385929,,,-0.103649980231077,1.13826861996793,-0.395270596070236,-1.42904885368287,-1.13556455039989,-1.53105786217907,0.0100845243181261,-1.37769385071385,-0.596825256700674,0.962607834056092,0.962607834054727,,0.649658462033907,,,0.550525568312898,0.0320143674188277,-1.0590184183415,0.111358778874658,0.11135877887427,0.719046037377013,-0.719046037377947,0.286507084941975,6.45119999999997,102,524.182843137255,556.866176470588,573.612745098039,527.712745098039,520.652941176471,563.549019607843,550.183333333333,605.343137254902,541.882352941177,0
408.064,1.33618820176179,1.44775307484705,1.63433447484052,-1.0041405848185,1.53645525872252,1.53645525872271,1.36488432311882,1.14475260171196,1.94606397912099,1.57799970875595,-0.938814429579532,1.57799970875658,1.2572390676188,,,,,-1.02636499561267,-0.207155648102631,0.894632087995834,-0.207155648103748,0.562806659989662,1.50210071072996,,0.807242054128247,0.183869297430049,,,-0.134801890644308,1.15851869277156,-0.404392762938793,-1.43157845648194,-1.14144707751344,-1.51846158264233,0.0465653476655377,-1.3537510533088,-0.628162399120576,0.935379759612992,0.935379759611647,,0.67252063049505,,,0.550586466587643,0.0943913631845296,-1.08840867130707,0.138810166201952,0.138810166201554,0.732790411975732,-0.732790411976688,0.286431993412855,6.55360000000002,103,451.95,547.05,556.888349514563,457.831067961165,446.068932038835,559.418446601942,534.681553398058,574.320388349515,539.456310679612,0
408.1664,1.33344191612049,1.4196125820188,1.62146491624009,-0.988341694657247,1.52753041838352,1.52753041838367,1.3263410037513,1.16042001919772,1.91558999501117,1.5645170804823,-0.949916995466738,1.56451708048294,1.23324954044527,,,,,-1.0108409216713,-0.222264688160917,0.813113079324458,-0.222264688162037,0.545355994887451,1.52582041435859,,0.786436123575309,0.157796649085336,,,-0.166482053627784,1.17806686325634,-0.412465404645336,-1.43440072864759,-1.14704240601853,-1.50549359194838,0.0826293841824737,-1.3296166546559,-0.659220963841653,0.907758756580039,0.907758756578709,,0.693064239224157,,,0.550965114707461,0.156878211492857,-1.11763371520964,0.165454591133383,0.165454591132971,0.745656567533197,-0.745656567534153,0.28711699281176,6.65600000000001,102,464.575,544.475490196079,539.333333333333,468.588235294118,460.561764705882,553.349019607843,535.601960784314,555.43137254902,523.235294117647,0
408.2688,1.33040729862695,1.39100766349191,1.60818523747636,-0.97205320602704,1.51779249972741,1.51779249972753,1.286984704484,1.17572809413606,1.88412137005756,1.55057948794556,-0.960731129892399,1.5505794879462,1.20862163998881,,,,,-0.995595124383953,-0.237899337123575,0.730606612533307,-0.237899337124696,0.527241358316304,1.54955890542839,,0.765569576411237,0.13175120136295,,,-0.198663315608841,1.19692506177748,-0.41944852013651,-1.43751329287212,-1.15233055776778,-1.49217246158896,0.118195461309514,-1.30533539883203,-0.689986434488918,0.87977578744469,0.879775787443374,,0.711260494310977,,,0.551690601304875,0.219389081468329,-1.14663761934858,0.191254227959564,0.191254227959138,0.757590761404661,-0.757590761405635,0.288556464222033,6.7584,102,478.822058823529,546.225490196079,524.666666666667,480.957843137255,476.686274509804,558.158823529412,534.292156862745,543.205882352941,506.127450980392,0
408.3712,1.3271109269618,1.36198602804431,1.59453509390735,-0.95533585583826,1.50727040575958,1.50727040575968,1.24690088815945,1.19063448277763,1.85172179604941,1.53620179767024,-0.971213871147751,1.53620179767089,1.18339676243677,,,,,-0.980665207958164,-0.254007380880225,0.64723978265125,-0.254007380881348,0.508496569599345,1.57325488176353,,0.744652765514384,0.105766712849469,,,-0.231316234474847,1.21510565703315,-0.425304824572211,-1.44091067959597,-1.15729073950684,-1.47851565776996,0.153183834976433,-1.28095054024775,-0.720446384127139,0.851462146768848,0.851462146767542,,0.727086502584415,,,0.552790216718775,0.281836623900162,-1.1753648736527,0.216172298402423,0.216172298401985,0.768540397115401,-0.768540397116407,0.290739689109134,6.86079999999998,103,493.734951456311,547.244660194175,516.52427184466,494.778640776699,492.691262135922,558.208737864078,536.280582524272,537.883495145631,495.165048543689,0
408.4736,1.32358042158006,1.33259583110353,1.58055515814561,-0.93825372612796,1.49599458641036,1.49599458641043,1.20617678287137,1.20509854105482,1.81845759346459,1.52139942227324,-0.98132174342456,1.52139942227389,1.15761684049407,,,,,-0.966086265392004,-0.270533939160557,0.563143939005508,-0.270533939161677,0.489156990529453,1.59684530766667,,0.72369168570017,0.0798767360425724,,,-0.264409176606282,1.23262131945054,-0.429999900930472,-1.44458446790706,-1.16190150662257,-1.46453955854979,0.187516419127996,-1.25650377996059,-0.75059026382232,0.822849368622757,0.822849368621462,,0.740525350270644,,,0.554289245502026,0.344132286429464,-1.20376044622995,0.240173354365394,0.240173354364943,0.778454426890751,-0.778454426891774,0.293650953103608,6.96319999999997,102,1244.19117647059,430.240196078431,501.617647058824,1232.08235294118,1256.3,438.999019607843,421.48137254902,536.323529411765,466.911764705882,0
408.576,1.31984429106324,1.30288556613842,1.56628695318293,-0.920873750623276,1.4839968828388,1.48399688283885,1.16490103034214,1.21908153906185,1.7843974699586,1.50618827366564,-0.991011018908406,1.50618827366629,1.13132427938981,,,,,-0.951890884992139,-0.287421933484076,0.478454138978403,-0.287421933485195,0.469259324079114,1.62026585427297,,0.702688177655464,0.0541145147891289,,,-0.297908437886091,1.2494848778431,-0.433502359266357,-1.44852345737193,-1.16614095105596,-1.45025949672969,0.22111700093683,-1.23203523015482,-0.780409191594604,0.793969147185463,0.793969147184182,,0.751566167990158,,,0.556210764813637,0.406186667362017,-1.23176983096107,0.263223610184261,0.263223610183798,0.787283742858584,-0.787283742859642,0.297269699997541,7.06560000000002,103,1503.13349514563,393.83932038835,481.47572815534,1496.6359223301,1509.63106796117,394.316504854369,393.36213592233,537.126213592233,425.825242718447,0
408.6784,1.31593178521943,1.27290392549867,1.55177268027273,-0.903265163277143,1.4713103418703,1.47131034187033,1.12316332840399,1.23254686284742,1.74961226649736,1.49058471583241,-1.00023797407932,1.49058471583306,1.10456190418279,,,,,-0.938109166320994,-0.304612555706558,0.393308525054632,-0.304612555707674,0.44884143675407,1.64345133932482,,0.681640202511565,0.0285128611823143,,,-0.331778385012083,1.26570917191399,-0.435784010151926,-1.45271386796625,-1.16998691449035,-1.4356898209522,0.253911439602528,-1.20758340070675,-0.809895731833471,0.764853269001865,0.764853269000598,,0.760204179045317,,,0.55857544786742,0.467909905059024,-1.25933908707492,0.285291316563684,0.285291316563207,0.794981562662126,-0.794981562663202,0.301570727137576,7.16800000000001,102,1495.80980392157,392.964705882353,477.490196078431,1491.04411764706,1500.57549019608,394.096078431373,391.833333333333,536.529411764706,418.450980392157,0
408.7808,1.31187275456189,1.24269962730143,1.53705503917065,-0.88549888956171,1.45796900099639,1.45796900099638,1.08105406672835,1.24546019986305,1.71417468841471,1.47460550860308,-1.00895913941912,1.47460550860373,1.07737291936737,,,,,-0.924768734759788,-0.322045725832045,0.307847641430485,-0.322045725833158,0.42794220276098,1.6663361621298,,0.660542190605113,0.00310400009381282,,,-0.365981614284514,1.28130690088903,-0.436820060034528,-1.45713956903071,-1.17341723099016,-1.42084396486336,0.285827842498326,-1.18318520083552,-0.83904365022019,0.735533556252006,0.735533556250749,,0.766440726445276,,,0.561401374917673,0.529212096032486,-1.28641487442764,0.306347163914254,0.306347163913764,0.801503814910415,-0.801503814911509,0.306524413747042,7.2704,102,1491.10196078431,394.547549019608,489.274509803922,1486.93529411765,1495.26862745098,393.409803921569,395.685294117647,547.705882352941,430.843137254902,0
408.8832,1.30769751144015,1.212321209795,1.5221770374283,-0.867646891564242,1.44400764737187,1.44400764737184,1.03866395879337,1.2577897029492,1.67815902176805,1.45826773556506,-1.01713154486795,1.45826773556572,1.04980088228929,,,,,-0.911894748456139,-0.339660529837452,0.222213704521748,-0.33966052983856,0.406601364822943,1.68885472850035,,0.639385461475391,-0.0220806201046938,,,-0.400479125621953,1.29629047123614,-0.436589330282998,-1.46178233609499,-1.17640999913169,-1.4057345146001,0.316796713792379,-1.1588759487348,-0.867847639916229,0.706041821355252,0.706041821354007,,0.770283276539388,,,0.564703855005301,0.590003737262213,-1.31294448989126,0.326364701568998,0.326364701568495,0.806809523439469,-0.806809523440575,0.312096973852164,7.37279999999998,103,1485.2713592233,397.173300970874,520.174757281553,1480.80194174757,1489.74077669903,396.741747572816,397.604854368932,579.485436893204,460.864077669903,0
408.9856,1.30343668740135,1.18181680731103,1.5071817896617,-0.849781493053474,1.42946156256504,1.42946156256499,0.996083678063159,1.26950612804916,1.641640840496,1.44158871481005,-1.02471296186355,1.44158871481071,1.02188968877514,,,,,-0.899509895734486,-0.357395634112098,0.136549852566128,-0.357395634113202,0.384859403457984,1.71094185941138,,0.6181586973761,-0.0470105344960561,,,-0.43523050643015,1.31067185136168,-0.43507448879359,-1.4666221241935,-1.17894387091579,-1.39037326742782,0.346751077917964,-1.13468938189357,-0.896303031077021,0.676409831256574,0.676409831255344,,0.771745401954715,,,0.568495262238799,0.650196183404003,-1.33887591334735,0.345320753236959,0.345320753236444,0.810861184027021,-0.810861184028147,0.318250726902609,7.47519999999997,102,1358.06470588235,413.653921568627,570.764705882353,1350.33529411765,1365.79411764706,410.522549019608,416.785294117647,631.43137254902,510.098039215686,0
409.088,1.29912108128291,1.15123393442588,1.49211231238057,-0.83197472281541,1.41436627157637,1.41436627157631,0.95340350474517,1.2805829425108,1.60469670913008,1.42458589567085,-1.03166213692635,1.42458589567153,0.993683561924354,,,,,-0.887634382949126,-0.375189678829271,0.0509994112132247,-0.375189678830369,0.362757402310485,1.73253317980251,,0.596848436520911,-0.0716564579657534,,,-0.470194116552319,1.32446244238037,-0.43226227376182,-1.47163733835498,-1.18099833519263,-1.37477127920653,0.375626588890462,-1.11065766221989,-0.924405501861972,0.646669274971264,0.646669274970045,,0.770846747535356,,,0.572784891837816,0.709702095732511,-1.36415787361767,0.363195804773192,0.363195804772664,0.813625126212568,-0.813625126213707,0.324944380530592,7.57760000000002,103,551.461165048544,558.153883495146,648.679611650486,546.172815533981,556.749514563107,559.026213592233,557.281553398058,687.116504854369,610.242718446602,0
409.1904,1.29478149396887,1.12061930545143,1.47701132131866,-0.814297709642659,1.39875731280375,1.39875731280367,0.910712983216138,1.29099640377458,1.56740388104792,1.40727674739678,-1.03793900647412,1.40727674739745,0.965227030891855,,,,,-0.876285914806299,-0.392981654758694,-0.0342947949992587,-0.392981654759785,0.340336897897944,1.75356548916691,,0.575439549185745,-0.0959904459954919,,,-0.505327267527823,1.33767296950736,-0.428143691823546,-1.47680508623462,-1.18255397738274,-1.35893890505299,0.403361639476687,-1.08681137507746,-0.952150801912459,0.616851725359437,0.616851725358233,,0.767612981648521,,,0.577578840008375,0.768435854743813,-1.38873994224111,0.379974347903751,0.379974347903211,0.815071855740785,-0.815071855741941,0.332133321600713,7.68000000000001,102,576.391666666667,552.65931372549,662.450980392157,571.490196078431,581.293137254902,554.68431372549,550.63431372549,690.009803921569,634.892156862745,0
409.2928,1.29044855186144,1.09001870099817,1.46192103737181,-0.796820137987002,1.38267003729157,1.38267003729148,0.86810058909031,1.30072561185835,1.52983999298323,1.38967864957348,-1.04350488639472,1.38967864957416,0.936564894517885,,,,,-0.865479673036549,-0.410711264074676,-0.119191074321684,-0.410711264075761,0.31763971423558,1.77397711664687,,0.553915677503896,-0.119986010106935,,,-0.540586395531589,1.35031339144931,-0.422714179746204,-1.48210140845665,-1.18359270756229,-1.34288583983394,0.429897477053601,-1.06317952586315,-0.979534493876562,0.58698859058628,0.586988590585087,,0.762075734189799,,,0.582879912473963,0.826313923899469,-1.41257265782128,0.395645172875546,0.395645172874993,0.815176375192816,-0.815176375193978,0.339769914103177,7.7824,102,591.483823529412,549.661764705882,642.151960784314,585.374509803922,597.593137254902,553.688235294118,545.635294117647,672.754901960784,611.549019607843,0
409.3952,1.28615252914148,1.05947687344574,1.44688300625502,-0.779609748883103,1.36613943821364,1.36613943821354,0.825653408856702,1.30975254002271,1.49208276094985,1.3718087976639,-1.04832264145717,1.37180879766457,0.907742177521757,,,,,-0.855228299677793,-0.428319260704804,-0.203549448878863,-0.428319260705881,0.294707796391733,1.79370825797554,,0.53225964494926,-0.143618190446943,,,-0.575927230514416,1.36239282305675,-0.415973720456798,-1.48750148650349,-1.18409795256679,-1.32662115875115,0.455178323783178,-1.03978953517912,-1.0065517262498,0.55711105961921,0.557111059618028,,0.754272517975729,,,0.588687575140641,0.883255177081138,-1.43560767771992,0.410201603234938,0.410201603234373,0.813918477904355,-0.813918477905529,0.347803804070076,7.88479999999998,103,605.940776699029,547.930097087379,588.043689320388,600.476699029126,611.404854368932,557.111650485437,538.74854368932,619.194174757282,556.893203883495,0
409.4976,1.28192318148049,1.02903747487036,1.43193793596397,-0.762731865591519,1.34920000841841,1.34920000841829,0.783456833369719,1.31806204466475,1.45420967939573,1.35368413476862,-1.0523568445482,1.35368413476929,0.878804087839378,,,,,-0.845541887234015,-0.445747768955596,-0.287232202904219,-0.445747768956666,0.27158305536613,1.81270128735321,,0.510453851459268,-0.166863590454129,,,-0.611304961904882,1.37391947095101,-0.4079269032575,-1.49297982534972,-1.18405480557711,-1.31015335200361,0.479151498596855,-1.01666722803778,-1.03319705920836,0.52725004980359,0.527250049802415,,0.744246623820069,,,0.594997964634685,0.93918121580332,-1.45779795007881,0.423641666076473,0.423641666075897,0.811283006844523,-0.811283006845686,0.356182231656113,7.98719999999997,102,617.572058823529,546.095098039216,555.333333333333,613.974509803922,621.169607843137,553.335294117647,538.854901960784,587.039215686275,523.627450980392,0
409.6,1.27778959868024,0.998742995874189,1.41712555375719,-0.746248936902586,1.33188562333049,1.33188562333036,0.741594256497362,1.32564185332658,1.41629771434076,1.33532131151525,-1.05557392802987,1.33532131151592,0.849795972373429,,,,,-0.836427978802109,-0.462940588552264,-0.370104416662259,-0.462940588553324,0.248307220543937,1.83090104028965,,0.488480659689242,-0.189700378182103,,,-0.646674400310229,1.38490058260457,-0.39858292039654,-1.49851040742196,-1.1834501273046,-1.2934903501593,0.50176754152506,-0.993836813877319,-1.05946436153001,0.497436158358256,0.497436158357087,,0.732046979113163,,,0.601803963629182,0.994016693561957,-1.47909790029351,0.435968195942143,0.435968195941556,0.807260066776604,-0.807260066777764,0.364850348811384,8.08960000000002,103,627.19854368932,544.493689320388,549.252427184466,623.157281553398,631.239805825243,555.071844660194,533.915533980583,581.883495145631,516.621359223301,0
409.7024,1.27378007624646,0.968634710990408,1.40248448102909,-0.730220107899039,1.31422944688296,1.31422944688281,0.700146765534105,1.33248253255663,1.37842297801903,1.31673666753029,-1.05794232114504,1.31673666753096,0.820763263651182,,,,,-0.827891585942496,-0.479843495088929,-0.452034495047338,-0.479843495089979,0.224921685432304,1.84825506873599,,0.466322764257962,-0.212108260565458,,,-0.681990137390203,1.39534240383758,-0.387955496833149,-1.50406681829249,-1.18227259759406,-1.27663954229611,0.522980337404475,-0.971320860268703,-1.08534678778363,0.467699612608662,0.467699612607498,,0.717727964198356,,,0.609095328748191,1.04768964605964,-1.49946362866533,0.447188872048613,0.447188872048015,0.801845173133573,-0.801845173134724,0.373751538168686,8.19200000000001,102,638.971568627451,541.348529411765,551.78431372549,634.023529411765,643.919607843137,550.042156862745,532.654901960784,586.5,517.06862745098,0
409.8048,1.26992200347036,0.938752628378821,1.38805212323605,-0.714700832307651,1.29626385743558,1.29626385743541,0.659192822017128,1.33857743862206,1.34066038519621,1.29794622759499,-1.0594325684534,1.29794622759566,0.791751419971514,,,,,-0.819935229108194,-0.496404530461514,-0.532894690727897,-0.496404530462551,0.201467341369773,1.86471387044159,,0.443963535532793,-0.234068438132808,,,-0.71720670587633,1.40525013753458,-0.376062754983075,-1.50962234737121,-1.18051272044511,-1.25960778897485,0.542747231148302,-0.949140264870144,-1.11083683551834,0.438070216930032,0.438070216928872,,0.701349185004562,,,0.616858855013968,1.10013181698334,-1.51885311504869,0.457316188909127,0.457316188908515,0.795039321099796,-0.795039321100928,0.382827726622018,8.2944,102,652.500980392157,538.698039215686,549.151960784314,647.878431372549,657.123529411765,547.237254901961,530.158823529412,583.980392156863,514.323529411765,0
409.9072,1.26624176881484,0.909135440022772,1.373864574092,-0.699742531237473,1.27802038818249,1.27802038818231,0.618807948279162,1.343922649735,1.3030833057824,1.27896571141195,-1.06001742916891,1.27896571141261,0.762805871188417,,,,,-0.81255899774119,-0.51257426342871,-0.612561622345186,-0.512574263429735,0.177984409800297,1.88023109264842,,0.421387337881232,-0.255563546458175,,,-0.752278737073664,1.41462789984449,-0.362927020568812,-1.51515006641989,-1.17816278715237,-1.24240143103607,0.561029128122092,-0.927314228750154,-1.13592647068996,0.40857730215071,0.408577302149552,,0.682975203889849,,,0.625078566548009,1.15127897373919,-1.53722642326758,0.466367366152751,0.466367366152125,0.786848966638187,-0.786848966639314,0.392019687520974,8.39679999999999,103,676.21067961165,541.606796116505,545.082524271845,673.863106796117,678.558252427185,547.866019417476,535.347572815534,578.95145631068,511.21359223301,0
410.0096,1.26276468623841,0.879820470195586,1.35995653614591,-0.685392293771012,1.25952967684267,1.25952967684248,0.579064437550113,1.34851687650738,1.26576322984106,1.25981056200579,-1.05967195736537,1.25981056200645,0.733971979647574,,,,,-0.805760625463239,-0.528306003116702,-0.690916798981327,-0.528306003117716,0.154512286039869,1.89476371357745,,0.398579825754575,-0.276577587107435,,,-0.787161110915712,1.42347867368846,-0.348574579161463,-1.52062288926156,-1.17521680422351,-1.22502629940302,0.577790579559395,-0.905860235777002,-1.16060730158577,0.379249681844291,0.379249681843132,,0.662675233704185,,,0.633735926666599,1.20107121907497,-1.55454589629817,0.474364209205748,0.474364209205112,0.77728591985554,-0.777285919856659,0.401267327413025,8.49919999999997,102,715.735784313726,545.367647058824,549.573529411765,716.659803921569,714.811764705882,552.554901960784,538.180392156863,584.147058823529,515,0
410.112,1.25951494505279,0.850843626340167,1.3463612614195,-0.671692614781764,1.24082142407221,1.24082142407202,0.540031098631741,1.35236135160896,1.22876945649322,1.24049600130204,-1.05837356104783,1.24049600130271,0.705295020924833,,,,,-0.799535577217818,-0.543555960577332,-0.767847168371334,-0.543555960578334,0.131089400856521,1.90827221114752,,0.375528219011645,-0.297095847943347,,,-0.821809097287544,1.43180426309891,-0.333035397444704,-1.52601362063196,-1.17167039783033,-1.20748773592469,0.592999860105608,-0.884794044681913,-1.18487077674697,0.350115611731812,0.350115611730655,,0.64052280400096,,,0.64281006037554,1.24945331022128,-1.57077633246405,0.481332934189487,0.481332934188841,0.766367157744746,-0.766367157745849,0.410509953291874,8.60160000000002,103,726.945631067961,541.345145631068,560.660194174757,728.533980582524,725.357281553398,549.268932038835,533.421359223301,596.514563106796,524.805825242718,0
410.2144,1.25651558373006,0.822239361336194,1.33311051583522,-0.658681170369131,1.2219243634608,1.22192436346061,0.501773046650106,1.35545970310386,1.19216882048122,1.22103712138669,-1.056102042321,1.22103712138735,0.676820191844066,,,,,-0.793877143022827,-0.558283357403305,-0.84324569187661,-0.558283357404295,0.107753109203621,1.92072072617732,,0.352221559434927,-0.317104814853827,,,-0.85617849248957,1.43960525969198,-0.316342827427092,-1.53129500642637,-1.16752071135122,-1.1897906324381,0.60662904822997,-0.864129696568782,-1.20870837561158,0.321202747406025,0.321202747404867,,0.616595416942184,,,0.652277983624808,1.29637498330215,-1.58588513185149,0.487303970197382,0.487303970196724,0.754114572921347,-0.754114572922442,0.419686516364431,8.70400000000001,102,740.50637254902,539.023529411765,566.200980392157,741.49705882353,739.51568627451,545.96568627451,532.08137254902,602.774509803922,529.627450980392,0
410.3168,1.25378848687398,0.794040655262476,1.32023456985944,-0.64639063466224,1.20286624626359,1.2028662462634,0.464351553495987,1.3578178177683,1.15602547318996,1.20144901576971,-1.05283963016334,1.20144901577037,0.64859265522144,,,,,-0.788776530886625,-0.57245047869351,-0.917011925087607,-0.572450478694486,0.0845396215892135,1.93207721979615,,0.328650950729218,-0.336592082131471,,,-0.890225754009107,1.44688103922077,-0.298533310110297,-1.53643979561092,-1.16276631044916,-1.17193948557009,0.618654118522152,-0.84387953252447,-1.23211176441498,0.292538101861659,0.292538101860501,,0.59097421848802,,,0.662114837772996,1.34179125434298,-1.59984240334975,0.492311747687757,0.492311747687086,0.740554683674017,-0.740554683675122,0.42873583636175,8.8064,102,754.123529411765,541.562254901961,560.372549019608,752.701960784314,755.545098039216,547.313725490196,535.810784313726,594.352941176471,526.392156862745,0
410.4192,1.25135440066223,0.766279020759255,1.30776221309361,-0.634848541827722,1.18367384425686,1.18367384425668,0.427823957631096,1.35944370495225,1.12040072319187,1.18174694577596,-1.04857102097487,1.18174694577662,0.620657619094507,,,,,-0.784222954553439,-0.586022674167283,-0.989052573541982,-0.586022674168245,0.0614839810204584,1.94231362337741,,0.304809775364644,-0.355546269469215,,,-0.923908129555212,1.45362979950557,-0.279646087150835,-1.54142081563751,-1.15740710083787,-1.15393845680982,0.62905505022252,-0.824054210385929,-1.25507291638437,0.264148005528472,0.26414800552732,,0.563743704152752,,,0.672294131157025,1.38566265454282,-1.61262103026791,0.49639447107697,0.496394471076288,0.72571832798953,-0.725718327990627,0.43759682434744,8.90879999999999,103,765.633495145631,540.182524271845,555.368932038835,762.545631067961,768.721359223301,545.179611650486,535.185436893204,588.679611650485,522.058252427185,0
410.5216,1.24923295455894,0.738984530572702,1.29572078235047,-0.624077195406328,1.16437297241604,1.16437297241586,0.392243611830217,1.36034737180336,1.08535292044727,1.16194652487065,-1.04328343600206,1.16194652487131,0.593060429146323,,,,,-0.780203717316535,-0.598968320817572,-1.05928199773174,-0.598968320818525,0.0386200667275412,1.95140597929513,,0.280693870107171,-0.373956949573221,,,-0.957183772885966,1.45984863464743,-0.259722922516103,-1.54621105428292,-1.151444254931,-1.13579142659452,0.637815950446765,-0.804662711039621,-1.27758422156592,0.236058067021894,0.236058067020746,,0.534991458772099,,,0.682787989254587,1.42795536669431,-1.62419670223525,0.499593866494525,0.499593866493833,0.709640351195518,-0.7096403511966,0.446208726519237,9.01119999999997,102,775.756862745098,535.350490196078,550.480392156863,771.208823529412,780.304901960784,541.902941176471,528.798039215686,583.852941176471,517.107843137255,0
410.624,1.24744267465153,0.712185859647175,1.28413618841332,-0.614093628092112,1.14498852687961,1.14498852687943,0.357659843332905,1.36054071188578,1.05093735972192,1.14206389693906,-1.03696669514753,1.14206389693972,0.565846645642146,,,,,-0.776704297604839,-0.611258760906191,-1.12762264515833,-0.611258760907133,0.015980602668959,1.95933456343606,,0.256301643607989,-0.391814589302066,,,-0.99001184734293,1.46553363210484,-0.23880783506318,-1.55078373812374,-1.14488014126787,-1.11750203778742,0.644925182934167,-0.785712333246874,-1.29963860641212,0.208293131242327,0.208293131241189,,0.504807915579909,,,0.693567411649518,1.46864124947634,-1.63454792197436,0.501954898967428,0.501954898966724,0.69235928709305,-0.692359287094095,0.454511400928538,9.11360000000002,103,786.945631067961,532.782038834951,543.325242718447,781.006796116505,792.884466019418,537.306796116505,528.257281553398,577.572815533981,509.077669902913,0
410.7264,1.246000980846,0.685910331607662,1.27303293132097,-0.60490961943714,1.12554452865156,1.12554452865138,0.324117912955117,1.36003740041904,1.01720618634339,1.12211588960412,-1.02961329934134,1.12211588960478,0.539062084672443,,,,,-0.773708446516803,-0.622868223584789,-1.19400539085339,-0.622868223585718,-0.00640283810329562,1.96608397320683,,0.231634132290275,-0.40911051162695,,,-1.02235262948164,1.47067998314922,-0.216946843217388,-1.55511240229561,-1.13771825368496,-1.09907373380378,0.650375485556447,-0.767208687517,-1.32122965667746,0.180877234045572,0.180877234044439,,0.473286123246117,,,0.704602532300707,1.50769775185348,-1.64365598804866,0.503525458872018,0.503525458871304,0.673917034272395,-0.67391703427342,0.462445627377681,9.21600000000001,102,796.279411764706,532.201960784314,537.745098039216,788.21862745098,804.340196078431,537.41862745098,526.985294117647,572.372549019608,503.117647058824,0
410.8288,1.244924168171,0.660183962520788,1.26243410169424,-0.596531777698698,1.10606416607773,1.10606416607755,0.291658972212406,1.35885278766574,0.984208299028739,1.10212013638382,-1.02121851182578,1.10212013638448,0.51275281672394,,,,,-0.771198308565283,-0.633773731486898,-1.25836977770821,-0.633773731487814,-0.0284998306548369,1.97164316660721,,0.206695002334279,-0.425836889463766,,,-1.05416762525518,1.47528210417816,-0.194187722886243,-1.55917095304182,-1.12996314175991,-1.08050980069077,0.654164057525666,-0.749155703995765,-1.34235172319606,0.153833556916955,0.153833556915828,,0.440521522277097,,,0.71586288155016,1.54510772401533,-1.65150495264957,0.504356020765452,0.504356020764727,0.65435853618476,-0.654358536185768,0.469953449274308,9.3184,102,806.314215686274,531.91568627451,534.397058823529,797.043137254902,815.585294117647,537.16568627451,526.66568627451,568.774509803922,500.019607843137,0
410.9312,1.24422737566048,0.635031499873484,1.25236137014834,-0.588961682323452,1.08656983618065,1.08656983618047,0.260320026284964,1.35700378626421,0.951989255453679,1.08209517394011,-1.01178043248888,1.08209517394078,0.486965126932846,,,,,-0.769154567958895,-0.64395498371044,-1.32066415861149,-0.643954983711344,-0.0502810875617842,1.97600544684194,,0.181490513577018,-0.441986778097801,,,-1.08541970006463,1.47933377246212,-0.170579779939124,-1.56293372834814,-1.12162034667506,-1.06181341716197,0.656292604311233,-0.731555662112975,-1.36299999567528,0.127184387844515,0.127184387843394,,0.406611738156389,,,0.727317651519578,1.58085913086165,-1.65808155794236,0.504499281841288,0.504499281840555,0.633731472354618,-0.633731472355595,0.476978547228423,9.42079999999999,103,814.111165048544,531.23932038835,534.626213592233,803.815533980582,824.406796116505,536.24854368932,526.230097087379,568.203883495146,501.04854368932,0
411.0336,1.24392454742416,0.610476458628686,1.24283496924431,-0.582196073544276,1.06708318875827,1.06708318875809,0.230133915884817,1.35450875542156,0.920591195084381,1.06206052762533,-1.00130006335271,1.062060527626,0.461745450043095,,,,,-0.767556611877529,-0.653394199208496,-1.38084574938852,-0.653394199209395,-0.0717184291008341,1.97916839727116,,0.156029468763717,-0.457554180414334,,,-1.11607321272224,1.48282828338117,-0.146173634336151,-1.56637556024107,-1.11269634354726,-1.04298771267146,0.656767339605815,-0.714409242293333,-1.38317053739831,0.100951090741064,0.10095109073994,,0.371656390763541,,,0.738935967343367,1.61494468466737,-1.66337515128488,0.504009789262485,0.504009789261743,0.612085957874024,-0.612085957874985,0.48346663811731,9.52319999999997,102,1158.11421568627,498.855392156863,511.78431372549,1150.36666666667,1165.86176470588,508.159803921569,489.550980392157,548.28431372549,475.28431372549,0
411.136,1.24402839198426,0.586541157518381,1.23387367411943,-0.576227068012585,1.04762517490145,1.04762517490128,0.201129332381568,1.35138738723486,0.890052796286444,1.04203679878138,-0.989781363706306,1.04203679878205,0.437140298768646,,,,,-0.766382703949146,-0.662075904915342,-1.43888060602901,-0.662075904916235,-0.092784725576044,1.98113377795727,,0.130323176374594,-0.472534129677732,,,-1.14609413900201,1.48575863254818,-0.121021003714243,-1.56947183787851,-1.10319848403698,-1.024035838608,0.655598948052149,-0.697715603033836,-1.40286027439277,0.0751540783921331,0.0751540783910074,,0.335756907801361,,,0.750687161216295,1.64736143472656,-1.66737757030626,0.502943564899862,0.502943564899112,0.589474245344976,-0.589474245345916,0.489365885317011,9.62560000000002,103,742.740776699029,532.323786407767,515.606796116505,743.310679611651,742.170873786408,538.6,526.047572815534,552.640776699029,478.572815533981,0
411.2384,1.24455034648934,0.56324675663425,1.2254947875763,-0.571042375393183,1.02821609669888,1.02821609669869,0.173330880090744,1.34766059414348,0.860409281078538,1.02204576210522,-0.977231292400725,1.02204576210588,0.413196206620997,,,,,-0.765610169089621,-0.669986658921238,-1.49474353919644,-0.669986658922127,-0.113453804224697,1.98190739541123,,0.104385451954329,-0.486922777282587,,,-1.17545017362462,1.48811771823364,-0.0951744689680451,-1.57219856775379,-1.09313492875244,-1.00496106040186,0.652802510094364,-0.681472489906983,-1.42206693140865,0.0498127840250667,0.0498127840239401,,0.299016325863884,,,0.762541037277902,1.67811036034854,-1.67008299031665,0.501357737463574,0.501357737462816,0.565950432482804,-0.565950432483739,0.494627300331945,9.72800000000001,102,406.877941176471,561.960784313726,521.406862745098,413.092156862745,400.663725490196,576.36568627451,547.555882352941,541.147058823529,501.666666666667,0
411.3408,1.24550054926498,0.540613294291915,1.21771413168067,-0.566625499748835,1.00887565222834,1.00887565222813,0.146759192733977,1.34335039103843,0.831692471223525,1.00211047045822,-0.963659834470127,1.00211047045889,0.389959698797992,,,,,-0.765215589719459,-0.677114713891362,-1.5484179729091,-0.677114713892252,-0.133700317085428,1.98149895281698,,0.078232664984905,-0.500717480751683,,,-1.20411080559264,1.48989855428073,-0.068687209721412,-1.57453242682154,-1.08251456108596,-0.985766870048839,0.648397392774633,-0.665676374725575,-1.44078891387788,0.0249456328330365,0.0249456328319052,,0.261539063381398,,,0.774468115419303,1.70719599723353,-1.6714877395254,0.499310192490422,0.499310192489655,0.541570178109591,-0.541570178110521,0.499205106925566,9.8304,102,447.598039215686,556.512745098039,515.039215686275,452.711764705882,442.48431372549,572.664705882353,540.360784313726,530.186274509804,499.892156862745,0
411.4432,1.24688781722725,0.518659720589107,1.21054604206643,-0.562955930781122,0.989622971156009,0.989622971155793,0.121431093034587,1.33847976793346,0.803930882553797,0.982255351225818,-0.949080009162311,0.982255351226482,0.367477283370189,,,,,-0.765175007406515,-0.683449649062836,-1.59989574857786,-0.683449649063728,-0.153499582502535,1.9799218818327,,0.0518838085856771,-0.513916890892143,,,-1.23204736481001,1.49109448039513,-0.0416127088296262,-1.57645080544331,-1.07134688001641,-0.966457109445928,0.642407117672646,-0.65032261234248,-1.45902515148401,0.000570014443633387,0.000570014442500005,,0.223430650589078,,,0.786439850250408,1.7346261022374,-1.67159009687366,0.496859243642975,0.4968592436422,0.516390412610129,-0.516390412611054,0.503057032701405,9.93279999999999,103,477.027669902913,552.560679611651,519.126213592233,479.639805825243,474.415533980583,567.105825242718,538.015533980583,536.194174757282,502.058252427185,0
411.5456,1.24871961897715,0.497403925071786,1.20400335649967,-0.56000934209491,0.970476638036572,0.970476638036342,0.0973597692198336,1.33307255266887,0.777149831085067,0.96250627351149,-0.933507858576552,0.962506273512153,0.345795435845877,,,,,-0.765464123558582,-0.688982010391779,-1.64917687499243,-0.688982010392676,-0.172827428332055,1.97719315302547,,0.0253605519756229,-0.526521039440233,,,-1.2592330402957,1.49169935328154,-0.0140044334714103,-1.57793184095104,-1.05964187588632,-0.947036092863907,0.634859217295364,-0.6354056006545,-1.47677493114812,-0.0232977484356416,-0.0232977484367809,,0.184797409378734,,,0.798428819050657,1.76041134387423,-1.67039008647004,0.494063317356049,0.494063317355265,0.490469022609625,-0.490469022610536,0.506144511861255,10.0352,102,501.495588235294,553.508823529412,539.303921568627,503.891176470588,499.1,568.536274509804,538.48137254902,563.009803921569,515.598039215686,0
411.648,1.25100203407751,0.476862754108774,1.19809738831063,-0.557757805304905,0.951454699593074,0.951454699592838,0.0745549452848323,1.32715326323843,0.751371527611254,0.942890572113113,-0.916962420403436,0.942890572113777,0.324960551401132,,,,,-0.766058494611151,-0.693702985148652,-1.696269228971,-0.693702985149557,-0.191660060650941,1.97333306232169,,-0.00131275278646666,-0.53853143190913,,,-1.28564287535939,1.49170770265468,0.014084496553452,-1.57895444747626,-1.04740989780381,-0.927508718302289,0.625785083575684,-0.620918933298083,-1.49403774238449,-0.0466424407228079,-0.0466424407239478,,0.145746086931979,,,0.810408863139213,1.78456499904884,-1.66788927754285,0.490980638786436,0.490980638785641,0.463864503640971,-0.463864503641896,0.508432817898509,10.1376,103,338.797087378641,547.831067961165,574.810679611651,349.154368932039,328.439805825243,557.835922330097,537.826213592233,605.165048543689,544.456310679612,0
411.7504,1.25373969396842,0.457052018043786,1.19283788102248,-0.556170017869178,0.932574654740319,0.932574654740068,0.0530230358876075,1.32074695309025,0.726615153377506,0.92343702445704,-0.899465687023287,0.923437024457703,0.305018856819514,,,,,-0.766933718012379,-0.697604117498362,-1.74118821425691,-0.697604117499268,-0.20997396631203,1.96836499569466,,-0.0281091159173628,-0.549951146134746,,,-1.31125374405802,1.49111484381202,0.0426016458700783,-1.57949834695157,-1.03466151937026,-0.907880563452168,0.615219809904365,-0.606855540689699,-1.51081314240749,-0.0694500090095871,-0.0694500090107301,,0.106383446622934,,,0.822355171666302,1.80710264591383,-1.66409059627538,0.487668917782911,0.487668917782107,0.436635589401384,-0.436635589402322,0.509891151895435,10.24,102,269.641176470588,542.413235294118,608.539215686275,280.592156862745,258.690196078431,554.562745098039,530.263725490196,638.274509803922,578.803921568628,0
411.8528,1.25693570647345,0.437986501968803,1.18823295099731,-0.555211541235929,0.913853436122107,0.913853436121847,0.0327672874434901,1.31387906164963,0.702896924644005,0.904175785769356,-0.881042544294983,0.904175785770019,0.286016293117382,,,,,-0.768065608007982,-0.700677063293656,-1.78395638296914,-0.700677063294565,-0.227745848420183,1.96231518187354,,-0.0549990006624033,-0.560784923375108,,,-1.33604430282266,1.48991694970293,0.0714956071049716,-1.57954410033116,-1.0214074015516,-0.888157972464986,0.603202034686165,-0.593207822246611,-1.52710063774823,-0.0917076340922524,-0.0917076340933929,,0.0668158170334958,,,0.834244307029788,1.82804186056571,-1.65899815631284,0.484185048344621,0.484185048343806,0.408840877472395,-0.408840877473344,0.510492686939308,10.3424,102,290.669117647059,541.666666666667,630.980392156863,301.649019607843,279.689215686275,550.510784313726,532.822549019608,662.205882352941,599.754901960784,0
411.9552,1.26059156756563,0.419679998653983,1.1842890280896,-0.554845043560148,0.895307396792377,0.895307396792113,0.0137879112369594,1.30657528442261,0.680230159271186,0.885138293852621,-0.861720678793305,0.885138293853286,0.267998386304182,,,,,-0.769430361796626,-0.702913379611306,-1.82460302132224,-0.702913379612217,-0.244952590917802,1.95521244581542,,-0.0819504490617891,-0.571039230913031,,,-1.35999490678684,1.48811109107177,0.100716354831381,-1.57907313648232,-1.00765814922767,-0.86834814416542,0.589773797573973,-0.579967775538652,-1.5428995774398,-0.113403824457819,-0.11340382445896,,0.0271486141243883,,,0.846054171647566,1.84740192820481,-1.65261711288028,0.48058483532193,0.480584835321106,0.380538483451106,-0.38053848345205,0.510214562417333,10.4448,103,317.916504854369,539.820388349515,643.684466019418,329.510679611651,306.322330097087,546.688349514563,532.952427184466,676.388349514563,610.980582524272,0
412.0576,1.26470706188779,0.402145367516923,1.18101079699057,-0.555030535907227,0.876952306617069,0.876952306616793,-0.00391778577224477,1.29886146877171,0.658625354098994,0.866357154411418,-0.841530449733686,0.866357154412083,0.251010115482745,,,,,-0.771004714438185,-0.704304341179119,-1.8631637048246,-0.704304341180031,-0.261571246026898,1.94708797029797,,-0.108929229702743,-0.580722283697538,,,-1.38308749005586,1.4856952505351,0.13021560259149,-1.57806778075805,-0.993424166114252,-0.84845922741939,0.574980411268294,-0.567127126527264,-1.55820905087633,-0.134528523797098,-0.134528523798238,,-0.0125141324246231,,,0.857763920316614,1.8652035676655,-1.64495354005317,0.476922749426987,0.476922749426153,0.35178575372602,-0.351785753726958,0.509037843200612,10.5472,102,348.534803921569,543.726470588235,661.367647058824,358.764705882353,338.304901960784,551.469607843137,535.983333333333,696.803921568627,625.93137254902,0
412.16,1.26928015484298,0.385394608116351,1.17840113720281,-0.555725594320744,0.858803353603505,0.858803353603224,-0.0203552700415639,1.29076353392817,0.638090274790134,0.847866011997825,-0.820504732717944,0.847866011998493,0.235095777541827,,,,,-0.77276608106025,-0.704840778199523,-1.89967982989847,-0.704840778200439,-0.277579037657062,1.93797506657346,,-0.135898996123059,-0.589844027978744,,,-1.40530542056743,1.48266831546187,0.159947143813435,-1.57651128745894,-0.978715519685579,-0.828500422934647,0.558870338681079,-0.554677463757591,-1.57302778002914,-0.155073218859736,-0.155073218860877,,-0.0520702225507925,,,0.869353836496421,1.88146866353868,-1.63601432689059,0.473251703026706,0.473251703025864,0.322639048067135,-0.322639048068072,0.50694746537626,10.6496,103,1067.25291262136,465.864077669903,685.820388349515,1053.64466019417,1080.86116504854,473.232038834951,458.496116504854,744.271844660194,627.368932038835,0
412.2624,1.27430688326527,0.369438934540222,1.17646106219772,-0.556885571837983,0.84087514614285,0.840875146142559,-0.0355326516046747,1.28230741047366,0.618630054540015,0.829699407203308,-0.798678745064474,0.82969940720398,0.220298845630793,,,,,-0.774692689480154,-0.704512937395046,-1.93419812461081,-0.704512937395964,-0.292953376398981,1.92790895322396,,-0.162821451830387,-0.598416097799865,,,-1.42663334322695,1.47903005831772,0.18986716020354,-1.5743878764596,-0.963541823830607,-0.808482085470569,0.541495058495308,-0.542610376921218,-1.58735400189761,-0.175031035497523,-0.175031035498667,,-0.091419689416684,,,0.880805196096384,1.89622000599623,-1.62580708817275,0.469622839617754,0.469622839616905,0.29315358484017,-0.293153584841112,0.503932172751773,10.752,102,1234.34705882353,444.142647058824,688.274509803922,1228.62156862745,1240.07254901961,445.48431372549,442.800980392157,773.127450980392,603.421568627451,0
412.3648,1.27978125473253,0.354288840500186,1.17518966209227,-0.558463812333492,0.823181715186408,0.823181715186104,-0.0494605547431427,1.27351898973078,0.600247297329535,0.811892623535581,-0.77608985763709,0.811892623536254,0.206661823152383,,,,,-0.776763708362681,-0.703310369996279,-1.96677013590104,-0.7033103699972,-0.307671881703173,1.91692654349464,,-0.189656524727826,-0.606451754082061,,,-1.44705702311213,1.47478111272108,0.219934494073803,-1.57168277083962,-0.947912138761339,-0.788415816068023,0.522908905776613,-0.530917595018772,-1.60118535125067,-0.194396814230439,-0.194396814231585,,-0.130465164448073,,,0.89210013442287,1.90948104180841,-1.61434008746997,0.466085333327928,0.466085333327073,0.26338333208651,-0.263383332087461,0.499984433316644,10.8544,102,1232.12450980392,444.061274509804,694.343137254902,1229.12941176471,1235.11960784314,443.123529411765,444.999019607843,780.333333333333,608.352941176471,0
412.4672,1.28569516747863,0.339954148315552,1.1745840569979,-0.560411875838021,0.805736514324479,0.805736514324163,-0.0621519816216803,1.26442407038984,0.582942186790317,0.794481533519158,-0.752777395844087,0.794481533519838,0.194226102265535,,,,,-0.778959372709929,-0.701221846308884,-1.99745168959853,-0.701221846309812,-0.321712402384441,1.90506624171239,,-0.216362552970121,-0.613965812757818,,,-1.4665631985254,1.46992295057629,0.250110889005156,-1.56838223439096,-0.931834885397007,-0.768314535484974,0.503168883446849,-0.519591117615826,-1.61451875861832,-0.21316715905919,-0.213167159060342,,-0.169112205558027,,,0.903221522092861,1.92127563808258,-1.60162217063817,0.462686199809022,0.462686199808161,0.23338092700515,-0.233380927006094,0.495100325976036,10.9568,103,1231.05825242718,448.819902912621,674.626213592233,1227.85825242718,1234.25825242718,452.035922330097,445.603883495146,750.368932038835,598.883495145631,0
412.5696,1.29203836007701,0.326444039194146,1.17463936752448,-0.56267977615906,0.788552413444049,0.788552413443722,-0.0736221589910933,1.25504829485082,0.566712606722045,0.77750245247427,-0.728782434592722,0.777502452474959,0.183031837782444,,,,,-0.78126110275874,-0.698235293730732,-2.0263023260648,-0.698235293731664,-0.335053025656035,1.89236774517893,,-0.242896479286266,-0.620974566068072,,,-1.48513944997779,1.46445786656081,0.280361202135001,-1.56447360934113,-0.91531777293869,-0.748192536763895,0.482334449103149,-0.50862333577516,-1.62735036905632,-0.231340458415292,-0.231340458416445,,-0.207269586617262,,,0.914152847800705,1.93162786032316,-1.58766270536818,0.459470123935291,0.459470123934426,0.203197615308002,-0.20319761530895,0.489279400419671,11.0592,102,1167.03431372549,455.972549019608,652.068627450981,1163.1,1170.96862745098,455.860784313726,456.08431372549,720.921568627451,583.21568627451,0
412.672,1.29879839193994,0.313767063174101,1.17534870267075,-0.565216224331829,0.771641680127541,0.771641680127196,-0.0838883664042669,1.24541707769713,0.551554276046046,0.760992000381274,-0.704147591849874,0.760992000381971,0.173117839296792,,,,,-0.783651605881308,-0.694337756451118,-2.05338472381937,-0.694337756452062,-0.347672071312616,1.878871842614,,-0.269214049165577,-0.627495698490293,,,-1.50277408600621,1.45838897362173,0.310653588445309,-1.55994535142125,-0.898367737545127,-0.728065517441789,0.460467288067427,-0.498007139372718,-1.63967547581542,-0.248916883065255,-0.248916883066414,,-0.244849545329901,,,0.924878101934752,1.94056176880432,-1.57247152437633,0.456479307521842,0.456479307520976,0.172883211497446,-0.172883211498378,0.482524522949277,11.1616,103,330.192233009709,623.082524271845,675.296116504854,342.315533980583,318.068932038835,625.812621359223,620.352427184466,716.058252427185,634.533980582524,0
412.7744,1.30596064992547,0.301931123166757,1.1767031591695,-0.567968872233689,0.755015941792662,0.755015941792295,-0.0929697553982009,1.23555553423317,0.537460892807194,0.744986966195217,-0.678916823169434,0.744986966195923,0.164521474704031,,,,,-0.78611494707096,-0.689515379425757,-2.0787641275638,-0.689515379426716,-0.359548075961212,1.86462020178311,,-0.295270010254333,-0.633548196879189,,,-1.51945604509705,1.4517202046834,0.340959656580162,-1.55478705830867,-0.880990889676278,-0.707950589148516,0.437631085532807,-0.487736004326884,-1.65148845913671,-0.265898367612915,-0.265898367614084,,-0.281767990293148,,,0.93538165811879,1.94810123616453,-1.55605887901211,0.453753335921041,0.453753335920175,0.142486082160377,-0.142486082161283,0.474841718784424,11.264,102,339.435784313726,618.175980392157,664.102941176471,351.820588235294,327.050980392157,621.137254901961,615.214705882353,687.313725490196,640.892156862745,0
412.8768,1.31350837426218,0.290943424976295,1.17869182369233,-0.570884557057398,0.738686121690112,0.738686121689726,-0.100887171497175,1.22548841332575,0.524424277555757,0.729524165489429,-0.653135217515228,0.72952416549014,0.15727857500897,,,,,-0.788636576044005,-0.683753421894896,-2.10250779582657,-0.68375342189587,-0.370659776991676,1.84965514528806,,-0.321018313895135,-0.639152253679228,,,-1.53517481427978,1.44445631259947,0.371254596074737,-1.54898949006089,-0.86319246923569,-0.687866261502402,0.413891305760767,-0.477804054209999,-1.6627827228296,-0.282288579907112,-0.282288579908292,,-0.317944672580607,,,0.945648154466713,1.95426978679584,-1.53843541497052,0.451329063773755,0.451329063772888,0.112053151460218,-0.112053151461092,0.466240012411358,11.3664,102,368.61568627451,615.124019607843,661.446078431373,380.737254901961,356.494117647059,615.647058823529,614.600980392157,682.980392156863,639.911764705882,0
412.9792,1.32142269513697,0.280810387618555,1.18130176872637,-0.573909550819579,0.722662345419085,0.722662345418683,-0.107662984644455,1.21524003062048,0.512434508508864,0.714640279277525,-0.626848791426854,0.714640279278243,0.151423332698875,,,,,-0.79120330619169,-0.677036302730082,-2.12468447898459,-0.677036302731068,-0.380986104755958,1.83401941735211,,-0.346412324510187,-0.644329159844267,,,-1.54992036511553,1.43660286510641,0.401517277843879,-1.54254457934401,-0.844976806195687,-0.667832398187347,0.389314978048168,-0.46820609443026,-1.67355062669665,-0.298092877223103,-0.298092877224293,,-0.353303329273738,,,0.955662377299853,1.95909046064852,-1.51961217728969,0.449240523493433,0.449240523492567,0.0816299285367538,-0.0816299285375888,0.456731260270287,11.4688,103,389.472815533981,611.223786407767,664.97572815534,399.384466019417,379.561165048544,610.644660194175,611.802912621359,689.26213592233,640.68932038835,0
413.0816,1.32968267378813,0.271537512468876,1.18451803655724,-0.57698981795377,0.706953821330187,0.706953821329768,-0.113320927407815,1.20483419433391,0.501480045166821,0.700371664237631,-0.600104275865972,0.700371664238355,0.146988191747959,,,,,-0.793803247058822,-0.669347675715566,-2.14536392941417,-0.669347675716566,-0.39050618449748,1.81775594489452,,-0.371405045363048,-0.649101182232053,,,-1.56368310871651,1.4281662368741,0.431730331774427,-1.53544542607557,-0.826347281346803,-0.64787014080373,0.363970483845317,-0.458937616945376,-1.68378342027042,-0.313318242361388,-0.313318242362585,,-0.387771805568322,,,0.965409149854914,1.96258570741458,-1.49960064581639,0.44751885576357,0.447518855762705,0.0512605573418487,-0.051260557342654,0.446329965499995,11.5712,102,206.41862745098,585.052941176471,685.382352941176,223.11568627451,189.721568627451,579.338235294118,590.767647058824,716.441176470588,654.323529411765,0
413.184,1.33826534993042,0.263129212380061,1.1883236132755,-0.58007128309426,0.691568703047831,0.691568703047393,-0.117885938808633,1.19429411776322,0.491547839541887,0.686754132736672,-0.572948890226361,0.6867541327374,0.14400373326669,,,,,-0.7964256959532,-0.660670533539735,-2.16461643763029,-0.660670533540749,-0.399199343252735,1.8009075942213,,-0.395949368345089,-0.653491422945891,,,-1.57645387338355,1.41915360388354,0.461880202809425,-1.52768627357344,-0.807306284592202,-0.628001793785659,0.337927337502093,-0.449994772051312,-1.69347118842408,-0.327973192753905,-0.327973192755111,,-0.421282160537671,,,0.974873228257241,1.96477731663338,-1.47841279612872,0.446192253330344,0.446192253329483,0.0209878857384657,-0.0209878857392376,0.435053062839035,11.6736,103,246.26004238623,578.53566260704,715.275305009021,263.467313915858,229.052770856603,571.846318770227,585.225006443853,754.241262135922,676.309347882121,0
413.2864,1.34714580315332,0.255588602430627,1.19269939965162,-0.583100111577618,0.676513940700483,0.676513940700022,-0.121384011884446,1.18364231578968,0.482623435496561,0.673822708131338,-0.545430099357011,0.673822708132075,0.142498563030415,,,,,-0.799060997192176,-0.65098734198959,-2.18251239051965,-0.650987341990618,-0.407045116167725,1.78351691971613,,-0.419998352535358,-0.657523663990743,,,-1.58822390818691,1.40957294687939,0.491957180369065,-1.5192624714344,-0.78785517664374,-0.608250666989913,0.311255953134257,-0.441374306772706,-1.70260281628898,-0.342067661704138,-0.342067661705355,,-0.453770759303307,,,0.984039204880202,1.96568638673418,-1.45606117168615,0.44528591117116,0.4452859111703,-0.00914645292677348,0.00914645292603068,0.422919664561635,11.776,102,347.370132743363,570.595533738938,740.731360619469,360.35,334.390265486726,561.865625,579.325442477876,788.6375,692.825221238938,0.382352941176471
413.3888,1.35629723657431,0.248917253204969,1.19762418595848,-0.586023001909979,0.661795122327983,0.661795122327496,-0.123842041702861,1.17290048703116,0.474691060311092,0.6616113644578,-0.517595351483164,0.661611364458544,0.142499207536443,,,,,-0.801700376022257,-0.640280203837179,-2.19912185739541,-0.640280203838223,-0.414023246090721,1.76562589649806,,-0.443505531420736,-0.661222205419063,,,-1.59898491352826,1.39943306834262,0.521955392937582,-1.51017043459761,-0.767994264187367,-0.588640876641219,0.284027395309073,-0.433073471266016,-1.71116597302914,-0.355612856751222,-0.355612856752451,,-0.485178349904457,,,0.992891417862095,1.96533333442122,-1.43255894778548,0.44482198691916,0.444821986918301,-0.0391019503218677,0.0391019503211472,0.409950765945029,11.8784,102,457.677569552895,562.016003040228,764.517596087107,464.51045751634,450.84468158945,552.123386437909,571.908619642547,821.981617647059,707.053574527156,0
413.4912,1.36569108856983,0.243114908522362,1.20307463620354,-0.588787479415998,0.647416305262442,0.64741630526193,-0.125287670751191,1.16208939184953,0.467733716755638,0.650152760052397,-0.489491797491403,0.650152760053154,0.144030025924873,,,,,-0.804335745833764,-0.628531046661627,-2.21451421468853,-0.628531046662683,-0.420113667944901,1.74727563191729,,-0.466425242971301,-0.664611704167916,,,-1.60872909492573,1.38874361965359,0.551872764317972,-1.50040760249466,-0.74772279273037,-0.56919710459836,0.256313121730473,-0.425089890382575,-1.71914710906365,-0.368621103172178,-0.368621103173421,,-0.515450121027326,,,1.00141386663926,1.96373794469452,-1.40791997360659,0.444819579692493,0.444819579691635,-0.0688391245655738,0.0688391245648684,0.396168919873615,11.9808,103,510.066990291262,580.554854368932,799.5,514.420388349515,505.71359223301,575.164077669903,585.945631067961,864.495145631068,734.504854368932,0
413.5936,1.37529717297273,0.238179174768956,1.20902528479086,-0.591342171823185,0.633379840613033,0.633379840612497,-0.125749134178218,1.15122874375498,0.461733282143629,0.639477970455821,-0.46116599504876,0.639477970456587,0.147113142195992,,,,,-0.806959481922568,-0.61572182724813,-2.22875781435268,-0.6157218272492,-0.42529647423104,1.72850606086366,,-0.488712973497916,-0.667717013082869,,,-1.61744923038468,1.37751512705503,0.581710934608079,-1.48997239394074,-0.727038952826215,-0.549944315906906,0.228184731870141,-0.417421395551562,-1.72653146220618,-0.381105680664579,-0.381105680665837,,-0.544535741356713,,,1.00959013342571,1.96091945998215,-1.38215879262532,0.445294729238505,0.445294729237648,-0.0983194095166165,0.0983194095159293,0.381597898364396,12.0832,102,536.933823529412,580.776470588235,835.5,539.640196078431,534.227450980392,568.588235294118,592.964705882353,901.058823529412,769.941176470588,0
413.696,1.38508384311604,0.234105197013254,1.21544854759078,-0.59363705128878,0.619686200304687,0.619686200304128,-0.125255112350736,1.14033712965498,0.456670614798403,0.629616222429626,-0.432663607261516,0.629616222430398,0.151768396197715,,,,,-0.809564164906155,-0.601834746672614,-2.24191968912664,-0.601834746673696,-0.429551868772489,1.70935563906897,,-0.510325703357698,-0.670563015675168,,,-1.62513874152785,1.36575900418774,0.611475151075198,-1.47886415311457,-0.70593989419126,-0.53090744217207,0.199713729989833,-0.410065820866712,-1.73330307531471,-0.393080656936426,-0.393080656937697,,-0.572389386177746,,,1.01740331073305,1.95689670295362,-1.3552906584257,0.446260432561844,0.446260432560988,-0.127505032312782,0.127505032312112,0.366262359503751,12.1856,103,561.256796116505,580.445631067961,847.18932038835,561.773786407767,560.739805825243,570.331067961165,590.560194174757,910.106796116505,784.271844660194,0
413.7984,1.39501817462455,0.230885346211948,1.22231475245506,-0.595623639182599,0.606333825411668,0.606333825411092,-0.123834594417527,1.12943196521598,0.452525667445164,0.620594636696721,-0.404029113632883,0.620594636697503,0.158013309761211,,,,,-0.812142316982421,-0.586852470237816,-2.25406528249962,-0.586852470238908,-0.432860120024423,1.68986105371689,,-0.531222237708234,-0.673174459479519,,,-1.63179176292296,1.3534875446318,0.64117413210407,-1.4670830896544,-0.6844217482744,-0.512111050476051,0.170971303287495,-0.403020780917518,-1.7394448368739,-0.404560716323478,-0.40456071632476,,-0.598969754586012,,,1.02483593912794,1.95168822066944,-1.32733157515557,0.447726676856234,0.447726676855377,-0.15635888396643,0.156358883965772,0.350187537261237,12.288,102,202.962745098039,681.857352941177,844.348039215686,211.925490196078,194,668.758823529412,694.955882352941,894.852941176471,793.843137254902,0
413.9008,1.40506616121279,0.228508950083472,1.22959219681797,-0.597255178219747,0.593319024674283,0.59331902467369,-0.121516748057458,1.11852948370441,0.449277611508742,0.612437997385084,-0.375305552988092,0.612437997385875,0.165863065871012,,,,,-0.814686164696594,-0.570758347503462,-2.26525819876134,-0.570758347504561,-0.435201523430809,1.67005697510849,,-0.551363504850252,-0.675575796148647,,,-1.63740320502461,1.34071389355137,0.670819904541617,-1.45463022236264,-0.662479665466727,-0.493579023901169,0.142028118586797,-0.396283452695756,-1.74493855891137,-0.415560979155636,-0.415560979156932,,-0.624240076385848,,,1.03186996351378,1.9453124327818,-1.29829838942764,0.449700488875482,0.449700488874626,-0.184844391887422,0.18484439188677,0.333398971542181,12.3904,102,159.49068627451,702.055882352941,839.392156862745,168.078431372549,150.902941176471,689.84705882353,714.264705882353,879.71568627451,799.06862745098,0
414.0032,1.4151929134664,0.22696210140388,1.23724723698465,-0.598486779886016,0.58063595410008,0.580635954099473,-0.118330788999391,1.10764475461944,0.446904976835503,0.605168566842544,-0.346534312051063,0.605168566843344,0.175330496954675,,,,,-0.817187452070833,-0.553536633621836,-2.27555997603966,-0.553536633622941,-0.436556382524232,1.64997587405594,,-0.570712813291666,-0.677791027666999,,,-1.64196880545784,1.32745200096772,0.700427612321557,-1.44150733575757,-0.640107874090817,-0.475334274187159,0.112954150561586,-0.389850375616137,-1.7497651028422,-0.426096808968617,-0.426096808969922,,-0.648168108833267,,,1.03848671496591,1.93778777005153,-1.26820894036145,0.452186001266185,0.452186001265331,-0.212925406628678,0.212925406628025,0.315922289095144,12.4928,103,189.238349514563,697.394174757282,845.033980582524,200.405825242718,178.070873786408,680.728155339806,714.060194174757,887.466019417476,802.601941747573,0
414.1056,1.42536285036574,0.226227565839116,1.24524440913184,-0.599275557237509,0.568276695652452,0.568276695651829,-0.114305850556985,1.09679173137187,0.44538580621652,0.59880595486248,-0.317754965539058,0.598805954863292,0.186426074130961,,,,,-0.819637309194752,-0.535172719005354,-2.28502988235863,-0.535172719006468,-0.436905017803425,1.62964792075907,,-0.589236070218146,-0.679843548559385,,,-1.64548516602593,1.31371656096141,0.730015291654711,-1.42771695537803,-0.617299767279035,-0.457398494776689,0.0838185552285862,-0.38371727236146,-1.75390455824113,-0.436183608071079,-0.436183608072392,,-0.670726127276542,,,1.04466692108625,1.92913279838454,-1.23708225095474,0.455184540147577,0.455184540146724,-0.240566115075127,0.240566115074458,0.297783033032837,12.5952,102,216.307352941177,694.191176470588,784.352941176471,228.723529411765,203.891176470588,683.194117647059,705.188235294118,826.313725490196,742.392156862745,0
414.208,1.43553988184935,0.226284792685694,1.25354658190976,-0.599580752564891,0.556231433058923,0.556231433058279,-0.109470857109376,1.08598332970469,0.444697821653793,0.593367044138477,-0.289005167367242,0.593367044139301,0.199157889936191,,,,,-0.822026170702963,-0.515653372240847,-2.2937247293766,-0.515653372241971,-0.436227806135724,1.60910096643573,,-0.606901969483268,-0.681755978901388,,,-1.64794977568413,1.29952294123293,0.75960360738872,-1.41326234433229,-0.594048021884633,-0.43979195306305,0.0546895904780474,-0.377878888872086,-1.75733647469588,-0.445836604376524,-0.445836604377845,,-0.691890913583218,,,1.05039074458296,1.91936632891303,-1.20493873765227,0.458694740607046,0.458694740606196,-0.267730988319405,0.267730988318738,0.279006532781791,12.6976,103,675.310194174757,590.554854368932,717.533980582524,672.097087378641,678.523300970874,584.733980582524,596.37572815534,764.941747572816,670.126213592233,0
414.3104,1.44568758951611,0.227110020272573,1.26211514330473,-0.59936386508225,0.5444887097262,0.54448870972554,-0.103854401711291,1.07523153683037,0.444818602173645,0.588865972245481,-0.260320588997041,0.588865972246318,0.213531632102463,,,,,-0.824343738536247,-0.494966993535757,-2.30169869761866,-0.494966993536889,-0.43450524683761,1.58836059909454,,-0.623682154139457,-0.683549994307826,,,-1.64936101935544,1.28488710701329,0.789215548229131,-1.39814751831202,-0.57034474863205,-0.422533319775962,0.0256345756055578,-0.372328854389045,-1.7600401405768,-0.455070634001971,-0.4550706340033,,-0.71164374027729,,,1.05563784649478,1.90850751356441,-1.17180042532673,0.462712692943046,0.462712692942199,-0.294384765409196,0.294384765408536,0.259617813496042,12.8,102,729.769607843137,580.283823529412,688.833333333333,728.191176470588,731.348039215686,576.93431372549,583.633333333333,745.686274509804,631.980392156863,0
414.4128,1.4557694127981,0.228676467691078,1.27091022457864,-0.598588779369643,0.533035751058058,0.533035751057371,-0.0974846266988069,1.06454754932937,0.445725773321263,0.585314168433848,-0.231734902017369,0.585314168434698,0.229550547896243,,,,,-0.826578983076561,-0.473103871636678,-2.30900316940772,-0.473103871637816,-0.43171805082736,1.56745026300231,,-0.639551350954497,-0.685246161259102,,,-1.64971817144083,1.26982554044225,0.818876082071457,-1.38237727175927,-0.546181668051131,-0.405639536470287,-0.0032801129144306,-0.36705956337267,-1.76199489584722,-0.463899927732337,-0.463899927733672,,-0.729970343117816,,,1.06038746750947,1.89657592309596,-1.13769116306641,0.467232117560277,0.467232117559433,-0.320492468053264,0.320492468052611,0.239641554201348,12.9024,102,864.555365621565,691.972945553258,692.692663676682,955.873842302879,773.236888940252,809.446599916562,574.499291189953,753.494576554026,631.890750799337,0
414.5152,1.46574884074946,0.230954606075566,1.2798909588422,-0.597221893517745,0.52185883573452,0.521858835733817,-0.0903891128260477,1.0539419385626,0.447397202176052,0.582720439885001,-0.203279805181765,0.582720439885866,0.247215395191916,,,,,-0.828720169601683,-0.450056437993063,-2.31568656869828,-0.450056437994206,-0.427847254951562,1.54639143415355,,-0.654487470013684,-0.686863777498331,,,-1.64902137375075,1.25435514839945,0.848611773359715,-1.36595721011443,-0.521550307929436,-0.389125718989625,-0.0319889975409327,-0.362062073283104,-1.76318046453623,-0.472337911193841,-0.472337911195183,,-0.74686087689456,,,1.06461852142366,1.88359160509526,-1.10263683724158,0.472244564485691,0.472244564484851,-0.34601944255588,0.34601944255523,0.2191021028712,13.0048,103,1172.00092337917,985.347367387033,704.172495088409,1516.86,827.14184675835,1414.48,556.214734774067,768.4,639.944990176817,1
414.6176,1.47558960092974,0.233912497556435,1.28901576283933,-0.595232246587044,0.510943701577226,0.510943701576508,-0.0825947876269819,1.04342483977423,0.449811185264747,0.581091098035694,-0.17498509586484,0.581091098036574,0.266524371829582,,,,,-0.830754889807272,-0.425819512282242,-2.32179420696895,-0.425819512283395,-0.422874366590056,1.52520384479012,,-0.668471666080153,-0.688420708428391,,,-1.64727160112514,1.23849314462214,0.878450362720023,-1.34889379025684,-0.496442223577679,-0.373005086981727,-0.0604273880857559,-0.357326002519662,-1.7635772954389,-0.480397023106792,-0.480397023108133,,-0.76230985524219,,,1.06830969862224,1.86957512183412,-1.06666558001607,0.477739632976052,0.47773963297522,-0.370931429939979,0.370931429939324,0.198023544405662,13.1072,102,1431.55533375052,1227.62258239466,716.61447642887,1982.06066750104,881.05,1917.29516478932,537.95,785.228952857739,648,1
