time,S1-D1,S1-D8,S1-D9,S1-D15,S2-D1,S2-D2,S2-D3,S2-D9,S3-D1,S3-D2,S3-D16,S4-D2,S4-D3,S4-D5,S5-D3,S5-D4,S5-D5,S6-D2,S6-D5,S6-D17,S7-D6,S7-D7,S8-D6,S8-D7,S8-D18,S9-D3,S9-D4,S9-D9,S9-D11,S9-D19,S10-D8,S10-D9,S10-D10,S10-D11,S11-D8,S11-D10,S11-D20,S12-D10,S12-D11,S12-D12,S13-D4,S13-D11,S13-D12,S14-D10,S14-D12,S14-D21,S15-D13,S15-D14,S16-D13,S16-D14,S16-D22,t_rel_s,eye_n,xp,yp,ps,xpl_i,xpr_i,ypl_i,ypr_i,psl_i,psr_i,blink_prop
829.952,0.62035355529396,0.529768129842307,0.655573015633665,3.07311509752232,0.315064102578557,0.315064102580287,,,-0.353180144217787,0.976418547712392,-3.12640484427847,0.97641854771051,0.0970396755537826,,,,,-1.33080571223521,,-1.76623652996706,-0.950216585432623,,-1.52602400292946,,1.11446792241281,0.703070529429051,,,-0.503892421040928,-0.353877854901287,0.461888520990163,,,-0.0667722742110647,-1.17515739096696,-0.851523987341969,1.83658555623446,0.745050007915801,0.745050007919324,,,,,,,-0.861486671810855,0.569126521155163,0.569126521155742,-1.05342830624024,1.05342830624058,0.434885170312424,0,103,988.742233009709,533.696116504854,704.968446601942,988.742233009709,,533.696116504854,,704.968446601942,,0.223300970873786
830.0544,0.616260096888617,0.505265609741266,0.642851299800847,3.08782602068064,0.293388342233815,0.293388342235531,,,-0.390565131405801,0.972379482238084,-3.12916390822626,0.972379482236117,0.0984399342147187,,,,,-1.32869667595275,,-1.76944112087284,-0.965581233712794,,-1.52781323690668,,1.10893818809951,0.681030944496819,,,-0.504301707652092,-0.327924449875793,0.450545375887605,,,-0.0705526704781543,-1.17892090131691,-0.85646151795104,1.8591353525008,0.724981982591199,0.724981982594725,,,,,,,-0.851847684296536,0.554565492739384,0.554565492739971,-1.05827410654939,1.05827410654973,0.428248633604789,0.102399999999989,102,979.91675257732,524.221649484536,704.617268041237,979.91675257732,,524.221649484536,,704.617268041237,,1
830.1568,0.612088815182038,0.481844826995054,0.630506246098057,3.1017340069201,0.274317566556241,0.274317566557944,,,-0.429211898846404,0.97061354627131,-3.13052218797603,0.970613546269266,0.0985558208254631,,,,,-1.32493574868964,,-1.77153262993611,-0.979915615045988,,-1.52917667344463,,1.10149835981023,0.658915834446989,,,-0.503493892431853,-0.303669616447178,0.438771121638253,,,-0.0722920536787454,-1.18116897108904,-0.859089344388855,1.87940116809384,0.704540016200287,0.704540016203839,,,,,,,-0.842366035781686,0.540355282891263,0.540355282891857,-1.06249955996795,1.06249955996828,0.422130011662823,0.204799999999977,103,971.093298969072,514.711340206186,704.353092783505,971.093298969072,,514.711340206186,,704.353092783505,,0.854368932038835
830.2592,0.607838940123081,0.459530116125134,0.618547029445128,3.11477078047956,0.25784654384299,0.257846543844681,,,-0.468983406164351,0.971074134562184,-3.13038550518193,0.971074134560056,0.0974639332048633,,,,,-1.31947404298167,,-1.77251035208466,-0.993146686604804,,-1.53010245481705,,1.0921143092555,0.636770248455415,,,-0.501506658631927,-0.281192669136097,0.426582458218935,,,-0.0719825940298059,-1.18193294654021,-0.859424223668275,1.89731990243459,0.683808672434916,0.683808672438489,,,,,,,-0.833095132315998,0.52650522027038,0.526505220270982,-1.06609466030486,1.06609466030519,0.416626149565937,0.307199999999966,102,943.196669698807,591.392136648474,616.140413381848,962.54932787548,912.33,507.029644228826,721.63625,702.837451991106,481.3875,0
830.3616,0.603508373457945,0.438340451998243,0.606979732373155,3.12686815913173,0.243960569193844,0.243960569195521,,,-0.509741514708327,0.973705666403068,-3.12866648860958,0.973705666400845,0.0952439151788557,,,,,-1.31227122658413,,-1.77237506381262,-1.00520154371243,,-1.53057986368697,,1.08075453611634,0.614637133479483,,,-0.498383557956914,-0.260569928176704,0.413996912240567,,,-0.069621162415207,-1.18124985829646,-0.857489744915064,1.91283460856339,0.662873862544156,0.662873862547742,,,,,,,-0.824084588825687,0.513022589508417,0.513022589509027,-1.0690465644402,1.06904656444052,0.411833372704775,0.409599999999955,103,940.31213592233,512.934466019418,684.587378640777,963.933009708738,916.691262135922,522.049514563107,503.819417475728,703.699029126214,665.47572815534,0
830.464,0.599093720397526,0.418289343871991,0.595807325334103,3.13795814865902,0.232635412098437,0.232635412100099,,,-0.551347484155563,0.978443587638255,-3.12528488384957,0.978443587635948,0.0919780522970114,,,,,-1.30329581689664,,-1.77112906628778,-1.01600749547238,,-1.53059919018193,,1.06739019811586,0.592557036115426,,,-0.494173896967981,-0.241874427569818,0.401032835240747,,,-0.0652094429007089,-1.17916236409254,-0.853316359627525,1.92589450378093,0.641822327593675,0.641822327597263,,,,,,,-0.815380029563509,0.499912690904829,0.499912690905445,-1.07133972830664,1.07133972830695,0.407847069083757,0.512000000000057,102,944.125314870474,520.636394375268,728.465757835981,970.555882352941,917.694747388006,524.101960784314,517.170827966223,743.372549019608,713.558966652354,0
830.5664,0.594590333607355,0.399384752772728,0.585029665152019,3.14797304768196,0.223837309792921,0.223837309794566,,,-0.593662424456671,0.985214416087079,-3.1201678244679,0.985214416084687,0.0877508745225402,,,,,-1.29252541610024,,-1.76877623411984,-1.02549214864484,,-1.53015159260997,,1.05199516384536,0.5705678523597,,,-0.488932569948166,-0.225175621000707,0.387709404532329,,,-0.0587540384948934,-1.17571863841864,-0.846941371148733,1.93645496212912,0.620741117235299,0.620741117238887,,,,,,,-0.80702292572091,0.487178906363397,0.487178906364019,-1.07295607234251,1.07295607234282,0.404761275781585,0.614400000000046,102,944.59580161859,530.623793554914,747.117102053164,971.719340463458,917.472262773723,530.16382798574,531.083759124088,759.467780748663,734.766423357664,0.0294117647058824
830.6688,0.58999236710847,0.381629028621524,0.574643508457934,3.15684557091991,0.217522993463807,0.21752299346544,,,-0.63654770857161,0.993935832648897,-3.11325006861331,0.993935832646414,0.0826487710162272,,,,,-1.27994690076255,,-1.76532205993087,-1.03358351466464,,-1.529228947314,,1.03454609348206,0.548704623966805,,,-0.482719847433768,-0.210539087394261,0.374046626886545,,,-0.0502665679522156,-1.1709722150694,-0.838408886118043,1.94447749943392,0.599717067098571,0.599717067102168,,,,,,,-0.799050476048878,0.474822765892841,0.47482276589347,-1.073875169205,1.07387516920531,0.40266826997952,0.716800000000035,103,948.796284007963,539.618936629064,744.847295952223,973.536363636364,924.056204379562,545.647727272727,533.590145985402,753.431818181818,736.262773722628,0.679611650485437
830.7712,0.585292830362993,0.365018857936045,0.564642529483795,3.16450899618048,0.213639735899082,0.21363973590069,,,-0.679865368108958,1.00451682799601,-3.10447419537032,1.00451682799344,0.0767596147690769,,,,,-1.265556564949,,-1.76077368776205,-1.04021015372853,,-1.52782368379082,,1.01502254990562,0.526999367184759,,,-0.47560113381539,-0.198026236848309,0.360065344732851,,,-0.0397637509948626,-1.16498179403431,-0.827769734162355,1.94992975780136,0.578836264868304,0.578836264871901,,,,,,,-0.791495531443664,0.462844008504435,0.462844008505073,-1.07407445499266,1.07407445499296,0.401658153975616,0.819200000000024,102,950.090479071522,552.13539566988,746.475753021846,971.569429590018,928.611528553027,560.977682709448,543.293108630313,756.944206773619,736.007299270073,0
830.8736,0.580483630678443,0.349545214078108,0.5550173305164,3.17089733218894,0.212125419888925,0.212125419890519,,,-0.72347849270005,1.0168579146148,-3.09379075816998,1.01685791461214,0.0701723878040856,,,,,-1.24936019602451,,-1.75513993621764,-1.04530136071179,,-1.52592860861032,,0.993407138705602,0.505480917447628,,,-0.467646702374594,-0.187694016941237,0.345787243868037,,,-0.0272674825758041,-1.15781102062189,-0.815081361653438,1.95278549073171,0.558183498081508,0.55818349808512,,,,,,,-0.784386557985606,0.451240631503713,0.451240631504361,-1.07352946730865,1.07352946730894,0.401818428666311,0.921600000000012,103,949.15617583603,569.323267259979,790.550060679612,975.147572815534,923.164778856527,573.647572815534,564.998961704423,802.95145631068,778.148665048544,0
830.976,0.575555597526955,0.335193309735087,0.545755440304899,3.17594549687267,0.212908638606932,0.212908638608517,,,-0.767251641212737,1.03085141018242,-3.08115839658235,1.03085141017968,0.0629767944741681,,,,,-1.23137305548884,,-1.74843131737414,-1.04878738782573,,-1.52353672715697,,0.969685669275442,0.484174781168552,,,-0.45893140777641,-0.179594618415756,0.331234862859142,,,-0.0128048976589528,-1.14952824003102,-0.800407702661755,1.9530245397955,0.537841688103689,0.537841688107324,,,,,,,-0.777747628131929,0.440008922769632,0.44000892277029,-1.07221411194028,1.07221411194057,0.40323355840203,1.024,102,952.734854128876,548.819762379071,816.382962312128,978.640541591086,926.829166666667,556.469733091475,541.169791666667,826.781549624255,805.984375,0.205882352941176
831.0784,0.570498492364826,0.321942559848833,0.536841306269993,3.17958949809056,0.215908844085538,0.215908844087115,,,-0.811051261377033,1.04638179412265,-3.06654390352102,1.04638179411983,0.0552628549171516,,,,,-1.21161974686942,,-1.74066005579496,-1.0505996963302,,-1.52064107100386,,0.943847327433721,0.463102995781376,,,-0.449534369312081,-0.173775177452865,0.316431605890065,,,0.00359157471162092,-1.14020622812816,-0.783819026868242,1.95063278894202,0.517891321595936,0.517891321599581,,,,,,,-0.771598430721082,0.4291434727057,0.429143472706367,-1.07010095954264,1.07010095954292,0.405984529123423,1.12639999999999,102,956.384040014684,546.982573880323,798.534450715859,981.122246696035,931.645833333333,554.141189427313,539.823958333333,807.022026431718,790.046875,0.647058823529412
831.1808,0.565301014657702,0.309766566988478,0.528256292968606,3.18176661980388,0.221036556116853,0.221036556118434,,,-0.85474610829927,1.06332613364411,-3.04992223972333,1.06332613364121,0.0471204791802638,,,,,-1.19013396555302,,-1.73184010799886,-1.05067123386298,,-1.51723453416574,,0.915884857235636,0.442284006737708,,,-0.439538615525699,-0.170277468777871,0.301401761272767,,,0.0218841677136631,-1.12992189703942,-0.765391763686065,1.94560208977388,0.498409889960111,0.498409889963768,,,,,,,-0.765954297335731,0.41863716721148,0.418637167212158,-1.06716157387217,1.06716157387244,0.410148397144159,1.22879999999998,103,959.544530934424,547.884127900622,797.451627389761,983.440733929259,935.64832793959,554.483358282366,541.284897518878,809.097429536803,785.805825242719,0
831.2832,0.55995081325573,0.298633136890038,0.519978696443142,3.18241562637466,0.228193633671707,0.228193633673293,,,-0.898207653239485,1.08155457076008,-3.03127648962334,1.08155457075711,0.0386390262206699,,,,,-1.16695813359509,,-1.72198718081786,-1.04893673976936,,-1.5133097180779,,0.885794759737328,0.421732571937891,,,-0.429030684503606,-0.169137580738346,0.286170528332666,,,0.0420297324918449,-1.11875597487925,-0.745208308897465,1.9379301633273,0.479471342432852,0.479471342436522,,,,,,,-0.76082625070555,0.408481166930084,0.408481166930772,-1.06336687257596,1.0633668725762,0.415797825550547,1.33119999999997,102,959.323039215686,553.711764705882,873.436274509804,984.025490196079,934.620588235294,549.035294117647,558.388235294118,881.872549019608,865,0
831.3856,0.554434504486982,0.288504323939985,0.51198377534518,3.18147700044481,0.237273602496626,0.237273602498211,,,-0.941310482367152,1.10093086544331,-3.01059775778752,1.10093086544026,0.0299068491154871,,,,,-1.14214292692064,,-1.71111874775205,-1.04533308315081,,-1.50885878602344,,0.853577520195587,0.401459699743617,,,-0.418100179993892,-0.170385564806138,0.270764055299876,,,0.0639796729376762,-1.10679266363857,-0.723356829227892,1.92762049250515,0.461145553834051,0.461145553837725,,,,,,,-0.756221084358746,0.398664878085044,0.398664878085747,-1.05868752093848,1.05868752093872,0.423000607112919,1.43359999999996,103,958.323786407767,563.338349514563,935.883495145631,979.125242718447,937.522330097087,562.366019417476,564.310679611651,945.485436893204,926.281553398058,0
831.488,0.548737692556914,0.279336503616919,0.50424379448352,3.17889322340647,0.248162033735556,0.248162033737147,,,-0.983932694320004,1.12131300332341,-2.98788500484527,1.12131300332029,0.0210108251333899,,,,,-1.11574670281726,,-1.69925406412726,-1.03979963481865,,-1.5038733295747,,0.819237866126784,0.381472620165272,,,-0.406839286556581,-0.174045062835457,0.255209488368528,,,0.087679845976233,-1.09411928206237,-0.699931077950057,1.91468221807756,0.443497805781899,0.443497805785565,,,,,,,-0.752141480335841,0.389175917949329,0.389175917950047,-1.05309435758306,1.05309435758329,0.431819172640677,1.53600000000006,102,955.810294117647,572.936764705882,982.377450980392,971.819607843137,939.800980392157,574.498039215686,571.375490196078,991.245098039216,973.509803921569,0
831.5904,0.542844987641878,0.271080470484878,0.496728076934698,3.17460909176928,0.260736973752524,0.260736973754138,,,-1.02595630483445,1.14255388292004,-2.96314481949021,1.14255388291682,0.012035872126648,,,,,-1.08783483579983,,-1.68641418211693,-1.0322786678037,,-1.49834424590108,,0.78278504259897,0.361774784388499,,,-0.395342249754484,-0.18013292942588,0.239535029354978,,,0.11307043421979,-1.08082589843078,-0.675030220654117,1.89913003882263,0.426588278846591,0.42658827885024,,,,,,,-0.748586166001786,0.380000074958009,0.380000074958739,-1.04655884850238,1.0465588485026,0.442310082255018,1.63840000000005,102,955.228921568627,581.325980392157,1014.79901960784,967.003921568628,943.453921568628,581.346078431373,581.305882352941,1023.03921568627,1006.55882352941,0
831.6928,0.536740019743499,0.263681560513498,0.489403062843375,3.16857204822089,0.274869425429336,0.274869425430968,,,-1.0672676537181,1.16450208064026,-2.93639113003931,1.16450208063696,0.0030644589556823,,,,,-1.05847897864575,,-1.67262196541629,-1.02271577618925,,-1.4922616203303,,0.74423308489859,0.342365888717407,,,-0.38370483204623,-0.188658870282802,0.223769998363867,,,0.140085812817311,-1.06700495467574,-0.648758658641841,1.88098410569811,0.410471553391035,0.410471553394648,,,,,,,-0.745550102956072,0.371121261880797,0.371121261881544,-1.03905356306864,1.03905356306885,0.454523500134076,1.74080000000004,103,954.306796116505,581.74854368932,1032.93689320388,964.45145631068,944.16213592233,581.48932038835,582.007766990291,1040.36893203884,1025.50485436893,0
831.7952,0.530405451264747,0.257079798837656,0.48223237747562,3.16073250454185,0.290423877185227,0.290423877186903,,,-1.10775779509129,1.18700266308716,-2.90764487500831,1.18700266308378,-0.00582387702906843,,,,,-1.0277562803108,,-1.65790210247286,-1.01106030093561,,-1.48561461397094,,0.703601076030374,0.323241924859791,,,-0.37202375774198,-0.199625110072742,0.20794489597182,,,0.168654433908181,-1.05275088026949,-0.621225834359033,1.86026990326236,0.395196122894331,0.395196122897913,,,,,,,-0.743024693586253,0.362521465634487,0.362521465635249,-1.03055266298356,1.03055266298378,0.46850266296,1.84320000000002,102,955.506862745098,577.286764705882,1045.06862745098,965.009803921569,946.003921568627,580.764705882353,573.808823529412,1050.29411764706,1039.8431372549,0
831.8976,0.523822998322553,0.251210080916072,0.475176918871535,3.15104414232556,0.307258872249547,0.307258872251258,,,-1.14732284987749,1.2098980053992,-2.87693366124554,1.20989800539575,-0.0145529902159391,,,,,-0.995748597004658,,-1.64228111642502,-0.997265755110278,,-1.47839136792877,,0.660913384440829,0.304395263122275,,,-0.360396159142434,-0.213026094792891,0.192091456949543,,,0.198698747560816,-1.03815969353853,-0.592546005546478,1.83701812149338,0.380803932299778,0.380803932303336,,,,,,,-0.740997990673419,0.354180707485236,0.354180707486013,-1.02103239355028,1.02103239355049,0.48428335887223,1.94560000000001,103,955.82427184466,577.759223300971,1054.8640776699,964.877669902913,946.770873786408,582.214563106796,573.303883495146,1056.92233009709,1052.80582524272,0
832,0.516973473951741,0.246002397540339,0.468194978686115,3.13946418788489,0.325227607239182,0.325227607240942,,,-1.18586430917384,1.23302858846329,-2.84429143170738,1.23302858845976,-0.0230505514800741,,,,,-0.962541722454945,,-1.62578736815637,-0.981290247697182,,-1.47057893963413,,0.616199880030558,0.285814773767822,,,-0.34891903313262,-0.228848227906973,0.176242688903996,,,0.23013517187179,-1.02332859189069,-0.562837981279231,1.81126452445696,0.367329957810423,0.367329957813966,,,,,,,-0.739454903126812,0.346077031567379,0.346077031568171,-1.01047156888823,1.01047156888843,0.501893429347413,2.048,102,952.092647058824,581.713235294118,1069.45098039216,962.591176470588,941.594117647059,581.889215686275,581.537254901961,1070.3137254902,1068.58823529412,0
832.1024,0.509836861627725,0.241382109155464,0.4612424044305,3.125953665183,0.344178547699861,0.34417854770165,,,-1.22328928661157,1.25623376735801,-2.80975815242986,1.25623376735439,-0.0312484288984957,,,,,-0.92822465391352,,-1.60845104732716,-0.963096909280264,,-1.46216327936719,,0.569496128272409,0.267485988298975,,,-0.337688714590644,-0.247069637246995,0.160432892952594,,,0.262874117199119,-1.00835553673488,-0.53222482079571,1.78304981999293,0.354801844426718,0.354801844430246,,,,,,,-0.738377398197098,0.338186534364147,0.338186534364949,-0.998852046621122,0.998852046621316,0.521352299105267,2.15039999999999,102,946.319607843137,587.972058823529,1085.39215686275,956.879411764706,935.759803921569,582.392156862745,593.551960784314,1084.96078431373,1085.82352941176,0
832.2048,0.502392419645399,0.237270271143473,0.454272804158208,3.1104776309762,0.363956053858082,0.363956053859918,,,-1.25951072152781,1.27935251799662,-2.77337951960414,1.27935251799292,-0.0390830186691679,,,,,-0.892888907136669,,-1.59030414670546,-0.942654321648075,,-1.45312924555994,,0.520843563209797,0.249391302545989,,,-0.326800369661414,-0.267659974437528,0.14469766355944,,,0.296820066571132,-0.993338835351615,-0.500833495408422,1.75241953367139,0.343239618894936,0.343239618898453,,,,,,,-0.737744701764911,0.330483440040039,0.330483440040856,-0.986159187185007,0.986159187185186,0.542670539877344,2.25279999999998,103,940.992233009709,588.328155339806,1106.08252427184,949.158252427184,932.826213592233,582.959223300971,593.697087378641,1103.88349514563,1108.28155339806,0
832.3072,0.494618811506573,0.233584012374905,0.447237791049226,3.0930053903619,0.384401019534855,0.384401019536732,,,-1.29444753622159,1.30222418060156,-2.73520668231208,1.3022241805978,-0.0464955209133425,,,,,-0.856627884951071,,-1.57138041681614,-0.919936950247625,,-1.443460653642,,0.470289639882887,0.231510225796967,,,-0.316347509894897,-0.290580255277254,0.129073861065268,,,0.331871724220522,-0.978376712781722,-0.46879450131066,1.71942389086637,0.332655497246608,0.332655497250121,,,,,,,-0.737533495578694,0.322940221743464,0.322940221744293,-0.972382290067019,0.972382290067187,0.565849477183765,2.35519999999997,102,935.846078431373,591.48431372549,1127.4068627451,942.61568627451,929.076470588235,587.469607843137,595.499019607843,1126.85294117647,1127.96078431373,0
832.4096,0.486494255731033,0.230236968221103,0.440087263657495,3.07351068869934,0.405351530895552,0.405351530897467,,,-1.32802475284744,1.3246892168787,-2.6952959734197,1.32468921687487,-0.0534321571463811,,,,,-0.819536293883538,,-1.5517152985375,-0.894925577719968,,-1.43314035363326,,0.417887968920934,0.213819679151661,,,-0.306421529020074,-0.315782747120799,0.113599549019535,,,0.367922257744606,-0.963566863188898,-0.436241400205209,1.68411771056987,0.32305380192652,0.323053801930036,,,,,,,-0.737718108476128,0.315527767272977,0.315527767273819,-0.957515000946614,0.957515000946766,0.590880846226642,2.45759999999996,102,930.910294117647,591.375,1141.70098039216,936.028431372549,925.792156862745,591.16568627451,591.58431372549,1141.44117647059,1141.96078431373,0
832.512,0.477996686385431,0.227139760730938,0.432769712676935,3.05197187891621,0.426643546981341,0.426643546983305,,,-1.36017357752063,1.34658997574847,-2.65370864322922,1.34658997574457,-0.0598443321687829,,,,,-0.781709608330122,,-1.53134583074371,-0.867607736404756,,-1.42215032985901,,0.36369843597433,0.196294338649154,,,-0.297111264655966,-0.34321090257655,0.0983138928583538,,,0.404859652363094,-0.949005976311505,-0.403310273284183,1.6465603108918,0.314430990563539,0.314430990567063,,,,,,,-0.738270699376013,0.308215582993681,0.308215582994539,-0.941555687981244,0.941555687981385,0.617746502838085,2.55999999999995,103,923.286893203884,598.373300970874,1150.11650485437,926.02427184466,920.549514563107,595.191262135922,601.555339805825,1151.30097087379,1148.93203883495,0
832.6144,0.469103910643347,0.224200505999517,0.42523253645131,3.02837206091663,0.448111597751651,0.448111597753655,,,-1.39083145926626,1.36777144072824,-2.61051059527286,1.36777144072429,-0.0656887504662303,,,,,-0.743243592579277,,-1.5103105304137,-0.837978133712643,,-1.41047181122586,,0.307787299500278,0.178907007583007,,,-0.288502585469402,-0.372799339410962,0.0832570242441473,,,0.442567166922295,-0.934789245084746,-0.370139099167602,1.60681541718644,0.306775780263719,0.306775780267262,,,,,,,-0.739161431869912,0.300972020416056,0.300972020416927,-0.924507786655529,0.924507786655658,0.646418203513893,2.66240000000005,102,919.125490196078,600.78137254902,1158.3431372549,923.040196078431,915.210784313726,598.250980392157,603.311764705882,1156.96078431373,1159.72549019608,0
832.7168,0.459793748989125,0.221325323983738,0.417422345044332,3.00269918293666,0.469589492454079,0.469589492456112,,,-1.41994212881124,1.38808193061224,-2.56577212494934,1.38808193060824,-0.0709275004715236,,,,,-0.704233883528501,,-1.48864924447359,-0.806039060649762,,-1.39808538018958,,0.250227251091375,0.161628997747413,,,-0.280678002394528,-0.404473869919249,0.0684698798403051,,,0.480923859903575,-0.921009868013388,-0.336867084835951,1.56495105628609,0.300069340037954,0.30006934004151,,,,,,,-0.740358643400561,0.293764506199126,0.293764506200014,-0.906380112295867,0.906380112295986,0.67685746861921,2.76480000000004,103,943.146601941748,599.319417475728,1162.88834951456,949.046601941748,937.246601941748,598.973786407767,599.665048543689,1160.18446601942,1165.59223300971,0
832.8192,0.450044152509245,0.218418835770399,0.409285242901919,2.97494609396857,0.490911032018399,0.490911032020455,,,-1.44745561666394,1.40737373965228,-2.51956766031299,1.40737373964824,-0.0755281157458141,,,,,-0.664775619960724,,-1.46640297434787,-0.771800776085612,,-1.38497107478662,,0.191097423800556,0.144430508225027,,,-0.273716300751353,-0.438151581411521,0.0539940219246644,,,0.51980515596552,-0.907758558620491,-0.303633976318873,1.52103942204939,0.294285530185775,0.294285530189338,,,,,,,-0.741829014638079,0.286559764472626,0.286559764473525,-0.887187139733683,0.887187139733803,0.70901553117278,2.86720000000003,102,935.65637254902,596.901960784314,1172.94117647059,942.593137254902,928.719607843137,598.975490196079,594.828431372549,1171.8137254902,1174.06862745098,0
832.9216,0.439833302565925,0.215384648523983,0.400767093985493,2.94511054180302,0.511910722954326,0.511910722956398,,,-1.473328244284,1.42550372058074,-2.47197550501646,1.42550372057666,-0.0794636127117399,,,,,-0.624963104188837,,-1.4436136736652,-0.735281864677568,,-1.3711084824348,,0.130483339731077,0.127281004839421,,,-0.267692188295134,-0.47374096693646,0.0398714451893618,,,0.55908343645657,-0.895123065740536,-0.270579362003499,1.47515670321351,0.28939118477451,0.289391184778084,,,,,,,-0.74353774231529,0.279324030697647,0.279324030698557,-0.866949248463812,0.866949248463927,0.742833369388747,2.96960000000001,103,926.797087378641,590.413106796117,1182.4854368932,933.266990291262,920.327184466019,595.135922330097,585.690291262136,1180.54368932039,1184.42718446602,0
833.024,0.429139701813772,0.212125834918272,0.391813778506927,2.91319511635379,0.532424492500831,0.532424492502912,,,-1.49752258053191,1.44233382142053,-2.42307758547445,1.44233382141642,-0.0827124961321795,,,,,-0.584889495460572,,-1.42032401749282,-0.696509568897139,,-1.35647682261175,,0.0684767894188398,0.110149609165986,,,-0.262675956495803,-0.511142107828649,0.0261443730323189,,,0.598628645233888,-0.88318770419687,-0.237841973615137,1.42738286802137,0.285346444065178,0.285346444068779,,,,,,,-0.745448712714736,0.272023260097588,0.272023260098504,-0.845692929619285,0.845692929619399,0.778241829323519,3.072,102,917.163725490196,591.554411764706,1193.04901960784,923.839215686275,910.488235294118,593.851960784314,589.256862745098,1191.08823529412,1195.00980392157,0
833.1264,0.41794226006423,0.208545407856304,0.382371444094154,2.87920714187675,0.552290402448035,0.552290402450133,,,-1.52000735911709,1.45773158205298,-2.37295920203398,1.45773158204884,-0.0852587223358408,,,,,-0.54464654378325,,-1.39657714058584,-0.655520094904754,,-1.3410550129336,,0.00517563564129164,0.0930055000600025,,,-0.258733159885975,-0.550246916195675,0.0128550468081837,,,0.638308903593206,-0.872032902004387,-0.205558992943401,1.37780140469132,0.282105141176061,0.282105141179682,,,,,,,-0.747524669873684,0.2646233307703,0.264623330771225,-0.823450951978494,0.823450951978616,0.81516185013088,3.17439999999999,102,908.200980392157,594.651470588235,1195.57843137255,915.303921568627,901.098039215686,593.455882352941,595.847058823529,1192.99019607843,1198.16666666667,0
833.2288,0.406220368279343,0.204546782321896,0.372386743320599,2.84315852336399,0.571349357777414,0.571349357779524,,,-1.54075736099682,1.47157059287713,-2.32170877654156,1.47157059287296,-0.0870916190956897,,,,,-0.504324374291746,,-1.3724163421492,-0.612358891245434,,-1.32482171315836,,-0.0593164614932147,0.075818320962996,,,-0.255924324962265,-0.590939448949135,4.55093639465455e-05,,,0.677991133350998,-0.861734777109803,-0.17386537387869,1.32649902239074,0.279615241448037,0.279615241451686,,,,,,,-0.74972737478992,0.257090236488013,0.257090236488945,-0.800262486916475,0.800262486916607,0.853504801623328,3.27679999999998,103,897.482524271845,590.51213592233,1195.94174757282,905.235922330097,889.729126213592,590.403883495146,590.620388349515,1196.65048543689,1195.23300970874,0
833.3312,0.393953949492472,0.200034216701289,0.361807046521498,2.80506554778012,0.589445811615562,0.589445811617681,,,-1.55975327337101,1.48373092302473,-2.26941758482534,1.48373092302054,-0.0882057724316441,,,,,-0.464011326294686,,-1.34788475382944,-0.567080898532606,,-1.30775534255133,,-0.124890398542505,0.0585585821012875,,,-0.254304699384242,-0.633096301039062,-0.0122426211877116,,,0.717541695508072,-0.852364751968551,-0.142893180875643,1.27356531591373,0.277819333345414,0.277819333349113,,,,,,,-0.752017757113855,0.249390263727101,0.249390263728032,-0.776173191836627,0.776173191836778,0.893172937234893,3.37919999999997,102,886.352450980392,595.716666666667,1196.38725490196,892.669607843137,880.035294117647,589.402941176471,602.030392156863,1201.1862745098,1191.58823529412,0
833.4336,0.381123483872695,0.194913236346744,0.350580629013597,2.76494863527879,0.606428473801029,0.606428473803163,,,-1.57698153562508,1.49409952582141,-2.21617946869769,1.49409952581722,-0.0886008918499857,,,,,-0.423793840062187,,-1.32302496868063,-0.519750766502622,,-1.28983406835285,,-0.191432063192065,0.0411980519904073,,,-0.253924044181754,-0.676587077678531,-0.0239683949402731,,,0.756827053590522,-0.843989202773305,-0.1127709360106,1.21909239164151,0.27665517359905,0.27665517360278,,,,,,,-0.754356064995739,0.241490153628548,0.241490153629482,-0.751235250279647,0.751235250279823,0.934059958230907,3.48159999999996,102,771.449509803922,594.644117647059,1206.04901960784,778.066666666667,764.832352941177,589.979411764706,599.308823529412,1207.96078431373,1204.13725490196,0
833.536,0.367710019842184,0.189091051689077,0.338656846157683,2.72283204198812,0.622151026054734,0.622151026056881,,,-1.59243417486411,1.50257061850848,-2.16209053352492,1.50257061850427,-0.088281656537503,,,,,-0.383756376970564,,-1.29787863665022,-0.470443032497889,,-1.27103577140128,,-0.258822843765592,0.0237101395599842,,,-0.254826463264082,-0.721274936036962,-0.0350917946721523,,,0.795714461352089,-0.83666913481698,-0.0836229689571664,1.1631744575243,0.27605628706771,0.276056287071488,,,,,,,-0.756702018418947,0.233357256911665,0.233357256912607,-0.725507369554214,0.725507369554416,0.976051673287308,3.58399999999995,103,749.530097087379,599.145631067961,1218.41747572816,756.745631067961,742.314563106796,591.250485436893,607.040776699029,1214.99029126214,1221.84466019417,0
833.6384,0.353695192276011,0.182476983243623,0.325986316243415,2.67874353325938,0.636472832756603,0.636472832758768,,,-1.60610862960091,1.50904602542994,-2.10724884553678,1.50904602542573,-0.0872575368630949,,,,,-0.343981357000515,,-1.27248604649775,-0.419242246348839,,-1.25133800760953,,-0.326940191644848,0.0060702653963135,,,-0.257050262038903,-0.767017178082699,-0.0455740155345443,,,0.834072659590661,-0.83045987929016,-0.0555687760896693,1.10590739603147,0.275952608260451,0.275952608264269,,,,,,,-0.759014968574254,0.224959691118064,0.224959691119007,-0.699054736101993,0.699054736102222,1.01902672083468,3.68640000000005,102,790.439705882353,598.455392156863,1227.84803921569,797.851960784314,783.027450980392,586.256862745098,610.653921568628,1222.21568627451,1233.48039215686,0
833.7408,0.33906126674009,0.17498289666232,0.312521126018599,2.63271405636943,0.649259625586818,0.649259625588996,,,-1.61800756137119,1.51343547782429,-2.0517541428453,1.51343547782007,-0.0855425845093387,,,,,-0.304549100605737,,-1.24688572490517,-0.366243010123683,,-1.23071798993048,,-0.395658206111762,-0.0117437897362011,,,-0.260627829594835,-0.813665875149667,-0.0553777451094044,,,0.871772554378129,-0.82541081255637,-0.028722406602145,1.04738834757734,0.276271135387867,0.276271135391725,,,,,,,-0.761254063180726,0.216266501263579,0.216266501264524,-0.671948917583062,0.671948917583315,1.06285731133856,3.78880000000004,103,895.251941747573,593.446601941748,1228.91262135922,901.421359223301,889.082524271845,581.852427184466,605.040776699029,1229.4854368932,1228.33980582524,0
833.8432,0.323791217758391,0.166523640086069,0.298215061484446,2.58477743322031,0.660384142543887,0.660384142546081,,,-1.62813865706472,1.51565687177162,-1.99570756828764,1.51565687176739,-0.0831551877557212,,,,,-0.265537769054122,,-1.22111407979708,-0.311549899921667,,-1.20915260936364,,-0.464848220276934,-0.0297515757702539,,,-0.265585542535644,-0.861068510464096,-0.0644674273999832,,,0.908687849713356,-0.821565101230849,-0.00319189466362887,0.987715322931066,0.276936566827479,0.276936566831396,,,,,,,-0.763378411213467,0.207247812924616,0.207247812925564,-0.644267690269911,0.644267690270183,1.10740995502038,3.89120000000003,102,989.861274509804,590.00637254902,1227.3137254902,997.826470588235,981.896078431373,579.141176470588,600.871568627451,1233.49019607843,1221.13725490196,0
833.9456,0.307868837285116,0.157017472166324,0.283023856572031,2.53497007812061,0.66972671187744,0.669726711879644,,,-1.63651442784526,1.51563648843307,-1.93921142674835,1.51563648842885,-0.0801177916779569,,,,,-0.227023301287269,,-1.19520510021254,-0.255277262248606,,-1.18661850419819,,-0.534379378318414,-0.0479697143435361,,,-0.271943690474684,-0.909068627204003,-0.0728095015863113,,,0.944695624489727,-0.818959476178515,0.0209212539773902,0.926986847859818,0.277871907288586,0.27787190729257,,,,,,,-0.765347234187074,0.197874964950591,0.197874964951537,-0.616094773750083,0.616094773750372,1.15254616094138,3.99360000000002,103,1082.21213592233,592.964563106796,1226.29611650485,1094.41262135922,1070.01165048544,576.416504854369,609.512621359223,1243.33980582524,1209.25242718447,0
834.048,0.291278864934363,0.146386475277109,0.266905451466403,2.48333074222667,0.677175780458259,0.677175780460467,,,-1.643152009449,1.51330917942785,-1.88236896160438,1.51330917942362,-0.0764565861895009,,,,,-0.189079345787504,,-1.16919011163655,-0.197548899855378,,-1.16309218076135,,-0.6041191997067,-0.0664116910767007,,,-0.279716423032159,-0.957506472344373,-0.0803726155077393,,,0.979676859205424,-0.817624038087425,0.0435225224723457,0.865301635979398,0.278999048271644,0.278999048275686,,,,,,,-0.767119998989967,0.188120622452281,0.188120622453227,-0.587519468753714,0.58751946875402,1.19812311023702,4.096,102,1069.58921568627,587.941176470588,1232.44117647059,1080.97352941176,1058.20490196078,575.743137254902,600.139215686275,1253.70588235294,1211.17647058824,0
834.1504,0.274007135775366,0.134556959602764,0.249820259851439,2.42990029103471,0.682628392377213,0.682628392379432,,,-1.64807296237367,1.50861852315336,-1.82528413365676,1.50861852314912,-0.072201167781075,,,,,-0.151777189805315,,-1.14309757720037,-0.138497657575567,,-1.13855018233275,,-0.673934137484875,-0.0850876944558882,,,-0.288911719158828,-1.0062196452121,-0.0871278171570661,,,1.0135169174475,-0.81758209740647,0.0645247916313351,0.80275828589656,0.280239330093446,0.280239330097561,,,,,,,-0.768656543966848,0.177958886935674,0.17795888693662,-0.558636206758402,0.558636206758726,1.24399431634801,4.19839999999999,102,987.023039215686,590.995588235294,1243.26960784314,999.747058823529,974.299019607843,581.756862745098,600.23431372549,1261.54901960784,1224.99019607843,0
834.2528,0.256040746155138,0.121459867448071,0.231731449141498,2.37472151534452,0.685990624153346,0.685990624155572,,,-1.65130306894205,1.50151695811096,-1.76806138854331,1.50151695810674,-0.0673841827456307,,,,,-0.115185691332424,,-1.11695293338925,-0.0782649060863538,,-1.11296929671715,,-0.743690152381471,-0.10400449774263,,,-0.29953138367294,-1.05504377803622,-0.0930487250996024,,,1.04610598005957,-0.818850053013481,0.0838486926559798,0.739454999356501,0.281514085187642,0.28151408519183,,,,,,,-0.769917213355441,0.167365422716116,0.167365422717063,-0.529544022154612,0.529544022154956,1.29001028821428,4.30079999999998,103,987.282524271845,586.446601941748,1248.6359223301,999.874757281554,974.690291262136,583.376699029126,589.516504854369,1266.35922330097,1230.91262135922,0
834.3552,0.237368234369604,0.107031178050714,0.212605231537339,2.31783896174636,0.687177976712987,0.687177976715229,,,-1.65287213175752,1.4919658903988,-1.71080541855315,1.49196589039459,-0.0620409618566891,,,,,-0.079371217315484,,-1.09077845899947,-0.0169999186287574,,-1.08632679545776,,-0.813253324166449,-0.12316538744413,,,-0.311571078267059,-1.10381327029355,-0.0981116751029924,,,1.07733942469026,-0.821437315858522,0.101422895014961,0.675489317347672,0.282745153143769,0.282745153148034,,,,,,,-0.770863004501135,0.156317604247345,0.156317604248294,-0.500345946579188,0.500345946579544,1.33601920505881,4.40319999999997,102,904.875,585.230392156863,1260.07352941176,917.16862745098,892.58137254902,584.19705882353,586.263725490196,1279.46078431373,1240.6862745098,0
834.4576,0.217979769266169,0.091212307437025,0.192411158775628,2.25929876756346,0.686115722289272,0.686115722291529,,,-1.65281378235351,1.47993577295924,-1.653620930561,1.47993577295504,-0.0562091572583368,,,,,-0.0443975875597184,,-1.06459318892519,0.0451408648578123,,-1.05860070735602,,-0.882490507993854,-0.142570146017698,,,-0.325020389803995,-1.1523620800938,-0.102295838184329,,,1.10711813693434,-0.825346282394387,0.117184317599468,0.610957869739606,0.283855353314656,0.283855353319003,,,,,,,-0.771455726156654,0.144794673525383,0.14479467352633,-0.471148310169512,0.471148310169886,1.3818676016509,4.50559999999996,102,895.450980392157,590.269117647059,1271.61764705882,907.132352941177,883.769607843137,579.929411764706,600.608823529412,1289.47058823529,1253.76470588235,0
834.56,0.197867346178728,0.0739505060577805,0.17112242123725,2.19914850421938,0.682739212133468,0.682739212135741,,,-1.65116530218184,1.46540616957572,-1.59661241025228,1.46540616957154,-0.0499283886917527,,,,,-0.0103260178991218,,-1.0384128831393,0.107994688677356,,-1.0297701357206,,-0.951270023616939,-0.162215088802589,,,-0.339862929402867,-1.20052455836648,-0.105583307446046,,,1.13534873952484,-0.830572357267382,0.131078255128882,0.54595613415779,0.284768908482124,0.284768908486544,,,,,,,-0.771658171064513,0.132777895788662,0.13277789578961,-0.442059937725066,0.442059937725458,1.4274010621512,4.60799999999995,103,893.161650485437,591.680582524272,1278.05339805825,904.028155339806,882.295145631068,580.976699029126,602.384466019417,1298.39805825243,1257.70873786408,0
834.6624,0.177024994248404,0.0551992611687679,0.148716157098023,2.13743705576027,0.676994154828966,0.676994154831262,,,-1.64796744941307,1.44836581732514,-1.53988385804446,1.44836581732097,-0.0432399011143791,,,,,0.0227849446375759,,-1.01225005009686,0.17139343038456,,-0.999815625393539,,-1.01946233544811,-0.182093140360302,,,-0.356076449479716,-1.24813629148554,-0.107959158746985,,,1.16194374375664,-0.837104019919368,0.143058426085242,0.480578213279205,0.285411831880356,0.285411831884854,,,,,,,-0.771434311958661,0.120250709629707,0.120250709630656,-0.413191265266807,0.413191265267215,1.47246492908404,4.71040000000005,102,890.778921568628,596.442647058824,1273.9362745098,899.936274509804,881.621568627451,580.506862745098,612.378431372549,1300.13725490196,1247.73529411765,0
834.7648,0.155448991404236,0.0349186995810906,0.125173767107601,2.07421456595273,0.668836866513187,0.668836866515506,,,-1.64326428300563,1.42881267694083,-1.483538485112,1.42881267693668,-0.0361862332783018,,,,,0.0548794941967905,,-0.986114018554563,0.235164606598808,,-0.96871957446178,,-1.08694065629685,-0.202193926124727,,,-0.373632968212207,-1.29503490130364,-0.109411497640476,,,1.18682164836081,-0.844922929404927,0.153086961733756,0.414916660492937,0.285712304323336,0.285712304327909,,,,,,,-0.770749527427059,0.107198872508413,0.107198872509365,-0.384653450493302,0.384653450493728,1.51690504424601,4.81280000000004,103,971.462621359223,596.016504854369,1257.98058252427,977.553398058252,965.371844660194,583.307766990291,608.725242718447,1295.3786407767,1220.58252427184,0
834.8672,0.133138076288116,0.013075977047616,0.100481221840899,2.00953247624285,0.658234485314144,0.65823448531649,,,-1.63710297857513,1.40675394221239,-1.4276783747304,1.40675394220827,-0.0288108949713458,,,,,0.0859046425480856,,-0.960011054930075,0.299132393192485,,-0.936466679843938,,-1.15358141545237,-0.222503859032259,,,-0.392498897357508,-1.34106075684923,-0.109931504241256,,,1.20990701325066,-0.854004064470983,0.161134355259749,0.349062387312922,0.285601063766821,0.28560106377147,,,,,,,-0.769570855775494,0.0936106066728931,0.0936106066738452,-0.356557554307832,0.356557554308278,1.56056853649309,4.91520000000003,102,1139.36470588235,590.90931372549,1240.23039215686,1145.87647058824,1132.85294117647,585.844117647059,595.974509803922,1295.82352941176,1184.63725490196,0
834.9696,0.11009365050671,-0.0103543558438477,0.0746293526392463,1.94344366009973,0.645165142710609,0.645165142712974,,,-1.62953363565762,1.38220598765804,-1.37240411555133,1.38220598765395,-0.0211580481353872,,,,,0.115810301657849,,-0.933944527246956,0.363118639993579,,-0.903044409418233,,-1.21926457276504,-0.24300621507142,,,-0.412635172169895,-1.38605758423135,-0.109513479703561,,,1.23113052145869,-0.864315897834291,0.167179380011012,0.283104667311159,0.28501180972175,0.285011809726462,,,,,,,-0.767867270613395,0.0794767535227451,0.0794767535236983,-0.32901381744423,0.329013817444689,1.60330465054422,5.01760000000002,103,1142,591.672815533981,1232.58737864078,1151.12815533981,1132.87184466019,588.08932038835,595.256310679612,1293.03883495146,1172.1359223301,0
835.072,0.0863199701084402,-0.035390016572997,0.047614123333624,1.87600264134643,0.629618089411048,0.629618089413431,,,-1.62060908209278,1.35519425410145,-1.31781441140215,1.35519425409739,-0.0132721893868183,,,,,0.144549377497664,,-0.907915114677973,0.426943878387065,,-0.868443490995793,,-1.2838738044187,-0.263681205309764,,,-0.433997381682502,-1.42987299714812,-0.108154891029987,,,1.25042903130795,-0.87582060295553,0.171208979284828,0.21713122751422,0.283881606867031,0.283881606871823,,,,,,,-0.765609970062609,0.0647909379142421,0.0647909379151965,-0.302131004259921,0.302131004260396,1.64496558695085,5.12000000000001,102,1143.37254901961,592.444607843137,1223.9068627451,1155.82352941176,1130.92156862745,590.669607843137,594.219607843137,1281.51960784314,1166.29411764706,0
835.1744,0.0618243259787907,-0.0620406866938063,0.0194368808084825,1.80726586672667,0.611593779050103,0.6115937790525,,,-1.61038468416414,1.32575308798955,-1.26400567847773,1.32575308798552,-0.00519784070212095,,,,,0.17207788042578,,-0.881921054715501,0.490428318840526,,-0.832658400096877,,-1.34729660553362,-0.284506053882257,,,-0.456535897390124,-1.47235897871362,-0.105856409860348,,,1.26774561918884,-0.888474288768423,0.173218131020599,0.151228402082807,0.282151268032246,0.28215126803711,,,,,,,-0.762772666149988,0.0495497331047518,0.0495497331057111,-0.2760157830496,0.276015783050089,1.68540731680231,5.22239999999999,102,1282.74754901961,578.026960784314,1208.62745098039,1297.10392156863,1268.39117647059,574.047058823529,582.006862745098,1268.08823529412,1149.16666666667,0
835.2768,0.0366172137961969,-0.0903077415802992,-0.00989541538801249,1.73729199831328,0.591103919930999,0.591103919933415,,,-1.59891816756163,1.29392556084654,-1.21107164602602,1.29392556084254,0.00302073740181703,,,,,0.198355058309903,,-0.855958417073263,0.553392829131421,,-0.795687831898145,,-1.40942434553235,-0.305455082508291,,,-0.480195998096376,-1.51337232536131,-0.102621943430815,,,1.28302961290914,-0.902227254916522,0.1732096925122,0.0854813188636549,0.279765705141872,0.279765705146808,,,,,,,-0.759331856844163,0.0337528151979316,0.0337528151988966,-0.250772137086331,0.250772137086828,1.72449034721364,5.32479999999998,103,1280.93609030655,574.279891640304,1213.5822861734,1299.95697247373,1261.91520813938,571.463666775754,577.096116504854,1270.08065161267,1157.08392073414,0
835.3792,0.0107124952712255,-0.120184011378233,-0.0403699821423791,1.66614220398699,0.568171505466803,0.568171505469257,,,-1.58626944927631,1.25976329582578,-1.15910296889445,1.25976329582181,0.0113397984346047,,,,,0.22334355615603,,-0.830021397173627,0.615659888703724,,-0.757535153794058,,-1.47015228945467,-0.326499794705869,,,-0.504917989804133,-1.55277504063458,-0.098458657175187,,,1.29623661202658,-0.917024261679524,0.171194226925567,0.0199740947000572,0.276674248460597,0.276674248465603,,,,,,,-0.755267067068532,0.0174031006794497,0.0174031006804196,-0.226500813928937,0.22650081392944,1.76208043083435,5.42719999999997,102,1221.93693724026,570.949438202247,1224.95355548715,1237.36685393258,1206.50702054795,564.898876404494,577,1270.45505617978,1179.45205479452,0.92156862745098
835.4816,-0.0158724498907554,-0.151653575778598,-0.0719680220288767,1.59388044155499,0.542830821656216,0.542830821658715,,,-1.57250047845595,1.22332631158069,-1.10818684739998,1.22332631157675,0.0197163273978201,,,,,0.247009604199363,,-0.804102624743518,0.677054522667786,,-0.718208836761345,,-1.52937958238628,-0.347608955646139,,,-0.530637326005568,-1.5904346622473,-0.0933769861081966,,,1.307328489664,-0.932804816464935,0.167189806919687,-0.0452099744234456,0.272830939478587,0.272830939483669,,,,,,,-0.750561054504707,0.000506861683137644,0.000506861684115003,-0.20329881859449,0.203298818595008,1.79804922189735,5.52959999999996,102,1161.4570888487,567.129213483146,1236.32264891488,1171.77359550562,1151.14058219178,557.258426966292,577,1270.83707865169,1201.80821917808,1
835.584,-0.0431165862571366,-0.184691604976619,-0.104664561202858,1.52057374025349,0.515127415231291,0.51512741523383,,,-1.55767508241246,1.1846828702569,-1.05840664872444,1.18468287025298,0.0281082313819679,,,,,0.269323242176315,,-0.778193481269455,0.737405216750565,,-0.677722858946232,,-1.58700919739187,-0.368748671612442,,,-0.557284741728446,-1.62622452499676,-0.0873906286283106,,,1.31627337249652,-0.949503485885577,0.161221787100395,-0.109988230626553,0.268194799381225,0.26819479938637,,,,,,,-0.74519998388751,-0.0169261896408357,-0.016926189639853,-0.1812589510443,0.181258951044827,1.83227488073334,5.63199999999995,103,1100.68077061208,563.290262172285,1247.74747319276,1105.85880149813,1095.50273972603,549.580524344569,577,1271.22097378277,1224.27397260274,1
835.6864,-0.0709951085666821,-0.219264263437456,-0.138428329303387,1.44629247756626,0.485118004919856,0.485118004922416,,,-1.54185881414766,1.14390930766683,-1.00984153285993,1.14390930766291,0.0364745089061558,,,,,0.290258589605696,,-0.752284419249787,0.796544807154321,,-0.636097074559114,,-1.64294786161817,-0.389882477130887,,,-0.584786413732018,-1.66002398611331,-0.0805165170087249,,,1.32304559851519,-0.967050240704407,0.153322540042244,-0.174278474973371,0.262730070335867,0.262730070341086,,,,,,,-0.739173574380382,-0.0348828567508187,-0.0348828567498331,-0.160469385147933,0.160469385148463,1.86464262371366,5.73440000000005,102,1039.90445237546,559.451310861423,1259.17229747063,1039.94400749064,1039.86489726027,541.902621722846,577,1271.60486891386,1246.7397260274,0.823529411764706
835.7888,-0.0994793631887184,-0.255328687761852,-0.173221694413834,1.37111063812803,0.452870330680139,0.452870330682732,,,-1.52511880477995,1.10108983112502,-0.962566092120567,1.10108983112113,0.0447753932241936,,,,,0.309794158185994,,-0.726365278202238,0.854311336855008,,-0.593357544848004,,-1.69710597958756,-0.410971436967814,,,-0.613064148734617,-1.69171864114904,-0.0727747660374323,,,1.32762565547766,-0.985370830755028,0.143531159675615,-0.237998792036133,0.256406427339517,0.256406427344793,,,,,,,-0.732475220750067,-0.0533464569102326,-0.0533464569092457,-0.141013285712547,0.141013285713076,1.89504521361137,5.83680000000004,103,983.447267203982,558.472990073088,1272.36201547839,982.895734700556,983.998799707408,541.346951019963,575.599029126214,1273.41202138104,1271.31200957574,0
835.8912,-0.128536814324782,-0.292833039928717,-0.209000660160127,1.29510603885913,0.418462946144396,0.418462946147014,,,-1.50752363057789,1.056316277157,-0.916650016543348,1.05631627715313,0.0529724624937385,,,,,0.32791318534988,,-0.700425592225723,0.910548867067668,,-0.549536829004072,,-1.74939756229626,-0.431974268089828,,,-0.642035593067764,-1.72120053803874,-0.0641886106442681,,,1.33000010821809,-1.00438717721877,0.131893145803672,-0.301067384865665,0.24919916511916,0.249199165124492,,,,,,,-0.725102086914315,-0.0722968558123688,-0.0722968558113784,-0.122968461523509,0.12296846152405,1.92338338920653,5.93920000000003,102,966.247058823529,589.612254901961,1262.33333333333,980.005882352941,952.488235294118,576.556862745098,602.667647058824,1272.79411764706,1251.87254901961,0
835.9936,-0.158131056665904,-0.331716629922737,-0.245714923777532,1.21836051159536,0.381984959959826,0.38198495996248,,,-1.48914319837647,1.00968782395957,-0.872157800676471,1.00968782395573,0.0610287196181771,,,,,0.344603962820919,,-0.674454882022825,0.965108226876532,,-0.504674230257895,,-1.79974015856481,-0.452847483805286,,,-0.671614456797675,-1.74836837771891,-0.0547843473205506,,,1.33016152413171,-1.02401776721637,0.118460085892288,-0.363402427586128,0.241089370056836,0.241089370062221,,,,,,,-0.717055170929932,-0.0917105290821541,-0.0917105290811638,-0.106407053847166,0.106407053847716,1.94956623848323,6.04160000000002,103,967.047572815534,599.039805825243,1260.60679611651,982.233009708738,951.86213592233,576.981553398058,621.098058252427,1289.8640776699,1231.34951456311,0
836.096,-0.1882218696236,-0.371910099222225,-0.283307988246038,1.14096004181256,0.343535730656465,0.343535730659146,,,-1.47004863970658,0.961310661213012,-0.829148503082556,0.961310661209193,0.0689086530881634,,,,,0.359860137517571,,-0.648442926493818,1.01784768509454,,-0.458815991825712,,-1.84805478160446,-0.473545558151163,,,-0.701710748468414,-1.77312768599771,-0.0445912898433501,,,1.32810839787928,-1.04417804015734,0.103289342058655,-0.424921937761169,0.23206408172585,0.232064081731292,,,,,,,-0.708339341599492,-0.111560642578085,-0.111560642577095,-0.0913952595132769,0.0913952595138278,1.97351152237447,6.14400000000001,102,966.936764705882,601.651960784314,1238.47549019608,979.052941176471,954.820588235294,576.924509803922,626.379411764706,1277.47058823529,1199.48039215686,0
836.1984,-0.218765307078498,-0.413335657510669,-0.321717321109303,1.06299486415077,0.303224520888426,0.303224520891123,,,-1.45031219755578,0.911297627130509,-0.78767555940711,0.911297627126723,0.0765782877005302,,,,,0.373680967418429,,-0.622380012688245,1.06863353736406,,-0.4120154400705,,-1.89426583051551,-0.494021106003661,,,-0.732231019312202,-1.79539095166756,-0.0336417416041514,,,1.3238450671659,-1.06478076270991,0.0864437403728561,-0.48554366711746,0.222116437615388,0.222116437620886,,,,,,,-0.698963348956386,-0.131817144888344,-0.131817144887358,-0.0779930857271984,0.0779930857277543,1.99514595499356,6.24639999999999,102,940.968137254902,590.154901960784,1159.06862745098,952.985294117647,928.950980392157,568.571568627451,611.738235294118,1197.36274509804,1120.77450980392,0
836.3008,-0.249713821162438,-0.45590737085735,-0.360874558214059,0.984559513412418,0.261170112360821,0.261170112363544,,,-1.43000709514465,0.859767816964623,-0.747786646259406,0.859767816960855,0.0840052266170608,,,,,0.386071521603684,,-0.596257161544298,1.11734060921813,,-0.364333072113584,,-1.9383010146386,-0.514225076975336,,,-0.763078618634433,-1.81507773823467,-0.0219709805499353,,,1.31738161187445,-1.08573639467015,0.0679912561168793,-0.545185011325189,0.21124579275454,0.21124579276008,,,,,,,-0.688939811479238,-0.152446868447524,-0.15244686844654,-0.0662541349946947,0.066254134995249,2.01440544257383,6.34879999999998,103,649.308252427185,593.720388349515,1050.66504854369,666.114563106796,632.501941747573,576.554368932039,610.88640776699,1067.87378640777,1033.45631067961,0
836.4032,-0.281016424995044,-0.499531509859088,-0.400705759284787,0.905752824720434,0.217500371785933,0.217500371788672,,,-1.40920738537606,0.806846155990216,-0.709523600102873,0.806846155986462,0.0911586828779424,,,,,0.397042822594877,,-0.570066323878534,1.1638526793698,,-0.315836580305997,,-1.98009128855727,-0.534106968135121,,,-0.794153965657379,-1.83211478010802,-0.00961724985013228,,,1.30873373690457,-1.1069534491415,0.0480046928671513,-0.603762944251436,0.199457813455351,0.199457813460939,,,,,,,-0.678285178115483,-0.173413644136705,-0.173413644135722,-0.0562254240442514,0.0562254240447988,2.03123527982051,6.45119999999997,102,640.938725490196,586.589705882353,956.303921568627,657.207843137255,624.669607843137,567.329411764706,605.85,953.303921568627,959.303921568627,0
836.5056,-0.312618900617523,-0.544106970973405,-0.441131725087897,0.826677870098806,0.17235175291186,0.172351752914624,,,-1.38798778314369,0.752662930557074,-0.672922400177184,0.75266293055334,0.0980095009191716,,,,,0.406611934601137,,-0.543800543027925,1.20806283070868,,-0.26660080145899,,-2.01957080295981,-0.553615064778427,,,-0.825354845934933,-1.84643607208477,0.00337825296319438,,,1.297922648427,-1.12833885059762,0.0265613589551324,-0.661193985757073,0.186764548477588,0.18676454848322,,,,,,,-0.667019657906031,-0.194678441855005,-0.194678441854026,-0.0479472418555896,0.0479472418561309,2.04559030374015,6.55359999999996,102,640.134803921569,587.804901960784,894.28431372549,659.062745098039,621.206862745098,567.276470588235,608.333333333333,885.254901960784,903.313725490196,0
836.608,-0.344464052833822,-0.589525776777991,-0.482068378985595,0.74744181529878,0.125868725676477,0.125868725679259,,,-1.3664234795187,0.697353280894644,-0.638013219008081,0.697353280890928,0.104530173317901,,,,,0.414801994752444,,-0.517454084964276,1.24987374004709,,-0.216707576953064,,-2.05667688114553,-0.572696714619161,,,-0.856576740788316,-1.85798296228045,0.0169713934387622,,,1.28497494057032,-1.14979829670593,0.00374274780117493,-0.717394213647512,0.173184476320657,0.173184476326339,,,,,,,-0.655167112080541,-0.21619954737342,-0.216199547372446,-0.0414530447231363,0.0414530447236746,2.05743501165027,6.65599999999995,103,981.04854368932,530.055825242719,815.796116504854,995.905825242719,966.191262135922,514.327184466019,545.784466019418,817.04854368932,814.543689320388,0
836.7104,-0.376492005407184,-0.635673652141797,-0.523427209133239,0.668155681442167,0.0782031313101933,0.0782031313129902,,,-1.34458993309388,0.64105666444131,-0.604820534879452,0.641056664437612,0.11069485889556,,,,,0.421642173743111,,-0.491022538139525,1.28919791818105,,-0.166245509967881,,-2.09135003833797,-0.591298634607307,,,-0.887713197078508,-1.86670426074256,0.0311151273188465,,,1.26992250854059,-1.17123663363428,-0.0203657746641395,-0.77227933037053,0.158742518134117,0.158742518139826,,,,,,,-0.642754909484257,-0.237932779147473,-0.237932779146506,-0.0367693800967822,0.0367693800973077,2.06674365479753,6.75840000000005,102,1011.26568627451,524.059803921569,766.088235294118,1027.36568627451,995.16568627451,508.150980392157,539.96862745098,779.647058823529,752.529411764706,0
836.8128,-0.408640536418133,-0.682430672491458,-0.565115767509749,0.588934000858161,0.0295134656702878,0.0295134656730849,,,-1.32256263512878,0.583916297624604,-0.573363294190754,0.583916297620916,0.116479402763815,,,,,0.427167554065542,,-0.464502885163972,1.32595790762118,,-0.115309611666448,,-2.1235340598026,-0.609367247350914,,,-0.918656241694481,-1.87255636934306,0.0457595422626825,,,1.25280248945628,-1.19255825672525,-0.0456752828895351,-0.825764792989655,0.143469997921203,0.143469997926937,,,,,,,-0.629813748353083,-0.259831745453548,-0.259831745452588,-0.0339158348506605,0.0339158348511807,2.07350031262948,6.86080000000004,103,1009.54902912621,534.985922330097,739.140776699029,1024.87087378641,994.227184466019,510.944660194175,559.02718446602,754.796116504854,723.485436893204,0
836.9152,-0.440845445574866,-0.72967197554529,-0.607038217175038,0.509894372641788,-0.0200359009004301,-0.0200359008976378,,,-1.30041685116298,0.526078583516602,-0.543655111044048,0.526078583512941,0.121861353917659,,,,,0.431418925242769,,-0.437893550516989,1.36008643625462,,-0.0640008445847478,,-2.15317613634734,-0.626849041418947,,,-0.949296836259992,-1.875503420861,0.0608519212832535,,,1.23365721156602,-1.21366754306181,-0.0720936213826084,-0.877766003447911,0.127404533725818,0.127404533731567,,,,,,,-0.616377448345923,-0.281848135979202,-0.281848135978256,-0.0329050150341633,0.0329050150346822,2.07769893599777,6.96320000000003,102,1008.10784313726,538.898529411765,727.210784313726,1020.00098039216,996.214705882353,516.899019607843,560.898039215686,740.254901960784,714.166666666667,0
837.0176,-0.473040937604523,-0.777268514098673,-0.649095907439813,0.431156949295492,-0.070275549415516,-0.0702755494127303,,,-1.27822734654099,0.467692530565904,-0.515704497199058,0.467692530562262,0.126819978696379,,,,,0.434442503368731,,-0.411194430749369,1.39152651387743,,-0.0124255915540268,,-2.18022702917268,-0.643690943571425,,,-0.979525356204388,-1.87551739768215,0.076336832464447,,,1.21253412232772,-1.23446930938248,-0.0995257649662036,-0.928198534914362,0.110589857073797,0.110589857079566,,,,,,,-0.602482720351504,-0.303932032216461,-0.303932032215529,-0.0337425731756322,0.0337425731761562,2.07934333572869,7.06560000000002,103,1007.11941747573,538.617475728155,727.941747572816,1015.81067961165,998.428155339806,523.706796116505,553.528155339806,738.631067961165,717.252427184466,0
837.12,-0.505160006399909,-0.825087823517853,-0.691187955454452,0.352843897947228,-0.121031863632117,-0.121031863629333,,,-1.25606810500361,0.408909163546749,-0.489515117794453,0.408909163543131,0.131336272617756,,,,,0.436289584423164,,-0.384406912239142,1.42023145384865,,0.0393049168839765,,-2.20464122434067,-0.659840688839163,,,-1.0092320763285,-1.87257819878393,0.092156245453746,,,1.18948567172301,-1.25486927951774,-0.127874213343064,-0.976978360278455,0.0930755698236047,0.093075569829379,,,,,,,-0.588168922071493,-0.326032219352522,-0.326032219351602,-0.0364272973501655,0.036427297350685,2.07844709827271,7.16800000000001,102,928.74362745098,556.19705882353,748.377450980392,938.361764705882,919.125490196078,549.711764705882,562.682352941176,754.21568627451,742.539215686275,0
837.2224,-0.537134815882157,-0.872994790600807,-0.733211825994634,0.275078865768226,-0.172127893613787,-0.172127893611004,,,-1.23401205213498,0.349880929406973,-0.465086061677089,0.349880929403369,0.135392970219714,,,,,0.43701613901101,,-0.357533878607605,1.4461648097761,,0.0910751999987239,,-2.22637705115777,-0.675247180806245,,,-1.03830765432529,-1.86667363855425,0.108249674511923,,,1.1645691403311,-1.27477454835348,-0.157039417502974,-1.02402206281266,0.0749168480305924,0.0749168480363866,,,,,,,-0.573477802558708,-0.348096488273053,-0.348096488272144,-0.0409512647592519,0.0409512647597624,2.07503342397245,7.2704,102,711.794117647059,623.659803921569,792.024509803922,722.13431372549,701.453921568627,616.756862745098,630.562745098039,785.225490196079,798.823529411765,0
837.3248,-0.568897081374282,-0.920852423118414,-0.77506391188439,0.197986457152174,-0.223384225214334,-0.223384225211552,,,-1.21213079733731,0.29076110610081,-0.442412111431003,0.29076110609722,0.138974548273354,,,,,0.436682355408014,,-0.330579708587204,1.46930023007263,,0.142766152152667,,-2.24539675940945,-0.689860842117874,,,-1.06664361378654,-1.85779937723801,0.124554348587234,,,1.13784641416586,-1.2940940374958,-0.186920233404071,-1.06924702810845,0.0561740979419907,0.0561740979478003,,,,,,,-0.558453236641597,-0.370071921175583,-0.370071921174686,-0.0473000528577322,0.0473000528582317,2.06913489013166,7.37279999999998,103,559.396601941748,676.926213592233,836.364077669903,571.426213592233,547.366990291262,675.033009708738,678.819417475728,815.058252427185,857.669902912621,0
837.4272,-0.600378454502852,-0.968522621691504,-0.816640117876985,0.121691718430756,-0.274619853386402,-0.274619853383614,,,-1.19049440412689,0.231703221422309,-0.42148400494823,0.231703221418729,0.142067219199847,,,,,0.435352144451059,,-0.303550263642445,1.48962123929367,,0.194255704181989,,-2.26166655794745,-0.70363395827641,,,-1.09413283213208,-1.8459587872149,0.141005407791299,,,1.10938371683785,-1.312738942027,-0.217414395961656,-1.11257162271735,0.0369125657274711,0.0369125657332837,,,,,,,-0.543140953098313,-0.391905158946546,-0.391905158945659,-0.0554530020341326,0.0554530020346182,2.06079313756686,7.47519999999997,102,559.10637254902,684.136764705882,868.637254901961,573.662745098039,544.55,675.198039215686,693.075490196079,846.411764705882,890.862745098039,0
837.5296,-0.631510911936001,-1.01586695395277,-0.857836448193742,0.0463196269123264,-0.32565306017907,-0.325653060176294,,,-1.1691711928498,0.172860482706763,-0.402288688791604,0.172860482703197,0.144658914350634,,,,,0.433092626957423,,-0.276452860868971,1.50712095080209,,0.245419523600467,,-2.27515661146051,-0.716521017770934,,,-1.12067003766897,-1.83116275149825,0.157536124190888,,,1.07925131028572,-1.33062316767608,-0.248419005908797,-1.15391536198944,0.0172018992781643,0.0172018992839731,,,,,,,-0.527588263587874,-0.413542652840008,-0.413542652839128,-0.0653835314343323,0.0653835314348079,2.05005847414432,7.57759999999996,102,560.518137254902,679.599019607843,867.745098039216,573.537254901961,547.499019607843,670.603921568628,688.594117647059,851.754901960784,883.735294117647,0
837.632,-0.662227147297943,-1.06274743122833,-0.898549597342563,-0.0280054116263689,-0.376302300663162,-0.376302300660409,,,-1.14822757747771,0.114385214928869,-0.384809563534201,0.114385214925322,0.146739257854156,,,,,0.429973621401061,,-0.249296222727452,1.52180170675293,,0.296131751367415,,-2.28584098189463,-0.728479049207703,,,-1.14615231643031,-1.81342937825087,0.174078144637992,,,1.04752316981022,-1.34766375709496,-0.279831025073375,-1.1931990671084,-0.00288433944124274,-0.00288433943544704,,,,,,,-0.511843799534754,-0.434930902303904,-0.434930902303035,-0.0770595126683284,0.0770595126687983,2.03698939060687,7.67999999999995,103,532.58640776699,690.696116504854,837.509708737864,545.358252427185,519.814563106796,676.161165048544,705.231067961165,828.466019417476,846.553398058252,0
837.7344,-0.692460966112041,-1.10902729148758,-0.938677545608546,-0.101160049578294,-0.426387105254155,-0.42638710525143,,,-1.12772793460311,0.056428301063814,-0.369026715516189,0.0564283010602903,0.148299533998954,,,,,0.426067139535156,,-0.222090394469926,1.53367463603905,,0.346265774404402,,-2.29369749467055,-0.739467952686298,,,-1.1704796287761,-1.79278360711797,0.190561753883439,,,1.01427663528134,-1.36378130635609,-0.311547779681153,-1.2303450124653,-0.0232692078615195,-0.0232692078557364,,,,,,,-0.495957261130342,-0.456016677130924,-0.456016677130062,-0.0904437030566375,0.0904437030571053,2.02165198983184,7.78240000000005,102,371.445588235294,777.302941176471,809.235294117647,385.819607843137,357.071568627451,767.1,787.505882352941,803.019607843137,815.450980392157,0
837.8368,-0.722147684637652,-1.15457179562132,-0.978120162657388,-0.173022465324312,-0.475729013516512,-0.475729013513803,,,-1.10773449560211,-0.000861388134525361,-0.354917128826051,-0.000861388138028447,0.149332654224468,,,,,0.421446888312686,,-0.194846624310426,1.54275912383963,,0.395695036519885,,-2.2987075171687,-0.749450822434839,,,-1.19355534005549,-1.76925669171974,0.206916157452587,,,0.979592041305115,-1.37890037840674,-0.343467474601222,-1.26527706691282,-0.0438729542756364,-0.0438729542698613,,,,,,,-0.479979178562371,-0.476747221821765,-0.476747221820917,-0.105494236260496,0.105494236260965,2.00411933354371,7.88480000000004,103,372.163106796117,768.420873786408,784.742718446602,384.576699029126,359.749514563107,755.166990291262,781.674757281553,779.427184466019,790.058252427185,0
837.9392,-0.751224531589508,-1.19924903935574,-1.01677981945038,-0.243472813886279,-0.524152549905749,-0.524152549903069,,,-1.08830724887562,-0.0573375883045302,-0.342454878537642,-0.0573375883080313,0.149833130428708,,,,,0.416187773943716,,-0.16757721177469,1.54908220064336,,0.444293883597452,,-2.30085566029305,-0.758394259984845,,,-1.21528676901616,-1.74288557248995,0.223069785103458,,,0.943552332714361,-1.39294992079644,-0.375489719633257,-1.29792083431065,-0.0646136183982336,-0.0646136183924702,,,,,,,-0.463960684019959,-0.497070444960614,-0.497070444959782,-0.122165160590016,0.122165160590477,1.98447071759597,7.98720000000003,102,391.042497276688,756.512928921569,772.008986928105,385.690196078431,396.394798474946,750.235294117647,762.79056372549,772.166666666667,771.851307189542,0
838.0416,-0.779631046145173,-1.24293077002591,-1.05456199944586,-0.312393661573062,-0.571486233424235,-0.571486233421595,,,-1.06950384282646,-0.112857262337868,-0.331611312537756,-0.112857262341354,0.149797058792881,,,,,0.410365411035399,,-0.140295344527057,1.55267787659004,,0.491938416839283,,-2.30012943941229,-0.76626867806452,,,-1.23558574545989,-1.71371218811454,0.238950614543001,,,0.906242676806463,-1.40586368431339,-0.407516058437453,-1.32820380080691,-0.0854076510272276,-0.0854076510214932,,,,,,,-0.44795329396202,-0.516935103375372,-0.516935103374552,-0.140406999831267,0.140406999831715,1.96279090205847,8.08960000000002,103,453.308369291622,970.910800970874,597.382955771305,394.181553398058,512.435185185185,1217.44660194175,724.375,450.543689320388,744.222222222222,0.145631067961165
838.144,-0.807309461650832,-1.28549318844855,-1.09137589361299,-0.379670406686413,-0.617563598011721,-0.617563598009116,,,-1.05137948819661,-0.16728123759529,-0.322355228163691,-0.167281237598762,0.149222115183602,,,,,0.404055647402067,,-0.113014950693382,1.55358645041243,,0.538507309788228,,-2.29651894148698,-0.773048595478839,,,-1.25436915767294,-1.68178278750555,0.254486511888397,,,0.867750088800056,-1.41758062599928,-0.439450478502366,-1.35605549865966,-0.106170543250934,-0.106170543245224,,,,,,,-0.432008699325726,-0.536290994518623,-0.53629099451782,-0.160167296384052,0.16016729638449,1.93916932862778,8.19200000000001,102,617.847090595497,718.132781862745,726.148420479303,620.010784313726,615.683396877269,725.072549019608,711.193014705882,758.862745098039,693.434095860567,0
838.2464,-0.834205065767135,-1.32681771894148,-1.12713496585837,-0.445191696227688,-0.662224200151806,-0.662224200149228,,,-1.03398686411102,-0.220474843598896,-0.314653043960262,-0.220474843602363,0.148107561845395,,,,,0.397334113614603,,-0.0857505820926641,1.55185380791357,,0.583882555011615,,-2.29001653727257,-0.778712923254176,,,-1.27155947343361,-1.64714729133165,0.269605583977984,,,0.828163088341042,-1.42804527668518,-0.471199877410233,-1.38140769840254,-0.126817458090259,-0.126817458084564,,,,,,,-0.416178554521442,-0.555089167087214,-0.555089167086424,-0.181391095528114,0.181391095528539,1.91369934839492,8.2944,102,632.655392156863,726.627941176471,729.161764705882,634.219607843137,631.091176470588,724.036274509804,729.219607843137,757.833333333333,700.490196078431,0
838.3488,-0.860266531575542,-1.36679173760237,-1.16175748099336,-0.508849855596868,-0.70531459693511,-0.70531459693256,,,-1.01737603160774,-0.272308537349304,-0.308468963025764,-0.272308537352764,0.146454264319966,,,,,0.390275800166705,,-0.0585173274299344,1.54753071728653,,0.627950136487286,,-2.28061666105109,-0.783245240088089,,,-1.28708522932568,-1.60985872757543,0.284236538221574,,,0.787571400123654,-1.43720806021794,-0.502674468456747,-1.40419464154473,-0.147263856376256,-0.147263856370599,,,,,,,-0.40051425238291,-0.573282150520439,-0.573282150519665,-0.204021348807761,0.20402134880817,1.88647747584047,8.39679999999999,103,642.758252427185,730.452912621359,774.563106796117,646.873786407767,638.642718446602,719.740776699029,741.165048543689,792.126213592233,757,0
838.4512,-0.885446216012353,-1.40530925114791,-1.19516698956595,-0.570541342805799,-0.746689280887411,-0.746689280884888,,,-1.00159435272502,-0.322658507850842,-0.303765127236585,-0.322658507854307,0.144264715571092,,,,,0.382954661041248,,-0.0313307513523041,1.54067214053135,,0.670600642035378,,-2.26831566765454,-0.786634050758987,,,-1.30088148868953,-1.56997274883479,0.29830904531544,,,0.746065701176489,-1.44502556212898,-0.533788122495033,-1.42435332034949,-0.167426105779137,-0.16742610577352,,,,,,,-0.385066678375103,-0.59082419392527,-0.590824193924505,-0.227999241610886,0.227999241611273,1.8576026877747,8.49919999999997,102,651.033823529412,726.675980392157,808.754901960784,656.360784313726,645.706862745098,717.61568627451,735.736274509804,819.303921568628,798.205882352941,0
838.5536,-0.909700422054002,-1.44227151664097,-1.22729276313262,-0.630167218994693,-0.786211555887168,-0.78621155588467,,,-0.986686407877129,-0.371407251169235,-0.300501766741978,-0.37140725117271,0.141543062798567,,,,,0.375443238782584,,-0.0042068597515987,1.53133658746247,,0.711729823500086,,-2.25311176624889,-0.788873016818086,,,-1.31289026617595,-1.52754723173762,0.311754099036419,,,0.703737403961971,-1.45146075333456,-0.564458656582367,-1.44182379554195,-0.187222064521197,-0.18722206451563,,,,,,,-0.369885947930895,-0.607671500120516,-0.607671500119758,-0.2532644647697,0.253264464770071,1.8271757834568,8.60159999999996,102,855.171078431373,704.847058823529,803.622549019608,857.802941176471,852.539215686275,699.683333333333,710.010784313726,818.196078431373,789.049019607843,0
838.656,-0.932989621698471,-1.47758759209795,-1.25807017385596,-0.687633605892459,-0.823754338655981,-0.823754338653506,,,-0.972693904249286,-0.418444106461382,-0.29863734858161,-0.418444106464867,0.138295133875313,,,,,0.367812303155019,,0.02283791059562,1.51958552530232,,0.751239095718413,,-2.23500501470055,-0.789961146920823,,,-1.32306091264237,-1.48264194848821,0.324504367741227,,,0.660678456140066,-1.45648317599699,-0.594608086213015,-1.45654952629095,-0.206571636671371,-0.206571636665841,,,,,,,-0.355021138692783,-0.623782443208431,-0.623782443207675,-0.279755450717567,0.279755450717912,1.79529880646041,8.70399999999995,103,1178.13300970874,670.293203883495,786.970873786408,1185.89514563107,1170.37087378641,669.353398058252,671.233009708738,827.514563106796,746.427184466019,0
838.7584,-0.955278636676651,-1.51117481046785,-1.28744101323339,-0.742852096789199,-0.859200877060536,-0.859200877058083,,,-0.959655572913201,-0.463665746292164,-0.298128722501622,-0.463665746295662,0.134528464725259,,,,,0.360130500316443,,0.0497866881146698,1.50548284372935,,0.789035958512433,,-2.21399734941518,-0.789902935993029,,,-1.33135045354657,-1.43531829159226,0.336494533910738,,,0.616981142225068,-1.46006909465308,-0.624162852433427,-1.46847768776048,-0.225397297494592,-0.225397297489106,,,,,,,-0.340520031882575,-0.639117764165334,-0.63911776416458,-0.307409591005781,0.3074095910061,1.76207451330152,8.80640000000005,102,1186.9637254902,661.611764705882,798.985294117647,1195.17352941176,1178.75392156863,654.920588235294,668.302941176471,849.196078431373,748.774509803922,0
838.8608,-0.9765367722811,-1.54295917057273,-1.315353744095,-0.795740104086766,-0.892445380895441,-0.892445380892986,,,-0.947607057116714,-0.506976613027105,-0.298931257180895,-0.506976613030615,0.130252331712474,,,,,0.352464019447108,,0.0766221587744382,1.48909437832824,,0.825034337128338,,-2.1900926396757,-0.788708446067865,,,-1.33772387522317,-1.38563904216055,0.347661619565706,,,0.57273788324933,-1.4622016096296,-0.653054024193661,-1.47755947029695,-0.243624586810733,-0.24362458680527,,,,,,,-0.326428872808212,-0.653640743130115,-0.653640743129362,-0.336163443103597,0.336163443103896,1.72760587571154,8.90880000000004,103,1192.8640776699,656.801941747573,821.616504854369,1201.04466019417,1184.68349514563,653.554368932039,660.049514563107,871.009708737864,772.223300970874,0
838.9632,-0.996737902170186,-1.57287563912785,-1.34176368198698,-0.846221147781839,-0.923393556903512,-0.923393556901064,,,-0.936580797656391,-0.548289285509126,-0.3009989599883,-0.548289285512637,0.125477787668455,,,,,0.344876282891244,,0.10332655412256,1.47048750126898,,0.859154855829037,,-2.16329677689004,-0.786393326597082,,,-1.34215435315774,-1.33366819142442,0.357945296878562,,,0.528041035157792,-1.46287072647208,-0.681217471161708,-1.48375036982692,-0.261182569325185,-0.261182569319746,,,,,,,-0.312792153097602,-0.667317349848221,-0.667317349847471,-0.365952921986601,0.365952921986879,1.69199561982168,9.01120000000003,102,1402.31176470588,713.538725490196,845.544117647059,1413.4931372549,1391.13039215686,724.747058823529,702.330392156863,895.754901960784,795.333333333333,0
839.0656,-1.01586051002049,-1.60086836309792,-1.36663310984546,-0.894225098173457,-0.951963038385598,-0.951963038383158,,,-0.926605926720945,-0.587524763838009,-0.304284575977887,-0.58752476384152,0.120217688694333,,,,,0.337427653675295,,0.129881625396744,1.44973078303129,,0.891325067200681,,-2.13361781004568,-0.78297877929554,,,-1.34462341774889,-1.27947082814614,0.367288184594393,,,0.482982684819011,-1.46207337795439,-0.708594005324647,-1.48701047788842,-0.278004261339827,-0.27800426133439,,,,,,,-0.299652413552139,-0.680116376368248,-0.680116376367502,-0.396713467732706,0.396713467732972,1.65534581579844,9.11360000000002,103,1480.37912621359,723.317961165049,875.597087378641,1494.77087378641,1465.98737864078,734.297087378641,712.338834951456,926.854368932039,824.339805825243,0
839.168,-1.03388769844663,-1.62689079826732,-1.38993133576437,-0.939688380879892,-0.978083707033663,-0.978083707031234,,,-0.917708184472848,-0.624612677518598,-0.308739662299599,-0.62461267752211,0.114486694255591,,,,,0.330175151172206,,0.156268594472003,1.42689371675763,,0.921479651145635,,-2.10106612258093,-0.778491476278528,,,-1.34512105807232,-1.2231130908247,0.375636130702048,,,0.437654441947069,-1.4598134008124,-0.735129493911563,-1.48730476966309,-0.294027022437725,-0.294027022432303,,,,,,,-0.287050068700253,-0.692009556407278,-0.692009556406534,-0.428380184542591,0.428380184542851,1.61775753006321,9.21600000000001,102,1536.45931372549,722.344607843137,905.642156862745,1552.52058823529,1520.39803921569,732.91862745098,711.770588235294,955.882352941176,855.401960784314,0
839.2704,-1.0508071714624,-1.65090576242348,-1.4116347017031,-0.982554145810143,-1.00169791295864,-1.00169791295623,,,-0.909909866433185,-0.659491431279514,-0.314314634289907,-0.659491431283026,0.108301231914363,,,,,0.323172177643856,,0.182468075534192,1.40204648803383,,0.949560585912154,,-2.06565463499097,-0.772963436882471,,,-1.34364576824492,-1.16466217172666,0.382938481631376,,,0.392147227059018,-1.45610147244893,-0.760774947178175,-1.48460338303314,-0.309192913834534,-0.309192913829127,,,,,,,-0.275023256546625,-0.702971673858094,-0.702971673857352,-0.460887950886369,0.460887950886621,1.57933054719994,9.3184,102,1248.375,722.777941176471,948.240196078431,1258.63039215686,1238.11960784314,731.586274509804,713.969607843137,993.509803921569,902.970588235294,0
839.3728,-1.06661119176473,-1.6728854229227,-1.43172654795517,-1.02277240203252,-1.02276060426321,-1.02276060426082,,,-0.903229799652113,-0.692108297049868,-0.320958783288399,-0.692108297053375,0.101679430230719,,,,,0.316468267392421,,0.208459965262492,1.37525977341221,,0.975517288103695,,-2.02739901799136,-0.766431864715951,,,-1.34020454190089,-1.1041863554741,0.389148339621916,,,0.346551055422595,-1.45095501430835,-0.785486585699029,-1.47888188443519,-0.323449030312793,-0.323449030307399,,,,,,,-0.263607713964464,-0.712980661590574,-0.712980661589831,-0.494171505550006,0.494171505550244,1.54016315937459,9.42079999999999,103,1175.16796116505,722.020388349515,907.733009708738,1187.44854368932,1162.88737864078,724.291262135922,719.749514563107,945.73786407767,869.728155339806,0
839.4752,-1.08129651518664,-1.69281123067995,-1.45019713986938,-1.06030011982705,-1.04123938046932,-1.04123938046696,,,-0.897683339254785,-0.722419457737477,-0.32862027083596,-0.722419457740989,0.0946410283880653,,,,,0.310108866132693,,0.234223307063504,1.34660455841657,,0.999306716194379,,-1.9863179050004,-0.75893894560408,,,-1.3348128210658,-1.04175507472869,0.394222809922405,,,0.300954813948916,-1.44439806957131,-0.809225894328914,-1.47012152004503,-0.33674780999876,-0.336747809993387,,,,,,,-0.252836672917901,-0.722017690352863,-0.722017690352121,-0.528165519982848,0.528165519983068,1.50035200977895,9.52319999999997,102,1031.44803921569,709.802450980392,824.049019607843,1039.54607843137,1023.35,708.886274509804,710.718627450981,858.352941176471,789.745098039216,0
839.5776,-1.09486430617806,-1.71067381106811,-1.46704356377499,-1.09510129532115,-1.05711448327418,-1.05711448327184,,,-0.893282374989996,-0.750390014917635,-0.337246106627986,-0.750390014921155,0.0872072724010842,,,,,0.304135143342945,,0.259736144541151,1.31615197529508,,1.0208934299636,,-1.94243309617567,-0.750531606981797,,,-1.32749440682914,-0.977438969902534,0.398123235992438,,,0.255446031175555,-1.43646115949002,-0.831959665721666,-1.45830944961067,-0.349047316608773,-0.349047316603408,,,,,,,-0.242740771365429,-0.730067243544401,-0.730067243543655,-0.562804667295553,0.562804667295761,1.45999197143402,9.62559999999996,102,816.766666666667,697.033333333333,754.524509803922,825.104901960784,808.428431372549,694.893137254902,699.173529411765,775.372549019608,733.676470588235,0
839.68,-1.10732003472639,-1.72647281666701,-1.48226959438004,-1.12714697529112,-1.0703787331507,-1.07037873314839,,,-0.890035339872187,-0.775993973649567,-0.346782120697873,-0.775993973653113,0.0794008081147276,,,,,0.298583843916,,0.28497538572559,1.28397317079847,,1.0402496019548,,-1.89576975478677,-0.741261241811067,,,-1.31828133774923,-0.911309950730174,0.400815417607777,,,0.21011065459437,-1.42718111554246,-0.85366002262677,-1.44343896403077,-0.36031148374494,-0.360311483739604,,,,,,,-0.233347973920757,-0.737117169044357,-0.737117169043612,-0.598023691687251,0.59802369168744,1.41917604521662,9.72799999999995,103,813.368446601942,695.554368932039,693.155339805825,819.948543689321,806.788349514563,694.547572815534,696.561165048544,713.203883495146,673.106796116505,0
839.7824,-1.11867335318483,-1.74021674425505,-1.4958855335033,-1.15641525638156,-1.08103741226964,-1.08103741226736,,,-0.887947220151174,-0.799214205134486,-0.357172941981448,-0.799214205138052,0.0712455729162604,,,,,0.293487186871262,,0.309916696259664,1.25013922068839,,1.05735498853274,,-1.84635661189441,-0.731183406016472,,,-1.30721373752187,-0.843441272136766,0.402269807933221,,,0.165032856236938,-1.41660088279959,-0.874304402827053,-1.42550969821172,-0.370510315468517,-0.370510315463182,,,,,,,-0.224683496420649,-0.743158700950081,-0.743158700949339,-0.633757474637628,0.633757474637805,1.37799526931984,9.83040000000005,102,938.329901960784,675.372549019608,637.387254901961,945.430392156863,931.229411764706,675.914705882353,674.830392156863,663.166666666667,611.607843137255,0
839.8848,-1.12893795595727,-1.75192272034856,-1.50790802397002,-1.18289128550775,-1.08910808616541,-1.08910808616314,,,-0.887019572210049,-0.820042375823789,-0.368361989428042,-0.820042375827375,0.0627666733074432,,,,,0.288872809600993,,0.334534424479206,1.21472110372775,,1.072196876109,,-1.79422620428651,-0.720357501171119,,,-1.29433962853281,-0.773907644844209,0.402461689595779,,,0.120294869393237,-1.40476929646613,-0.893875506286747,-1.40452785387765,-0.379620047212829,-0.379620047207496,,,,,,,-0.216769726028034,-0.748186454981412,-0.748186454980668,-0.669941092452721,0.669941092452883,1.3365386417607,9.93280000000004,103,974.550970873786,664.896601941748,590.23786407767,982.080582524272,967.021359223301,673.144660194175,656.64854368932,625.194174757282,555.281553398058,0
839.9872,-1.13813142946185,-1.76161625938707,-1.51835984561982,-1.20656728117791,-1.09462035258316,-1.09462035258091,,,-0.887250552167938,-0.838478833592233,-0.380291470301396,-0.838478833595848,0.0539902300995705,,,,,0.284763744208728,,0.358801546469192,1.17778973656552,,1.08477001383137,,-1.739415162725,-0.708846449146461,,,-1.27971470471242,-0.70278539456376,0.401371331264631,,,0.075976833380112,-1.39174083781699,-0.912361223106185,-1.38050643775559,-0.387623276849484,-0.387623276844154,,,,,,,-0.209626129590257,-0.752198411978911,-0.752198411978162,-0.706509863542718,0.706509863542863,1.29489306060117,10.0352,102,975.021078431373,666.703921568628,559,982.901960784314,967.140196078431,678.444117647059,654.963725490196,596.009803921569,521.990196078431,0
840.0896,-1.1462750989464,-1.76933099437015,-1.5272696980518,-1.22744257616628,-1.0976155081731,-1.09761550817088,,,-0.888634962687307,-0.854532449097917,-0.392902373359141,-0.854532449101555,0.0449431819255379,,,,,0.281178408124908,,0.382689618969641,1.13941606074194,,1.09507653121673,,-1.68196454730636,-0.69671635729077,,,-1.263402057074,-0.63015266562545,0.398984123512564,,,0.0321566158942923,-1.37757537158488,-0.929754562581661,-1.35346550818945,-0.394509072030299,-0.394509072024967,,,,,,,-0.20326914952645,-0.755195902585439,-0.755195902584683,-0.743399387956822,0.743399387956953,1.25314328078726,10.1376,103,974.717475728155,665.889805825243,532.626213592233,982.411650485437,967.023300970874,682.727184466019,649.052427184466,571.572815533981,493.679611650485,0
840.192,-1.15339387548021,-1.77510837757455,-1.53467197153769,-1.2455236635906,-1.09814613282796,-1.09814613282576,,,-0.891164323559225,-0.868220411256579,-0.406134446267552,-0.868220411260227,0.0356530507612032,,,,,0.278130595523887,,0.406168736946245,1.09967116470665,,1.10312582487982,,-1.62192020507126,-0.684036168629078,,,-1.24547184843879,-0.556089644731337,0.395290690173118,,,-0.0110904058523183,-1.36233786175062,-0.946053592922307,-1.32343241555506,-0.400273051534002,-0.400273051528668,,,,,,,-0.19771209310117,-0.757183596890314,-0.757183596889551,-0.78054558654024,0.780545586540354,1.21137187635275,10.24,102,973.597549019608,662.882843137255,508.710784313726,981.15,966.045098039216,684.919607843137,640.846078431373,549.450980392157,467.970588235294,0
840.2944,-1.15951610427489,-1.77899735145433,-1.54060650696897,-1.26082421928612,-1.09627560085958,-1.09627560085742,,,-0.894826971709899,-0.879567974445463,-0.419926152907272,-0.879567974449127,0.0261476815504425,,,,,0.275629465604393,,0.42920749916047,1.0586264188906,,1.10893439333487,,-1.55933311303706,-0.670877292206859,,,-1.22600093731519,-0.48067876872184,0.390286972358885,,,-0.0536916078161709,-1.34609806098895,-0.961261389963367,-1.29044202156743,-0.404917431178505,-0.404917431173151,,,,,,,-0.192965022125813,-0.758169497092456,-0.758169497091681,-0.81788475246409,0.817884752464186,1.1696591915592,10.3424,102,710.307843137255,641.91568627451,500.759803921569,714.364705882353,706.250980392157,654.974509803922,628.856862745098,534.990196078431,466.529411764706,0
840.3968,-1.16467341391763,-1.78105399148879,-1.5451183452448,-1.27336507482994,-1.09207752726224,-1.09207752726009,,,-0.899608187765404,-0.888608158937548,-0.434214612297088,-0.888608158941216,0.0164549713532727,,,,,0.273679534140979,,0.451772987667153,1.01635360593687,,1.1125256102442,,-1.49425967374784,-0.657313208983023,,,-1.20507245127266,-0.404004885319327,0.383974284952572,,,-0.09557741564909,-1.32893016658958,-0.975385983743302,-1.25453688607512,-0.408451023044719,-0.408451023039367,,,,,,,-0.189034647552064,-0.758164930980873,-0.75816493098009,-0.855353626802879,0.855353626802964,1.12808327250464,10.4448,103,517.900485436893,628.267475728155,492.71359223301,529.157281553398,506.643689320388,643.341747572816,613.193203883495,510.194174757282,475.233009708738,0
840.4992,-1.1689005649899,-1.78134112204271,-1.54825746543428,-1.28317412379961,-1.08563515134103,-1.08563515133892,,,-0.905490339250857,-0.895381410963491,-0.448935523406874,-0.895381410967169,0.00660260228404479,,,,,0.272280680073836,,0.473830764065844,0.972925036764027,,1.11392944258892,,-1.42676194374691,-0.643419049522048,,,-1.18277530842598,-0.326155353639019,0.376359347812585,,,-0.136681617910233,-1.31091243402471,-0.988440286223906,-1.21576741165071,-0.410889185783908,-0.410889185778566,,,,,,,-0.185924232855043,-0.757184545487035,-0.757184545486243,-0.892889502000477,0.892889502000556,1.08671978526916,10.5472,102,518.18794288431,622.586622539788,488.478069264429,529.713031738119,506.662854030501,646.071992356265,599.101252723312,498.135468594217,478.820669934641,0
840.6016,-1.17223529707769,-1.77992790799109,-1.55007851210148,-1.29028615939938,-1.07704066267635,-1.07704066267427,,,-0.91245303435737,-0.899935228986912,-0.464023079145242,-0.899935228990591,-0.00338221619376019,,,,,0.271428176013211,,0.495344879544633,0.928413649311492,,1.11318212648156,,-1.35690778713832,-0.62927114697826,,,-1.15920368651887,-0.247220085004491,0.367454294841414,,,-0.176941677069448,-1.29212674448064,-1.00044198590491,-1.17419194053675,-0.412253738263445,-0.41225373825811,,,,,,,-0.183633512990035,-0.755246300045983,-0.755246300045183,-0.930430351348166,0.930430351348231,1.04564192951389,10.6496,102,525.21216650973,611.157940991839,490.662488229755,533.694703389831,516.72962962963,654.683474576271,567.632407407407,487.540254237288,493.784722222222,0.343137254901961
840.704,-1.1747181716422,-1.7768894259601,-1.5506405115219,-1.29474266209841,-1.06639448040775,-1.0663944804057,,,-0.920473287147047,-0.902323761087219,-0.479409872716837,-0.902323761090908,-0.0134730021257834,,,,,0.271112746624966,,0.516277901197014,0.882893092308023,,1.11032581385911,,-1.28477095533762,-0.614946575937397,,,-1.13445644384463,-0.167291526431001,0.357276661224597,,,-0.216299019696276,-1.27265813092302,-1.01141340095192,-1.12987680939429,-0.412572852082963,-0.412572852077613,,,,,,,-0.182158636146311,-0.752371455710408,-0.7523714557096,-0.967914980838968,0.967914980839015,1.00492034605915,10.752,103,529.627318852504,624.395189512369,461.584108112556,538.640398222807,520.614239482201,661.073226921178,587.71715210356,468.190060885305,454.978155339806,0
840.8064,-1.17639240234052,-1.77230621318662,-1.55000656997475,-1.29659156548561,-1.0538044922505,-1.05380449224849,,,-0.929525691908446,-0.902607377957737,-0.495026803109128,-0.902607377961423,-0.023644263280985,,,,,0.271320659395486,,0.536590972390394,0.836437801651819,,1.10540820440008,,-1.21043110237068,-0.60052268329755,,,-1.10863649961574,-0.0864645879260726,0.345849344103815,,,-0.254699286621527,-1.25259426960209,-1.02138128369079,-1.08289637503011,-0.411880927226713,-0.411880927221357,,,,,,,-0.181492129254395,-0.748584549196912,-0.748584549196095,-1.00528319852922,1.00528319852925,0.964623009783406,10.8544000000001,102,881.405882352941,590.054411764706,443.740196078431,881.787254901961,881.024509803922,606.23137254902,573.877450980392,466.509803921569,420.970588235294,0
840.9088,-1.17730366271814,-1.76626378622455,-1.54824354379409,-1.29588701919441,-1.03938524931175,-1.03938524930979,,,-0.939582596869217,-0.900852224409909,-0.510802988640702,-0.900852224413597,-0.0338717721992939,,,,,0.272033851663196,,0.556243929399612,0.78912307731437,,1.09848217270212,,-1.13397374752407,-0.586076608279651,,,-1.08185017865191,-0.00483651486580513,0.333200529895454,,,-0.292092530861981,-1.23202494017634,-1.03037657109276,-1.03333302134606,-0.410218445800705,-0.410218445795358,,,,,,,-0.181622880023818,-0.743913340180333,-0.743913340179505,-1.04247599900238,1.04247599900238,0.924815098638972,10.9568,103,1305.54757281553,531.123300970874,479.111650485437,1313.38155339806,1297.71359223301,546.78640776699,515.460194174757,521.485436893204,436.73786407767,0
841.0112,-1.17749986892198,-1.75885212636159,-1.5454216782433,-1.29268915399694,-1.02325711207226,-1.02325711207034,,,-0.950614269348765,-0.897129750495918,-0.526665693424214,-0.897129750499605,-0.044132854873729,,,,,0.27323008824857,,0.575195482685555,0.741025161053859,,1.08960538884901,,-1.05549019170003,-0.571684788370745,,,-1.054206521117,0.0774932954013702,0.319363585190361,,,-0.328433372278024,-1.21104145570076,-1.03843408766844,-0.981277150506526,-0.407631802827456,-0.407631802822101,,,,,,,-0.182536125868039,-0.738388728445252,-0.73838872844441,-1.07943576605597,1.07943576605595,0.885558830944916,11.0592,102,1308.56617647059,524.348529411765,500.769607843137,1318.70882352941,1298.42352941176,548.749019607843,499.948039215686,553.343137254902,448.196078431373,0
841.1136,-1.17703094447248,-1.75016514017562,-1.54161422361733,-1.28706384955179,-1.00554535470299,-1.0055453547011,,,-0.962589052917333,-0.89151622654734,-0.542540267870389,-0.891516226551033,-0.0544066893600585,,,,,0.27488313530676,,0.593403451183361,0.692221304711617,,1.07883992350078,,-0.975077392157459,-0.557422456166626,,,-1.02581656157647,0.16042352963667,0.304376915823755,,,-0.363681135387293,-1.18973606921681,-1.04559222179174,-0.926827156200555,-0.404173120273798,-0.404173120268446,,,,,,,-0.184213443998869,-0.732044647034033,-0.732044647033174,-1.11610649461882,1.11610649461877,0.846913273446315,11.1616,103,1337.70145631068,523.786893203884,487.640776699029,1348.64563106796,1326.7572815534,545.647572815534,501.926213592233,543.932038834951,431.349514563107,0
841.216,-1.17594857730563,-1.74030011090337,-1.53689704214247,-1.27908250773703,-0.986379248304418,-0.986379248302574,,,-0.975473520126929,-0.884092252087116,-0.558350109763774,-0.884092252090817,-0.0646746035625622,,,,,0.276962939085834,,0.610825024163471,0.642789819065775,,1.06625183736193,,-0.892837810888422,-0.543363140280489,,,-0.996792592344336,0.243851226494154,0.288283804428264,,,-0.397799989381227,-1.16820137273023,-1.05189259814153,-0.870089375344088,-0.399900046893198,-0.399900046887855,,,,,,,-0.186632741136783,-0.724917942132516,-0.724917942131641,-1.15243402172859,1.15243402172852,0.808934140793326,11.264,102,1506.38676470588,524.813235294118,464.906862745098,1518.15882352941,1494.61470588235,541.220588235294,508.405882352941,523.303921568627,406.509803921569,0
841.3184,-1.17430597560664,-1.72935715285237,-1.53134821522778,-1.26882183607147,-0.965891147632651,-0.965891147630851,,,-0.989232620661231,-0.8749422700517,-0.574016660708329,-0.8749422700554,-0.0749203559409874,,,,,0.2794358067545,,0.627417023984796,0.592810106286883,,1.05191076945607,,-0.808879261480234,-0.529578185835965,,,-0.967247433281458,0.327672040665992,0.271132235312583,,,-0.430759086137013,-1.14652970740282,-1.05737975663148,-0.811178016225736,-0.394875536643737,-0.394875536638398,,,,,,,-0.189768243359441,-0.717048249967798,-0.717048249966906,-1.18836624926488,1.18836624926479,0.771673614701359,11.3664,102,1507.16862745098,523.047549019608,453.936274509804,1520.78235294118,1493.55490196078,544.703921568628,501.391176470588,514.980392156863,392.892156862745,0
841.4208,-1.17215762328423,-1.71743867121188,-1.52504765261727,-1.25636364128601,-0.944215598384543,-0.944215598382794,,,-1.00382982321116,-0.864154094951099,-0.589459450145317,-0.864154094954805,-0.0851303854527739,,,,,0.282264591040776,,0.643136153499372,0.542362686722936,,1.03588953978944,,-0.723314772601227,-0.516136305845822,,,-0.937293726286796,0.411780476707949,0.2529747088324,,,-0.462532678298107,-1.1248125986693,-1.06210083616997,-0.750215061504301,-0.389167595697835,-0.389167595692511,,,,,,,-0.19359049014087,-0.708477875842182,-0.708477875841273,-1.22385334513694,1.22385334513684,0.735180200579425,11.4688,103,1507.7,520.849029126214,444.5,1521.7145631068,1493.6854368932,543.990291262136,497.707766990291,505.359223300971,383.640776699029,0
841.5232,-1.16955903453888,-1.70464882407577,-1.5180767017779,-1.24179462489247,-0.921488470679805,-0.921488470678113,,,-1.01922725391151,-0.851818458027055,-0.604596186210028,-0.851818458030771,-0.0952940273191889,,,,,0.285408883961441,,0.657939224935967,0.49152922297406,,1.01826376850175,,-0.636262468604584,-0.503103168685217,,,-0.90704326146547,0.496070089932844,0.23386804214936,,,-0.493100205736746,-1.10314022328204,-1.06610526083456,-0.687330141548945,-0.382848994153978,-0.382848994148654,,,,,,,-0.198066341437374,-0.699251673054065,-0.699251673053138,-1.25884791859189,1.25884791859178,0.699498621938956,11.5712,102,851.968137254902,616.848529411765,448.799019607843,855.735294117647,848.200980392157,632.356862745098,601.340196078431,501.156862745098,396.441176470588,0
841.6256,-1.16656650978259,-1.69109298661169,-1.51051775911234,-1.22520616621702,-0.89784611946644,-0.897846119464801,,,-1.03538583854585,-0.838028565607534,-0.619342883552214,-0.838028565611256,-0.105403698432847,,,,,0.288825229846632,,0.671783374412579,0.440392532580099,,0.999111501306021,,-0.547845450774929,-0.490541023464279,,,-0.876606334084657,0.580433673055111,0.213873152413817,,,-0.522446353998016,-1.08160091144928,-1.06944443287421,-0.622660370380249,-0.375996945302297,-0.375996945296982,,,,,,,-0.203159008507025,-0.689416914812719,-0.689416914811773,-1.29330517141333,1.2933051714132,0.664669741262735,11.6736,102,437.888725490196,685.567647058824,451.367647058824,458.930392156863,416.847058823529,701.905882352941,669.229411764706,470.578431372549,432.156862745098,0
841.728,-1.16323689616211,-1.67687722277095,-1.5024538874792,-1.20669407582816,-0.87342457667074,-0.873424576669158,,,-1.05226545263273,-0.822879667281541,-0.633614021593618,-0.822879667285273,-0.115455051739507,,,,,0.292467366269042,,0.684626267786713,0.389036577004774,,0.97851282965168,,-0.458191652956401,-0.478508363564885,,,-0.846091132752473,0.664763454060007,0.193054819735919,,,-0.550561092418512,-1.06028068545406,-1.07217143826364,-0.55635013328688,-0.368692755119232,-0.368692755113915,,,,,,,-0.20882811716549,-0.679023153273035,-0.679023153272077,-1.32718302676571,1.32718302676557,0.630730496296097,11.776,103,434.283009708738,678.119902912621,456.635922330097,456.660194174757,411.905825242719,701.397087378641,654.842718446602,463.776699029126,449.495145631068,0
841.8304,-1.15962735273949,-1.66210777049267,-1.4939684424386,-1.18635830623724,-0.848358784264383,-0.848358784262847,,,-1.06982507478284,-0.806468640929584,-0.64732273746962,-0.806468640933324,-0.125447090195612,,,,,0.296286491732954,,0.696426303240181,0.337546419685476,,0.95654950028161,,-0.367433650656265,-0.467059626696831,,,-0.815603164125865,0.74895131796769,0.171481427853069,,,-0.577439685633907,-1.03926283437802,-1.07434076065498,-0.488550812929591,-0.361021437746969,-0.361021437741659,,,,,,,-0.215029809187147,-0.668122064237965,-0.668122064236985,-1.36044223332959,1.36044223332944,0.597713848903556,11.8784000000001,102,435.530392156863,682.63431372549,469.877450980392,459.427450980392,411.633333333333,704.032352941177,661.236274509804,475.529411764706,464.225490196079,0
841.9328,-1.15579511755006,-1.64689054272342,-1.48514470616209,-1.16430261870884,-0.822781875034625,-0.822781875033141,,,-1.08802293341623,-0.788893608497989,-0.66038106547474,-0.788893608501738,-0.135382230152102,,,,,0.300231551587781,,0.707142814972145,0.286008154668623,,0.933304515875865,,-0.275708420612279,-0.456244929048414,,,-0.785244719962338,0.832889042761611,0.14922468042104,,,-0.603082659284177,-1.01862752219768,-1.07600798994869,-0.419420443916086,-0.353071288367288,-0.353071288361998,,,,,,,-0.221716886057904,-0.656767278711444,-0.656767278710443,-1.39304644037143,1.39304644037127,0.565648750176732,11.9808,103,438.103883495146,686.133495145631,483.73786407767,461.588349514563,414.619417475728,708.967961165049,663.299029126214,490.980582524272,476.495145631068,0
842.0352,-1.15179727529432,-1.63133064405093,-1.47606552803659,-1.1406342155533,-0.796824501676342,-0.796824501674912,,,-1.1068166387605,-0.770253591095558,-0.67270023480702,-0.770253591099318,-0.145266309870618,,,,,0.304249534806849,,0.716736279707116,0.234508812118741,,0.908861732626579,,-0.183157058492861,-0.446109832865873,,,-0.75511438795864,0.916468529630082,0.126359291676063,,,-0.627495706447938,-0.9984514231754,-1.07722951294627,-0.349123293205269,-0.344933408039134,-0.344933408033864,,,,,,,-0.228838997701345,-0.645014202601697,-0.645014202600675,-1.42496224246631,1.42496224246614,0.534560127133054,12.0832,102,440.779411764706,688.48431372549,506.387254901961,465.99705882353,415.561764705882,714.588235294118,662.380392156863,515.264705882353,497.509803921569,0
842.1376,-1.14769052755637,-1.61553190192957,-1.46681297290792,-1.11546334666213,-0.770614209826484,-0.77061420982509,,,-1.12616329764791,-0.750648201586283,-0.684191034195396,-0.750648201590053,-0.155108543505908,,,,,0.308285778469324,,0.725168524182238,0.183136242782316,,0.883305461620891,,-0.0899244571412966,-0.436695149116943,,,-0.725306602308386,0.999582017314103,0.102962650964711,,,-0.650689535433257,-0.978807375651556,-1.07806218034255,-0.277829368510051,-0.336701180189572,-0.336701180184333,,,,,,,-0.236342873545028,-0.632919825606912,-0.632919825605871,-1.45615919732589,1.45615919732571,0.504468895408492,12.1856,103,553.88786407767,670.799514563107,535.043689320388,577.561165048544,530.214563106796,692.038834951456,649.560194174757,545.932038834951,524.155339805825,0
842.24,-1.14353096717497,-1.59959640975325,-1.45746797703046,-1.08890289276858,-0.744274849358973,-0.744274849357626,,,-1.14601961493027,-0.730177365490743,-0.694764248210059,-0.730177365494517,-0.164921423342135,,,,,0.312284274985657,,0.73240292976743,0.131978975525766,,0.856720080485679,,0.0038410600799263,-0.428036778077286,,,-0.695911227915932,1.08212228574788,0.0791144614326865,,,-0.672679667196208,-0.959764049046092,-1.07856295160463,-0.205713857250012,-0.328469703644174,-0.328469703638981,,,,,,,-0.244172587546279,-0.620542519451718,-0.620542519450658,-1.48660982294826,1.48660982294808,0.475392000086217,12.288,102,707.196568627451,646.511274509804,558.063725490196,732.356862745098,682.036274509804,657.619607843137,635.402941176471,578.450980392157,537.676470588235,0
842.3424,-1.13937385556189,-1.58362407780082,-1.44811000927196,-1.06106792502343,-0.717926020218107,-0.717926020216788,,,-1.16634198974063,-0.708941059090916,-0.704331159972012,-0.708941059094699,-0.174720576138419,,,,,0.316187972066791,,0.738404630321588,0.0811260401942766,,0.829189660490482,,0.0979881565958937,-0.420165589928201,,,-0.667013176217217,1.16398286215501,0.0548963551281563,,,-0.693486194743865,-0.941385628759684,-1.07878852862949,-0.13295649805209,-0.320335194336764,-0.320335194331605,,,,,,,-0.252269849128307,-0.607941825237007,-0.607941825235933,-1.51628957947307,1.51628957947289,0.44734248394297,12.3904,102,708.439215686274,646.854901960784,579.671568627451,734.540196078431,682.338235294118,659.560784313725,634.149019607843,604.254901960784,555.088235294118,0
842.4448,-1.1352734022188,-1.56771219069863,-1.438816736496,-1.03207524166915,-0.691682551352635,-0.69168255135134,,,-1.1870866170071,-0.687039055633863,-0.712804097367333,-0.687039055637656,-0.184524583769944,,,,,0.319939058683896,,0.743140699465737,0.0306667536839938,,0.800797612148397,,0.192362950402631,-0.413107346132662,,,-0.638692057426103,1.24505824072448,0.0303914881102975,,,-0.713133519572431,-0.923731529844127,-1.07879499500153,-0.059740888741193,-0.312394373309709,-0.312394373304593,,,,,,,-0.260574315926057,-0.595178230078565,-0.595178230077475,-1.54517683616898,1.54517683616881,0.420329579767131,12.4928,103,653.763106796117,610.881553398058,592.966019417476,679.329126213592,628.197087378641,623.361165048544,598.401941747573,615.349514563107,570.582524271845,0
842.5472,-1.13128255082095,-1.55195497520793,-1.42966369776933,-1.002042885401,-0.665654012966491,-0.665654012965212,,,-1.20820960706446,-0.664570672860181,-0.720096987700638,-0.664570672863981,-0.194354781872582,,,,,0.323479239747752,,0.746580323302379,-0.0193095271850841,,0.771626351098863,,0.28680952523524,-0.406882665209188,,,-0.611021878212221,1.32524411852769,0.00568411779484944,,,-0.731650073403659,-0.906856149067392,-1.07863747260718,0.0137462616359859,-0.304743857180868,-0.304743857175792,,,,,,,-0.269023925481529,-0.582312931187604,-0.5823129311865,-1.57325281909913,1.57325281909897,0.394358821907178,12.5952,102,615.627941176471,592.212745098039,592.867647058824,641.189215686275,590.066666666667,604.099019607843,580.326470588235,608.029411764706,577.705882352941,0
842.6496,-1.12745277981952,-1.5364431837554,-1.42072399524883,-0.971089646015994,-0.639944261646759,-0.639944261645487,,,-1.22966713759716,-0.641634516567217,-0.726125890604628,-0.641634516571033,-0.204235050583134,,,,,0.326750006929345,,0.748694955664225,-0.0687136827899276,,0.741756985591063,,0.381170478167854,-0.401507042562121,,,-0.584070791451498,1.40443764507652,-0.0191408384054002,,,-0.749068018749756,-0.890808660392168,-1.07836979505658,0.0873159288300437,-0.297479559000973,-0.297479558995941,,,,,,,-0.277555242960908,-0.569407581961341,-0.569407581960223,-1.60050153613711,1.60050153613695,0.369432172547178,12.6976,102,606.667156862745,606.208823529412,573.946078431373,631.199019607843,582.135294117647,621.294117647059,591.123529411765,587.245098039216,560.647058823529,0
842.752,-1.12383392324737,-1.52126369541244,-1.41206800649706,-0.939334550903259,-0.614651013583292,-0.614651013582019,,,-1.25141565024228,-0.618328218329467,-0.730809494529679,-0.618328218333291,-0.214191609211125,,,,,0.329692912924005,,0.749458455306673,-0.117457138683711,,0.711269025336406,,0.475287504015482,-0.396990935131301,,,-0.557900898161397,1.48253768654411,-0.0439982665533337,,,-0.765422913227945,-0.875632853760985,-1.07804418849318,0.160777612642585,-0.290696100033895,-0.290696100028915,,,,,,,-0.286103823803702,-0.556524014773726,-0.556524014772593,-1.62690968136219,1.62690968136205,0.345548158738192,12.8,103,553.274757281553,745.884466019418,559.407766990291,575.731067961165,530.818446601942,761.770873786408,729.998058252427,574.300970873786,544.514563106796,0
842.8544,-1.12047401185301,-1.50649913257343,-1.4037631176163,-0.906896344706551,-0.589865439493675,-0.589865439492395,,,-1.27341210075388,-0.594748171874901,-0.73406957377858,-0.594748171878737,-0.224252823775683,,,,,0.332249856734918,,0.748847206304584,-0.165452208141574,,0.680240109829338,,0.569002021378689,-0.39333991576913,,,-0.532568098931426,1.55944511220409,-0.0688033440946595,,,-0.780753327696836,-0.861367014941104,-1.0777109520891,0.233940216457994,-0.284486234834965,-0.284486234830043,,,,,,,-0.294604590885073,-0.543723939432664,-0.543723939431518,-1.65246652429975,1.65246652429963,0.322702015559672,12.9024000000001,102,539.660784313726,726.951470588235,543.200980392157,560.985294117647,518.336274509804,742.022549019608,711.880392156863,557.843137254902,528.558823529412,0
842.9568,-1.11741912881402,-1.49222749085863,-1.39587347209913,-0.873892962032353,-0.565671781410928,-0.565671781409636,,,-1.29561426585209,-0.570989275314274,-0.735831406955135,-0.570989275318118,-0.234449032995828,,,,,0.334363387156016,,0.746840222789487,-0.212612474612143,,0.648745753845213,,0.662155841068666,-0.390554894293948,,,-0.508121994516996,1.63506311194992,-0.0934720488771686,,,-0.79510042265132,-0.848043847063856,-1.07741814141378,0.306612961954946,-0.278940299524244,-0.278940299519374,,,,,,,-0.30299222215302,-0.531068619876938,-0.531068619875783,-1.67716378995141,1.67716378995129,0.30088583036782,13.0048,103,471.847572815534,583.591262135922,530.912621359223,494.698058252427,448.997087378641,603.836893203884,563.345631067961,538.980582524272,522.844660194175,0
843.0592,-1.11471326911693,-1.47852178000739,-1.38845972669484,-0.840441004363378,-0.54214700161296,-0.542147001611653,,,-1.3179810977137,-0.547144679967935,-0.736024159309936,-0.547144679971786,-0.244812392215814,,,,,0.335977025779006,,0.743419237472664,-0.258853217363937,,0.616859110791947,,0.7545918647636,-0.38863239345424,,,-0.484605836809705,1.70929754490404,-0.117921678183942,,,-0.808507501798868,-0.835690437395403,-1.07721126884208,0.378606324554146,-0.274145697221957,-0.274145697217145,,,,,,,-0.31120154061781,-0.518618532474051,-0.518618532472886,-1.70099553416075,1.70099553416065,0.280088683785054,13.1072,102,471.285784313726,587.847058823529,525.328431372549,496.085294117647,446.486274509804,604.727450980392,570.966666666667,527.578431372549,523.078431372549,0
843.1616,-1.11239818963206,-1.46544967607468,-1.38157880513594,-0.80665524323975,-0.51936048113945,-0.519360481138121,,,-1.3404731008555,-0.523305538024405,-0.734581232981498,-0.523305538028278,-0.255376725521349,,,,,0.337035599346603,,0.738568772584323,-0.304091874567789,,0.584650762923233,,0.84615478365427,-0.387564858416305,,,-0.462056530324269,1.78205730177333,-0.142071360271555,,,-0.821019569622233,-0.824328271336169,-1.07713303899204,0.449732958859665,-0.270186433344312,-0.270186433339564,,,,,,,-0.319167898445235,-0.506433010682445,-0.506433010681269,-1.72395801503632,1.72395801503623,0.260296785301082,13.2096,103,735.811165048544,539.032038834951,510.310679611651,756.249514563107,715.372815533981,551.406796116505,526.657281553398,519.21359223301,501.407766990291,0
843.264,-1.11051324047851,-1.45307319008326,-1.37528364505555,-0.772648176698646,-0.497373784602018,-0.497373784600675,,,-1.36305269554386,-0.499560739252443,-0.731440588349427,-0.499560739256337,-0.266177369297327,,,,,0.337485563303708,,0.732276193712035,-0.348248530506965,,0.552188554752081,,0.936691737077051,-0.387340972894433,,,-0.44050468190081,1.85325465171956,-0.165842539227125,,,-0.832682918302707,-0.813973290694791,-1.07722313288193,0.519808573379936,-0.267142707637041,-0.26714270763236,,,,,,,-0.326827548976617,-0.494569885968366,-0.494569885967175,-1.74604955761425,1.74604955761417,0.241493604907122,13.312,102,821.847549019608,526.161764705882,500.053921568628,843.609803921569,800.085294117647,535.991176470588,516.332352941177,522.068627450981,478.039215686275,0
843.3664,-1.10909517707749,-1.44144836151469,-1.36962294101532,-0.738529655021397,-0.476240497133403,-0.476240497132033,,,-1.38568453306812,-0.475996630645473,-0.726545037631336,-0.475996630649384,-0.277250989974944,,,,,0.337275303217092,,0.724531750325413,-0.391246413433505,,0.519537482139772,,1.02605290248489,-0.387945959068467,,,-0.419974691197166,1.92280555030601,-0.189159419879344,,,-0.843544758458883,-0.804635985908744,-1.07751804264581,0.588652723711666,-0.26509055832484,-0.26509055832023,,,,,,,-0.334118003008144,-0.483085141241092,-0.483085141239892,-1.76727040957454,1.76727040957447,0.223660003652906,13.4144,102,820.684803921569,523.965196078431,491.137254901961,841.838235294118,799.53137254902,535.926470588235,512.003921568627,516.676470588235,465.598039215686,0
843.4688,-1.10817796162624,-1.43062498541229,-1.36464089339811,-0.704406570756931,-0.456006126869644,-0.456006126868246,,,-1.40833573917925,-0.45269671920619,-0.71984251177009,-0.452696719210115,-0.288635362420104,,,,,0.336355415301556,,0.715328609787659,-0.433012385588004,,0.486759635138084,,1.11409201315443,-0.389361850246238,,,-0.400484869514794,1.99062990064972,-0.211949370452461,,,-0.853652892433718,-0.796321505468061,-1.07805094447916,0.656089518031577,-0.264101540338739,-0.264101540334191,,,,,,,-0.340978369543544,-0.472032594036564,-0.472032594035354,-1.78762258762369,1.78762258762363,0.206774364768796,13.5168,103,826.517961165049,518.122815533981,491.014563106796,846.207766990291,806.828155339806,532.145631067961,504.1,513.223300970874,468.805825242719,0
843.5712,-1.10779256628754,-1.42064638000832,-1.3603769747245,-0.670382593309262,-0.436708063147441,-0.436708063146008,,,-1.43097607905025,-0.429741362724562,-0.711286302744348,-0.429741362728496,-0.300369101381975,,,,,0.334678980036509,,0.704662892574331,-0.473477394735472,,0.453914178694402,,1.20066681902727,-0.391567737921582,,,-0.38204757613198,2.05665177022855,-0.234143289100593,,,-0.863055416135112,-0.789029766468751,-1.07885159006018,0.721948250820022,-0.264242413672667,-0.264242413668175,,,,,,,-0.347349683143139,-0.461463618521024,-0.461463618519806,-1.8071097126179,1.80710971261784,0.190812727929493,13.6192,102,1113.67843137255,470.442156862745,496.877450980392,1128.25980392157,1099.09705882353,483.962745098039,456.921568627451,522.333333333333,471.421568627451,0
843.6736,-1.10796678720917,-1.41154919651571,-1.35686572056982,-0.636557929203243,-0.418375582728396,-0.418375582726923,,,-1.45357805500973,-0.407207451159146,-0.700835282987958,-0.407207451163088,-0.312491347324017,,,,,0.332201844146589,,0.692533713280601,-0.512576861388372,,0.421057349981927,,1.28563951109851,-0.394540001400177,,,-0.364669367639134,2.12079957017383,-0.255675942683017,,,-0.871800428428115,-0.782755555921916,-1.07994619627856,0.786063988739482,-0.265574822880605,-0.265574822876166,,,,,,,-0.353175215124041,-0.451426904098567,-0.45142690409734,-1.8257368299662,1.82573682996615,0.175748933432261,13.7216,102,1126.18039215686,476.037254901961,520.401960784314,1144.77745098039,1107.58333333333,488.519607843137,463.554901960784,548.470588235294,492.333333333333,0
843.776,-1.10872507347808,-1.4033632666504,-1.35413654624619,-0.603029100209007,-0.401029896279886,-0.401029896278374,,,-1.47611695636574,-0.385168079380542,-0.688454101971874,-0.385168079384501,-0.325041415689765,,,,,0.328882913659625,,0.678943229205582,-0.550251002996112,,0.388242455263596,,1.3688771258988,-0.398252526009704,,,-0.348351159868589,2.18300620752209,-0.276486283864254,,,-0.879935726394603,-0.777488616988936,-1.08135731581334,0.848278126231102,-0.268154958294227,-0.268154958289848,,,,,,,-0.358400759751784,-0.441968243447699,-0.441968243446467,-1.84351021283043,1.84351021283039,0.161554784855591,13.824,103,1127.44514563107,476.604368932039,547.912621359223,1147.27087378641,1107.61941747573,488.844660194175,464.364077669903,573.68932038835,522.135922330097,0
843.8784,-1.11008837337588,-1.39611148485895,-1.35221358973389,-0.569888741865591,-0.384684229537663,-0.38468422953611,,,-1.49857087484867,-0.36369222201526,-0.674113359494173,-0.36369222201924,-0.338058420585719,,,,,0.324684444915456,,0.663896701213891,-0.586445110511424,,0.355519860956868,,1.45025193850835,-0.402676912487426,,,-0.333088403666888,2.24320922068979,-0.296517747896821,,,-0.887508475831849,-0.773213719817867,-1.08310368174871,0.908438915295642,-0.272033200970847,-0.272033200966514,,,,,,,-0.362974890994042,-0.433130345296848,-0.433130345295609,-1.8604371459079,1.86043714590787,0.14820023325389,13.9264000000001,102,1128.8387254902,474.869117647059,556.387254901961,1145.37450980392,1112.30294117647,490.049019607843,459.689215686275,582.186274509804,530.588235294118,0
843.9808,-1.11207400189762,-1.38980973137183,-1.35111558614262,-0.537225429360611,-0.369343940689275,-0.369343940687691,,,-1.52092068779761,-0.342844434181906,-0.65778975786456,-0.342844434185897,-0.351580882473076,,,,,0.319572320078093,,0.647402573766869,-0.621109779780075,,0.322936987277667,,1.52964184262674,-0.407782682666509,,,-0.318871275600081,2.30135090201262,-0.315718525072473,,,-0.894564867660487,-0.769910724726015,-1.08520003818019,0.966401964012111,-0.277253767475652,-0.277253767471357,,,,,,,-0.366849197646976,-0.424952671781538,-0.424952671780291,-1.87652569019145,1.87652569019143,0.13565357573508,14.0288,103,1128.63640776699,475.586893203884,534.291262135922,1142.24757281553,1115.02524271845,488.681553398058,462.492233009709,563.485436893204,505.097087378641,0
844.0832,-1.11469553284775,-1.38446684575187,-1.35085577993841,-0.505123536540021,-0.355006679110805,-0.355006679109182,,,-1.5431500023302,-0.322684600278265,-0.63946623920845,-0.322684600282279,-0.365646327259824,,,,,0.313516308798214,,0.629472574117076,-0.654201094210131,,0.290538317554614,,1.60693071068173,-0.413537487792647,,,-0.305684879849575,2.35737840688089,-0.334041802245439,,,-0.901149785732695,-0.767554648194913,-1.08765697982535,1.02203069712534,-0.283854377442777,-0.283854377438523,,,,,,,-0.369978508918905,-0.417471302107863,-0.41747130210661,-1.89178443732102,1.89178443732101,0.12388165684638,14.1312,102,1128.0137254902,472.997549019608,516.602941176471,1138.79607843137,1117.23137254902,491.005882352941,454.989215686275,549.460784313726,483.745098039216,0
844.1856,-1.1179627139095,-1.38008465166197,-1.35144187407805,-0.47366312735327,-0.341662586655026,-0.34166258665337,,,-1.56524505185749,-0.303267736688296,-0.619132113519947,-0.303267736692329,-0.380290881155692,,,,,0.306490322649514,,0.610121818041145,-0.685680769671428,,0.258365428306926,,1.68200873234897,-0.419907317826434,,,-0.29350945089251,2.41124385380571,-0.351445969469547,,,-0.90730650847399,-0.766115735769179,-1.09048081736327,1.07519677894196,-0.291865957609999,-0.291865957605786,,,,,,,-0.372321116403866,-0.410718821689823,-0.410718821688568,-1.90622226681863,1.90622226681862,0.112850070294196,14.2336,103,1074.70339805825,540.117961165049,404.126213592233,1034.05825242718,1115.34854368932,459.069902912621,621.166019417476,518.223300970874,290.029126213592,0
844.288,-1.12188140020158,-1.37665802410624,-1.352876009346,-0.442919872245356,-0.329294538307172,-0.329294538305497,,,-1.58719454182864,-0.284643838072775,-0.596783176354006,-0.284643838076828,-0.395548863532586,,,,,0.298472654097091,,0.589368903820219,-0.715516276601732,,0.226457038055537,,1.75477273763771,-0.426856701636187,,,-0.282320547041437,2.46290442286176,-0.367894792102793,,,-0.913076453175149,-0.765559539419188,-1.09367347228499,1.12578050592379,-0.301312382857667,-0.301312382853507,,,,,,,-0.373838993272653,-0.404724232324091,-0.404724232322839,-1.91984811404612,1.91984811404611,0.102523372091909,14.336,102,995.280882352941,446.570098039216,463.588235294118,1006.62843137255,983.933333333333,468.755882352941,424.38431372549,500.019607843137,427.156862745098,0
844.3904,-1.12645350481357,-1.37417499238627,-1.35515477011328,-0.412964983962886,-0.317878419949875,-0.317878419948157,,,-1.60898944820656,-0.266857751351081,-0.572421808362042,-0.266857751355164,-0.41145237818249,,,,,0.289446181558066,,0.567235986931747,-0.743680938125891,,0.194849077921972,,1.82512650461994,-0.434348890333093,,,-0.272089234849236,2.51232244864045,-0.383357548715795,,,-0.918498957692797,-0.765846998211942,-1.09723239720974,1.17367117292173,-0.312210253159448,-0.312210253155318,,,,,,,-0.374498010738972,-0.399512879495676,-0.399512879494427,-1.93267074843127,1.93267074843126,0.0928653157039751,14.4384,102,997.23431372549,455.943137254902,471.475490196078,1008.55784313725,985.910784313725,472.328431372549,439.557843137255,510.235294117647,432.71568627451,0
844.4928,-1.13167696786803,-1.37261687850194,-1.35826921751775,-0.383865175385634,-0.307383443896595,-0.30738344389484,,,-1.63062277520275,-0.24994906515845,-0.546057048118431,-0.249949065162554,-0.428030900245259,,,,,0.279398532407126,,0.543748844167551,-0.770153993403131,,0.163574793402886,,1.89298103818871,-0.442346024702383,,,-0.26278227405372,2.55946549130462,-0.397809131559624,,,-0.923611085093364,-0.766934527411112,-1.10115051623187,1.2187674049431,-0.324568711140878,-0.324568711136773,,,,,,,-0.37426814974659,-0.395106396059524,-0.395106396058278,-1.94469855916981,1.9446985591698,0.0838391049427015,14.5408,103,995.1084879687,462.176145788423,474.557730847243,1009.06772828654,981.14924765086,475.411460246655,448.940831330191,511.710410653372,437.405051041114,0
844.5952,-1.13754574306204,-1.37195846896677,-1.36220494850514,-0.355682644005678,-0.297772502128826,-0.297772502127033,,,-1.65208927962638,-0.233952010101755,-0.517704636061728,-0.233952010105875,-0.445310857344449,,,,,0.268322208341002,,0.518936937557309,-0.794920622519894,,0.132664881152081,,1.95825480439292,-0.450809291745017,,,-0.254362313431002,2.60430637559746,-0.411230104783676,,,-0.928447440828909,-0.768774126879984,-1.10541618634204,1.26097743999848,-0.33838930770128,-0.338389307697207,,,,,,,-0.373123700763586,-0.391522662180026,-0.391522662178785,-1.95593934978971,1.9559393497897,0.0754076518481583,14.6432,102,980.091199786,464.099056280959,472.380470854697,994.625084459459,965.55731511254,476.802533783784,451.395578778135,508.826858108108,435.934083601286,0.774509803921569
844.6976,-1.14404979728719,-1.37216821215484,-1.36694217443143,-0.32847508142717,-0.289002553362628,-0.289002553360799,,,-1.67338516996753,-0.218895373928878,-0.487387035740277,-0.218895373933024,-0.463315213742089,,,,,0.256214673911796,,0.492833476892124,-0.81797193678158,,0.102147652860757,,2.0208739146671,-0.4596990738888,,,-0.246788102486053,2.64682320457862,-0.4236067169487,,,-0.933040011759435,-0.771313522695485,-1.11001319528368,1.30021935426145,-0.353665922708915,-0.35366592270489,,,,,,,-0.371043440706407,-0.388775780275642,-0.388775780274411,-1.96640014823099,1.96640014823098,0.067533832497808,14.7456,102,963.800711930781,466.304517087425,470.096008136352,978.03285472973,949.568569131833,478.835641891892,453.773392282958,505.897804054054,434.29421221865,1
844.8,-1.15117512188681,-1.373208434625,-1.37245581557607,-0.302295700010315,-0.281025038206201,-0.281025038204339,,,-1.69450778954172,-0.204802440459978,-0.455133439308887,-0.204802440464139,-0.482063075445373,,,,,0.243078398006693,,0.465475471459357,-0.839304937464677,,0.0720492128472281,,2.08077226229486,-0.468975092444825,,,-0.240014719243979,2.68699935946226,-0.434930866167399,,,-0.937418052359392,-0.774496352766313,-1.11492081898925,1.33642123137185,-0.370384746510438,-0.370384746506443,,,,,,,-0.368010777236102,-0.3868760639337,-0.386876063932476,-1.97608703993116,1.97608703993114,0.0601807398269669,14.848,103,947.430368742939,468.520788976275,467.800347071348,961.359290540541,933.501446945338,480.878716216216,456.162861736334,502.954391891892,432.646302250804,0.029126213592233
844.9024,-1.15890375892073,-1.37503557440216,-1.37871561316969,-0.277193267799203,-0.273786317437143,-0.273786317435241,,,-1.71545529307076,-0.191690955606227,-0.420979756613078,-0.191690955610404,-0.501569329902807,,,,,0.228920836905362,,0.436903763319184,-0.85892244317287,,0.042393640934528,,2.13789161515779,-0.478596544775995,,,-0.233993813494678,2.72482348559189,-0.445200019280412,,,-0.941608034009908,-0.778262395786668,-1.1201139479906,1.36952128490096,-0.388524323678586,-0.38852432367464,,,,,,,-0.364013855600119,-0.385830038957255,-0.385830038956037,-1.9850050265356,1.98500502653557,0.0533119323336825,14.9503999999999,102,931.060025555097,470.737060865126,465.504686006344,944.685726351351,917.434324758842,482.921790540541,458.552331189711,500.01097972973,430.998392282958,0.794117647058824
845.0048,-1.16721384515521,-1.37760042857781,-1.38568625982648,-0.253212147312662,-0.267228128651931,-0.267228128650002,,,-1.73622632283853,-0.179573114384399,-0.384968581414797,-0.179573114388607,-0.521844322568048,,,,,0.213754358127969,,0.407163039491634,-0.876832984970447,,0.0132031799165741,,2.19218166748882,-0.488522231921967,,,-0.228673866857748,2.76028945462115,-0.454417090826799,,,-0.94563364827266,-0.782547832254702,-1.12556326939117,1.39946794337253,-0.408055654451229,-0.408055654447323,,,,,,,-0.359045626164861,-0.385640451423034,-0.385640451421821,-1.99315790682728,1.99315790682725,0.0468916782106096,15.0528,103,914.689682367255,472.953332753976,463.20902494134,928.012162162162,901.367202572347,484.964864864865,460.941800643087,497.067567567568,429.350482315113,0.339805825242718
845.1072,-1.1760796732405,-1.38084841096855,-1.39332754629375,-0.23039234059396,-0.261288057232342,-0.261288057230396,,,-1.75681968615555,-0.168455563541735,-0.347149128632721,-0.168455563545971,-0.542893567611928,,,,,0.197596116200212,,0.37630182163065,-0.893050667473248,,-0.0155015721204867,,2.24360005167771,-0.498710672933151,,,-0.224000473045438,2.79339629606462,-0.462590288927327,,,-0.949515841987915,-0.787285528184593,-1.13123548420691,1.42621990102132,-0.428942348416713,-0.428942348412842,,,,,,,-0.353103869904583,-0.386306277278075,-0.386306277276867,-2.00054817518826,2.00054817518824,0.040885196953195,15.1552,102,904.218753658259,471.218654448614,475.522152702873,919.890788950715,888.546718365803,486.038374403816,456.398934493412,508.108141229465,442.936164176281,0
845.2096,-1.18547176867835,-1.384719817341,-1.40159452252233,-0.208769547100819,-0.255900019350388,-0.255900019348414,,,-1.77723403480811,-0.158339424063517,-0.307577138894929,-0.158339424067768,-0.564717491808861,,,,,0.18046789445702,,0.344372430265458,-0.907594993565502,,-0.0437014667819294,,2.29211231011885,-0.509120204608078,,,-0.219916641005906,2.82414810030045,-0.469732932950608,,,-0.953272867171004,-0.792405340413474,-1.13709354876605,1.44974612924567,-0.451140828326987,-0.451140828323139,,,,,,,-0.34619117846832,-0.387822732475177,-0.387822732473971,-2.00717693591043,2.0071769359104,0.0352589002513862,15.2576,103,905.956310679612,470.395631067961,520.567961165049,923.642718446602,888.269902912621,485.421359223301,455.369902912621,545.26213592233,495.873786407767,0
845.312,-1.1953569825246,-1.38915009909052,-1.41043767337395,-0.188375241457469,-0.250994755474236,-0.250994755472245,,,-1.79746754940981,-0.149220344129943,-0.266314750002356,-0.149220344134213,-0.587311213112172,,,,,0.162395917046187,,0.31143092069181,-0.920490651795707,,-0.0713786084969565,,2.33769182637814,-0.519709068687348,,,-0.216363120460193,2.85255389912165,-0.475863244958554,,,-0.956920340978109,-0.797834445149771,-1.14309693837213,1.47002583887513,-0.474600583058922,-0.474600583055115,,,,,,,-0.338314887140698,-0.390181287201918,-0.390181287200717,-2.01304383471731,2.0130438347173,0.0299806327768969,15.36,102,907.478921568628,477.349509803922,547.098039215686,925.582352941177,889.375490196079,492.723529411765,461.975490196079,568.245098039216,525.950980392157,0
845.4144,-1.20569860175589,-1.39407015128515,-1.41980311270773,-0.169236776645345,-0.246500335439416,-0.246500335437413,,,-1.81751763272564,-0.141088593428045,-0.223430338304509,-0.141088593432333,-0.610664355901571,,,,,0.143410623156451,,0.277536989343119,-0.931767267582374,,-0.0985161538632078,,2.38031971436976,-0.530435491801458,,,-0.213278747376698,2.87862752903842,-0.481004113192199,,,-0.960471323334024,-0.803497691586848,-1.14920193919318,1.48704838326592,-0.499264468767284,-0.499264468763514,,,,,,,-0.329486960938549,-0.393369690887992,-0.393369690886797,-2.01814701118065,2.01814701118063,0.0250199129108887,15.4624,102,907.14068627451,483.428921568628,563.455882352941,924.689215686275,889.592156862745,496.335294117647,470.522549019608,583.519607843137,543.392156862745,0
