time,S1-D1,S1-D8,S1-D9,S1-D15,S2-D1,S2-D2,S2-D3,S2-D9,S3-D1,S3-D2,S3-D16,S4-D2,S4-D3,S4-D5,S5-D3,S5-D4,S5-D5,S6-D2,S6-D5,S6-D17,S7-D6,S7-D7,S8-D6,S8-D7,S8-D18,S9-D3,S9-D4,S9-D9,S9-D11,S9-D19,S10-D8,S10-D9,S10-D10,S10-D11,S11-D8,S11-D10,S11-D20,S12-D10,S12-D11,S12-D12,S13-D4,S13-D11,S13-D12,S14-D10,S14-D12,S14-D21,S15-D13,S15-D14,S16-D13,S16-D14,S16-D22,t_rel_s,eye_n,xp,yp,ps,xpl_i,xpr_i,ypl_i,ypr_i,psl_i,psr_i,blink_prop
331.9808,2.25827405170333,-0.692147002971386,,-0.556902505519199,-0.243473186429891,-0.243473186432267,,-1.3026730846273,-1.87887371505049,-0.525281024132174,-0.621473518456598,-0.525281024130898,0.0887009312485161,-0.792089342617278,-0.601276581447894,-2.15274848903648,-0.838880624628617,-2.79281996420052,-0.91433201094017,0.280323122502367,-0.914332010940683,-1.45509479739994,-0.592768328051013,-1.41065521984743,0.498344469010301,-1.65095602256115,-1.65095602256504,0.61685510049137,-0.616855100489459,0.257369066593745,0.222243265618839,-0.518467557837666,,0.935061390935938,-0.905598330021803,0.34208646438512,0.181845113539235,-1.37231348442482,-1.37231348442414,-0.6119703710149,-0.854199861162524,-0.951202375693466,0.369061810021434,0.997314161301647,0.828819366055476,0.169701877443507,0.041037813099439,0.0410378130983877,,-2.32141164137934,,0,103,693.872815533981,351.783495145631,1168.77669902913,694.878640776699,692.866990291262,342.932038834952,360.634951456311,1312.52427184466,1025.02912621359,0
332.0832,2.16629813219466,-0.7502725553048,,-0.545308300838572,-0.254520824120773,-0.254520824123114,,-1.3280652595027,-1.8955104374096,-0.534147860339475,-0.628819061513388,-0.534147860338174,0.0891784662138853,-0.807669727560676,-0.614995157635238,-2.15872777289728,-0.837561093526444,-2.79887646973864,-0.913174482672938,0.227208946963588,-0.91317448267343,-1.48375281580504,-0.638879190326343,-1.45571883744639,0.496325947646029,-1.67011375261062,-1.67011375261458,0.64052630467649,-0.640526304674616,0.278725366683003,0.240787863462425,-0.566907644986603,,0.976810451212228,-0.923994495632393,0.370654479043802,0.160520144808186,-1.36320536022802,-1.36320536022708,-0.592895978677395,-0.866584558998672,-0.938991122979905,0.37288187978443,0.967094937681726,0.817513199370286,0.17986342717149,0.0448704269668141,0.0448704269657679,,-2.32384523441125,,0.102399999999989,102,693.101960784314,354.685294117647,1175.89705882353,695.076470588235,691.127450980392,343.758823529412,365.611764705882,1318.93137254902,1032.86274509804,0
332.1856,2.07121163719644,-0.80909232836866,,-0.534377363845773,-0.266027685801854,-0.266027685804167,,-1.35222272476854,-1.91030582298223,-0.54315818802175,-0.634111780217663,-0.54315818802042,0.0890173123438619,-0.823103430239487,-0.629531194313402,-2.16276421696117,-0.835448908080754,-2.80239590064875,-0.910938168937986,0.173336124375782,-0.910938168938457,-1.50882198426529,-0.685538800974632,-1.49831224752152,0.492444915813782,-1.68909880448059,-1.68909880448467,0.665035032749705,-0.665035032747867,0.298023573136821,0.259583064851915,-0.615927698036436,,1.01679070491491,-0.942797662730209,0.397296422266994,0.137521469900892,-1.35361228755274,-1.3536122875515,-0.573744315287275,-0.879223765246669,-0.92682173848338,0.376739727540843,0.936447850382594,0.80603194282771,0.188691728671876,0.0488041888708395,0.0488041888697972,,-2.32436597939711,,0.204800000000034,103,696.28640776699,354.245631067961,1187.05825242718,699.136893203884,693.435922330097,347.992233009709,360.499029126214,1333.08737864078,1041.02912621359,0
332.288,1.97308415824495,-0.868500475863412,,-0.524111910915143,-0.277954033921014,-0.277954033923294,,-1.37507185183676,-1.92317575859524,-0.552303690428791,-0.637351313179803,-0.552303690427438,0.0882058741273243,-0.838326563394469,-0.64484282358896,-2.16483287898144,-0.83256068928901,-2.80335817261893,-0.907652861975349,0.118782110505278,-0.907652861975797,-1.53033722055402,-0.732735206593933,-1.53845616478563,0.486738795416897,-1.70783937512966,-1.70783937513383,0.690277533459002,-0.690277533457205,0.315238620658862,0.278547395558847,-0.665397456452936,,1.05487085978213,-0.961951673955515,0.42192143106279,0.112966774980384,-1.34365058633799,-1.34365058633652,-0.554525871811251,-0.892065319708375,-0.914680668151909,0.38060139061658,0.905485512364768,0.794399573874108,0.196177148992018,0.0528846746106335,0.0528846746095982,,-2.32296419062537,,0.307200000000023,102,923.05637254902,371.922058823529,1184.34803921569,925.456862745098,920.655882352941,361.527450980392,382.316666666667,1341.07843137255,1027.61764705882,0
332.3904,1.87199681207231,-0.928384423333173,,-0.514511459642612,-0.290262701638167,-0.290262701640414,,-1.39654274136038,-1.93404401754741,-0.56157738429377,-0.638543047457314,-0.561577384292398,0.08673432625217,-0.853276044317033,-0.660886280535306,-2.16491252215479,-0.828913645509065,-2.80174760937121,-0.903350358250202,0.0636283359358377,-0.903350358250635,-1.54834018175393,-0.780452816520621,-1.57617463447951,0.479251101125641,-1.72626322315029,-1.72626322315457,0.716148680118707,-0.716148680116959,0.330352558420024,0.29759954798807,-0.715186692285958,,1.09092348928637,-0.981398595402031,0.4444433869977,0.0869794805785586,-1.33343550396849,-1.33343550396682,-0.535253452014428,-0.90505676913229,-0.902556378800089,0.384432070602208,0.874320055813701,0.782639064995028,0.202315692353623,0.0571546306340742,0.0571546306330454,,-2.31963262375507,,0.409600000000012,103,1117.97621359223,385.247087378641,1180.40291262136,1128.59417475728,1107.35825242718,373.977669902913,396.516504854369,1353.65048543689,1007.15533980583,0
332.4928,1.76804238837265,-0.988625110800807,,-0.505572947596307,-0.302919211324415,-0.302919211326633,,-1.41656969003866,-1.94284292573853,-0.570973453852714,-0.637697996573462,-0.570973453851327,0.0845947431464004,-0.867889801149232,-0.677615900921693,-2.16298565466927,-0.824525699602552,-2.79755304603242,-0.89806417231302,0.00796000888765955,-0.898064172313441,-1.56287900825455,-0.828672172934447,-1.61149472115622,0.470031212543809,-1.74429785319756,-1.74429785320193,0.742542370136156,-0.742542370134446,0.343354558820695,0.316658720528032,-0.765165587582263,,1.12482573393132,-1.00107883286526,0.464781512370088,0.0596881129305524,-1.32308055653309,-1.32308055653124,-0.515942233044975,-0.918145556171978,-0.89043949894003,0.388196362222928,0.843062782852374,0.770772423032711,0.207109036405598,0.0616537686429266,0.0616537686419067,,-2.31436657450879,,0.512000000000001,102,1113.88628125562,383.697704173413,1215.13662529232,1118.51177819752,1109.26078431373,370.445408346825,396.95,1399.21442705523,1031.05882352941,0
332.5952,1.66132546184062,-1.04909729365027,,-0.497290866454994,-0.315891870785123,-0.315891870787316,,-1.4350916376128,-1.94951396957066,-0.580487056816384,-0.634832646050935,-0.580487056814985,0.0817812190459707,-0.882106962587855,-0.694984117710242,-2.1590385537843,-0.819415635985103,-2.79076792452302,-0.891829242049284,-0.0481341033758544,-0.891829242049697,-1.57400808536556,-0.87736974944077,-1.64444622523251,0.459134117501346,-1.7618707202331,-1.76187072023754,0.769351916857007,-0.769351916855331,0.354240903299956,0.335644953446086,-0.815205101006113,,1.15645998972331,-1.02093127206335,0.482860939736151,0.0312256565638531,-1.31269688431654,-1.31269688431448,-0.496609796577493,-0.931279203890707,-0.878322930228914,0.391858474973486,0.811823807579977,0.758820717590544,0.210564528865919,0.0664185849969986,0.0664185849959851,,-2.30716398271906,,0.614399999999989,102,968.749512052528,575.470639953229,993.331489476525,1030.03922018349,907.459803921569,371.302064220183,779.639215686275,1456.33944954128,530.323529411765,0.166666666666667
332.6976,1.5519624575307,-1.10966990034199,,-0.489657420124278,-0.329151858522385,-0.329151858524553,,-1.45205259250276,-1.95400834149596,-0.590114118628526,-0.629968768839776,-0.59011411862711,0.0782899769542365,-0.895868036814159,-0.712941464153932,-2.15306128536862,-0.813603264134145,-2.78139039154669,-0.884681620170658,-0.104561919920427,-0.884681620171062,-1.58178781145117,-0.926517786476168,-1.67506142300775,0.446620117209693,-1.77890945126194,-1.77890945126647,0.796470436509454,-0.796470436507819,0.363014933179146,0.35447945541795,-0.865177322284098,,1.18571456341781,-1.04089344329559,0.49861323512685,0.00172888190864508,-1.30239262495646,-1.30239262495423,-0.477276130926774,-0.944405498065432,-0.866201930923367,0.395382441568746,0.780711687745917,0.746804092220001,0.212695141174138,0.0714822035832496,0.0714822035822419,,-2.29802553609235,,0.716800000000035,103,898.474991092901,420.508290282355,1273.07041061726,922.312118108132,874.63786407767,372.921434933642,468.095145631068,1514.93693773938,1031.20388349515,0
332.8,1.44008165658681,-1.17020644367128,,-0.482662706521317,-0.342673302234904,-0.342673302237047,,-1.46740203076047,-1.95628741668509,-0.59985112579579,-0.623133216065611,-0.599851125794359,0.0741194652628327,-0.909115083283825,-0.731436588698298,-2.14504772615486,-0.807109590465266,-2.76942340351065,-0.876658150147781,-0.161228324832149,-0.876658150148175,-1.58628436172231,-0.97608417189433,-1.70337482603328,0.432554489277945,-1.7953420817571,-1.79534208176171,0.823791226470519,-0.823791226468937,0.369686958829175,0.373084914603268,-0.914955809749686,,1.21248427936481,-1.06090170630497,0.511976863090374,-0.0286623553182217,-1.29227230235439,-1.292272302352,-0.457963604238788,-0.957472665707897,-0.8540741707328,0.398732310466172,0.749833044284808,0.734741754994561,0.213519381794338,0.0768742385901587,0.0768742385891599,,-2.28695476735104,,0.819200000000024,102,875.738235294118,411.727450980392,1364.47549019608,882.291176470588,869.185294117647,385.269607843137,438.185294117647,1563.62745098039,1165.32352941176,0
332.9024,1.32582312919314,-1.23056548230962,,-0.476294914695824,-0.356433345496615,-0.356433345498737,,-1.48109525858548,-1.95632315188248,-0.609694925487128,-0.614357693464659,-0.609694925485678,0.0692704420367615,-0.92179188426971,-0.750416288066828,-2.13499559482501,-0.799956987628802,-2.75487484009686,-0.867796133903384,-0.218035482074944,-0.867796133903766,-1.5875694441032,-1.02603236746388,-1.72942295745801,0.417007112446589,-1.81109730590095,-1.81109730590563,0.851208131574762,-0.851208131573225,0.374274128192015,0.391385792245103,-0.964415907610868,,1.23667103371006,-1.08089144901832,0.522897593345613,-0.059805839462754,-1.28243623116743,-1.28243623116484,-0.438696910100208,-0.970429545287512,-0.841939756301391,0.401872321767958,0.719292167998028,0.722651947483072,0.213061174512517,0.0826206704026278,0.0826206704016363,,-2.27395814281694,,0.921600000000012,103,881.559708737864,416.374757281553,1394.20388349515,883.458252427185,879.661165048544,398.596116504854,434.153398058252,1586.00970873786,1202.39805825243,0
333.0048,1.20933858128103,-1.29060112841724,,-0.470540525403116,-0.370412188200645,-0.370412188202741,,-1.49309372680709,-1.95409839881074,-0.619642536323966,-0.603678535555968,-0.619642536322493,0.0637460466001341,-0.933844121459548,-0.769825563984,-2.12290649915701,-0.792169350469161,-2.73775762953862,-0.858133005985008,-0.274883186739356,-0.858133005985376,-1.58572005294231,-1.07632137224777,-1.75324414523278,0.400052063331743,-1.82610474026679,-1.82610474027153,0.87861589779658,-0.878615897795089,0.376800261735348,0.40930859933048,-1.01343504214903,,1.25818429898265,-1.10079729177065,0.531328856989425,-0.0915577355954634,-1.27297994777167,-1.27297994776891,-0.419502987479349,-0.983225740990629,-0.829801225672134,0.4047670673865,0.689190614000758,0.710551893239511,0.211349714880809,0.0887437206634216,0.0887437206624378,,-2.25904514715789,,1.024,102,883.105882352941,416.511764705882,1417.19117647059,884.000980392157,882.210784313726,403.675490196078,429.348039215686,1610.54901960784,1223.83333333333,0
333.1072,1.09079110431698,-1.3501635978834,,-0.465384502695514,-0.384593083067788,-0.384593083069862,,-1.50336528856231,-1.94960712758707,-0.629690969804242,-0.591136484813216,-0.629690969802752,0.0575518561409715,-0.945219553051494,-0.789607702720373,-2.10878600165465,-0.783772230978997,-2.71808988473199,-0.847706027388245,-0.331669253871867,-0.847706027388599,-1.5808182290441,-1.12690571258413,-1.77487833349944,0.38176719859497,-1.84029519721335,-1.84029519721816,0.905910510393211,-0.905910510391767,0.377295664939806,0.426782154822039,-1.06189299471031,,1.27694158216459,-1.12055328631344,0.537232061653709,-0.123773333134862,-1.26399368131842,-1.26399368131553,-0.400410915294305,-0.99581175111947,-0.817663507584441,0.407381637559731,0.659626785648655,0.698457728570094,0.208419325179027,0.0952617118196023,0.0952617118186271,,-2.24222836982269,,1.12639999999999,102,881.236764705882,415.683333333333,1440.0931372549,880.919607843137,881.553921568627,398.483333333333,432.883333333333,1636.21568627451,1243.97058823529,0
333.2096,0.970354825039965,-1.40909980457849,,-0.460810466304549,-0.398962274203699,-0.398962274205751,,-1.51188439579261,-1.94285455595373,-0.639837054276179,-0.576776474917659,-0.639837054274674,0.0506959235899498,-0.95586817723187,-0.809704369975254,-2.09264369541276,-0.774792948093259,-2.69589503904328,-0.836552004827249,-0.388289945185867,-0.836552004827586,-1.57295083091136,-1.17773545684057,-1.79436691498822,0.362233735255515,-1.85360095984887,-1.85360095985374,0.932989508421055,-0.932989508419657,0.375796930759572,0.443737821561467,-1.10967214595989,,1.29286883900881,-1.1400931010097,0.540576873427256,-0.156307779762556,-1.25556186900601,-1.255561869003,-0.381451780474514,-1.00813906306361,-0.805533841168005,0.40968175408007,0.630695510566236,0.686384417198595,0.204309324158846,0.102188908130831,0.102188908129868,,-2.2235235949126,,1.22880000000004,103,879.480097087379,412.368932038835,1462.83495145631,877.930097087379,881.030097087379,397.315533980583,427.422330097087,1660.22330097087,1265.44660194175,0
333.312,0.848214458975027,-1.46725400558669,,-0.456800841694549,-0.413508871289603,-0.413508871291636,,-1.51863223165519,-1.93385717824291,-0.650077251157218,-0.560647411091899,-0.650077251155698,0.0431887929980358,-0.965742366867185,-0.8300557126823,-2.07449327633083,-0.765260668214079,-2.67120196440369,-0.824707036089388,-0.444640427680849,-0.82470703608971,-1.56220931815926,-1.22875626295585,-1.81175258918022,0.341535837076784,-1.86595605197206,-1.86595605197697,0.959752266578508,-0.959752266577158,0.372346740639636,0.460109717962413,-1.15665768707834,,1.30590084936442,-1.1593501925267,0.541341469875929,-0.189016795334658,-1.24776271211516,-1.24776271211203,-0.362658521286277,-1.02016021545549,-0.793421657953592,0.411633884766955,0.602487612716121,0.67434564572776,0.199063913980746,0.109535349506704,0.109535349505749,,-2.20294989552996,,1.33120000000002,102,878.188235294118,409.287254901961,1485.07352941176,875.012745098039,881.363725490196,396.2,422.374509803922,1682.07843137255,1288.06862745098,0
333.4144,0.724564771514711,-1.52446850675492,,-0.453336995426322,-0.428224663558781,-0.428224663560793,,-1.52359677572346,-1.9226426887795,-0.660407460820043,-0.542801939063574,-0.660407460818505,0.0350434897850589,-0.974796968182473,-0.850600464965774,-2.05435260330188,-0.755206451766852,-2.64404506015881,-0.812206281310608,-0.500615250705761,-0.812206281310916,-1.54868954720876,-1.27990946796236,-1.82707925093072,0.319760206973835,-1.87729650429358,-1.87729650429853,0.986100239937201,-0.986100239935898,0.366993663027583,0.475834906280252,-1.20273779980456,,1.31598155673466,-1.1782579750943,0.539512760549081,-0.22175736145399,-1.24066777019118,-1.24066777018793,-0.3440657516249,-1.03182883882945,-0.781338436566235,0.413205330725803,0.575089487262911,0.662353695425984,0.192732070571925,0.117306695569062,0.117306695568116,,-2.18052973212389,,1.43360000000001,103,878.967961165049,407.719417475728,1502.54368932039,873.167961165049,884.767961165049,393.506796116505,421.932038834952,1699.97087378641,1305.11650485437,0
333.5168,0.599609944807216,-1.58058443572853,,-0.450399370397441,-0.44310388564451,-0.443103885646505,,-1.52677279992681,-1.90924979807061,-0.67082282695535,-0.523296197098743,-0.670822826953804,0.0262754850246301,-0.982989366664645,-0.87127606249297,-2.03224374821885,-0.744663265081076,-2.61446431439922,-0.799083760444173,-0.556108826082202,-0.799083760444457,-1.5324915805111,-1.33113222187203,-1.84039191170672,0.296995678506272,-1.88756062312137,-1.88756062312637,1.01193717266742,-1.01193717266616,0.359791938377462,0.490853555390511,-1.24780381264139,,1.32306437066553,-1.19675000233512,0.535086564587277,-0.25438838956396,-1.23434159557807,-1.23434159557475,-0.3257095705652,-1.04309969297832,-0.769297542226484,0.414364284785224,0.54858268833134,0.650419293812902,0.185367411920818,0.125504096225867,0.125504096224933,,-2.1562890478132,,1.536,102,879.530882352941,406.801470588235,1443.97058823529,872.778431372549,886.283333333333,393.914705882353,419.688235294118,1646.21568627451,1241.72549019608,0
333.6192,0.473562844516217,-1.63544258385201,,-0.447967632281111,-0.458142947593306,-0.458142947595285,,-1.52816179427719,-1.89372794164095,-0.68131755301631,-0.50218955152198,-0.681317553014745,0.01690263444416,-0.990279530144932,-0.892018773429742,-2.0081930439382,-0.733665959725225,-2.58250534784642,-0.785372177824183,-0.611015900832334,-0.785372177824445,-1.51371951014628,-1.3823576651496,-1.85173665369399,0.273332798652416,-1.89668926370511,-1.89668926371017,1.03716927687117,-1.03716927686995,0.350801236679737,0.505109071329012,-1.29175034244681,,1.32711242983286,-1.214760170293,0.5280677382013,-0.286771373672861,-1.22884141335141,-1.22884141334795,-0.307627357795833,-1.0539287183758,-0.757314059405032,0.415079870670976,0.523043542137823,0.638551460961542,0.177028017146794,0.13412410504785,0.134124105046934,,-2.1302573490555,,1.63839999999999,102,884.397549019608,404.536274509804,1254.1568627451,878.545098039216,890.25,393.807843137255,415.264705882353,1446.3137254902,1062,0
333.7216,0.346644180538458,-1.68888431147492,,-0.446020828516902,-0.473340138922586,-0.473340138924549,,-1.52777182152433,-1.87613687964305,-0.691884741042666,-0.479544323186802,-0.69188474104109,0.00694509439231808,-0.996630041376022,-0.912763854044468,-1.98223113835151,-0.722251217253738,-2.54821944843668,-0.771102776297743,-0.665232018955785,-0.771102776297976,-1.49248129443791,-1.43351515180978,-1.861160616757,0.248863398853968,-1.9046261024966,-1.90462610250169,1.06170539400869,-1.06170539400752,0.340086378394544,0.518548189853906,-1.33447543058064,,1.32809882681114,-1.23222293910992,0.518470254495339,-0.318771031351207,-1.22421684990284,-1.2242168498992,-0.289857555275555,-1.06427311190972,-0.745404622524666,0.41532217737957,0.498542800148182,0.626757371014602,0.167776178602934,0.143158651250706,0.143158651249805,,-2.10246776280553,,1.74080000000004,103,890.644174757282,396.432038834951,1029.11165048544,884.418446601942,896.869902912621,386.269902912621,406.594174757282,1195.61165048544,862.611650485437,0
333.824,0.219081558534228,-1.74075250542759,,-0.444537553337158,-0.48869531575878,-0.488695315760728,,-1.52561730138871,-1.85654618538179,-0.702516256655966,-0.455425517213913,-0.702516256654385,-0.00357477964190572,-1.00200613231475,-0.933445731935842,-1.95439305757927,-0.710457453998102,-2.51166359746444,-0.756305224133167,-0.718653973770939,-0.756305224133379,-1.46888860605136,-1.48453051850312,-1.86871201726206,0.223680157304491,-1.91131789782263,-1.91131789782776,1.08545715664684,-1.08545715664571,0.327717017588965,0.531121031476418,-1.37588068175414,,1.32600679765638,-1.24907356287736,0.506317244928412,-0.350255931617701,-1.22050971026031,-1.22050971025655,-0.272439436052636,-1.07409142756832,-0.73358724587241,0.415062300090955,0.475145347684734,0.615042246915533,0.157678086167965,0.152595076796291,0.152595076795404,,-2.07295706896476,,1.84320000000002,102,983.207352941177,430.056862745098,859.200980392157,980.539215686274,985.875490196078,422.933333333333,437.180392156863,1002.37254901961,716.029411764706,0
333.9264,0.0911084234059467,-1.79089257275821,,-0.443496109889872,-0.504209576822793,-0.504209576824726,,-1.52171872863895,-1.83503462656848,-0.713202617821969,-0.429900567984255,-0.713202617820384,-0.0146325425826013,-1.0063757298982,-0.953998211955547,-1.92471827446086,-0.698324684385875,-2.47290048231033,-0.741007536149002,-0.771180254922881,-0.741007536149195,-1.44305669199255,-1.5353263916527,-1.87444019509939,0.197876159654182,-1.9167147289001,-1.91671472890528,1.10833916563418,-1.10833916563309,0.313767293229884,0.54278112585794,-1.41587141103445,,1.3208298800666,-1.26524831565461,0.491641013233852,-0.381099104082165,-1.21775380292605,-1.21775380292218,-0.255412859734237,-1.08334369435803,-0.721881148792864,0.414272393088909,0.452909978866271,0.603409298725536,0.146803461124931,0.162416231895718,0.162416231894846,,-2.0417657129599,,1.94560000000001,103,995.299514563107,433.746116504854,760.563106796117,995.176699029126,995.422330097087,426.894174757282,440.598058252427,887.757281553398,633.368932038835,0
334.0288,-0.0370371009074726,-1.83915345110809,,-0.442874660531195,-0.519884927359851,-0.519884927361768,,-1.51610233434986,-1.81168945425642,-0.72393290220981,-0.403039107347475,-0.72393290220823,-0.0262017673617915,-1.00970951809609,-0.974354694283575,-1.89325077531322,-0.68589434608621,-2.43199848944929,-0.725236027719724,-0.822711493910169,-0.725236027719898,-1.41510424522489,-1.58582252023068,-1.87839568246011,0.171544467358657,-1.92077020746992,-1.92077020747513,1.13026918598202,-1.13026918598096,0.298315459707924,0.553485416325146,-1.45435679929358,,1.31257204376166,-1.2806847043289,0.474483030882347,-0.411178621175179,-1.21597480961857,-1.21597480961455,-0.238818012630613,-1.09199153921244,-0.710306568853788,0.412925736181559,0.431889238314964,0.591859707112853,0.135225168350994,0.172600614783268,0.172600614782408,,-2.00893780375248,,2.048,102,992.966176470588,427.805882352941,709.803921568627,993.094117647059,992.838235294118,416.243137254902,439.36862745098,827.029411764706,592.578431372549,0
334.1312,-0.165113467806106,-1.88538861431017,,-0.442651356897165,-0.535723925871443,-0.535723925873338,,-1.50879970854331,-1.78660562969496,-0.734694670596527,-0.374912759840355,-0.734694670594955,-0.0382541442682919,-1.01198101412495,-0.994448393312691,-1.86003911910391,-0.673209091497221,-2.38903167331164,-0.709015298452133,-0.873150909627768,-0.709015298452287,-1.38515328334865,-1.63593612711126,-1.88063028733813,0.144777703027988,-1.9234416627933,-1.92344166279858,1.15116835088737,-1.15116835088636,0.281443510097295,0.563194254741714,-1.49125005060549,,1.3012477945466,-1.2953216628577,0.454893918773009,-0.440378144415289,-1.21519019371055,-1.21519019370642,-0.22269513123742,-1.09999830327541,-0.698884556547606,0.410996814802364,0.412129317557932,0.580392646259145,0.12301883349873,0.183122535965526,0.183122535964676,,-1.97452110131112,,2.15039999999999,102,993.500980392157,426.370588235294,680.166666666667,994.071568627451,992.930392156863,421.754901960784,430.986274509804,790.303921568627,570.029411764706,0
334.2336,-0.292877040268876,-1.92945705144868,,-0.442804445493491,-0.551729311713156,-0.551729311715037,,-1.49984741488617,-1.75988503483584,-0.745473907815829,-0.345594963709047,-0.745473907814271,-0.0507595722609834,-1.01316664920584,-1.01421254874714,-1.82513648403776,-0.660312551047465,-2.34407969796674,-0.692368241359381,-0.922404752563117,-0.692368241359516,-1.35332902554503,-1.68558228171737,-1.88119718639017,0.11766765957874,-1.92469030613226,-1.92469030613756,1.17096135601448,-1.17096135601351,0.263236803519619,0.571871392726845,-1.52646854076908,,1.28688224962734,-1.30909972722952,0.432933413243264,-0.468587427185006,-1.21540913866303,-1.21540913865884,-0.207084210361601,-1.10732914578559,-0.687636750163011,0.408461412774144,0.393669985992003,0.569005335372536,0.110262478571477,0.193952281061015,0.193952281060175,,-1.93856699804854,,2.25280000000004,103,993.358737864078,422.910194174757,667.810679611651,995.235922330097,991.481553398058,414.253398058252,431.566990291262,772.572815533981,563.04854368932,0
334.336,-0.420083455294995,-1.97122419760058,,-0.44331235413594,-0.567903621248693,-0.567903621250561,,-1.48928663419914,-1.7316357163256,-0.756254982933287,-0.315160809890666,-0.756254982931746,-0.0636862479437731,-1.01324583987884,-1.0335806244645,-1.78860069556824,-0.647249074289565,-2.29722774773316,-0.675316071726042,-0.970382743365441,-0.675316071726155,-1.31975975719884,-1.7346743014629,-1.8801510228197,0.0903049340347547,-1.92448138143862,-1.92448138144395,1.1895766298084,-1.18957662980746,0.24378370019491,0.579483971059012,-1.55993394884293,,1.26951117853831,-1.32196119651722,0.40867030779653,-0.495702771155962,-1.2166325111246,-1.21663251112028,-0.192024698700206,-1.11395113896714,-0.676585134962563,0.405296715229412,0.376544539101156,0.557693108009884,0.097036171323693,0.2050562543647,0.205056254363865,,-1.90113049733141,,2.35520000000003,102,975.241666666667,434.931862745098,663.651960784314,977.625490196078,972.857843137255,421.311764705882,448.551960784314,764.558823529412,562.745098039216,0
334.4384,-0.546488962943403,-2.01056279578141,,-0.444153772367041,-0.584248806511848,-0.584248806513708,,-1.47716286032307,-1.7019711924262,-0.767020628969387,-0.28368688711087,-0.76702062896787,-0.0770007594915158,-1.01220103889524,-1.05248649585106,-1.75049423156236,-0.634063450912876,-2.24856640294079,-0.657878369503485,-1.01699849880246,-0.657878369503573,-1.28457667395383,-1.78312418374662,-1.87754800385768,0.0627785805870858,-1.92278430619309,-1.92278430619843,1.20694647640581,-1.2069464764049,0.223175198649775,0.586002506405828,-1.59157237093344,,1.24918100177136,-1.33385028980188,0.382182357132999,-0.521627439170758,-1.21885285118082,-1.2188528511764,-0.177555184306687,-1.11983336466009,-0.665751793728989,0.401481418136309,0.360779759094678,0.546449493570436,0.0834216693977364,0.216397110617921,0.21639711061709,,-1.86227018840165,,2.45760000000001,103,972.042233009709,435.728155339806,661.723300970874,974.456310679612,969.628155339806,424.436893203884,447.019417475728,758.466019417476,564.980582524272,0
334.5408,-0.671851693762689,-2.04735367338647,,-0.445307736149414,-0.600765864784147,-0.600765864785999,,-1.46352564187232,-1.67100981301929,-0.777751944681906,-0.251251123287113,-0.777751944680407,-0.0906681921154061,-1.01001776166343,-1.07086463171808,-1.71088420604561,-0.620800609890887,-2.19819148160505,-0.640073134222985,-1.06216993720579,-0.640073134223047,-1.24791370296638,-1.83084305849933,-1.87344599111334,0.0351757762476442,-1.91957280388095,-1.9195728038863,1.22300719317366,-1.22300719317279,0.201504565973582,0.591400871551819,-1.62131441913633,,1.22594873726919,-1.34471330739371,0.353556129054295,-0.546272029832772,-1.22205439846795,-1.22205439846345,-0.163713075790291,-1.12494702275516,-0.655158658618017,0.396995837729826,0.346395894521547,0.535266308009779,0.0695020417774517,0.227933899291724,0.227933899290897,,-1.82204821435119,,2.56,102,974.287254901961,433.877941176471,655.823529411765,976.906862745098,971.667647058823,428.16568627451,439.590196078431,750.029411764706,561.617647058824,0
334.6432,-0.795932834580777,-2.08148642410145,,-0.446753716852957,-0.617454478832061,-0.617454478833907,,-1.44842833862467,-1.63887413267156,-0.788428423143169,-0.217932619116146,-0.788428423141688,-0.104652250971771,-1.00668458700639,-1.08865027846059,-1.66984233496621,-0.607505298252133,-2.14620385154415,-0.621916857769789,-1.10581965717617,-0.621916857769829,-1.2099073034859,-1.87774164513754,-1.86790457732054,0.00758149620941024,-1.91482502476429,-1.91482502476966,1.23769916063037,-1.23769916062953,0.178866955185287,0.595656263411703,-1.649095305882,,1.19988188676979,-1.35449879749581,0.322886795937232,-0.569554817157981,-1.22621316178633,-1.22621316178179,-0.150534290715513,-1.12926555397849,-0.644827276124437,0.391822010463709,0.333406667109126,0.524133749182629,0.0553612655871618,0.239622238924042,0.239622238923218,,-1.78053022518739,,2.66239999999999,102,974.199019607843,437.921078431373,650.166666666667,976.891176470588,971.506862745098,430.993137254902,444.849019607843,742.470588235294,557.862745098039,0
334.7456,-0.918497713463446,-2.11285999788049,,-0.448471706353197,-0.634312669875211,-0.634312669877056,,-1.43192785999631,-1.60569025668905,-0.799028007650608,-0.183811474711008,-0.799028007649148,-0.118915406128833,-1.00219312959185,-1.10577965090232,-1.62744488117075,-0.594221746960978,-2.09270921329531,-0.603424619952196,-1.147875285625,-0.603424619952217,-1.1706962485108,-1.92373070103527,-1.86098514435005,-0.0199217993653674,-1.90852364298462,-1.90852364299,1.25096690060776,-1.25096690060696,0.155359009725193,0.598749155184325,-1.67485491101319,,1.17105826128323,-1.36315772198313,0.290277868910867,-0.591402054852358,-1.23129703104305,-1.23129703103845,-0.13805296048292,-1.13276477331601,-0.634778592138453,0.385943778605938,0.321819309868614,0.513040494308702,0.0410838029766673,0.251414528997788,0.251414528996968,,-1.73778530215274,,2.76480000000004,103,973.566990291262,433.084466019418,647.538834951456,977.308737864078,969.825242718447,424.369902912621,441.799029126214,738.631067961165,556.446601941748,0
334.848,-1.03931680533278,-2.14138320968881,,-0.450442286490988,-0.651336474836164,-0.651336474838005,,-1.41408437100645,-1.57158714359946,-0.809527168698598,-0.148968613361757,-0.809527168697157,-0.133419061862945,-0.996537982033093,-1.12219013136281,-1.58377257024934,-0.580993329651144,-2.03781784719803,-0.58461020735772,-1.18826979301394,-0.584610207357717,-1.13042138764063,-1.9687214533937,-1.852750898505,-0.0472544619073568,-1.90065591388765,-1.90065591389306,1.26275910515426,-1.26275910515347,0.131078460665436,0.600663232903907,-1.69853783008889,,1.13956575046512,-1.37064361278335,0.255840884399444,-0.611748240883143,-1.23726592291114,-1.2372659229065,-0.126301152596084,-1.13542300782153,-0.625032755137758,0.379346863628292,0.31163463958155,0.50197380306828,0.0267541572621044,0.26326020843099,0.263260208430175,,-1.69388584301742,,2.86720000000003,102,974.627450980392,428.372058823529,642.5,978.123529411765,971.13137254902,421.821568627451,434.922549019608,730.990196078431,554.009803921569,0
334.9504,-1.15816667488271,-2.16697517524155,,-0.452646669745039,-0.668519661326601,-0.668519661328439,,-1.39496097141279,-1.53669587330565,-0.819900993918074,-0.113485609674503,-0.819900993916646,-0.148123749165586,-0.989716629376144,-1.13782047779252,-1.53891047338561,-0.5678622103114,-1.98164431851527,-0.565486255356924,-1.22694177541582,-0.565486255356902,-1.08922539094096,-2.01262600676494,-1.8432668790731,-0.0743399263987395,-1.89121368112001,-1.89121368112545,1.27302864455554,-1.27302864455477,0.106123726298904,0.601385319025321,-1.72009340624345,,1.10550203898381,-1.37691271180547,0.219695050229142,-0.630536334651259,-1.24407195228428,-1.24407195227956,-0.11530860792651,-1.1372212298809,-0.61560893130289,0.372018929891304,0.302847168136326,0.490919630821458,0.0124564086162174,0.275106068326018,0.275106068325203,,-1.64890741050327,,2.96960000000001,103,975.166504854369,429.597087378641,633.296116504854,980.766019417476,969.566990291262,424.178640776699,435.015533980583,716.621359223301,549.970873786408,0
335.0528,-1.2748308708937,-2.18956567432746,,-0.455066699460746,-0.685853486730854,-0.685853486732691,,-1.3746233632881,-1.5011489019779,-0.830123284836919,-0.0774445313964117,-0.830123284835509,-0.162989336344338,-0.981729343563922,-1.15261104036907,-1.49294786120567,-0.554868971292712,-1.92430714102702,-0.54606441608863,-1.26383570391276,-0.546064416088587,-1.04725247323827,-2.05535771862387,-1.8325999358734,-0.101104949629663,-1.88019333310506,-1.88019333311053,1.28173256294872,-1.28173256294797,0.0805935254040765,0.600905287295775,-1.73947575201776,,1.06897427036849,-1.38192408931942,0.181966854836222,-0.647717917448839,-1.2516596262812,-1.25165962627644,-0.105102494831398,-1.13814317524764,-0.60652512850567,0.363949636838674,0.295445252712544,0.479862750306384,-0.00172626043678994,0.286896611613844,0.286896611613037,,-1.60292855204205,,3.072,102,620.825,459.322549019608,634.470588235294,628.792156862745,612.857843137255,449.93137254902,468.713725490196,709.098039215686,559.843137254902,0
335.1552,-1.38910077425456,-2.20909543847967,,-0.457684805952963,-0.703326503609971,-0.703326503611802,,-1.35313952014507,-1.46507932248677,-0.840166656007263,-0.0409278017582494,-0.840166656005864,-0.17797525075107,-0.972579065732188,-1.16650398343146,-1.44597803155838,-0.542052222135916,-1.86592840260065,-0.526355554382058,-1.29890214271997,-0.526355554381995,-1.00464809662611,-2.09683154338494,-1.82081867429875,-0.127479808357043,-1.86759571514116,-1.86759571514668,1.28883206779151,-1.28883206779077,0.0545865127055422,0.599215973979232,-1.75664376958905,,1.03009866080741,-1.38563973984882,0.142789642488272,-0.663253288652657,-1.2599660629668,-1.25996606296209,-0.0957071865460731,-1.13817543835723,-0.597798031796549,0.355130675220099,0.289411277426219,0.468786874069254,-0.0157120349765999,0.298574437099799,0.298574437099,,-1.55603059238484,,3.17439999999999,102,45.6573529411765,505.674019607843,640.348039215686,64.6264705882353,26.6882352941177,495.759803921569,515.588235294118,694.754901960784,585.941176470588,0
335.2576,-1.50077638982151,-2.22551636063507,,-0.460483928774073,-0.720924416612164,-0.720924416613988,,-1.33057936679362,-1.42862014499849,-0.850002634024727,-0.00401808291872245,-0.850002634023343,-0.193040704425299,-0.962271282317781,-1.17944350752689,-1.39809810570124,-0.529448202569586,-1.8066333527935,-0.506369964177203,-1.33209794101661,-0.506369964177122,-0.961558646907729,-2.13696436122575,-1.80799337279481,-0.153398458256531,-1.85342600370198,-1.85342600370754,1.29429251629813,-1.2942925162974,0.0282009370534986,0.596313088571087,-1.77156117662794,,0.989000067765086,-1.38802466083227,0.102303155974114,-0.677111496207445,-1.26892124171892,-1.26892124171421,-0.0871440659520844,-1.13730754390514,-0.58944285375283,0.345555783904337,0.284721858820963,0.457674770726872,-0.0294209236341041,0.310080623840431,0.31008062383964,,-1.50829739142711,,3.27680000000004,103,19.7708737864078,511.179126213592,645.247572815534,35.5650485436893,3.97669902912623,499.382524271845,522.97572815534,692.563106796117,597.932038834951,0
335.36,-1.6096670681672,-2.2387916262395,,-0.463447426639095,-0.738629996704399,-0.738629996706214,,-1.30701447947802,-1.39190361135729,-0.859601756647105,0.0332018249589538,-0.859601756645737,-0.208144914384333,-0.950813902361244,-1.1913760645734,-1.34940878401619,-0.517090395432338,-1.74654994992546,-0.486117587451908,-1.36338640690001,-0.486117587451804,-0.918131080690849,-2.17567531812619,-1.79419588351508,-0.178798662087225,-1.83769354897588,-1.83769354898149,1.29808339862798,-1.29808339862725,0.00153431457018375,0.592195124039067,-1.78419654229436,,0.945811516659674,-1.38904692258436,0.0606530446953733,-0.689270307812676,-1.27844829234916,-1.27844829234448,-0.079431354500283,-1.13553199841605,-0.581473198357276,0.335220748107897,0.281348073354292,0.446508374913664,-0.0427751982160153,0.321355099916677,0.321355099915898,,-1.45981506128153,,3.37920000000003,102,-14.8828431372549,515.857352941177,656.406862745098,-1.56862745098039,-28.1970588235294,505.580392156863,526.13431372549,705.676470588235,607.137254901961,0
335.4624,-1.71559214662287,-2.2488957651971,,-0.466558996121135,-0.756423050103178,-0.756423050104984,,-1.28251781305933,-1.3550605524447,-0.86893367419494,0.0706490780439048,-0.868933674193586,-0.223247308242433,-0.93821714354884,-1.20225055921916,-1.30001406024984,-0.505009159853834,-1.68580837131532,-0.465608219664941,-1.39273746810721,-0.465608219664819,-0.874512547538698,-2.21288619358712,-1.77949952778349,-0.203622097161949,-1.82041169735866,-1.82041169736428,1.30017831526363,-1.3001783152629,-0.0253168929951177,0.586863265801372,-1.79452333419172,,0.900673686339818,-1.3886777373435,0.0179903341641869,-0.69971613316528,-1.28846382830211,-1.28846382829741,-0.0725839602044384,-1.13284432689292,-0.573900935951059,0.32412338383924,0.279255708557313,0.435268896153714,-0.0556998159081726,0.332336988920086,0.332336988919313,,-1.41067165078767,,3.48160000000001,103,-0.783980582524273,513.382524271845,667.281553398058,10.9242718446602,-12.4922330097087,505.747572815534,521.017475728155,719.941747572816,614.621359223301,0
335.5648,-1.81838150548729,-2.25581462339258,,-0.469802610772633,-0.774280428156218,-0.774280428158017,,-1.2571634519905,-1.31821978833098,-0.877967255166428,0.108240886374181,-0.87796725516509,-0.238307712887019,-0.924493426560153,-1.21201853260521,-1.25002090408785,-0.493231392082028,-1.62454050106849,-0.444851700081462,-1.42012781332345,-0.444851700081328,-0.830850001314389,-2.24852178963567,-1.76397899397151,-0.227814448181788,-1.8015976126554,-1.80159761266107,1.30055494336514,-1.30055494336441,-0.0522576006795148,0.580321300647855,-1.80251997229985,,0.853734355567442,-1.38689153372398,-0.0255291448073926,-0.708443905737521,-1.29887833036217,-1.29887833035748,-0.066613345610085,-1.12924309928815,-0.566736092222566,0.312263514429899,0.278405539096945,0.423936932664311,-0.0681228204276213,0.342964937047037,0.342964937046276,,-1.36095681845621,,3.584,102,15.9302150153488,513.376619740783,687.320561694033,28.0577516827627,3.80267834793492,503.92476221832,522.828477263246,743.095149253731,631.545974134335,0
335.6672,-1.91787604130301,-2.25954525577181,,-0.473162482442701,-0.792176061787455,-0.792176061789247,,-1.23102637394762,-1.28150756415599,-0.886670693883392,0.145894622540027,-0.886670693882073,-0.253286531448828,-0.909657267500195,-1.22063432688127,-1.19953892229603,-0.481780223908859,-1.56287941147041,-0.423858095726432,-1.44554099950963,-0.423858095726282,-0.787289815122954,-2.28251032055682,-1.74771023849211,-0.251325487030314,-1.78127211021227,-1.78127211021796,1.29919498536582,-1.29919498536508,-0.0791944245521017,0.57257552912875,-1.80816988321182,,0.805147816555234,-1.38366604004223,-0.0697453635728298,-0.715456928617207,-1.30959658664957,-1.30959658664488,-0.0615274203625768,-1.12472995034293,-0.55998675711923,0.299642945998034,0.278753625638111,0.412492595359912,-0.0799757207158299,0.353177433035093,0.353177433034343,,-1.31076151052499,,3.68639999999999,102,27.1755831216259,513.967548031121,699.99046919657,39.7856343283582,14.5655319148936,503.257649253731,524.677446808511,760.166044776119,639.814893617021,0.352941176470588
335.7696,-2.01392806228747,-2.26009574964145,,-0.476623039531785,-0.810081013318853,-0.810081013320637,,-1.2041822158253,-1.24504701419839,-0.895011611903701,0.18352794585243,-0.895011611902402,-0.268144912843127,-0.893725157747677,-1.22805522697701,-1.14867999720647,-0.470674773776783,-1.50095884365055,-0.402637884551414,-1.4689675125877,-0.402637884551249,-0.743977403410835,-2.31478378524585,-1.7307703835482,-0.274109138682989,-1.75945950113048,-1.7594595011362,1.29608409539853,-1.2960840953978,-0.10603600444475,0.56363468430338,-1.81146154888492,,0.755074261992695,-1.37898237308126,-0.114494731585684,-0.720766686011403,-1.32051818673791,-1.32051818673323,-0.0573304593904105,-1.11930959345315,-0.553659014922147,0.28626545176751,0.280251629090824,0.400915647552027,-0.0911938522193053,0.362913138005679,0.362913138004933,,-1.26017764271801,,3.78880000000004,103,35.647294379168,515.648837726262,708.646332168943,51.7567164179105,19.5378723404255,502.607462686567,528.690212765957,773.55223880597,643.740425531915,0.300970873786408
335.872,-2.10640161178078,-2.25748499026441,,-0.480168911870898,-0.827963550695379,-0.827963550697152,,-1.17670703702159,-1.20895764935386,-0.902957143465187,0.221058942236238,-0.902957143463904,-0.282844913738617,-0.876715427023682,-1.23424157552862,-1.09755789182409,-0.459929966674045,-1.43891268305708,-0.381202135352488,-1.49040477826791,-0.38120213535231,-0.701056845174934,-2.34527831252881,-1.71323760216462,-0.296123530394896,-1.73618742959021,-1.73618742959596,1.29121178062767,-1.29121178062695,-0.132693318017464,0.553509855658264,-1.81238854477306,,0.703679147490299,-1.37282512154667,-0.159610752487087,-0.724392620019961,-1.33153805733299,-1.33153805732832,-0.0540230429749947,-1.11298982486629,-0.547756890362136,0.272136775469722,0.282847133205279,0.389185666306033,-0.101716726244784,0.3721112451564,0.37211124515566,,-1.20929777290299,,3.89120000000003,102,48.8702183232772,518.01460393589,719.916202311347,62.5655179982441,35.1749186483104,507.048778167984,528.980429703796,784.548800117062,655.283604505632,0
335.9744,-2.19517272587216,-2.25174237836187,,-0.483784908932942,-0.845789251588275,-0.845789251590033,,-1.14867707826255,-1.1733548644673,-0.910474000923736,0.258406275399971,-0.910474000922475,-0.297349653425778,-0.858648090002484,-1.23915686196269,-1.04628781481258,-0.449556430112743,-1.37687442561947,-0.359562681128056,-1.50985712726679,-0.359562681127871,-0.658670502051474,-2.37393447438471,-1.69519098319563,-0.317331018521095,-1.71148668742792,-1.71148668743369,1.28457127298836,-1.28457127298765,-0.15907997672976,0.542214414230637,-1.81094956167659,,0.651132527549259,-1.36518241247127,-0.204924695059949,-0.726361870300326,-1.3425470230318,-1.34254702302717,-0.0516020138008943,-1.10578151114563,-0.542282303055406,0.257264657774084,0.286483978889715,0.377282230741705,-0.111488365222774,0.38071189310461,0.380711893103882,,-1.15821475620516,,3.99360000000002,103,62.2373786407767,522.47427184466,731.296116504854,69.8106796116505,54.6640776699029,516.139805825243,528.808737864078,795.747572815534,666.844660194175,0
336.0768,-2.28012963108046,-2.24290750522151,,-0.487455977739012,-0.863521138197934,-0.86352113819968,,-1.12016851380186,-1.13834945999103,-0.917528522499257,0.29548933922583,-0.917528522498008,-0.311623462914449,-0.83954468101645,-1.24276779193866,-0.994985949333404,-0.439560460361065,-1.31497663631687,-0.337732287580759,-1.52733572065776,-0.337732287580561,-0.616958629349071,-2.40069756314976,-1.67671037285985,-0.337698184903772,-1.68539100024475,-1.68539100025052,1.27615937190987,-1.27615937190917,-0.185112493793599,0.529763937601963,-1.80714840788707,,0.597608364796502,-1.35604595361986,-0.250266275105705,-0.726708972188728,-1.35343237897805,-1.35343237897344,-0.0500604464598785,-1.09769855251805,-0.537235022746601,0.241658883097999,0.291102622159308,0.365185140680056,-0.120457616927901,0.38865665243849,0.388656652437767,,-1.10702138320274,,4.096,102,79.2240196078431,518.487254901961,740.607843137255,83.5,74.9480392156863,513.468627450981,523.505882352941,806.107843137255,675.107843137255,0
336.1792,-2.36117288561463,-2.23102979049308,,-0.491167130833548,-0.881119842624971,-0.881119842626703,,-1.09125719405956,-1.10404717196288,-0.924086705086023,0.332228399058046,-0.924086705084784,-0.32563202595631,-0.819428086663479,-1.24504434279535,-0.943768951099861,-0.429944048778582,-1.25335040140463,-0.315724818306457,-1.54285844178931,-0.315724818306252,-0.576058980808959,-2.42551783310166,-1.65787619360157,-0.35719579579109,-1.65793678428327,-1.65793678428904,1.26597627137789,-1.26597627137721,-0.21071051625769,0.516176137171009,-1.80099399291956,,0.543283816607767,-1.3454110500607,-0.295464343220295,-0.725475508458174,-1.36407846701097,-1.36407846700641,-0.0493876254371184,-1.08875781741449,-0.532612619567244,0.225331343550439,0.296640523595719,0.352874666513989,-0.128578446983883,0.395889091295505,0.395889091294789,,-1.05581000485251,,4.19839999999999,102,91.9553921568627,519.457352941177,739.225490196079,96.4725490196079,87.4382352941177,516.98137254902,521.933333333333,802.735294117647,675.71568627451,0
336.2816,-2.4382154641062,-2.21616809014938,,-0.494903345293603,-0.898543811546314,-0.898543811548026,,-1.06201837911036,-1.07054821100737,-0.930114221978971,0.368544714726048,-0.930114221977746,-0.339342508053251,-0.798322384865955,-1.24595980704064,-0.892753410726445,-0.420704967280858,-1.19212476835616,-0.293555389649466,-1.5564497648415,-0.293555389649256,-0.536106409316337,-2.44835071871304,-1.63876924814654,-0.375798722459755,-1.62916287153086,-1.62916287153661,1.254025389765,-1.25402538976434,-0.235797019505237,0.501470788913911,-1.79250029723609,,0.488338504640417,-1.33327659718015,-0.340347574596561,-0.722709713402095,-1.37436725244622,-1.37436725244169,-0.0495690292387879,-1.07897904793928,-0.528410407013787,0.208296118877051,0.30303256623186,0.340331827747657,-0.135810220340023,0.402355416880288,0.402355416879577,,-1.00467214428469,,4.30080000000004,103,104.43932038835,519.669902912621,740.936893203884,110.17572815534,98.7029126213592,513.952427184466,525.387378640777,803.631067961165,678.242718446602,0
336.384,-2.51118278448321,-2.19839028197287,,-0.49864944653896,-0.91574956255973,-0.915749562561423,,-1.03252646960556,-1.03794682072776,-0.935576426135951,0.404360646322824,-0.935576426134734,-0.352723671344127,-0.776252693321021,-1.24549082346147,-0.842055269837611,-0.411836923020619,-1.1314261664649,-0.271240500964029,-1.56814061216917,-0.271240500963813,-0.497232467184743,-2.46915705243721,-1.61947052299654,-0.393485830808941,-1.59911020258452,-1.59911020259027,1.24031321329506,-1.24031321329441,-0.26029847035339,0.485669664824508,-1.78168633325627,,0.432953769830023,-1.31964505580035,-0.384745161840993,-0.718466034235515,-1.38417890709794,-1.38417890709349,-0.0505863202908373,-1.06838473948478,-0.524621378738459,0.190569570895464,0.310211491137195,0.327538693553236,-0.142117983543682,0.40800518580601,0.408005185805303,,-0.953698092105813,,4.40320000000003,102,119.513235294118,521.506862745098,750.901960784314,127.171568627451,111.854901960784,510.440196078431,532.573529411765,812.980392156863,688.823529411765,0
336.4864,-2.5800126787555,-2.17777282953068,,-0.502389996476531,-0.93269199311663,-0.932691993118301,,-1.00285474488493,-1.00633086896807,-0.940438345182892,0.439599748722828,-0.940438345181686,-0.365745972019891,-0.753245031308899,-1.24361739452823,-0.79178919176617,-0.40332978838993,-1.07137781187746,-0.248798128391367,-1.57796820760244,-0.24879812839115,-0.459565011230439,-2.48790329788984,-1.6000610033144,-0.410239851589821,-1.56782149725378,-1.56782149725951,1.22484915660272,-1.22484915660209,-0.284144969414379,0.468796461273696,-1.76857610236349,,0.377311912243473,-1.30452241602354,-0.428487515377426,-0.712804660091499,-1.39339240985951,-1.39339240985516,-0.0524173413889603,-1.05699999836086,-0.521236141608355,0.172170447924225,0.318108340056833,0.314478695984867,-0.147472743967616,0.412792061942758,0.412792061942062,,-0.902976487009519,,4.50560000000002,103,283.898058252427,518.439805825243,769.354368932039,288.712621359223,279.083495145631,512.115533980583,524.764077669903,837.708737864078,701,0
336.5888,-2.64465531398111,-2.15440031708173,,-0.506109202601798,-0.949324725811337,-0.949324725812986,,-0.973075116177908,-0.975781481633111,-0.944664679808997,0.474186862598854,-0.944664679807809,-0.378381633027787,-0.729326204958375,-1.24032288864203,-0.742067906851756,-0.395169893963349,-1.0120991136156,-0.226247778491049,-1.58597592318805,-0.226247778490831,-0.423227820617824,-2.50456179107449,-1.58062150161573,-0.426047242424624,-1.53534092469313,-1.53534092469884,1.20764544389399,-1.20764544389336,-0.307270383095918,0.450876723489597,-1.75319855011297,,0.321595415797886,-1.28791815556356,-0.471406974904043,-0.705791031280687,-1.40188617194189,-1.40188617193767,-0.0550361200843483,-1.04485238087512,-0.518242847856793,0.153119991667245,0.326652900003461,0.301136946410315,-0.15185172200432,0.416674578312932,0.416674578312244,,-0.852593896032832,,4.608,102,302.227450980392,518.373039215686,786.441176470588,309.093137254902,295.361764705882,516.556862745098,520.189215686275,862.039215686275,710.843137254902,0
336.6912,-2.70507307232611,-2.1283649437682,,-0.50979085879673,-0.965600464842851,-0.965600464844482,,-0.943257899600967,-0.946372724472065,-0.948219819117568,0.508048209877752,-0.948219819116391,-0.390604684551018,-0.704523726996674,-1.23559402622399,-0.693001561922035,-0.387340359024614,-0.953705101778048,-0.203610504143289,-1.59221311038171,-0.203610504143076,-0.388340238412896,-2.51911096439765,-1.56123249596161,-0.440898050269399,-1.50171379933085,-1.50171379933652,1.18871701556504,-1.18871701556441,-0.329612473405371,0.43193776805685,-1.73558751794441,,0.265986160148404,-1.26984519738775,-0.513338532625218,-0.697495341433513,-1.40953868321492,-1.40953868321076,-0.0584128828313073,-1.0319717174957,-0.515627129649312,0.13344203777723,0.335774149440652,0.287500546905726,-0.155238543265729,0.41961684920161,0.419616849200929,,-0.802634415153521,,4.71039999999999,102,178.066666666667,526.172549019608,793.372549019608,190.672549019608,165.460784313726,521.773529411765,530.571568627451,871.656862745098,715.088235294118,0
336.7936,-2.76124039942039,-2.09976596751621,,-0.513418322246453,-0.981471341776228,-0.981471341777841,,-0.913471611464658,-0.918171335196401,-0.951067884512872,0.541111499012118,-0.951067884511711,-0.402390968580903,-0.678865776312934,-1.2294208490854,-0.644697097782284,-0.379821439857602,-0.896305895270249,-0.180908886668245,-1.59673490754841,-0.180908886668036,-0.355016848206801,-2.53153552977235,-1.54197397445071,-0.454785780175323,-1.46698632209306,-1.46698632209868,1.16808146333229,-1.16808146333166,-0.351113031054987,0.412008604961713,-1.7157816860362,,0.21066462203916,-1.2503198690135,-0.554120567492586,-0.687992042625449,-1.41622916846966,-1.4162291684656,-0.0625140800523214,-1.0183899254509,-0.5133720386388,0.113163103059733,0.345400705377766,0.273558889802513,-0.157623343989912,0.421589189854945,0.421589189854274,,-0.753179304472546,,4.81280000000004,103,151.114563106796,522.154854368932,792.932038834951,161.508737864078,140.720388349515,519.378640776699,524.931067961165,869.388349514563,716.47572815534,0
336.896,-2.81314362826141,-2.06870909440842,,-0.516974523779358,-0.996889238552791,-0.996889238554383,,-0.883782785308322,-0.891236504336166,-0.953172807583075,0.573306040347233,-0.953172807581932,-0.413718106831103,-0.652381196410148,-1.22179667110165,-0.597257665385624,-0.372590889922781,-0.840006218230285,-0.15816698699676,-1.59960202062566,-0.158166986996554,-0.323367195352272,-2.54182660943205,-1.52292528760158,-0.46770727283776,-1.43120537148987,-1.43120537149547,1.14575899438224,-1.14575899438161,-0.371718013535936,0.391119858793438,-1.6938245002133,,0.155809066815136,-1.22936186045563,-0.593595587980336,-0.677359358562774,-1.42183824287658,-1.42183824287266,-0.0673024204736244,-1.004140810826,-0.511457989451417,0.0923124570986589,0.355461266860166,0.259303941128826,-0.159002776857498,0.422568623687438,0.422568623686773,,-0.704306663069108,,4.91520000000003,102,162.904411764706,522.744607843137,795.392156862745,172.379411764706,153.429411764706,523.469607843137,522.019607843137,871.705882352941,719.078431372549,0
336.9984,-2.86078078211765,-2.03530581387277,,-0.520442003090266,-1.01180608201882,-1.01180608202039,,-0.854255806702881,-0.865619699044935,-0.954498439044462,0.604562868772685,-0.954498439043336,-0.424565432022674,-0.625099526308167,-1.21271800427032,-0.55078208088368,-0.365624332470775,-0.784904965630924,-0.13541026661693,-1.60088047801416,-0.135410266616728,-0.293495560551801,-2.54998181109167,-1.50416501285805,-0.479662589689112,-1.39441833612943,-1.39441833613497,1.12177241980178,-1.12177241980112,-0.391377684903602,0.369303687056163,-1.66976407563005,,0.101594729837093,-1.20699417284213,-0.631610978824139,-0.665678805309074,-1.42624856067337,-1.42624856066957,-0.0727369093283691,-0.989259856828707,-0.509862700588502,0.070922181106949,0.365885048644731,0.244730507480107,-0.159379912971581,0.422539275467602,0.422539275466946,,-0.656091145778152,,5.01760000000002,103,188.91213592233,521.324757281553,797.441747572816,195.341747572816,182.482524271845,521.180582524272,521.468932038835,875.466019417476,719.417475728155,0
337.1008,-2.90416135580765,-1.99967268259256,,-0.52380295786142,-1.02617410167981,-1.02617410168136,,-0.82495276275005,-0.841364522599051,-0.955008679746035,0.63481487235148,-0.95500867974492,-0.434913883630796,-0.597051051469891,-1.20218445027025,-0.505364313738066,-0.35889564681354,-0.731094812133228,-0.112665476875555,-1.60064136270542,-0.112665476875355,-0.2655007905684,-2.55600524747514,-1.48577083487697,-0.49065490093476,-1.35667297756715,-1.35667297757264,1.09614715163514,-1.09614715163445,-0.410046749503164,0.346593693107939,-1.6436530698546,,0.0481929870655991,-1.1832430491802,-0.668019747282437,-0.65303471530208,-1.42934545198586,-1.42934545198223,-0.0787728814572464,-0.973783991019658,-0.508561121178644,0.0490272192974644,0.376602202278275,0.229836489827152,-0.158764034331547,0.421492659524558,0.421492659523913,,-0.608603723155331,,5.12000000000001,102,242.99068627451,519.838725490196,806.279411764706,247.033333333333,238.948039215686,517.554901960784,522.122549019608,886.254901960784,726.303921568627,0
337.2032,-2.943306072496,-1.96193056209235,,-0.52703929539881,-1.03994603825802,-1.03994603825955,,-0.795933307051096,-0.818506602912952,-0.95466762372445,0.663996927545454,-0.954667623723349,-0.444745870597337,-0.56826685982804,-1.19019854743725,-0.461092998962822,-0.352377372533718,-0.678661856223022,-0.0899605153418597,-1.59896052448326,-0.0899605153416615,-0.239476183645162,-2.55990750473044,-1.46781944202081,-0.50069036947474,-1.3180173164578,-1.31801731646326,1.06891118490945,-1.06891118490873,-0.427684469208916,0.323024833573671,-1.61554851963125,,-0.00422948550618775,-1.15813788230633,-0.702681266228461,-0.639513758955257,-1.43101753924824,-1.43101753924477,-0.0853620183174342,-0.957751324522081,-0.507525330232873,0.026665428024641,0.387544226136575,0.214623129857964,-0.15717030971652,0.419427877042088,0.419427877041455,,-0.561911481289798,,5.22239999999999,102,250.037745098039,517.277941176471,824.970588235294,254.189215686275,245.886274509804,514.054901960784,520.500980392157,905.490196078431,744.450980392157,0
337.3056,-2.97824661343463,-1.92220381780792,,-0.530132675419475,-1.05307529561738,-1.05307529561889,,-0.767254539326125,-0.79707350213996,-0.953439705964656,0.692046040422412,-0.953439705963569,-0.454045106390065,-0.538778890744142,-1.17676556991716,-0.418050968198561,-0.346041133324092,-0.627685294505808,-0.0673242533197054,-1.59591827169064,-0.0673242533195137,-0.215509416951679,-2.56170556475908,-1.45038643187519,-0.509778022724755,-1.27849953597331,-1.27849953597875,1.04009504546499,-1.04009504546422,-0.444254753458398,0.298633324020756,-1.5855116400795,,-0.0555115597799881,-1.13171109972317,-0.73546201029189,-0.625204458029147,-1.4311573247941,-1.43115732479079,-0.0924523434387529,-0.941200860830188,-0.506724402257831,0.00387762394751545,0.39864436580421,0.199095250681324,-0.154619354050416,0.416351734166187,0.416351734165563,,-0.516077453914239,,5.32480000000004,103,257.523300970874,521.997572815534,847.373786407767,261.090291262136,253.956310679612,516.177669902913,527.817475728155,926.631067961165,768.116504854369,0
337.408,-3.00902531872613,-1.88061949178565,,-0.533064534179215,-1.06551603997221,-1.06551603997369,,-0.738970889086568,-0.777084636303167,-0.951289851079653,0.718901490530287,-0.951289851078574,-0.46279642899584,-0.508619968221963,-1.16189328974655,-0.376314806018466,-0.339858065963341,-0.578237126547473,-0.044786348303097,-1.59159903665654,-0.044786348302911,-0.193682494046877,-2.56142267977383,-1.433546208107,-0.517929605355095,-1.23816789316078,-1.23816789316621,1.00973169833138,-1.00973169833056,-0.459726213093791,0.273456549018082,-1.55360758937337,,-0.105498497739487,-1.10399802915125,-0.766236274912505,-0.610196685746739,-1.42966174749071,-1.4296617474876,-0.0999882076697304,-0.924172178400415,-0.506124251650602,-0.0192923771024317,0.409838001344722,0.183261482545742,-0.151136686997157,0.412278783407497,0.412278783406888,,-0.471160481353361,,5.42720000000003,102,269.975490196078,521.898039215686,867.642156862745,270.382352941176,269.56862745098,518.006862745098,525.789215686275,946.117647058824,789.166666666667,0
337.5104,-3.03569485647677,-1.83730646608328,,-0.535816084413413,-1.07722325795395,-1.07722325795541,,-0.711133983065987,-0.758551193792836,-0.94818362215062,0.744504972053497,-0.948183622149545,-0.470985626530669,-0.477823812223479,-1.14559172703468,-0.33595444889639,-0.333799223694244,-0.530381895387379,-0.0223770628418259,-1.58609100628209,-0.0223770628416495,-0.174071685315374,-2.55908819256054,-1.41737184470012,-0.525159408416296,-1.1970706278649,-1.19707062787031,0.977856425736949,-0.977856425736079,-0.474072172076423,0.247532982868779,-1.5199052044617,,-0.154042764535501,-1.07503675169538,-0.794886860272511,-0.594581150435458,-1.42643271281468,-1.42643271281172,-0.107910294622127,-0.90670509728907,-0.505687488755391,-0.0427977492298162,0.421063012696573,0.167134452082086,-0.146752124665152,0.40723128204055,0.407231282039953,,-0.427215097271992,,5.52960000000002,103,284.316019417476,521.933495145631,889.436893203884,282.774757281553,285.857281553398,523.119417475728,520.747572815534,968.174757281554,810.699029126214,0
337.6128,-3.05831785740495,-1.79239463606501,,-0.53836829289123,-1.08815278788553,-1.08815278788698,,-0.68379247733323,-0.741476049191039,-0.944087371276823,0.768800726827541,-0.94408737127574,-0.478599289657327,-0.446425026479967,-1.12787291838792,-0.297032844444247,-0.327835925208889,-0.484176469951067,-0.000127109457004204,-1.57948571278388,-0.000127109456830591,-0.15674743741567,-2.55473729914418,-1.40193489758158,-0.531484074146267,-1.15525586266505,-1.15525586267046,0.944506692710617,-0.944506692709698,-0.487270635713121,0.220902125244503,-1.48447671616112,,-0.201004786403815,-1.04486795039328,-0.821305700028709,-0.578448863104978,-1.42137760219232,-1.42137760218954,-0.116155682618342,-0.888839343715282,-0.505373327563836,-0.0665886942310132,0.432260114430643,0.150730911747399,-0.141499146404687,0.401239059149577,0.401239059148988,,-0.384291447524977,,5.63200000000001,102,296.968137254902,526.358823529412,903.5,296.66568627451,297.270588235294,527.875490196078,524.842156862745,987.78431372549,819.21568627451,0
337.7152,-3.07696651419552,-1.74601410998914,,-0.540701847231462,-1.09826134070483,-1.09826134070626,,-0.656991848413091,-0.725853682924358,-0.938968395097869,0.791735667169175,-0.938968395096779,-0.485624702333138,-0.414459068571778,-1.10875072612303,-0.259605678235996,-0.321940038926288,-0.43966987272052,0.0219324709519572,-1.57187758683509,0.0219324709521258,-0.141774238027309,-2.54841075834857,-1.38730515540026,-0.536922381512238,-1.11277149237224,-1.11277149237763,0.909722019755244,-0.909722019754267,-0.499304220614408,0.193604450303045,-1.44739745554495,,-0.246253635611251,-1.01353475976575,-0.845394421318396,-0.561890595554234,-1.41440976389451,-1.41440976389189,-0.124657987036308,-0.870614227385936,-0.505137573922684,-0.0906125389514534,0.44337315843105,0.134071798682718,-0.135414269322547,0.394339289145579,0.394339289145001,,-0.342435241970774,,5.73439999999999,102,310.444117647059,528.474019607843,908.916666666667,310.037254901961,310.850980392157,528.058823529412,528.889215686275,998.794117647059,819.039215686274,0
337.8176,-3.09172214909108,-1.69829444544908,,-0.542797130373859,-1.10750652733355,-1.10750652733496,,-0.630774151279722,-0.711670127507563,-0.932795100222952,0.813259490536305,-0.932795100221852,-0.49204977090505,-0.381962212616113,-1.08824069787199,-0.223721166848431,-0.316084207594185,-0.396903153478396,0.0437704021536379,-1.56336348044099,0.0437704021537981,-0.129210430446688,-2.54015455814746,-1.37355033025526,-0.541495022973608,-1.06966506383776,-1.06966506384313,0.873543876863431,-0.873543876862399,-0.510160057369689,0.165681360677911,-1.40874556434258,,-0.289667636469089,-0.981082619039321,-0.86706483198688,-0.54499634202482,-1.40544898172592,-1.40544898172351,-0.133347588467805,-0.852068345784657,-0.504932705635976,-0.11481389017128,0.454349410064477,0.117182227622587,-0.128536445451157,0.386576178532879,0.386576178532307,,-0.301687733832485,,5.83680000000004,103,323.82427184466,518.628155339806,903.820388349515,322.526213592233,325.122330097087,519.390291262136,517.866019417476,994.330097087379,813.31067961165,0
337.92,-3.10267475703108,-1.64936392782258,,-0.544634217698754,-1.11584690476033,-1.11584690476172,,-0.605177756107789,-0.698902959405815,-0.925537184408626,0.83332478721358,-0.925537184407513,-0.497862987330553,-0.348971511058949,-1.06635997629414,-0.1894199162806,-0.310242019160008,-0.355909310961085,0.0653552450056114,-1.55404216808227,0.0653552450057618,-0.119107975985189,-2.53001954705515,-1.36073569094763,-0.545224383567469,-1.02598364565446,-1.0259836456598,0.836015603837922,-0.83601560383683,-0.519829677114672,0.137175134665647,-1.36860171680391,,-0.331134893008161,-0.94755913094509,-0.886239336749714,-0.527854799399421,-1.39442191163267,-1.39442191163041,-0.142151942151096,-0.833239326624812,-0.504708045244799,-0.139134838813053,0.465139801581038,0.100091427244643,-0.120906485241633,0.378000573653055,0.378000573652491,,-0.262085719630101,,5.93920000000003,102,338.837732563521,517.873847942796,897.390331451227,337.785436432638,339.890028694405,515.865955091714,519.881740793879,989.494149272612,805.286513629842,0
338.0224,-3.10992253237296,-1.59934889334256,,-0.546192901526265,-1.12324204501534,-1.1232420450167,,-0.580237076144881,-0.687521347315497,-0.917165836355028,0.851887137544419,-0.917165836353909,-0.503053422497395,-0.315524755821948,-1.04312725311732,-0.156734846495524,-0.304388127326347,-0.31671326484196,0.0866554554012431,-1.54401383617701,0.0866554554013869,-0.111512168387649,-2.51806103499046,-1.34892364420729,-0.54813432901417,-0.981773686611944,-0.981773686617233,0.797182354308584,-0.797182354307435,-0.528308888273361,0.108128859104975,-1.32704885247318,,-0.370553739838033,-0.913013928223454,-0.902851285020858,-0.510552877203219,-1.38126247469943,-1.38126247469728,-0.150995960845336,-0.814163613618812,-0.5044100205001,-0.163515204784916,0.475699159871084,0.0828326265433838,-0.11256650993724,0.368669491970869,0.368669491970313,,-0.223661558536966,,6.04160000000002,103,354.988527734068,521.994190597954,887.433900472069,355.872177419355,354.10487804878,516.439112903226,527.549268292683,983.560483870968,791.307317073171,0.456310679611651
338.1248,-3.11357138440616,-1.54837309954262,,-0.547452741567676,-1.12965262309805,-1.12965262309939,,-0.555982303549133,-0.67748616277293,-0.90765395070688,0.868905194869098,-0.907653950705762,-0.507610743739655,-0.281660439211486,-1.01856275907471,-0.125691178422969,-0.29849833007336,-0.279331877819078,0.107639435288958,-1.53337957308529,0.107639435289093,-0.106461314380457,-2.50433837084368,-1.33817327831712,-0.550250005165829,-0.937080866627409,-0.937080866632648,0.757091059089776,-0.757091059088577,-0.535597645839975,0.078586348254098,-1.28417191488273,,-0.407833117230466,-0.877498548823149,-0.916845251991356,-0.493175243428858,-1.36591220137506,-1.36591220137307,-0.159802457691894,-0.794876294659043,-0.503982499605586,-0.187892812775368,0.48598640268617,0.0654428972506337,-0.103559436672414,0.358645582128071,0.358645582127522,,-0.186443216873361,,6.14400000000001,102,371.974587469724,527.653341943583,879.169063170115,374.131384408602,369.817790530847,517.51170540797,537.794978479197,977.287911132195,781.050215208034,0
338.2272,-3.11373444393779,-1.4965571465625,,-0.548393141253443,-1.13504051533985,-1.13504051534117,,-0.532439174019754,-0.668750158663616,-0.896976351642312,0.884340757001382,-0.896976351641196,-0.511525249684045,-0.24741771653561,-0.992688281291385,-0.0963064760355207,-0.292549619931108,-0.243774025987061,0.128275586052168,-1.52224086978222,0.128275586052294,-0.103986400555908,-2.48891451002515,-1.32853989125653,-0.551597650300236,-0.891949952855977,-0.891949952861179,0.715790404196124,-0.715790404194873,-0.541699915998275,0.0485920535179588,-1.24005759184951,,-0.442892872007136,-0.841066319766404,-0.928177254442593,-0.475803909993941,-1.34832052985665,-1.34832052985478,-0.168492630174232,-0.775410968883281,-0.503367182080166,-0.2122037884122,0.495964697849627,0.0479629593614868,-0.0939284982893067,0.347996527580728,0.347996527580182,,-0.150454342756754,,6.24639999999999,102,385.137745098039,533.764705882353,885.073529411765,386.456862745098,383.81862745098,522.730392156863,544.799019607843,976.960784313725,793.186274509804,0
338.3296,-3.1105315630274,-1.44401795327596,,-0.548993451777777,-1.13936890054103,-1.13936890054234,,-0.509628777475082,-0.661258220317015,-0.885110020232415,0.898158835262139,-0.885110020231299,-0.514787918814605,-0.212836368811736,-0.965527201231226,-0.0685907378105426,-0.286520217753567,-0.210040716623296,0.148532370511031,-1.51069913479353,0.148532370511155,-0.104110767168583,-2.47185558448216,-1.3200745253715,-0.552204422678726,-0.846424677329787,-0.846424677334956,0.673330815831595,-0.673330815830294,-0.546623540472039,0.0181909683101626,-1.1947940561091,,-0.475663987045743,-0.803772250020109,-0.936814904173006,-0.458517861610859,-1.32844506237064,-1.3284450623689,-0.176986567802227,-0.755799649436419,-0.502504027649752,-0.236382865922067,0.505601581755996,0.0304369561079395,-0.083716798998243,0.336794414776427,0.336794414775885,,-0.115714367540893,,6.34880000000004,103,393.433980582524,535.453398058252,871.145631067961,394.392233009709,392.47572815534,524.553398058253,546.353398058252,956.68932038835,785.601941747573,0
338.432,-3.10408881106651,-1.39086829228076,,-0.549233102848867,-1.14260235865714,-1.14260235865843,,-0.487567421911505,-0.654947689031865,-0.872034322468461,0.910327729395592,-0.87203432246734,-0.517390470896894,-0.177956761273048,-0.937104547946962,-0.042546533916024,-0.280389597029596,-0.178125252581017,0.168378383611794,-1.49885522070358,0.16837838361192,-0.106849806368615,-2.45323048044578,-1.31282352461874,-0.552098244907718,-0.800547647590339,-0.800547647595485,0.629764444164858,-0.629764444163507,-0.550380103569314,-0.0125714692162288,-1.14847070758139,,-0.5060887419918,-0.765672932530095,-0.942737501591012,-0.44139272999025,-1.30625178044674,-1.30625178044517,-0.185203772134445,-0.73607269935753,-0.501331711425091,-0.260363701714545,0.514869038750294,0.012912204292442,-0.0729669093932014,0.325115090837175,0.325115090836635,,-0.0822386239263515,,6.45120000000003,102,402.477941176471,534.023039215686,833.916666666667,405.549019607843,399.406862745098,521.337254901961,546.708823529412,912.519607843137,755.313725490196,0
338.5344,-3.09453797042498,-1.33721638677627,,-0.549091753619737,-1.14470696298271,-1.14470696298398,,-0.466266548168681,-0.649748751544453,-0.857731234281497,0.920819112042977,-0.857731234280377,-0.519325440593498,-0.1428197946512,-0.907447062836272,-0.0181691847912795,-0.274138504283703,-0.148013441046498,0.18778242696125,-1.48680895671245,0.187782426961381,-0.112210696764783,-2.43311042346463,-1.30682812325987,-0.551307663406306,-0.754360295449471,-0.754360295454573,0.585145141766989,-0.585145141765596,-0.552984800675843,-0.0436494734397303,-1.10117791890973,,-0.534120806331955,-0.726826454181834,-0.94593606982649,-0.424500511019404,-1.28171522135398,-1.28171522135256,-0.193063681979841,-0.716258797572621,-0.499788097355456,-0.284079191704774,0.523743550579678,-0.00456107349812409,-0.0617205050006546,0.313037538357351,0.313037538356812,,-0.0500384720007525,,6.55360000000002,103,413.220388349515,538.652427184466,798.315533980583,419.17572815534,407.265048543689,522.65145631068,554.653398058252,873.504854368932,723.126213592233,0
338.6368,-3.08201603293152,-1.2831655712303,,-0.548549452621633,-1.14565036516737,-1.14565036516862,,-0.445732690537854,-0.645584885357752,-0.842185558658194,0.929608123207941,-0.842185558657074,-0.520586263535958,-0.107466845589423,-0.876583272922753,0.00455302459928801,-0.267748979815124,-0.119683842256055,0.206713581660909,-1.47465868328753,0.206713581661035,-0.120192180245695,-2.4115685692026,-1.30212406977691,-0.549861717647595,-0.707902863576191,-0.70790286358125,0.539528434499609,-0.53952843449816,-0.554456302717679,-0.0749970073481399,-1.05300678405731,,-0.559725266765122,-0.687292310247407,-0.946413329125015,-0.407909318556255,-1.25481861840149,-1.2548186184002,-0.200486197059427,-0.696384931048135,-0.497810721943052,-0.307461791663747,0.532206128189989,-0.0219300281243532,-0.05001805103989,0.30064328938911,0.30064328938857,,-0.0191214299394425,,6.65600000000001,102,424.048599439776,534.192226890756,785.538165266107,431.362745098039,416.734453781513,522.149019607843,546.23543417367,859.818627450981,711.257703081233,0
338.7392,-3.06666469489636,-1.22881401724724,,-0.547586793017895,-1.14540187590676,-1.14540187590799,,-0.42596747992469,-0.642373348490174,-0.825385128481063,0.936673472615997,-0.825385128479948,-0.521167375956375,-0.0719396907652256,-0.844543569287403,0.0256386014502047,-0.261204378913665,-0.0931080508612408,0.225141276722074,-1.46250078929185,0.225141276722199,-0.130784384258373,-2.38867959977507,-1.29874128834339,-0.547789811424424,-0.661214421670401,-0.661214421675406,0.492971482063619,-0.492971482062116,-0.554816608510884,-0.10656787643721,-1.00404886770323,,-0.582878592832373,-0.647131315957524,-0.944183610847408,-0.391683166018059,-1.22555400369568,-1.22555400369451,-0.207392191922034,-0.676476408447463,-0.495337278501257,-0.33044383799267,0.54024233352215,-0.0391394684213698,-0.0378985359458928,0.288015889120348,0.288015889119809,,0.0105086903441988,,6.7584,102,434.532165167416,528.140204897551,800.558002248876,444.553985507246,424.510344827586,515.394202898551,540.886206896552,877.08152173913,724.034482758621,0.686274509803922
338.8416,-3.0486298454238,-1.17425452429161,,-0.546185050582175,-1.14393254141378,-1.14393254141499,,-0.406967686691552,-0.640025701489385,-0.807320988678313,0.941997543348069,-0.807320988677204,-0.521064327098206,-0.0362804131908102,-0.811360288066795,0.0451125782364146,-0.25448938865182,-0.0682510015226374,0.243035352695849,-1.45042925593149,0.243035352695973,-0.143968693194654,-2.36451932733864,-1.29670358150439,-0.545121578188036,-0.614332897216386,-0.614332897221338,0.445533028648286,-0.445533028646735,-0.554090877016305,-0.138315817552718,-0.954395954190793,,-0.603568542552812,-0.606405505168293,-0.939272706683754,-0.375881766015112,-1.19392226959774,-1.19392226959665,-0.213704013761984,-0.656556890200487,-0.492306093771446,-0.352957865242983,0.54784229135453,-0.0561321476130585,-0.0253992561432331,0.27524041281399,0.275240412813454,,0.0388516430409864,,6.86080000000004,103,445.431575023861,527.525523438004,818.531243566843,457.552173913044,433.310976134679,507.669565217391,547.381481658616,896.021739130435,741.040748003252,0.0485436893203884
338.944,-3.02806104247026,-1.11957437179695,,-0.544326298865632,-1.14121521247068,-1.14121521247189,,-0.388725299789412,-0.638448352495103,-0.787987555333221,0.945566486648505,-0.787987555332131,-0.520273901149098,-0.000531297357373706,-0.777067795330715,0.0630062238864621,-0.247590031544832,-0.0450712928731612,0.260366120667363,-1.43853521411324,0.260366120667484,-0.159717672716374,-2.33916430832425,-1.2960283786974,-0.541886736004723,-0.567295108333427,-0.567295108338352,0.397273349294757,-0.397273349293146,-0.552307235724979,-0.170194578272286,-0.904139799803701,,-0.621794004839301,-0.565178010115589,-0.93171764639286,-0.360560340595073,-1.15993318929966,-1.15993318929873,-0.219345965035257,-0.636648430760116,-0.488656595843548,-0.374936920122021,0.555000686905367,-0.0728490534763376,-0.0125556535400349,0.262403039329215,0.262403039328683,,0.0659106085805734,,6.96320000000003,102,455.933429241262,534.689343563512,852.806106138108,467.129603580563,444.737254901961,509.504177323103,559.874509803922,932.07299658994,773.539215686275,0
339.0464,-3.00511097373838,-1.06485522741944,,-0.541993508052632,-1.13722460913392,-1.13722460913512,,-0.371227640960918,-0.637543123964601,-0.767382755488775,0.947370300772783,-0.767382755487704,-0.51879424494192,0.0352652765939482,-0.741702579668049,0.0793567318432172,-0.240493648398644,-0.0235215275711831,0.277104418733972,-1.42690652186292,0.277104418734088,-0.177995048910721,-2.31269147042739,-1.29672653312183,-0.538114935145606,-0.520136796493486,-0.52013679649836,0.348254196820537,-0.348254196818872,-0.549496569290439,-0.202157984898144,-0.853371896151506,,-0.637564776438407,-0.52351292354951,-0.921566402703649,-0.345769441845489,-1.12360540150465,-1.12360540150382,-0.22424477650547,-0.616771532210993,-0.48432977824669,-0.39631487515249,0.561716745219735,-0.0892297071211005,0.000598793207520321,0.249590681646529,0.249590681645996,,0.0916920599544863,,7.06560000000002,103,466.874757281553,534.621844660194,889.174757281553,474.15145631068,459.598058252427,512.635922330097,556.607766990291,975.436893203883,802.912621359223,0
339.1488,-2.97993490532547,-1.01017310614097,,-0.539170642856471,-1.13193739461579,-1.13193739461698,,-0.354457515410035,-0.637207845922208,-0.745508155176898,0.947402894284415,-0.745508155175843,-0.516624998905389,0.0710669336508358,-0.705303354300906,0.0942068843706287,-0.233188862114506,-0.00354866998335904,0.29322167104406,-1.41562736608621,0.293221671044167,-0.198755741258222,-2.28517775083876,-1.29880216541735,-0.533835608613752,-0.472892664010424,-0.472892664015257,0.298538748625169,-0.29853874862345,-0.545692299827632,-0.23416000241435,-0.802183250354506,,-0.650901278363543,-0.481475146596616,-0.908877530119262,-0.33155479127412,-1.08496636277488,-1.08496636277419,-0.228330073013597,-0.596945211955145,-0.47926866356211,-0.417026744880829,0.567994188995521,-0.105212474691162,0.0140326241483186,0.236890663044682,0.236890663044148,,0.116205634955013,,7.16800000000001,102,480.826960784314,541.729411764706,898.676470588235,486.66862745098,474.985294117647,522.425490196078,561.033333333333,993.441176470588,803.911764705882,0
339.2512,-2.95269012717385,-0.955598374840747,,-0.5358427731113,-1.12533227140073,-1.12533227140191,,-0.338393400183422,-0.637336979659175,-0.722369082474499,0.945662137647303,-0.722369082473461,-0.513767429798445,0.106831398500051,-0.667911167611885,0.10760469255599,-0.225665535958325,0.0149055715940791,0.308689953832406,-1.40477789035989,0.308689953832504,-0.221945946179675,-2.25669974496595,-1.30225255130143,-0.529077837173946,-0.425596420948852,-0.425596420953651,0.248191553140403,-0.248191553138627,-0.540930171777224,-0.266154790788003,-0.750664183326071,,-0.66183421973201,-0.439130223004612,-0.893719745534612,-0.317957149842657,-1.04405226726902,-1.04405226726844,-0.231534827874344,-0.577187086367701,-0.473418763592615,-0.437009005454993,0.573841169400883,-0.120734895413322,0.0277164034621809,0.224390415055147,0.224390415054609,,0.139464009813845,,7.2704,102,493.504411764706,539.350980392157,857.916666666667,500.258823529412,486.75,524.036274509804,554.66568627451,950.558823529412,765.274509803922,0
339.3536,-2.92353540454329,-0.901195796806165,,-0.531996201824452,-1.11739009992638,-1.11739009992755,,-0.323009670718458,-0.637822270835714,-0.697974747040201,0.942149903625412,-0.697974747039184,-0.510224562094045,0.142516583008504,-0.629569518221782,0.119603010915723,-0.217914742316376,0.0319043294916847,0.323482070264399,-1.39443385041544,0.323482070264492,-0.247503268196931,-2.22733337089184,-1.30706805352986,-0.52387023530799,-0.378280843497133,-0.378280843501921,0.19727848141564,-0.19727848141381,-0.5352480491571,-0.298096756799119,-0.698904145971942,,-0.670404212318758,-0.396544159154251,-0.876171453443811,-0.305012226689493,-1.00090793221542,-1.00090793221496,-0.233795796662842,-0.557513466950495,-0.466728525942902,-0.45619991496588,0.579270162951543,-0.135734026996124,0.0416226789286435,0.21217717291251,0.212177172911966,,0.161482773625063,,7.37279999999998,103,514.29854368932,530.270873786408,820.800970873786,518.9,509.697087378641,514.798058252427,545.743689320388,902.893203883495,738.708737864078,0
339.456,-2.89263044010061,-0.84702461061347,,-0.527618606941241,-1.1080940300548,-1.10809403005596,,-0.308276865636181,-0.6385534271224,-0.67233835252145,0.936872093650421,-0.672338352520455,-0.506001301990918,0.178080664393802,-0.590324467687456,0.130259126924128,-0.209928750184791,0.0475151245140158,0.337571634743685,-1.38466630058445,0.337571634743773,-0.275356899162891,-2.19715355719561,-1.31323210235553,-0.51824085781536,-0.330977843354931,-0.330977843359707,0.145866687330023,-0.145866687328148,-0.528685725731481,-0.329940597460858,-0.646991551717825,,-0.676661335561541,-0.353783230181068,-0.856320215692018,-0.292750627658896,-0.955586646823963,-0.955586646823609,-0.235053919286097,-0.537939460234532,-0.459149752767329,-0.474539829249356,0.584297829466625,-0.150146805941036,0.0557259021430391,0.200337654462441,0.200337654461885,,0.182280306410199,,7.47520000000003,102,544.801470588235,524.381862745098,808.843137254902,547.908823529412,541.694117647059,512.559803921569,536.203921568628,885.323529411765,732.362745098039,0
339.5584,-2.86013534825461,-0.79313863750277,,-0.522699187517937,-1.09742963549838,-1.09742963549954,,-0.294161986997845,-0.639418813091181,-0.645477197512893,0.929838647874399,-0.645477197511917,-0.501104547959223,0.21348215280473,-0.550224742908919,0.139634326502186,-0.201701029424264,0.0618093791522325,0.350933165259465,-1.37554131418314,0.350933165259547,-0.305427849533361,-2.16623395742116,-1.32072122917306,-0.512217121936813,-0.283718544546642,-0.283718544551394,0.0940245722377238,-0.0940245722358001,-0.52128474318652,-0.361641333272862,-0.595013620482639,,-0.680664652810327,-0.310913772707609,-0.83426216682714,-0.281197839119982,-0.908149980664491,-0.908149980664228,-0.23525468232575,-0.518479060897611,-0.450637979520812,-0.491971509793112,0.588944829480982,-0.163910420473212,0.0700023241804048,0.188957716761821,0.188957716761256,,0.201877659904537,,7.57760000000002,103,555.926129283037,526.198397097655,823.718462239578,559.462275141967,552.389983424106,509.79418941198,542.602604783329,900.98937534347,746.447549135686,0
339.6608,-2.82621014138755,-0.739586412214932,,-0.517228802225283,-1.08538504234793,-1.08538504234907,,-0.28062882913982,-0.640306152626627,-0.61741275938865,0.921063538001002,-0.617412759387685,-0.495543283469778,0.248679950445239,-0.509321819775909,0.147793436343827,-0.193226263522956,0.0748619009885248,0.363542180133841,-1.36711973881309,0.363542180133918,-0.33762923669816,-2.13464668965344,-1.32950515641512,-0.505825736904346,-0.236533361334199,-0.236533361338944,0.0418217472420144,-0.0418217472400477,-0.513088209049625,-0.393154330730725,-0.543056227731088,,-0.6824816806712,-0.268001962738768,-0.810101375936015,-0.270374239076391,-0.858667546182901,-0.858667546182741,-0.234348436149688,-0.499145228657654,-0.441152804374031,-0.508440423042891,0.593235602258214,-0.176962694881349,0.0844298860528295,0.178121985584127,0.178121985583549,,0.220298434754505,,7.68000000000001,102,562.019387942936,519.793350207087,844.519880349747,567.225849056604,556.812926829268,502.023773584906,537.562926829268,928.264150943396,760.775609756098,0.627450980392157
339.7632,-2.79101422424676,-0.686411334608936,,-0.511200088084904,-1.07195103938565,-1.07195103938679,,-0.267638328777933,-0.641103227566629,-0.58817075097812,0.910564741382087,-0.588170750977167,-0.489328648361756,0.283633408283823,-0.467669977166218,0.154804346608316,-0.184500363378436,0.0867503437192971,0.375375296883518,-1.35945698730973,0.375375296883588,-0.371866635038829,-2.10246209768815,-1.33954694550753,-0.499092631231101,-0.189452069769271,-0.189452069774009,-0.0106710137774513,0.0106710137794617,-0.504140604037194,-0.424435312668704,-0.491203753083679,,-0.682187812855852,-0.225113574976672,-0.783949154047533,-0.260295125444538,-0.807216710315891,-0.807216710315806,-0.232290659641492,-0.479949941429182,-0.430658158281489,-0.523895029829218,0.59719810806144,-0.189242482296015,0.0989881189105867,0.167913452546033,0.167913452545441,,0.237568648050847,,7.7824,102,568.475305035958,518.446503704105,864.318339153425,574.956363300037,561.99424677188,495.268368479467,541.624638928742,954.432852386238,774.203825920612,0
339.8656,-2.75470589001586,-0.633651841408775,,-0.504607551295213,-1.05712115869082,-1.05712115869195,,-0.255148931316935,-0.641698562837324,-0.557781139106493,0.898364193735197,-0.557781139105549,-0.482473986175323,0.318302387983945,-0.425326310232579,0.160737521315665,-0.175520479953919,0.0975546549824952,0.386410332596036,-1.35260286521473,0.386410332596102,-0.408038490689873,-2.0697485291818,-1.35080320284562,-0.492042869221658,-0.142503867263921,-0.142503867268673,-0.0633818380045068,0.0633818380065519,-0.494487569469187,-0.455440356190692,-0.439538924137441,,-0.679865699305058,-0.182313720953513,-0.75592330626313,-0.250970751410215,-0.753882252266585,-0.753882252266519,-0.229042167165471,-0.460904221177515,-0.419122509101002,-0.538287064517288,0.600863540469995,-0.200690062701695,0.113658060759742,0.158413039191541,0.158413039190936,,0.253716590414049,,7.88479999999998,103,579.370873786408,528.992718446602,883.325242718447,584.440776699029,574.300970873787,509.42427184466,548.561165048544,976.796116504854,789.854368932039,0
339.968,-2.71744181016874,-0.581341599287298,,-0.497447631702697,-1.04089172653252,-1.04089172653364,,-0.243116969414361,-0.641982093648635,-0.526278118488117,0.884487719567275,-0.526278118487184,-0.474994867457863,0.352647336470407,-0.382350696122925,0.165665505490423,-0.166285016317236,0.107356520844669,0.396626404393813,-1.34660143205433,0.39662640439387,-0.446036600484906,-2.03657212468923,-1.36322434033751,-0.484700553959115,-0.0957174192070892,-0.0957174192118578,-0.116237842284824,0.116237842286909,-0.484175671522068,-0.486125880394462,-0.38814265291296,,-0.675604580505955,-0.139666567993171,-0.726147329751733,-0.242406362111596,-0.698755967245338,-0.698755967245266,-0.224569260492602,-0.442018137767346,-0.406519004667855,-0.551571806335146,0.604266013508819,-0.211247546104178,0.128422186018096,0.149699133293305,0.149699133292683,,0.268772678285548,,7.98720000000003,102,588.847058823529,535.838235294118,890.348039215686,591.903921568628,585.790196078431,517.990196078431,553.686274509804,981.950980392157,798.745098039216,0
340.0704,-2.67937651171512,-0.529509721898242,,-0.489718753184569,-1.02326189759691,-1.02326189759802,,-0.231497050921563,-0.641845815682229,-0.49370004114281,0.86896494365722,-0.493700041141885,-0.466909093181602,0.386629380745103,-0.338805711258437,0.169662436714088,-0.156793637487042,0.116238816228625,0.406004028682029,-1.34149088903992,0.406004028682074,-0.485746651158557,-2.00299661021865,-1.3767548838101,-0.477088722268785,-0.0491208948755895,-0.0491208948803682,-0.169165255710009,0.169165255712136,-0.473252148248628,-0.516448627715095,-0.337093864210858,,-0.669499578347837,-0.0972350439377918,-0.694749561864425,-0.234602234593555,-0.641936219294234,-0.641936219294158,-0.218843835114841,-0.423300806042341,-0.392825570405649,-0.563708344199482,0.607442224177355,-0.220859281779611,0.143264333619108,0.141847101308373,0.14184710130774,,0.282769312491904,,8.08960000000002,103,598.756310679612,531.490291262136,883.23786407767,599.433980582524,598.078640776699,515.633980582524,547.346601941748,973.883495145631,792.592233009709,0
340.1728,-2.64066184362819,-0.478181011147032,,-0.481421374558747,-1.00423368836068,-1.00423368836179,,-0.22024245440136,-0.641184420027267,-0.460089309270842,0.851829189358829,-0.460089309269936,-0.458236685866192,0.420210448431578,-0.294756506428217,0.172803563277889,-0.147047274935166,0.1242850651956,0.414525219262836,-1.33730348605889,0.414525219262869,-0.527048810783209,-1.96908308693889,-1.39133381994731,-0.469229242275856,-0.00274199530592758,-0.0027419953106971,-0.222089583688924,0.222089583691087,-0.46176465165308,-0.546365644179658,-0.286469316710278,,-0.661650951402184,-0.0550805337512241,-0.661862289548231,-0.227553729177283,-0.583527452846744,-0.583527452846607,-0.211843453072678,-0.404760393729413,-0.378024980619119,-0.574659831773891,0.61043109005147,-0.229472270760358,0.158169619868509,0.134928775859647,0.134928775859002,,0.295740754304677,,8.19200000000001,102,610.607843137255,527.797549019608,852.524509803922,608.338235294118,612.877450980392,512.295098039216,543.3,942.862745098039,762.186274509804,0
340.2752,-2.60144644567089,-0.427376217159373,,-0.472558049285335,-0.983812018704856,-0.983812018705956,,-0.209305528471044,-0.639895911868513,-0.42549224588334,0.833117368358464,-0.425492245882449,-0.44899987689148,0.453353413269628,-0.25027065308734,0.175164764176826,-0.137048124549124,0.131578906329126,0.422173583801234,-1.33406544568075,0.422173583801255,-0.56981835733824,-1.9348898171494,-1.40689496976018,-0.46114272402473,0.0433920227262224,0.0433920227214689,-0.274935812392698,0.274935812394903,-0.449760997799484,-0.575834265178503,-0.236343420259928,,-0.6521633305225,-0.0132625784797704,-0.627620841483857,-0.221251362032154,-0.523639682279348,-0.523639682279168,-0.203551396920894,-0.386404151968567,-0.362104922351069,-0.584393726445984,0.613273366910463,-0.2370365733182,0.173124335581811,0.129011918446264,0.129011918445611,,0.307723021465321,,8.2944,102,622.584803921569,522.808823529412,824.637254901961,620.695098039216,624.474509803922,511.529411764706,534.088235294118,912.166666666667,737.107843137255,0
340.3776,-2.56187523778355,-0.37711230791265,,-0.463133495533417,-0.962004762429811,-0.962004762430901,,-0.19863808830971,-0.637882209852783,-0.389958957033948,0.812869864897666,-0.389958957033068,-0.439223096359735,0.486022259860654,-0.205417975629267,0.176822064728075,-0.126799640300718,0.138203555237725,0.428934417096762,-1.3317969066131,0.428934417096775,-0.613926323770346,-1.90047201312171,-1.42336737611439,-0.452848450923024,0.0892543203382689,0.0892543203335311,-0.327628644551327,0.327628644553556,-0.437288935054471,-0.604812112883273,-0.186788055911804,,-0.641144953000928,0.028161408498398,-0.592162689281774,-0.215680907244359,-0.46238798350118,-0.462387983500935,-0.193956719655514,-0.368238474478699,-0.345058068281457,-0.592882004102272,0.616011256672723,-0.243505698926957,0.188115837382319,0.124159666512104,0.124159666511436,,0.318753795407321,,8.39679999999999,103,636.568446601942,520.616990291262,819.199029126214,634.930097087379,638.206796116505,519.366990291262,521.866990291262,904.980582524272,733.417475728155,0
340.48,-2.52208894284345,-0.327402742183391,,-0.453154674929374,-0.938822801160432,-0.938822801161513,,-0.188191803383359,-0.635049722576494,-0.35354319066901,0.791130417993892,-0.353543190668136,-0.428932967153939,0.518182262401493,-0.160270376964576,0.17785114916515,-0.116306528948322,0.144241263201575,0.434794791357428,-1.33051189082792,0.434794791357427,-0.659240141527163,-1.86588163962814,-1.44067569695811,-0.444364336569527,0.134818443571505,0.134818443566794,-0.380092757495968,0.380092757498224,-0.424395936258071,-0.633257108532994,-0.137872406363047,,-0.628706908592308,0.069136395868567,-0.555626577662623,-0.210823533961243,-0.399892003790199,-0.39989200378985,-0.183054298472785,-0.35026898949376,-0.326882167839826,-0.600101339189359,0.618688016350833,-0.248836963777079,0.203132439925582,0.120429984028829,0.120429984028154,,0.328872327436986,,8.49920000000003,102,665.946568627451,518.991176470588,827.328431372549,664.200980392157,667.692156862745,518.239215686275,519.743137254902,914.901960784314,739.754901960784,0
340.5824,-2.48222364714426,-0.278257744765823,,-0.442630875435442,-0.914280074014195,-0.914280074015265,,-0.177918573189717,-0.631309897678466,-0.31630218765411,0.767946006414256,-0.316302187653244,-0.41815830012571,0.549800174690746,-0.114901655344586,0.178326880462543,-0.105574751404551,0.14977278078067,0.439743644881376,-1.33021829670276,0.439743644881366,-0.705624273324123,-1.83116723945424,-1.45874060184677,-0.435706907539136,0.180058284832096,0.180058284827433,-0.432253080005818,0.432253080008086,-0.411129015346949,-0.66112749969206,-0.0896628021420755,,-0.614962404251689,0.10960995533155,-0.518151692592315,-0.206655980128886,-0.336275491250653,-0.336275491250196,-0.170844890348526,-0.332500685945348,-0.307580155319167,-0.606033240304039,0.621347576716388,-0.252991802599813,0.21816330839181,0.117875139171554,0.117875139170865,,0.33811933570971,,8.60160000000002,103,697.207766990291,518.700485436893,839.728155339806,696.310679611651,698.104854368932,512.866990291262,524.533980582524,931.446601941748,748.009708737864,0
340.6848,-2.44241040049036,-0.229684584658018,,-0.431573789307183,-0.888393618195947,-0.888393618197004,,-0.167770887914558,-0.626579736773492,-0.278296519868582,0.743366739542761,-0.278296519867716,-0.406930086420337,0.580844429522943,-0.069387308216344,0.178322835927593,-0.0946115296349805,0.154876836437969,0.443771866239669,-1.33091791583039,0.443771866239643,-0.752940833815769,-1.79637378412896,-1.47747917186908,-0.426891308070294,0.224948042179008,0.224948042174383,-0.484035090447268,0.484035090449549,-0.397534563904633,-0.688381902269172,-0.0422225832763504,,-0.600026051308042,0.149532450401177,-0.479876870131471,-0.203150758980229,-0.271665837956657,-0.271665837956092,-0.157335183112347,-0.314938068040101,-0.287160266490289,-0.610664138494955,0.624034177921524,-0.255936028653621,0.233198351645336,0.116541231245449,0.116541231244751,,0.346536887978186,,8.70400000000001,102,710.330882352941,520.951960784314,855.406862745098,711.776470588235,708.885294117647,514.667647058824,527.236274509804,950.303921568627,760.509803921569,0
340.7872,-2.40277485996676,-0.18168785522842,,-0.419997572887711,-0.861183599508776,-0.861183599509822,,-0.157702168561917,-0.620782267605764,-0.239589915075024,0.71744575287555,-0.239589915074147,-0.395281485937046,0.611285346124985,-0.0238043228596819,0.177910857654402,-0.0834253471517849,0.159629634729383,0.446872365444992,-1.33260646790011,0.446872365444952,-0.80105020173922,-1.76154254288262,-1.49680530219606,-0.417931318529553,0.269462178729685,0.2694621787251,-0.535365140656958,0.53536514065925,-0.383658199609973,-0.714979358788894,0.00438802969320274,,-0.584013177914128,0.188857195905064,-0.440939846973388,-0.200276389475837,-0.206193633933101,-0.206193633932405,-0.142537835461546,-0.297585324344197,-0.265636151410017,-0.613985432664273,0.626792027633458,-0.257640043186321,0.248228122492663,0.116467786503564,0.116467786502856,,0.35416826444813,,8.8064,102,720.982843137255,526.59362745098,874.093137254902,724.767647058824,717.198039215686,518.583333333333,534.603921568627,970.137254901961,778.049019607843,0
340.8896,-2.36343698065446,-0.134269754980396,,-0.407918873661995,-0.832673333052557,-0.832673333053592,,-0.147667079889563,-0.61384696512203,-0.200249068696128,0.690239103805296,-0.200249068695249,-0.383247814025718,0.64109534644934,0.0217690438115546,0.177160613152246,-0.0720259272007929,0.164104376240234,0.449040124110507,-1.33527364975167,0.449040124110454,-0.849811629905014,-1.72671095857899,-1.51663010648305,-0.408839377092921,0.313575383355556,0.313575383350994,-0.586170808333065,0.586170808335358,-0.369544616827835,-0.74087941459399,0.050112063368858,,-0.567039168684025,0.22754059177469,-0.401476552323252,-0.197997639109792,-0.139992232123707,-0.139992232122954,-0.126471497101159,-0.280446495164569,-0.243026967977167,-0.615993498071599,0.629664984892788,-0.258078998322252,0.263243731472178,0.11768743735635,0.117687437355634,,0.361057795637571,,8.90879999999999,103,730.871844660194,527.641262135922,890.582524271845,737.859223300971,723.884466019418,519.24854368932,536.033980582524,986.757281553398,794.407766990291,0
340.992,-2.32451075232038,-0.0874303687955595,,-0.395356813418472,-0.802889295068673,-0.802889295069698,,-0.137621810006519,-0.605710115768599,-0.160343439482911,0.661805662771697,-0.160343439482033,-0.370866528018173,0.670249180596027,0.0672534941508317,0.176139164184935,-0.060424177368344,0.168370802330484,0.450272220795231,-1.33890319827247,0.450272220795168,-0.899083857434517,-1.69191252353146,-1.53686232293215,-0.399626594768928,0.357262533442322,0.35726253343779,-0.636381278161301,0.636381278163598,-0.355237430619337,-0.766042210852909,0.0948959221841812,,-0.549218830925646,0.265542233895054,-0.361620438884465,-0.196275767914468,-0.0731973233932472,-0.0731973233924354,-0.109160799607369,-0.263525626337591,-0.219357442173446,-0.616689663834339,0.632696270718893,-0.257232918297111,0.278236774648294,0.120225687749003,0.120225687748274,,0.367250674378762,,9.01120000000003,102,742.810294117647,527.914705882353,905.235294117647,751.252941176471,734.367647058824,520.037254901961,535.792156862745,1002.80392156863,807.666666666667,0
341.0944,-2.28610397728459,-0.041167950051942,,-0.382332926139013,-0.771861127977002,-0.771861127978019,,-0.127524312789992,-0.596315123929198,-0.119945026324004,0.632206994191793,-0.119945026323129,-0.358177210481404,0.698724154022526,0.112568925229178,0.174910543850772,-0.0486320942521961,0.172494767683536,0.450567830292875,-1.34347296790451,0.450567830292801,-0.948725720690711,-1.65717665784231,-1.55740872062125,-0.390302759259389,0.400498659255586,0.400498659251079,-0.685927745625125,0.685927745627416,-0.340779010796717,-0.790428588910909,0.138689518929235,,-0.53066578258503,0.30282500110769,-0.321501848859038,-0.195068766926676,-0.00594652127911016,-0.00594652127825325,-0.0906363140396751,-0.246826904978648,-0.194657889303686,-0.616080166811491,0.635928204198993,-0.255086786458583,0.293199269146374,0.124100756684683,0.124100756683939,,0.372792747067258,,9.11360000000002,103,750.25145631068,524.254368932039,918.242718446602,760.921359223301,739.581553398058,514.980582524272,533.528155339806,1018.17475728155,818.310679611651,0
341.1968,-2.2483180815834,0.00452079576519236,,-0.36887106218017,-0.739621639748701,-0.739621639749706,,-0.117334515460594,-0.585612765403506,-0.0791281281805203,0.601507221442592,-0.079128128179648,-0.345221541214824,0.726500340086836,0.157634667501279,0.173535343876287,-0.0366626262691624,0.176537843758179,0.449928198734037,-1.34895502377461,0.44992819873396,-0.998596751633133,-1.62252860497906,-1.57817450486211,-0.380876331423357,0.443258907437623,0.443258907433166,-0.734743824188954,0.734743824191237,-0.326210310643476,-0.814000197928215,0.181446394532682,,-0.511491856549681,0.339355113685923,-0.281247412700583,-0.194331591688815,0.0616210404889687,0.061621040489919,-0.0709344757658151,-0.230354779818143,-0.168964197840731,-0.61417608824967,0.639401962239113,-0.251630604796921,0.308123584071394,0.129323494416752,0.129323494415992,,0.377730294853375,,9.21600000000001,102,760.65931372549,527.3,927.676470588235,771.319607843137,749.999019607843,515.86568627451,538.73431372549,1026.48039215686,828.872549019608,0
341.2992,-2.21124795018245,0.0496404252039288,,-0.354997277691093,-0.706206796688631,-0.706206796689628,,-0.10701450178163,-0.573561397272688,-0.0379690953292149,0.569772873057349,-0.037969095328344,-0.332043250456907,0.753560760490942,0.202369721786645,0.17207031783119,-0.0245295019481963,0.18055695608744,0.448356601172402,-1.35531575326278,0.448356601172324,-1.04855775125877,-1.5879893670877,-1.5990637234391,-0.371354444151767,0.485518499781075,0.485518499776653,-0.782765926535759,0.782765926538033,-0.311570701010975,-0.836719599693435,0.223123814235609,,-0.49180652327288,0.375102157852371,-0.240979485759425,-0.194016397973315,0.129365095533481,0.129365095534458,-0.0500974757334556,-0.214114072950794,-0.142317778213789,-0.610993274909138,0.643157363694856,-0.246859427234241,0.323002352675449,0.135897378203286,0.13589737820251,,0.382109816498634,,9.3184,102,772.103921568628,526.186764705882,931.676470588235,782.994117647059,761.213725490196,517.406862745098,534.966666666667,1028.14705882353,835.205882352941,0
341.4016,-2.17498178023973,0.094196469479576,,-0.340739724969387,-0.671655709136517,-0.671655709137506,,-0.0965286842496816,-0.560127133208623,0.00345391626919678,0.537072712156918,0.00345391627006353,-0.318688051351996,0.779891524747548,0.246692989252887,0.170568008806251,-0.0122470427601564,0.184604056077372,0.445858289858397,-1.36251599996379,0.445858289858318,-1.09847133028871,-1.55357569695927,-1.61997967621975,-0.361742914089384,0.527252684491947,0.527252684487563,-0.829933597476918,0.829933597479183,-0.29689782181154,-0.858550370131302,0.263682831887019,,-0.471716341903837,0.410039073332829,-0.200815634309996,-0.194072789717761,0.197144621790787,0.197144621791837,-0.0281731169800821,-0.198110090174923,-0.114765478623696,-0.606552242582527,0.647232679279567,-0.240773364066087,0.337828357436833,0.143818598565273,0.143818598564476,,0.385977818687897,,9.42079999999999,103,779.191262135922,526.52572815534,916.45145631068,789.9,768.482524271845,516.42427184466,536.627184466019,1011.32038834951,821.582524271845,0
341.504,-2.13960095212761,0.138195148693379,,-0.326128549615864,-0.636010611851461,-0.636010611852444,,-0.0858439733448311,-0.545283988470426,0.0450611787740133,0.50347755532423,0.0450611787748845,-0.305203553863175,0.805481929718962,0.290523492109912,0.169076411825687,0.000170014393616327,0.188725827060093,0.44244043837181,-1.37051122270433,0.442440438371728,-1.14820241356641,-1.51930014969832,-1.64082532696326,-0.352046272825282,0.568436681188035,0.568436681183701,-0.876189793283852,0.876189793286103,-0.282227459500496,-0.879457202152865,0.303088322112537,,-0.451324451623778,0.444142105254187,-0.160868181287772,-0.194448087125189,0.264818216159919,0.264818216161037,-0.00521463854449724,-0.182348734025158,-0.0863594717321333,-0.600878058688806,0.651664465341205,-0.233377555438214,0.352594388659434,0.153076237602657,0.153076237601843,,0.389380613798516,,9.52320000000003,102,792.054901960784,527.832843137255,808.598039215686,800.845098039216,783.264705882353,520.194117647059,535.471568627451,902.696078431373,714.5,0
341.6064,-2.10517992084919,0.181643092078944,,-0.311195791138113,-0.599316840670595,-0.599316840671576,,-0.0749299434653058,-0.529013992538817,0.0867716136249387,0.469060088775248,0.0867716136258164,-0.291639160958061,0.830324522766243,0.333780587057915,0.167638682194616,0.0127066638180164,0.192963427211916,0.438112083416668,-1.37925168046881,0.438112083416585,-1.19761870781256,-1.48517118794044,-1.66150371396751,-0.342267818548576,0.609045625772406,0.60904562576812,-0.921481111237061,0.921481111239304,-0.267593452744742,-0.899406015585868,0.341308985983046,,-0.43073011112803,0.477390726521803,-0.121243815578429,-0.195087617355025,0.332244473813607,0.332244473814838,0.0187194894521848,-0.166836617895351,-0.0571571150138778,-0.59400020096364,0.656487418409749,-0.224682112636745,0.367293084998594,0.163652531851891,0.163652531851059,,0.392364124340915,,9.62560000000002,103,808.086893203884,514.483495145631,690.349514563107,816.747572815534,799.426213592233,513.66213592233,515.304854368932,778.563106796117,602.135922330097,0
341.7088,-2.0717861297611,0.224547069303018,,-0.295975278213872,-0.561622803384102,-0.561622803385077,,-0.0637589898678069,-0.511307262520937,0.128503004436713,0.433894687518236,0.128503004437597,-0.278045944752151,0.854415128088666,0.376384174556411,0.166292897745688,0.0253477378705581,0.197352274068143,0.432884064119586,-1.38868264323428,0.432884064119499,-1.24659113761218,-1.45119332992583,-1.6819183579189,-0.332409683861448,0.649054524489989,0.64905452448574,-0.965757973479887,0.965757973482107,-0.253027621857355,-0.918364077711461,0.378317337782959,,-0.41002828981315,0.509767540061717,-0.0820432625786905,-0.195935024374146,0.399282380882718,0.399282380884043,0.0435657984937519,-0.151581173998666,-0.027220782518445,-0.585952391126609,0.661734249491788,-0.214702026663208,0.381916771216502,0.175523210225127,0.175523210224275,,0.394973690435938,,9.72800000000001,102,660.249019607843,508.752450980392,633.352941176471,672.304901960784,648.193137254902,509.461764705882,508.043137254902,716.882352941177,549.823529411765,0
341.8112,-2.03947994629424,0.266913737890059,,-0.280502506915652,-0.522979937460771,-0.522979937461743,,-0.0523064702419742,-0.492162028078771,0.170172206662683,0.398057237979965,0.170172206663581,-0.264476499291726,0.877752833627676,0.418254906434384,0.165071875065004,0.0380779801054882,0.201921873560806,0.426768957198119,-1.39874462809007,0.426768957198031,-1.29499425724543,-1.41736732734179,-1.70197366620049,-0.322472911400328,0.688438227126748,0.688438227122525,-1.00897477126434,1.00897477126653,-0.238559712744893,-0.936300135238787,0.414089680857397,,-0.389309310355648,0.541258169388397,-0.0433610106271221,-0.196932590198407,0.465791733461163,0.465791733462616,0.0692560851688893,-0.136590745793206,0.0033823389806179,-0.576772404409146,0.667435576979791,-0.203457045463437,0.396457311404505,0.188657896195449,0.188657896194577,,0.397253871007095,,9.8304,102,297.783823529412,508.025490196078,625.161764705882,315.177450980392,280.390196078431,507.352941176471,508.698039215686,694.637254901961,555.686274509804,0
341.9136,-2.00831461757225,0.308749411347629,,-0.264814488639637,-0.483442642788993,-0.483442642789966,,-0.0405508254062825,-0.471584598090731,0.211695359041467,0.361624958841185,0.211695359042375,-0.250984767362021,0.900339938149314,0.459314395386391,0.16400303230477,0.0508821002115459,0.206695692551712,0.419781005471823,-1.40937365984316,0.419781005471733,-1.34270664061824,-1.3836903640744,-1.72157533093848,-0.312457526477844,0.72717142778971,0.727171427785519,-1.05108997660906,1.05108997661124,-0.224217343773782,-0.953184556196265,0.448606079804703,,-0.368658538402037,0.57185114031901,-0.00528508753635717,-0.198021556556857,0.531633591237968,0.531633591239562,0.0957177107163309,-0.12187465605448,0.0345804982588832,-0.566501857195242,0.673619835586963,-0.190971523152815,0.410905992688183,0.203020560480915,0.20302056048002,,0.399248230828852,,9.93279999999999,103,325.220873786408,504.254368932039,640.233009708738,338.679611650485,311.76213592233,501.640776699029,506.867961165049,704.077669902913,576.388349514563,0
342.016,-1.97833624347682,0.350059852062232,,-0.24894955672074,-0.443068178533928,-0.443068178534905,,-0.0284736728512484,-0.449589261005759,0.252988101889427,0.324676211676725,0.252988101890346,-0.237625840806872,0.922181860995517,0.499485429428123,0.163108289202618,0.0637448240684739,0.211691070604235,0.411936036512661,-1.42050155622025,0.411936036512572,-1.38961124505797,-1.35015627521422,-1.7406307172185,-0.302362596481511,0.765228698651317,0.765228698647149,-1.0920662213761,1.09206622137824,-0.210025945256874,-0.968989478117693,0.481850332702207,,-0.348156111691465,0.601537749290118,0.032103117327592,-0.199142434909593,0.596670760160784,0.596670760162572,0.122873939090229,-0.107443242686068,0.0662976781745495,-0.555185977997858,0.680313199255443,-0.17727424705126,0.42525344880821,0.218570011295648,0.218570011294731,,0.400999114086225,,10.0352,102,346.870098039216,501.986274509804,675.03431372549,357.635294117647,336.104901960784,499.688235294118,504.28431372549,739.960784313726,610.107843137255,0
342.1184,-1.94958376466622,0.390850091221963,,-0.232947130164549,-0.401916522238191,-0.401916522239173,,-0.0160598664215688,-0.426198116594207,0.293965805853089,0.287290294948123,0.293965805854022,-0.224455737442815,0.943287018269503,0.538692190197323,0.162403999546179,0.0766509430640681,0.216919167611262,0.403251368654718,-1.43205623873801,0.403251368654628,-1.43559574533906,-1.31675579034198,-1.75904924071113,-0.292186272070862,0.802584557891627,0.802584557887463,-1.13187033590145,1.13187033590357,-0.196008687468518,-0.983688957331486,0.513809941399717,,-0.327876700284539,0.630311910150739,0.0687289884274989,-0.200235296254178,0.660768286747658,0.66076828674964,0.150644309505906,-0.0933078576268813,0.0984539427783415,-0.542873371043205,0.687539515299609,-0.162398252404469,0.439489624554766,0.235260411852672,0.235260411851735,,0.4025474128279,,10.1376,103,612.222815533981,501.175242718447,715.325242718447,614.153398058253,610.292233009709,498.33786407767,504.012621359223,788.029126213592,642.621359223301,0
342.2208,-1.92208896352677,0.431124274326403,,-0.216847446395936,-0.360050201585748,-0.360050201586736,,-0.0032975207997589,-0.401440845748738,0.33454381137945,0.249547220536854,0.334543811380394,-0.211531161282296,0.963666669973604,0.576860469262576,0.161900918732344,0.0895853606747595,0.222384949304824,0.393745707262751,-1.44396207223994,0.393745707262667,-1.48055284028116,-1.28347680640886,-1.77674273916564,-0.281925813918061,0.839213568064721,0.83921356806056,-1.17047333996822,1.17047333997031,-0.182186402525328,-0.997259114357472,0.544476074542879,,-0.307889295298855,0.658169976028065,0.104524777315242,-0.201240039755894,0.723793942910148,0.723793942912329,0.178945036557392,-0.0794808303272264,0.130965825913862,-0.529615783055015,0.695320245035467,-0.146380636868885,0.453603770180392,0.253041810390854,0.253041810389893,,0.403932344054257,,10.24,102,1001.96862745098,500.936274509804,753.651960784314,1014.92058823529,989.016666666667,502.121568627451,499.750980392157,844.960784313726,662.343137254902,0
342.3232,-1.8958764799007,0.470885528538964,,-0.200691283377461,-0.317534115269022,-0.317534115270014,,0.00982199038806339,-0.375354432388362,0.374637674777462,0.211527476818689,0.374637674778425,-0.198909254372448,0.983334744090548,0.613917875590854,0.161604213602212,0.102533132601091,0.228087216931457,0.383439043599188,-1.45614023981299,0.38343904359911,-1.52438054003513,-1.25030469526036,-1.79362584651426,-0.271577615781739,0.875090457191734,0.875090457187564,-1.20785038550059,1.20785038550265,-0.168577513007878,-1.00967827519339,0.573843519818075,,-0.288257033869951,0.685110542806877,0.139429650382486,-0.202096646667674,0.785618683489569,0.785618683491888,0.207689434821463,-0.0659754010108187,0.163746756105839,-0.515467880564142,0.703674408662607,-0.129262382597648,0.467584449065946,0.271860660713012,0.271860660712035,,0.405191248816177,,10.3424,102,1017.62647058824,510.59362745098,804.539215686275,1030.61960784314,1004.63333333333,512.813725490196,508.373529411765,904.490196078431,704.588235294118,0
342.4256,-1.87096384998313,0.510135849442383,,-0.184519690060246,-0.274435354386017,-0.274435354387014,,0.023304048794668,-0.347982852663282,0.414163414377938,0.17331178416298,0.414163414378922,-0.186647346692151,1.00230764496952,0.649794031375557,0.161513520327692,0.115479495661137,0.234018685302632,0.37235257117357,-1.46850915953328,0.372352571173504,-1.56698244301143,-1.21722264570556,-1.80961637638811,-0.26113723622727,0.910190254811831,0.910190254807642,-1.24398065640205,1.24398065640408,-0.155197981572564,-1.02092711644901,0.601910625465302,,-0.269037072088016,0.711134246301782,0.173389687224793,-0.202745429539065,0.846117067068063,0.846117067070513,0.236788368046616,-0.0528056276546964,0.196707516070304,-0.500487038553439,0.71261853747346,-0.111088185164847,0.481419548259733,0.291660314039051,0.29166031403806,,0.406359416938273,,10.4448,103,1028.50242718447,507.582038834952,841.567961165049,1038.79514563107,1018.20970873786,510.715533980583,504.44854368932,942.26213592233,740.873786407767,0
342.528,-1.84736158102307,0.548876007767099,,-0.168373735880653,-0.230823025089094,-0.230823025090094,,0.0371508095198272,-0.319376741831892,0.453037752196329,0.134980848736825,0.453037752197336,-0.174802706945574,1.02060405313242,0.684420758579392,0.161623050179279,0.128409880668485,0.240166106805659,0.36050862546709,-1.48098494118399,0.360508625467033,-1.60826800600756,-1.18421202979517,-1.82463571257863,-0.250599447592029,0.944488438414606,0.944488438410388,-1.27884723464068,1.27884723464269,-0.142061291224199,-1.03098882594385,0.628679231379503,,-0.250280510490924,0.736243562370764,0.206357830846309,-0.203127285414513,0.905167638874176,0.905167638876725,0.266150719576815,-0.0399862676477029,0.229756733300243,-0.484733136681828,0.72216663838847,-0.091906283419487,0.49509629360827,0.312381472401966,0.312381472400959,,0.407469932644262,,10.5472,102,1040.40049019608,508.470098039216,849.519607843137,1049.90392156863,1030.89705882353,512.000980392157,504.939215686275,950.794117647059,748.245098039216,0
342.6304,-1.82507327306675,0.587105479038345,,-0.152294280626175,-0.186768065762896,-0.1867680657639,,0.0513612252063233,-0.289593043350095,0.491178350238396,0.0966151198651241,0.491178350239424,-0.16343229529476,1.03824472211285,0.717732259834493,0.161921738047826,0.141309905063708,0.246510433682996,0.347930641895163,-1.49348187231034,0.347930641895122,-1.64815280437609,-1.15125277603057,-1.83860919535787,-0.239958304586643,0.977961088417357,0.977961088413136,-1.31243694343691,1.31243694343889,-0.129178458873506,-1.03984928562516,0.654154589411365,,-0.232032368075741,0.760442613888224,0.238293795905265,-0.203183956911691,0.96265327847643,0.962653278479075,0.295683875214561,-0.0275326333031187,0.262801393911858,-0.468268360836104,0.73233017464647,-0.0717682863189691,0.50860128172853,0.333962598153774,0.333962598152755,,0.408553540082055,,10.6496,103,1056.71067961165,507.525242718447,846.300970873786,1062.17572815534,1051.24563106796,508.729126213592,506.321359223301,948.019417475728,744.582524271845,0
342.7328,-1.80409579272266,0.624822399494109,,-0.136321758887558,-0.142343051615482,-0.142343051616488,,0.0659310827781705,-0.258694641121159,0.528504042903339,0.0582945558075369,0.528504042904397,-0.152592519001734,1.05525227632328,0.74966529595218,0.162393428472399,0.154165340229008,0.253027010361853,0.334643123292155,-1.5059129222597,0.334643123292127,-1.68655877788799,-1.11832373385383,-1.8514664924799,-0.229207228973466,1.01058504966841,1.01058504966419,-1.34474017845024,1.34474017845218,-0.116558078341955,-1.0474972762834,0.678345275373107,,-0.214331600164841,0.783736986819287,0.269163940783638,-0.202858299395778,1.01846151617892,1.01846151618162,0.325294209709171,-0.0154604199060651,0.295747372140388,-0.451157011125949,0.743118063826869,-0.0507289971915376,0.521920545803125,0.356340276076726,0.356340276075694,,0.409638534814557,,10.752,102,666.253431372549,524.921078431373,871.892156862745,667.922549019608,664.58431372549,517.409803921569,532.432352941176,967.088235294118,776.696078431373,0
342.8352,-1.78441949601501,0.662023549298347,,-0.120495968624088,-0.0976219830614694,-0.0976219830624745,,0.0808530571653612,-0.226749972248143,0.56493506827927,0.0200984024090934,0.564935068280348,-0.142338991184483,1.07165101318183,0.780159362730195,0.163017095953465,0.166962050833862,0.259685791004837,0.3206716104427,-1.51819025724322,0.320671610442683,-1.72341446270523,-1.08540301793382,-1.86314194941659,-0.218339102556908,1.04233809678519,1.04233809678097,-1.37575073660887,1.37575073661078,-0.104206384021677,-1.05392469872692,0.701263099079915,,-0.197211160080051,0.806133559579464,0.298941106049391,-0.202094548080583,1.07248482342947,1.07248482343224,0.354887573612159,-0.00378550507648036,0.328499972999082,-0.433465316856481,0.754536691342149,-0.0288462368325034,0.535039668024376,0.379449532117,0.379449532115963,,0.410750686839238,,10.8544,102,571.863235294118,529.073039215686,878.029411764706,573.380392156863,570.346078431373,519.751960784314,538.394117647059,961.862745098039,794.196078431373,0
342.9376,-1.76602849153791,0.698704361033941,,-0.104855850475495,-0.0526800555631067,-0.0526800555641093,,0.0961167843577961,-0.19383261164123,0.600393302304507,-0.0178950133559773,0.600393302305613,-0.132726292519502,1.08746671422157,0.809156871681983,0.163767096454183,0.17968591186029,0.266451581457879,0.306042650886358,-1.53022576189057,0.306042650886353,-1.75865521387689,-1.05246832094439,-1.87357491653235,-0.207346358532574,1.07319910499107,1.07319910498685,-1.40546565015599,1.40546565015787,-0.092127323065698,-1.05912680355733,0.722923019377588,,-0.180698106233605,0.827640352229393,0.327604421734062,-0.20083857636785,1.12462088547598,1.12462088547885,0.384369781834037,0.00747628242475205,0.360964490179751,-0.415261256704744,0.766589936851824,-0.00618066505208318,0.547943943687658,0.403224121863256,0.403224121862214,,0.411913197262283,,10.9568,103,554.21359223301,533.388834951456,880.368932038835,557.584466019418,550.842718446602,519.992233009709,546.785436893204,961.252427184466,799.485436893204,0
343.04,-1.74890093323804,0.73485895037821,,-0.0894392446605816,-0.0075934063884401,-0.00759340638944275,,0.111708958733396,-0.160020814969246,0.634802499596879,-0.0556084775215194,0.634802499598009,-0.123807738146883,1.10272647279905,0.836603338375504,0.164613445043469,0.192322714909248,0.273284305371131,0.290783759439372,-1.54193156241026,0.290783759439383,-1.7922234225946,-1.01949718133273,-1.88271004966275,-0.196221061203839,1.10314823544978,1.10314823544555,-1.4338850298488,1.43388502985064,-0.0803226232578774,-1.06310242078482,0.743343069556969,,-0.164813751928632,0.84826640173575,0.355139089756812,-0.199038136065256,1.17477286821492,1.17477286821788,0.413647102746009,0.0183094273733685,0.39304677942709,-0.396614383885617,0.779279210744648,0.0172043981230949,0.560618597649433,0.42759680099864,0.427596800997594,,0.413146691746611,,11.0592,102,92.7352941176471,565.506862745098,877.926470588235,112.451960784314,73.0186274509804,552.072549019608,578.941176470588,950.5,805.352941176471,0
343.1424,-1.73300933234367,0.770480165278679,,-0.0742826193116742,0.0375611664577862,0.0375611664567829,,0.127613461813142,-0.125397009744277,0.668088543535453,-0.0929660760489903,0.668088543536609,-0.115635154460891,1.11745854594238,0.862447578376064,0.165522114039009,0.204858074114121,0.280139293009525,0.274923362071325,-1.55322054556905,0.274923362071346,-1.8240687297388,-0.986467195748706,-1.8904975800852,-0.18495496732852,1.1321671426871,1.13216714268288,-1.4610119171087,1.46101191711051,-0.0687918474554771,-1.06585418041085,0.762544295467819,,-0.1495738494483,0.868021664221744,0.381536150052647,-0.196643072072875,1.22284968937937,1.22284968938237,0.442626739840441,0.0286990267853337,0.424653840198842,-0.377595659815222,0.792603493466221,0.0412431448236271,0.573049048468086,0.452499576548248,0.452499576547196,,0.414469253574499,,11.1616,103,111.621844660194,562.970873786408,877.223300970874,128.196116504854,95.047572815534,556.833009708738,569.108737864078,943.68932038835,810.757281553398,0
343.2448,-1.71832087769274,0.805559647896341,,-0.0594207793452441,0.082706511842142,0.0827065118411435,,0.143811525045109,-0.0900472379565542,0.700179707226267,-0.129893377209474,0.700179707227451,-0.108258668323673,1.1316922319512,0.886641908498672,0.166455350613763,0.217277340210363,0.286967595580201,0.258490719947821,-1.56400686671315,0.25849071994786,-1.85414822914568,-0.953356181636254,-1.89689355161609,-0.173539569828446,1.1602391971942,1.16023919719,-1.48685214487874,1.48685214488052,-0.0575324342571218,-1.06738871426825,0.780550702783748,,-0.13498879927409,0.886916936707901,0.406792234583349,-0.193605509566532,1.26876629196275,1.26876629196582,0.471217297966766,0.0386311153772545,0.455694394934698,-0.358277297230848,0.806559364211692,0.065867437791659,0.585221203462607,0.477863924211951,0.477863924210897,,0.415896489712524,,11.264,102,141.104901960784,563.951960784314,895.142156862745,153.330392156863,128.879411764706,555.541176470588,572.362745098039,960.264705882353,830.019607843137,0
343.3472,-1.70479775483482,0.840087902115296,,-0.0448865805327125,0.127765448816911,0.127765448815916,,0.160281920176959,-0.0540605692313282,0.731006925207833,-0.166317607690542,0.731006925209051,-0.101726506923771,1.14545776739509,0.909142350139597,0.167372020323022,0.229565531622307,0.293716336410324,0.241515841642391,-1.57420643960459,0.24151584164245,-1.88242664127734,-0.920142315778457,-1.90186002299842,-0.161966133413468,1.18734970184679,1.18734970184259,-1.5114142107135,1.51141421071525,-0.0465397346264071,-1.06771682934416,0.797389204323387,,-0.121063879876287,0.904963786128189,0.43090930619161,-0.18988001901769,1.31244390410939,1.31244390411254,0.499329235633418,0.0480930021587829,0.48607946033673,-0.338732604969282,0.821141005354942,0.0910069554082062,0.597121756382879,0.503620958922025,0.503620958920964,,0.417441613220266,,11.3664,102,167.446568627451,562.837254901961,916.93137254902,176.771568627451,158.121568627451,548.872549019608,576.801960784314,983.745098039216,850.117647058824,0
343.4496,-1.69239745978154,0.87405436094849,,-0.0307106769871182,0.172661088967347,0.172661088966357,,0.177001165366145,-0.017528509174017,0.76050407241328,-0.202167818127037,0.760504072414528,-0.0960848057840485,1.15878623487419,0.929908830412242,0.168227986031702,0.241707286596379,0.30032911142965,0.224029398401161,-1.58373740296886,0.224029398401234,-1.90887643391683,-0.886804278729501,-1.90536523271613,-0.150225736082328,1.21348608142922,1.21348608142505,-1.53470916696626,1.53470916696797,-0.0358070593143535,-1.06685364674072,0.81308955900248,,-0.107799498040159,0.922174476772965,0.45389437699524,-0.185423769452802,1.35381026872453,1.35381026872779,0.52687531105961,0.0570736009330299,0.515722910111535,-0.319035823776613,0.836340180258355,0.116589331918211,0.608738458790845,0.529701563932598,0.529701563931532,,0.419115529279079,,11.4688,103,195.45,560.074757281553,933.665048543689,204.454368932039,186.445631067961,550.798058252427,569.35145631068,1008.87378640777,858.456310679612,0
343.552,-1.68107310991991,0.907447451820919,,-0.0169213203955095,0.217317145277647,0.217317145276658,,0.193943736076919,0.0194555784451088,0.788608245359551,-0.2373750333438,0.788608245360832,-0.0913774240447969,1.17170947766369,0.948905378800246,0.168976528372118,0.253686829934732,0.306746442794071,0.206062654924217,-1.59252056258576,0.206062654924306,-1.93347787720415,-0.853321419753013,-1.90738372386761,-0.138309327969918,1.23863803643465,1.23863803643051,-1.5567505303877,1.55675053038938,-0.0253257493628515,-1.06481870599506,0.827684299938552,,-0.0951914602196322,0.938561894448081,0.475759204822098,-0.180196680175824,1.39279983423179,1.39279983423513,0.553771025345907,0.0655637432579401,0.544542027191939,-0.29926194963687,0.852146198248837,0.142540302847664,0.620060347442515,0.556036499454643,0.556036499453569,,0.420926925332558,,11.5712,102,228.904901960784,560.180392156863,943.588235294118,237.626470588235,220.183333333333,548.423529411765,571.937254901961,1027.60784313725,859.56862745098,0
343.6544,-1.67077375598817,0.940254660727,,-0.0035442163145508,0.261658227547176,0.261658227546184,,0.211082273647213,0.0567970270104861,0.8152600433196,-0.271872383334396,0.81526004332091,-0.0876457656990438,1.18426002230253,0.966100322284386,0.16956880846978,0.265487942259908,0.312906280848968,0.18764742112835,-1.60047980916422,0.187647421128449,-1.95621903412749,-0.819673939590992,-1.90789642860836,-0.126207812535128,1.26279765990803,1.26279765990394,-1.57755421099143,1.57755421099308,-0.0150852748758083,-1.06163603588585,0.841208652976713,,-0.0832312626199004,0.954139468912892,0.496519970812436,-0.174161576722486,1.42935390309096,1.42935390309442,0.579935059880684,0.0735564690694743,0.572458040610784,-0.279486547497145,0.868545886978752,0.168783862881295,0.631077924668935,0.582556509833865,0.582556509832782,,0.422882370172066,,11.6736,103,256.988349514563,555.430582524272,963.45145631068,264.349514563107,249.627184466019,541.83786407767,569.023300970874,1052.64077669903,874.26213592233,0
343.7568,-1.661444695943,0.972462597356243,,0.00939756615570224,0.30561013421586,0.305610134214866,,0.228387789263097,0.0944003988945571,0.840403849987223,-0.305595213074202,0.840403849988558,-0.0849286046043538,1.19647101061148,0.981466483566574,0.16995436849486,0.277093923338542,0.318744545528151,0.168816023471669,-1.60754250979939,0.16881602347178,-1.97709569297512,-0.785843081682118,-1.90689071243178,-0.113912148786119,1.28595951690305,1.28595951689898,-1.59713845939142,1.59713845939304,-0.00507336053426873,-1.05733419097944,0.853700446258448,,-0.0719063951606124,0.968921095320476,0.516196943231352,-0.16728435164069,1.46342073892825,1.46342073893184,0.605289703717085,0.0810472933760661,0.599396642347285,-0.259785557357702,0.885523584611646,0.195242440490574,0.64178329858813,0.609192438391203,0.609192438390117,,0.424986419960795,,11.776,102,284.75637254902,554.433823529412,992.852941176471,291.45,278.062745098039,537.036274509804,571.83137254902,1085.42156862745,900.28431372549,0
