time,S1-D1,S1-D8,S1-D9,S1-D15,S2-D1,S2-D2,S2-D3,S2-D9,S3-D1,S3-D2,S3-D16,S4-D2,S4-D3,S4-D5,S5-D3,S5-D4,S5-D5,S6-D2,S6-D5,S6-D17,S7-D6,S7-D7,S8-D6,S8-D7,S8-D18,S9-D3,S9-D4,S9-D9,S9-D11,S9-D19,S10-D8,S10-D9,S10-D10,S10-D11,S11-D8,S11-D10,S11-D20,S12-D10,S12-D11,S12-D12,S13-D4,S13-D11,S13-D12,S14-D10,S14-D12,S14-D21,S15-D13,S15-D14,S16-D13,S16-D14,S16-D22,t_rel_s,eye_n,xp,yp,ps,xpl_i,xpr_i,ypl_i,ypr_i,psl_i,psr_i,blink_prop
821.3504,-2.07638859635053,-3.11636753332892,-3.87524835845474,-1.29110454035616,-2.57973477525969,-2.57973477525649,,1.28619259503647,-0.219869407637545,-1.09052028336143,2.27527692340046,-1.09052028336179,0.791108419340343,-2.55547129740113,-1.1561765481645,,-0.477641306917087,-2.02928665727773,1.70762835877203,-0.524604782005178,1.70762835877523,3.11266143599574,,,-0.0148585501115284,-2.42804377461674,,,-0.0732935390519329,0.544291231921274,1.0181185711216,-0.563105366588713,1.19203576609104,1.0705288237919,-2.38554037019134,-1.07279391338428,-2.49656723728016,0.24810636283566,0.248106362835004,0.587622168457208,-1.50728154081632,0.299580175580824,1.01562748733836,-0.411516520271593,0.788168125850562,1.02756870810064,0.300610006582473,0.300610006582697,-1.73431805957629,0.648940294522165,,0,103,1068.05582524272,990.381553398058,787.325242718446,1109.90194174757,1026.20970873786,1002.52524271845,978.23786407767,746.242718446602,828.407766990292,0
821.4528,-2.11594404870778,-3.13018627035231,-3.91102161476148,-1.28145401657727,-2.55802442829189,-2.5580244282887,,1.29731277204151,-0.214335772241278,-1.06158544456392,2.26198557990322,-1.06158544456429,0.820978891604145,-2.56586261825866,-1.12751280659773,,-0.481368612220783,-2.08896031779123,1.74801496296602,-0.530058643064338,1.7480149629692,3.11077046398456,,,0.01081437406271,-2.47192754779832,,,-0.0776202405088993,0.541719510794913,1.05891632884631,-0.605066398049698,1.21156929473179,1.07614874961848,-2.43535243397278,-1.1195526729755,-2.52062992615373,0.291568404797084,0.291568404796338,0.575676480416742,-1.53948452045078,0.280016825295794,1.00649094052759,-0.393662911363598,0.794145453457386,1.01955816321651,0.312796756959288,0.312796756959532,-1.72405099386032,0.634893201876586,,0.102399999999989,102,973.611764705882,564.350490196078,1238.39705882353,967.277450980392,979.946078431373,556.298039215686,572.402941176471,1233.85294117647,1242.94117647059,0
821.5552,-2.1497830426944,-3.1421363569002,-3.94173227054942,-1.2708542737734,-2.53574314010678,-2.53574314010359,,1.31055424392057,-0.206965991599796,-1.03387761502231,2.24690634690866,-1.03387761502268,0.848906993262648,-2.57499831777582,-1.10022586517794,,-0.483394035576144,-2.146239189844,1.78699678043118,-0.535750308294296,1.78699678043432,3.1072122331538,,,0.0348676029854279,-2.51360432048546,,,-0.0823564165421169,0.538364116875885,1.09831108966074,-0.645750393493429,1.23018950565708,1.08200069049875,-2.48329097814386,-1.16390734092037,-2.54342830397895,0.335267835533378,0.335267835532543,0.562148660597015,-1.57101236912297,0.258921567110825,0.996138624252567,-0.374923412758181,0.799542449661628,1.01110589145092,0.326517793151092,0.326517793151353,-1.71296906379722,0.620526025759695,,0.204799999999977,103,975.591262135922,559.71213592233,1279.81067961165,965.109708737864,986.072815533981,548.070873786408,571.353398058252,1277.95145631068,1281.66990291262,0
821.6576,-2.17805394407946,-3.15223432534669,-3.9674850165,-1.25931409734953,-2.51293537040743,-2.51293537040425,,1.32581614438922,-0.197842080522378,-1.00735437630886,2.23004006099826,-1.00735437630924,0.874914891514679,-2.58283795744088,-1.07425400820189,,-0.483734184693873,-2.20099873802146,1.82451590088556,-0.54167526849087,1.82451590088867,3.1020763277298,,,0.0573196266461908,-2.55305829229408,,,-0.0874443525401041,0.53423966131297,1.13620784116365,-0.685077742424515,1.24782454561563,1.08807749869623,-2.52930878355856,-1.20581624219634,-2.56493772634252,0.379145280741484,0.379145280740548,0.547158364140835,-1.60183010277648,0.236428704720218,0.984622455250365,-0.355371735346821,0.804350763640652,1.00213740911328,0.341634083442092,0.341634083442366,-1.70093398479088,0.60572832121849,,0.307199999999966,102,974.547549019608,558.149019607843,1318.33333333333,964.827450980392,984.267647058824,546.802941176471,569.495098039216,1316.47058823529,1320.19607843137,0
821.76,-2.20092005906477,-3.16049473765917,-3.98839204882397,-1.24684142346272,-2.48964399069148,-2.48964399068831,,1.34298959889156,-0.18705282167298,-0.98196935860172,2.21139056173841,-0.981969358602106,0.899028830110589,-2.58934586019713,-1.04953441634238,,-0.482410010164613,-2.25311901809331,1.86051632098286,-0.547829023340823,1.86051632098593,3.09545524318336,,,0.0781941633025337,-2.59028115976187,,,-0.0928245579868361,0.529361943927678,1.17251627990637,-0.722973492176177,1.26440508580696,1.09437221719277,-2.57336490742293,-1.24524434655145,-2.58513081575455,0.42314247530858,0.423142475307557,0.530828353227273,-1.63190628549734,0.212675073782979,0.971997575819191,-0.335083786764406,0.808563726097243,0.99258493474587,0.358006996184308,0.35800699618459,-1.68780911710698,0.590390006922289,,0.409599999999955,102,828.675980392157,478.199019607843,1368.73039215686,820.63137254902,836.720588235294,474.376470588235,482.021568627451,1364.37254901961,1373.08823529412,0
821.8624,-2.21855849867839,-3.16692996425701,-4.00457218891991,-1.23344320209717,-2.46591019859587,-2.46591019859271,,1.36195817878929,-0.174693305543486,-0.957672689672074,2.19096452741485,-0.957672689672462,0.921278960669271,-2.59449112279018,-1.0260033881777,,-0.479446663802633,-2.30248513264149,1.89494421031742,-0.554207085691412,1.89494421032045,3.08744381208202,,,0.0975199335753708,-2.62527209103078,,,-0.0984362765451481,0.523747724766608,1.20715141064457,-0.759367844293783,1.27986478340251,1.10087789646123,-2.61542487172074,-1.28216374303614,-2.60397732986441,0.467202250074623,0.467202250073528,0.513283847127273,-1.66121306977108,0.187799344519502,0.958321914041726,-0.314137620324416,0.812175890586601,0.982387754165042,0.375498643844405,0.375498643844691,-1.67346033384571,0.574402173238183,,0.511999999999944,103,824.058737864078,472.735436893204,1409.33009708738,817.833980582524,830.283495145631,474.766990291262,470.703883495146,1409.05825242718,1409.60194174757,0
821.9648,-2.23115900724966,-3.17154999402281,-4.01615000705563,-1.2191252799591,-2.4417734409433,-2.44177344094015,,1.38259836607163,-0.160864473012469,-0.93441144821323,2.16877130940128,-0.934411448213612,0.941699187694293,-2.59824762144596,-1.00359653897063,,-0.474873327367303,-2.34898763843331,1.92774819422795,-0.560804970157107,1.92774819423093,3.07813864905481,,,0.115330418456408,-2.65803765235133,,,-0.104218022590974,0.517414510308259,1.24003410354348,-0.794196626176427,1.29414069600182,1.10758741971053,-2.65546078684115,-1.31655403073449,-2.62144406763818,0.511268486845454,0.511268486844277,0.494651878274784,-1.68972619857117,0.161941338866106,0.94365573228102,-0.292613348682055,0.815182593924867,0.971492464354004,0.393972162964712,0.393972162965003,-1.65775684003247,0.557657859092067,,0.614399999999932,102,824.576470588235,475.518137254902,1437.73529411765,819.68137254902,829.471568627451,477.098039215686,473.938235294118,1442.37254901961,1433.09803921569,0
822.0672,-2.2389227706196,-3.17436228107991,-4.02325496435112,-1.20389230638046,-2.41727134151809,-2.41727134151495,,1.40478003473752,-0.145672651874478,-0.912130112549893,2.14482277317808,-0.912130112550275,0.960327022232765,-2.60059400246381,-0.982248975957622,,-0.468723032667658,-2.39252291245778,1.95887965204482,-0.567618173940877,1.95887965204778,3.06763761187641,,,0.131663603887938,-2.68859168590957,,,-0.11010811785369,0.51038036241258,1.27109159725183,-0.827401718783042,1.30717365308349,1.11449333745521,-2.69345141388127,-1.34840262828523,-2.63749481832233,0.555286050755392,0.555286050754136,0.475060660375515,-1.71742497470556,0.135241367405887,0.928061173744588,-0.270593026860883,0.817579542665593,0.959853111077017,0.413291952429505,0.413291952429797,-1.64057193345554,0.540052780130821,,0.716799999999921,103,823.390291262136,478.419417475728,1457.00485436893,817.038834951456,829.741747572816,477.928155339806,478.910679611651,1465.04854368932,1448.96116504854,0
822.1696,-2.24206122244653,-3.1753716357669,-4.02602059051618,-1.18774766570536,-2.39243962814591,-2.39243962814278,,1.42836695467631,-0.129229077165124,-0.890770995324548,2.11913315269365,-0.890770995324928,0.977203448412328,-2.60151365120501,-0.961895439370221,,-0.461032486701491,-2.43299349215966,1.98829301588272,-0.574642156352145,1.98829301588562,3.05603927175615,,,0.146561712201659,-2.71695513235086,,,-0.116045207613223,0.502663731781124,1.30025794112521,-0.858931423184134,1.31890859623833,1.121587711763,-2.72938216989183,-1.37770500638509,-2.65209036374212,0.599200707639646,0.599200707638339,0.454638976762913,-1.74429219716468,0.10783959483097,0.911601817895598,-0.2481605138847,0.819362429508026,0.947431247175026,0.433323893836732,0.433323893837028,-1.62178370060298,0.521485994258446,,0.81919999999991,102,822.023039215686,478.314705882353,1472.35784313725,814.312745098039,829.733333333333,477.648039215686,478.98137254902,1480.92156862745,1463.79411764706,0
822.272,-2.24079485762014,-3.17458016332492,-4.02458370580131,-1.17069343566213,-2.36731205348579,-2.36731205348267,,1.45321731716577,-0.111649392516186,-0.870274658199291,2.09171891988311,-0.870274658199668,0.992372806215948,-2.60099463704113,-0.942470402937061,,-0.451841903067775,-2.47030839923061,2.01594605318452,-0.581872317605159,2.01594605318738,3.04344238948071,,,0.160070915285234,-2.74315579416275,,,-0.121968749935677,0.494283314481747,1.32747437266899,-0.8887407583181,1.32929489154179,1.12886197106147,-2.76324507881496,-1.40446484502443,-2.66518854384372,0.642959029315635,0.642959029314257,0.433515598864268,-1.77031406465872,0.0798754443479961,0.894342251256325,-0.225401316785269,0.820526583683623,0.934195930214431,0.453935566534581,0.453935566534883,-1.60127564891645,0.501860506319616,,0.921600000000012,103,819.379126213592,477.285436893204,1495.24757281553,812.269902912621,826.488349514563,476.319417475728,478.25145631068,1500.5145631068,1489.98058252427,0
822.3744,-2.23535205412887,-3.17198725069996,-4.01908368832106,-1.15273036910705,-2.34192030563527,-2.34192030563217,,1.47918427716116,-0.0930531360688232,-0.85058030350263,2.06259867217082,-0.850580303503006,1.00588268732055,-2.59902962982145,-0.923908134109744,,-0.441194840005107,-2.50438344504244,2.0418001265672,-0.58930397472739,2.04180012657002,3.02994539784548,,,0.172241023036284,-2.76722804018432,,,-0.127819473898657,0.485257932789163,1.35268962077594,-0.916791684867745,1.33828660284411,1.13630677617495,-2.79503866572465,-1.42869411184217,-2.67674439169257,0.686508288287677,0.686508288286236,0.411818742162832,-1.79548005016173,0.0514870480355433,0.876347654871994,-0.202402415803272,0.821066657871405,0.920123660774323,0.47499645970117,0.474996459701478,-1.57893728511647,0.481083826275331,,1.024,102,820.199019607843,472.767647058824,1531.79901960784,814.533333333333,825.864705882353,475.2,470.335294117647,1528.24509803922,1535.35294117647,0
822.4768,-2.2259679026277,-3.16758959955707,-4.00966178469937,-1.13385789965536,-2.31629390829585,-2.31629390829276,,1.50611650638277,-0.0735632156151822,-0.83162613794179,2.0317930464191,-0.831626137942163,1.01778383886057,-2.59561578202166,-0.906142715541958,,-0.429138049846328,-2.53514150877479,2.06582043391037,-0.596932333349485,2.06582043391315,3.01564588903209,,,0.183125143048212,-2.78921245712988,,,-0.133539799635118,0.475606443620545,1.37586012282741,-0.94305325112216,1.34584270842237,1.14391189619777,-2.82476779281794,-1.45041306191814,-2.68671034049869,0.729796345632182,0.72979634563069,0.389675563137976,-1.81978275172462,0.0228107457153501,0.857683407592916,-0.179252069484729,0.820976351871956,0.90519825397261,0.496378180823594,0.496378180823905,-1.55466465304159,0.459068496110247,,1.12639999999999,102,964.562745098039,526.448529411765,1577.75,954.324509803922,974.800980392157,537.529411764706,515.367647058824,1575.04901960784,1580.45098039216,0
822.5792,-2.21288303953385,-3.16138129923146,-3.99646045623856,-1.11407417434664,-2.29046011325764,-2.29046011325456,,1.53385875007756,-0.0533053768956891,-0.813349700881609,1.99932466903667,-0.81334970088198,1.02813007006575,-2.59075457536189,-0.889108033126228,,-0.415721344047413,-2.56251277666063,2.08797623428731,-0.604752454360101,2.08797623429005,3.00064010328997,,,0.192779309373962,-2.80915546230234,,,-0.139074216607246,0.465347677329485,1.39695014902453,-0.967501663099937,1.35192724457398,1.15166609148851,-2.8524434437349,-1.46965017020962,-2.69503650012837,0.772771535931381,0.772771535929855,0.367211699784467,-1.8432177252135,-0.00601936611882023,0.838414704489596,-0.156039595519173,0.820248176087302,0.889410633673883,0.517954656861935,0.517954656862257,-1.52836083788927,0.435732591508063,,1.22879999999998,103,971.100970873786,525.955339805825,1622.20388349515,961.901941747573,980.3,540.640776699029,511.269902912621,1620.73786407767,1623.66990291262,0
822.6816,-2.19634247879774,-3.15335393268844,-3.97962275185223,-1.09337611452475,-2.2644437867171,-2.26444378671405,,1.56225238515769,-0.0324076663585979,-0.795688154758001,1.96521814643577,-0.795688154758369,1.03697815361496,-2.58445163173037,-0.872737740663437,,-0.400997476782162,-2.58643493593265,2.10824106738919,-0.612759215436261,2.1082410673919,2.98502241753115,,,0.201262082696033,-2.82710889010885,,,-0.144369618692582,0.454500410585996,1.41593183104568,-0.990120281881506,1.35650936612379,1.15955700275203,-2.87808246367,-1.48644200636771,-2.70167099459456,0.815382550190898,0.815382550189319,0.344550855093441,-1.86578330661537,-0.0348718376074245,0.81860618873575,-0.132855120396353,0.818873259284629,0.872758536202918,0.539602321254815,0.539602321255144,-1.49993643077645,0.411000190810645,,1.33119999999997,102,970.371078431373,528.008823529412,1661.53921568627,962.142156862745,978.6,544.776470588235,511.241176470588,1667.71568627451,1655.36274509804,0
822.784,-2.17659444716632,-3.14349671465379,-3.95929171001215,-1.0717595034834,-2.23826728646753,-2.2382672864645,,1.59113598854236,-0.0109998831475412,-0.778578545331135,1.9295000931522,-0.778578545331499,1.04438771590991,-2.57671648031508,-0.85696520161903,,-0.385022050990687,-2.60685333251018,2.12659297508321,-0.620947271369944,2.12659297508588,2.96888483427374,,,0.208634133473701,-2.84312954658306,,,-0.149375590083155,0.443083377867691,1.43278509153805,-1.01089954162112,1.35956332644869,1.16757104807229,-2.90170725293498,-1.50083304664003,-2.70656035117894,0.857578316037421,0.857578316035793,0.321814415491156,-1.88748043165167,-0.063618231207997,0.798321592085132,-0.109789297232962,0.816841195636323,0.855246112421249,0.561200285835912,0.561200285836248,-1.46930993803374,0.384801792319537,,1.43359999999996,102,969.154901960784,530.894117647059,1695.06862745098,962.567647058824,975.742156862745,548.921568627451,512.866666666667,1710.12745098039,1680.00980392157,0
822.8864,-2.15388924138817,-3.13179666645582,-3.93560980480389,-1.04921909849222,-2.21195032606261,-2.2119503260596,,1.62034592945339,0.0107869898746826,-0.76195804311381,1.89219918975911,-0.761958043114173,1.05042112217659,-2.56756226929269,-0.841723390784199,,-0.367853446643606,-2.62372111211939,2.14301472685334,-0.629311019485145,2.14301472685598,2.95231647078555,,,0.214957824666981,-2.85727871096221,,,-0.15404463511358,0.431115321591458,1.44749747572306,-1.02983677974612,1.36106839190988,1.1756933315374,-2.92334540575445,-1.51287540849539,-2.70964993785272,0.899307876088193,0.899307876086551,0.299121095017364,-1.90831245540764,-0.0921334601040793,0.777623377580739,-0.0869329983628469,0.814139917631212,0.836883426631835,0.582630509666151,0.582630509666495,-1.43640811796,0.357074658477152,,1.53599999999994,103,955.655825242719,529.690776699029,1719.35436893204,950.878640776699,960.433009708738,549.058252427184,510.323300970874,1740.27184466019,1698.43689320388,0
822.9888,-2.12847813342903,-3.11823883159761,-3.90871845541631,-1.02574876216247,-2.18550983062754,-2.18550983062455,,1.64971699011523,0.0328213781739298,-0.745764174037859,1.85334625649823,-0.745764174038215,1.05514336706647,-2.55700542556779,-0.826944745416987,,-0.349552759367744,-2.63699935401921,2.15749403888592,-0.637844572615123,2.15749403888852,2.93540305411308,,,0.220296805999306,-2.8696215735906,,,-0.158332353877281,0.418615071460598,1.46006390316785,-1.0469359904435,1.36100871020482,1.18390756864405,-2.94302929164991,-1.52262849750242,-2.7108844492105,0.940520268777904,0.940520268776251,0.27658660245194,-1.92828496938828,-0.120296101743253,0.756572385148892,-0.0643769879164917,0.810755590781883,0.817685870044446,0.603777980335549,0.603777980335903,-1.40116623707027,0.327763078196532,,1.63839999999993,102,950.226960784314,528.936764705882,1740,946.540196078431,953.913725490196,550.047058823529,507.826470588235,1760.70588235294,1719.29411764706,0
823.0912,-2.10061234874718,-3.10280653315385,-3.87875761532272,-1.00134160283036,-2.15895980032486,-2.15895980032189,,1.67908300546568,0.0549717158125038,-0.729935046011447,1.81297432254261,-0.729935046011799,1.05862197156869,-2.54506528880649,-0.812560986891447,,-0.33018372880482,-2.64665718897022,2.17002376815318,-0.646541735092298,2.17002376815574,2.91822644037415,,,0.224715625423912,-2.88022662227597,,,-0.162197575943876,0.40560163671624,1.47048637515576,-1.06220753615623,1.35937315210866,1.19219603509677,-2.96079558593098,-1.53015856402297,-2.7102084350519,0.981164419364715,0.981164419363056,0.254323332066113,-1.94740561256558,-0.147988685050975,0.73522749232482,-0.0422115769705884,0.806672541831043,0.797673529116849,0.62453091270385,0.624530912704217,-1.36352825714137,0.296818560689605,,1.74079999999992,103,948.302912621359,529.007766990291,1761.16990291262,945.565048543689,951.040776699029,552.802912621359,505.212621359223,1773.19417475728,1749.14563106796,0
823.1936,-2.0705421328226,-3.08548167221597,-3.84586544981226,-0.975990111520778,-2.13231119739694,-2.13231119739399,,1.70827750816682,0.0771070338973819,-0.714409577806431,1.77111867350742,-0.714409577806777,1.06092687907467,-2.53176375171262,-0.798502948651382,,-0.309812641235093,-2.65267189243153,2.1806020617063,-0.655395974779005,2.1806020617088,2.9008641797775,,,0.228279360681337,-2.88916499718537,,,-0.165602466373828,0.392094297598957,1.47877367193343,-1.07566785098179,1.35615514499995,1.20053954355718,-2.97668476112349,-1.53553817613662,-2.70756685734825,1.02118905033202,1.02118905033039,0.232440077985358,-1.96568387420681,-0.175097950860122,0.71364530393207,-0.0205262657060054,0.80187323225662,0.776870555841915,0.644780960540029,0.644780960540411,-1.32344697754284,0.264199985178119,,1.84319999999991,102,945.166666666667,531.05931372549,1781.26960784314,944.11862745098,946.214705882353,555.719607843137,506.399019607843,1787.77450980392,1774.76470588235,0
823.296,-2.03851590727119,-3.06624506428044,-3.81017810009285,-0.94968628882161,-2.10557186303042,-2.1055718630275,,1.73713436921322,0.0990975278073941,-0.699127731520972,1.72781687365322,-0.69912773152131,1.06213034766403,-2.5171249251363,-0.784700429752494,,-0.288508204691722,-2.65502895309928,2.18923244856535,-0.664400388925682,2.18923244856781,2.88338913526058,,,0.231053271335392,-2.89650982896026,,,-0.168512610479108,0.378112690810237,1.48494105636652,-1.08733914766077,1.35135251382357,1.20891744689879,-2.99074055383246,-1.53884562688933,-2.70290565918852,1.06054261871558,1.06054261871397,0.211041774852345,-1.98313088680792,-0.2015150823479,0.69187987469407,0.000590622047962196,0.796338276685741,0.755304570424766,0.664423437849602,0.664423437849999,-1.2808841515767,0.229873721950588,,1.94560000000001,103,945.363151535438,529.245528073473,1801.76064899234,943.978478412141,946.747824658734,555.5846615196,502.906394627345,1805.10984459392,1798.41145339076,0
823.3984,-2.0047795076232,-3.0450768057261,-3.77182952255269,-0.922421762063687,-2.07874646546035,-2.07874646545745,,1.76548842651559,0.120815105343438,-0.684030742937555,1.68310877155068,-0.684030742937887,1.06230684156308,-2.50117483357498,-0.771082074968625,,-0.266341400770607,-2.65372211671183,2.19592387398707,-0.673547668124541,2.19592387398949,2.86586914986327,,,0.233102469636319,-2.90233557638188,,,-0.170897075390564,0.363676888743752,1.48900998610628,-1.09724912320532,1.34496734084977,1.21730766040163,-3.00300942530692,-1.54016430702633,-2.69617232869955,1.09917328500306,1.09917328500144,0.190229275668484,-1.99975920777043,-0.227135893659825,0.669982461785891,0.0210523119669892,0.790046502853542,0.733006104631905,0.683357555559902,0.683357555560313,-1.23581057947998,0.193813727221677,,2.048,102,941.317986412277,528.584877723319,1815.44338769278,937.37337883959,945.262593984963,549.323890784983,507.845864661654,1819.44880546075,1811.43796992481,0.284313725490196
823.5008,-1.96957548938503,-3.02195665690581,-3.73095138372727,-0.894187891862358,-2.05183648308043,-2.05183648307755,,1.7931760913129,0.142133920719745,-0.669061342925911,1.63703649560452,-0.669061342926238,1.06153292110252,-2.48394114583409,-0.757575286309463,,-0.243385311984156,-2.64875340028974,2.20069068204696,-0.682830063370329,2.20069068204933,2.8483667599329,,,0.234491610084405,-2.90671738912613,,,-0.172728448051426,0.348807471579207,1.49100783464159,-1.10543066152373,1.33700584736254,1.22568669282484,-3.0135400372476,-1.53958208161371,-2.68731643659038,1.13702891705253,1.13702891705093,0.170099183431119,-2.01558259008168,-0.251860959166643,0.648001307885458,0.0407739670991857,0.782975060229213,0.710008085941679,0.701486684581526,0.701486684581946,-1.18820616893979,0.156001610572037,,2.15039999999999,102,935.096598899125,524.036508506762,1827.02501667993,928.113310580205,942.079887218045,542.988054607509,505.084962406015,1833.02559726962,1821.02443609023,0.617647058823529
823.6032,-1.93314248480589,-2.99686442770803,-3.68767298838857,-0.864975862559669,-2.02484022745158,-2.02484022744873,,1.82003592140057,0.162930891189642,-0.654163968261891,1.58964443454838,-0.654163968262211,1.05988711920313,-2.46545294989782,-0.744106188537043,,-0.219714919082242,-2.64013307542642,2.20355254779065,-0.692239355337806,2.20355254779298,2.8309389582081,,,0.235284602229632,-2.90973051903018,,,-0.173982858878737,0.333525589773092,1.49096762588878,-1.11192154510509,1.32747828890917,1.23402968110441,-3.02238275957875,-1.53719069663743,-2.67629012650166,1.17405713129342,1.17405713129183,0.15074374346617,-2.03061574566645,-0.27559567682865,0.625981462807787,0.0596730932203139,0.775099589168061,0.686345364701384,0.718718643732088,0.718718643732519,-1.13805995157639,0.116426672634962,,2.25279999999998,103,928.350317379485,523.755137989943,1842.45753308517,918.725965075052,937.974669683919,541.188945955797,506.321330024089,1847.23589250804,1837.67917366231,0
823.7056,-1.8957145979405,-2.96978035969696,-3.6421212282336,-0.834776753488541,-1.99775290792327,-1.99775290792043,,1.84590915729656,0.183086181696329,-0.639284967390397,1.54097919290869,-0.639284967390704,1.05744978538622,-2.44574057554089,-0.730599675435698,,-0.195406866107878,-2.62787962613097,2.20453435550293,-0.701766820397472,2.20453435550523,2.81363701109004,,,0.235544355877702,-2.91144978285064,,,-0.174640002020964,0.317853015236168,1.48892778822816,-1.11676419270594,1.31639885112616,1.24231043422286,-3.02958921138458,-1.53308520882966,-2.6630485511182,1.21020536897092,1.21020536896934,0.132250781306517,-2.0448741068639,-0.298250282891357,0.603964653144754,0.0776699517726998,0.766394452281809,0.662054284150444,0.734965990344093,0.734965990344541,-1.08537004933501,0.0750859067820196,,2.35519999999997,102,926.943137254902,538.773039215686,1864.34803921569,918.93137254902,934.954901960784,560.613725490196,516.932352941177,1863.17647058824,1865.51960784314,0
823.808,-1.85752083967807,-2.9406855082557,-3.59442055505649,-0.803581592516968,-1.97056673536456,-1.97056673536175,,1.87064022791883,0.202483642530854,-0.624372809546609,1.49108951421133,-0.624372809546903,1.05430288452282,-2.42483545508154,-0.716979544777066,,-0.170539196597944,-2.61201968743534,2.20366602027623,-0.711403189305225,2.20366602027849,2.79650633139214,,,0.235332567722892,-2.91194905856438,,,-0.174683152040962,0.301812180854558,1.48493193185637,-1.12000543417441,1.30378553757713,1.25050149890644,-3.03521182145849,-1.52736340535401,-2.64755026492033,1.24542100041747,1.24542100041591,0.114703661154298,-2.05837358883984,-0.319739844968163,0.581989204306909,0.0946879682751327,0.756833021899114,0.637172286454483,0.750146290267427,0.750146290267885,-1.03014359172493,0.0319839587562373,,2.45759999999996,102,900.185294117647,538.50637254902,1879.85294117647,892.871568627451,907.499019607843,567.088235294118,509.924509803922,1868.78431372549,1890.92156862745,0
823.9104,-1.81878461086347,-2.9095621283933,-3.54469298643967,-0.771381394000938,-1.94327105991337,-1.94327105991057,,1.89407723473353,0.221011195000038,-0.60937830076842,1.44002616926772,-0.6093783007687,1.05052975116467,-2.40277001044455,-0.70316871098759,,-0.145191067756248,-2.59258796663701,2.2009822526433,-0.721138597762087,2.20098225264551,2.77958640597581,,,0.234709551550401,-2.91130079677867,,,-0.174099168887321,0.285426207885284,1.47902865119625,-1.12169632814839,1.28966004469451,1.25857425684358,-3.03930339483349,-1.52012518420415,-2.62975759023313,1.27965145031835,1.2796514503168,0.0981812529503683,-2.07113035292114,-0.339984246199268,0.560090015835674,0.11065413425549,0.74638802281594,0.611737545260973,0.764182361465892,0.764182361466361,-0.972396588081047,-0.0128669549316782,,2.55999999999995,103,856.930582524272,531.885436893204,1890.66504854369,851.156310679612,862.704854368932,565.923300970874,497.847572815534,1874.71844660194,1906.61165048544,0
824.0128,-1.77972323497017,-2.87639406351243,-3.49305814427053,-0.738167186119833,-1.91585253579006,-1.91585253578729,,1.91607241839845,0.238561169252276,-0.594254803047024,1.38784181375325,-0.594254803047293,1.04621480926638,-2.37957756472308,-0.689089481717389,,-0.119442449561924,-2.56962714394501,2.19652227457407,-0.730962531585052,2.19652227457623,2.76291077323992,,,0.233734105165027,-2.90957554599749,,,-0.172878486268339,0.268718921750077,1.47127134911114,-1.12189201936387,1.2740476221479,1.26649905427831,-3.04191668506172,-1.5114718938175,-2.60963696425258,1.31284433909575,1.31284433909419,0.0827579120285151,-2.08316057255048,-0.358908156635837,0.538298589067824,0.125499406055234,0.735031932372473,0.585788618036173,0.777002498865913,0.777002498866392,-0.912153763508583,-0.0594471591843604,,2.66239999999993,102,846.243137254902,532.259803921569,1898.88725490196,841.91862745098,850.567647058824,566.778431372549,497.741176470588,1882.90196078431,1914.87254901961,0
824.1152,-1.74054753331285,-2.84116713553756,-3.43963332045201,-0.703930038881729,-1.88829530458054,-1.88829530457778,,1.9364826084513,0.255030601918717,-0.578958449925459,1.33459082838997,-0.578958449925716,1.04144326722201,-2.35529228114881,-0.674663888332672,,-0.0933738124229459,-2.54318774812975,2.19032950744822,-0.740863773154949,2.19032950745033,2.74650703903605,,,0.232463402667473,-2.90684150443244,,,-0.171015083329518,0.251714860220023,1.46171807214257,-1.12065161789986,1.2569769230626,1.27424535684243,-3.04310398432834,-1.50150565562064,-2.58715926377164,1.34494763556836,1.3449476355668,0.0685034753990736,-2.09448020690916,-0.37644098864528,0.516643101538218,0.139159097716763,0.722737428823945,0.559364116706631,0.78854068801024,0.788540688010729,-0.849448374992015,-0.107729644526458,,2.76479999999992,103,838.734466019418,532.268446601942,1907.90291262136,835.484466019418,841.984466019417,569.01359223301,495.523300970874,1891.46601941748,1924.33980582524,0
824.2176,-1.70146143410183,-2.80386953569482,-3.38453356388679,-0.668661104629118,-1.86058119002046,-1.86058119001772,,1.95516965496789,0.270321498351645,-0.563448352861638,1.28032915866919,-0.563448352861879,1.03630079300342,-2.32994912525374,-0.659814060796775,,-0.0670658061806971,-2.51332801009317,2.18245125256346,-0.750830355136784,2.18245125256552,2.73039692055405,,,0.230952905370165,-2.90316410791923,,,-0.168506439095209,0.234439279540818,1.45043134172207,-1.11803807707387,1.23847984824774,1.28178191874572,-3.04291674287726,-1.49032869800371,-2.56230010075876,1.37590981690944,1.37590981690787,0.0554832671988792,-2.10510478607709,-0.392516845075978,0.495148516357684,0.151573257942103,0.709477865230932,0.532502399334489,0.798736807023438,0.798736807023936,-0.784322024172679,-0.1576801876948,,2.86719999999991,102,836.035294117647,532.125980392157,1911.69117647059,831.687254901961,840.383333333333,565.943137254902,498.308823529412,1897.83333333333,1925.54901960784,0
824.32,-1.66266161201431,-2.76449221595707,-3.32787178671012,-0.632351674993165,-1.83268990274209,-1.83268990273937,,1.97200083982802,0.284341059156482,-0.547686795057625,1.22511416398302,-0.547686795057855,1.03087317032872,-2.30358383677165,-0.644462634478777,,-0.0405989377244609,-2.48011370543274,2.17293836950244,-0.760849522422378,2.17293836950446,2.71459631744891,,,0.229256295808262,-2.89860564803105,,,-0.165353466302549,0.216918162108305,1.43747796578089,-1.11411805135394,1.21859138078052,1.28907695678428,-3.04140521882401,-1.47804271679622,-2.53504008228173,1.40568003603161,1.40568003603004,0.043758098767919,-2.11504920526813,-0.407074475062095,0.473836710033056,0.162687023301196,0.695227742630416,0.505241287146672,0.807536814576458,0.807536814576964,-0.716824472490056,-0.209257466194524,,2.96960000000001,103,929.796601941748,537.846116504854,1902.73300970874,928.998058252427,930.595145631068,570.577669902913,505.114563106796,1899.06796116505,1906.39805825243,0
824.4224,-1.62433716197557,-2.7230292824287,-3.26975889309783,-0.594993250164827,-1.80459925735879,-1.80459925735609,,1.98684926735762,0.297001870948653,-0.531639411852159,1.1690044748028,-0.531639411852381,1.02524593733189,-2.27623289682969,-0.62853317491114,,-0.0140532540374952,-2.44361799466984,2.16184494414995,-0.770907701208366,2.16184494415193,2.69911541627483,,,0.22742544428136,-2.89322490454362,,,-0.161560420728172,0.199178226608116,1.42292881852296,-1.10896172200531,1.19734940465016,1.29609832438355,-3.03861815268948,-1.46474826295805,-2.50536502936487,1.43420829852281,1.43420829852125,0.033384253535621,-2.12432752095944,-0.420057246332196,0.452726602223871,0.172450948105609,0.679963163887131,0.477617812391534,0.814892929843161,0.814892929843679,-0.647013453943386,-0.26241317495799,,3.072,102,927.247549019608,537.629411764706,1909.43137254902,925.511764705882,928.983333333333,569.469607843137,505.789215686275,1909.51960784314,1909.3431372549,0
824.5248,-1.58666931245638,-2.67947839163596,-3.21030393470683,-0.556577615041877,-1.77628540369008,-1.7762854036874,,1.99959423767295,0.308222063939664,-0.515275357994406,1.11205985163499,-0.515275357994615,1.01950400976161,-2.24793348432382,-0.611950612828739,,0.0124919692585104,-2.40392126193497,2.14922793790637,-0.78099047611145,2.14922793790832,2.6839588323876,,,0.225510410804326,-2.8870767847073,,,-0.157134785730039,0.181246938913218,1.40685858510072,-1.10264258609872,1.17479450738419,1.30281368570335,-3.03460246463385,-1.45054415521674,-2.47326615236156,1.46144564804915,1.46144564804759,0.024413455566625,-2.13295274499474,-0.431413134400275,0.43183427960386,0.180821313045065,0.663662261153821,0.449668001405521,0.820763812389929,0.820763812390454,-0.574954477037684,-0.3170921550202,,3.17439999999999,102,926.063725490196,536.041666666667,1916.44117647059,923.71862745098,928.408823529412,569.297058823529,502.786274509804,1912.66666666667,1920.21568627451,0
824.6272,-1.54983117896638,-2.63384114772035,-3.14961429149162,-0.517096921317412,-1.74772307244731,-1.74772307244463,,2.01012160452811,0.317925436490125,-0.498567461218857,1.05434104239869,-0.498567461219051,1.01373128812792,-2.21872342579745,-0.594641693844915,,0.0389585329584202,-2.36111094898672,2.13514681864724,-0.791082577187788,2.13514681864915,2.66912578957235,,,0.223559477666172,-2.88021197971336,,,-0.15208713633071,0.163152520428661,1.38934547510117,-1.09523721089963,1.15096977143883,1.30919069195315,-3.0294029802231,-1.43552692095686,-2.43874018184753,1.48734435600912,1.48734435600758,0.0168928253084374,-2.14093664114813,-0.441094725846959,0.411173116515312,0.187760409291259,0.646305596989095,0.421426690373848,0.825114740124578,0.825114740125111,-0.500720610374431,-0.373232539335906,,3.27679999999998,103,926.633495145631,535.81359223301,1929.13106796117,925.67572815534,927.591262135922,570.376699029126,501.250485436893,1920.18446601942,1938.07766990291,0
824.7296,-1.51398755272237,-2.58612349529046,-3.08779587043982,-0.476543779253282,-1.71888583552849,-1.71888583552583,,2.01832411371227,0.326041542578378,-0.481492358343883,0.995909639983482,-0.481492358344064,1.00801024716704,-2.188641148302,-0.576535452766465,,0.0652696038444666,-2.31528137894895,2.1196631837262,-0.801167877788459,2.11966318372808,2.65461033627654,,,0.221619206510109,-2.87267665785489,,,-0.146430988094813,0.144923951843676,1.37047090691863,-1.08682495574903,1.12592055538362,1.31519716102864,-3.02306219357921,-1.41979027350685,-2.4017894519248,1.51185811237599,1.51185811237447,0.0108648289145798,-2.14828953344901,-0.449059230930482,0.390753897388429,0.193236793609818,0.627876540734189,0.392927365138201,0.827917777010203,0.827917777010742,-0.424392252928714,-0.430765914752878,,3.37919999999997,102,923.905392156863,532.777941176471,1946.45098039216,922.409803921569,925.400980392157,565.312745098039,500.243137254902,1932.20588235294,1960.69607843137,0
824.832,-1.47929471709646,-2.53633610075231,-3.02495331169906,-0.434911362832134,-1.68974637965982,-1.68974637965718,,2.02410171540517,0.332505740052481,-0.464030607911532,0.936827944116909,-0.464030607911694,1.00242151020274,-2.1577256426078,-0.557563715509218,,0.0913499805873069,-2.26653356175867,2.1028403900706,-0.811229403294844,2.10284039007247,2.64040159616424,,,0.219734514929963,-2.86451220858278,,,-0.140182633909779,0.126590973096886,1.35031916239204,-1.07748766290083,1.09969426151901,1.32080125912138,-3.01562007291816,-1.40342463330415,-2.36242193285582,1.53494221700065,1.53494221699914,0.00636722921651354,-2.15502013371542,-0.455268498568515,0.370584942650566,0.197225514179966,0.608361621855112,0.364202019936453,0.829151923654316,0.829151923654862,-0.346056892259105,-0.489617500402414,,3.48159999999996,102,923.023039215686,533.08431372549,1947.41666666667,921.501960784314,924.544117647059,566.952941176471,499.21568627451,1934.8431372549,1959.99019607843,0
824.9344,-1.44590028619915,-2.48449471316226,-2.96119019115571,-0.392193527745678,-1.66027678957397,-1.66027678957135,,2.02736184629247,0.337259204601506,-0.446166775204754,0.877158830053154,-0.446166775204896,0.997043416906186,-2.1260164360165,-0.537661617342066,,0.117126339966567,-2.21497497549066,2.08474320381722,-0.821249350225695,2.08474320381909,2.62648404810182,,,0.217948765905667,-2.85575503946224,,,-0.133360969826042,0.108184081567583,1.32897701535306,-1.06730932183558,1.07234009055225,1.32597167976883,-3.00711390772636,-1.3865166987109,-2.32065121559086,1.55655376974717,1.55655376974571,0.00343304327900518,-2.16113539122181,-0.45968902908866,0.350672236346502,0.199708309095068,0.587750860026267,0.335281039182252,0.828803243145517,0.828803243146074,-0.265808849896167,-0.549706350335107,,3.58399999999995,103,976.452427184466,531.978155339806,1948.20388349515,975.263106796116,977.641747572816,563.784466019417,500.171844660194,1936.96116504854,1959.44660194175,0
825.0368,-1.41394306465412,-2.43062049467108,-2.89660921059105,-0.34838493888986,-1.6304488371778,-1.63044883717519,,2.02801967965565,0.340248918617859,-0.427889488570376,0.816965623978431,-0.427889488570498,0.99195159570503,-2.09355356594655,-0.516768115960615,,0.142527475458368,-2.1607193225094,2.06543747562439,-0.831209115274869,2.06543747562626,2.61283782792145,,,0.216303859492408,-2.846436418795,,,-0.125987309274313,0.089734528946728,1.30653334304959,-1.05637571407521,1.04390879081946,1.33067781269785,-2.99757819445043,-1.36914907416397,-2.27649645780019,1.57665185527929,1.57665185527786,0.00209050546692497,-2.16664036480869,-0.462291985949563,0.331019549869419,0.200673778671495,0.566038066555124,0.30619311235784,0.82686494947307,0.826864949473635,-0.183749012960324,-0.610945589707209,,3.68639999999994,102,1011.89264705882,531.773529411765,1951.00490196078,1010.67450980392,1013.11078431373,561.901960784314,501.645098039216,1943.61764705882,1958.39215686275,0
825.1392,-1.38355293258864,-2.37474031394609,-2.83131237235535,-0.303481205316901,-1.60023427608694,-1.60023427608435,,2.02599834166367,0.341427640782412,-0.40919146790667,0.756311983714235,-0.409191467906773,0.987218550630072,-2.06037754757339,-0.494826481493856,,0.167484534822337,-2.10388626250599,2.04498984481469,-0.841089334047439,2.04498984481654,2.59943904305781,,,0.214840315053011,-2.83658235788857,,,-0.118085183596234,0.0712743152403776,1.28307873138621,-1.04477404646793,1.01445241207375,1.33488989663216,-2.98704455996771,-1.35139996333694,-2.22998230307839,1.59519771794185,1.59519771794046,0.00236303256222326,-2.17153811966369,-0.463053210578722,0.311628555975655,0.200117531536387,0.543221110418738,0.276965191403144,0.823337443753696,0.823337443754258,-0.0999845576530685,-0.673242685467892,,3.78879999999992,103,1026.16844660194,532.727184466019,1957.12621359223,1024.35048543689,1027.98640776699,565.135922330097,500.318446601942,1948.55339805825,1965.69902912621,0
825.2416,-1.35485076018337,-2.31688700121524,-2.76540114008749,-0.257479022599215,-1.56960514203098,-1.56960514202841,,2.02122909164435,0.340753856028501,-0.390069526267332,0.695261783716525,-0.390069526267414,0.982913269117867,-2.02652933837414,-0.471784757678076,,0.191931252025997,-2.04460112473224,2.0234674765545,-0.850869928543558,2.02346747655635,2.58626009207233,,,0.213597335730647,-2.82621353605674,,,-0.109680128521511,0.0528361778963263,1.25870508570894,-1.03259258323042,0.984024072036927,1.33857915703888,-2.9755417261075,-1.33334292950186,-2.18113878143672,1.61215492308614,1.61215492308479,0.00426919131423669,-2.17582965476307,-0.461953241204891,0.292498932073821,0.198042305948352,0.519302149093782,0.247622491864638,0.818228287679305,0.81822828767986,-0.0146286707522254,-0.736499745788926,,3.89119999999991,102,1213.59803921569,533.316176470588,1943.4362745098,1208.98235294118,1218.2137254902,562.400980392157,504.23137254902,1944.80392156863,1942.06862745098,0
825.344,-1.32794835084645,-2.25709956323218,-2.69897658348647,-0.210376322670917,-1.5385340579951,-1.53853405799255,,2.01365146370956,0.338191703910704,-0.370524541440967,0.633879006415031,-0.370524541441029,0.979100853851619,-1.99205030412803,-0.447596194162181,,0.215804164910075,-1.98299459718192,2.00093783500339,-0.860530162335473,2.00093783500523,2.57326998403763,,,0.21261284957528,-2.81534527665718,,,-0.100799460622871,0.0344535734990852,1.23350525809266,-1.01992028882721,0.952677739784167,1.34171793281443,-2.96309551895555,-1.31504672138332,-2.13000119669577,1.6274895023457,1.62748950234438,0.00782267523187721,-2.1795138668315,-0.458977329725659,0.273628455080295,0.194458071747299,0.49428783179919,0.218188528926241,0.811552109242702,0.811552109243249,0.0721997372018208,-0.80061384727407,,3.99360000000002,103,1182.95048543689,534.378640776699,1954.68932038835,1176.79417475728,1189.10679611651,562.401941747573,506.355339805825,1957.15533980583,1952.22330097087,0
825.4464,-1.3029484078796,-2.19542335088159,-2.63213949790893,-0.162172430783135,-1.50699454224129,-1.50699454223876,,2.00321336630845,0.333710885090433,-0.350561389404607,0.572227645459803,-0.350561389404648,0.975842176897389,-1.95698218433935,-0.422219650418665,,0.239042816127682,-1.91920238295574,1.97746849116178,-0.870048704250016,1.97746849116362,2.56043465623201,,,0.21192352126433,-2.8039875804131,,,-0.0914720519894825,0.0161606482889238,1.20757269851644,-1.00684649139612,0.920468036421796,1.34427979306261,-2.94972892371226,-1.29657516367789,-2.07661000750012,1.64117008404544,1.64117008404416,0.0130323002401052,-2.18258755404767,-0.454115447104895,0.255013091022954,0.189382119030079,0.468189484440794,0.188685175485316,0.803330436883107,0.803330436883647,0.160376345226618,-0.865477398988534,,4.096,102,979.278921568628,536.991176470588,1990.73529411765,977.639215686274,980.91862745098,570.761764705882,503.220588235294,1986.79411764706,1994.67647058824,0
825.5488,-1.27994451997535,-2.13191016947187,-2.56499048762292,-0.112868230227539,-1.47496131898684,-1.47496131898434,,1.98987113683234,0.327286545627644,-0.330188832862085,0.510371627401136,-0.330188832862103,0.973193548860879,-1.92136705106777,-0.395619975314075,,0.261589943474311,-1.85336481172145,1.95312696372269,-0.879403703588305,1.95312696372454,2.54771729108101,,,0.21156472986466,-2.79214521754869,,,-0.0817281123096582,-0.00200780636476429,1.18100112984333,-0.993460568575285,0.887450050192304,1.34623964269217,-2.9354621834293,-1.27798711224283,-2.02101070731604,1.65316801528782,1.65316801528659,0.0199020247232083,-2.18504546082044,-0.447362271731686,0.236647083480955,0.182839133680726,0.441023281078727,0.159132730076422,0.79359145430829,0.793591454308819,0.249771778435477,-0.930978555979539,,4.19839999999999,102,954.017156862745,567.346568627451,2002.76960784314,947.242156862745,960.792156862745,601.463725490196,533.229411764706,1998.92156862745,2006.61764705882,0
825.6512,-1.25902116283768,-2.0666183254482,-2.49763000582431,-0.062466336269043,-1.44241063303768,-1.4424106330352,,1.97358955150737,0.318899138614783,-0.309419363758134,0.448374756356249,-0.309419363758127,0.971206394020074,-1.88524725203663,-0.367768365993137,,0.283391669528295,-1.78562640153461,1.92798059403495,-0.888572880662695,1.92798059403681,2.53507863635056,,,0.211570515136124,-2.77981786969792,,,-0.0715989826288255,-0.0200164169637212,1.15388423712823,-0.979851646898276,0.853679160140492,1.34757381498609,-2.92031293615924,-1.25933647061612,-1.96325370345016,1.66345748529353,1.66345748529234,0.0284309913950998,-2.18688035961299,-0.438717162590965,0.21852304207915,0.174861251907769,0.412810396072723,0.129549984628371,0.78236966444291,0.782369664443426,0.34025201575851,-0.997001691892987,,4.30079999999998,103,641.51213592233,1207.87766990291,2015.22815533981,631.049514563107,651.974757281553,1247.86310679612,1167.89223300971,2020.58252427184,2009.87378640777,0
825.7536,-1.24025371631439,-1.99961260854356,-2.43015835022008,-0.0109712786931659,-1.4093205703827,-1.40932057038024,,1.95434179349698,0.308534264541144,-0.288269001157151,0.386300680973528,-0.28826900115712,0.969926926830993,-1.84866532442413,-0.338642700418776,,0.304397696478698,-1.71613537495886,1.90209645489118,-0.897533635269946,1.90209645489306,2.52247733629518,,,0.211973501642098,-2.76700029748024,,,-0.0611169374744519,-0.0378293126548608,1.12631535986292,-0.966108300853202,0.819210866072178,1.34826014875979,-2.9042963780339,-1.24067225756688,-1.90339419223307,1.67201565848193,1.67201565848078,0.0386135846344532,-2.18808315729595,-0.428184121304277,0.200632027497878,0.165488083606978,0.383577123432699,0.0999542857877069,0.769705455569073,0.769705455569572,0.43167885089479,-1.06342793505266,,4.40319999999997,102,623.482843137255,1281.31862745098,2017.69607843137,600.944117647059,646.021568627451,1312.81862745098,1249.81862745098,2018.05882352941,2017.33333333333,0
825.856,-1.22370849740096,-1.93096421091963,-2.36267561569565,0.0416103101803271,-1.37567138668402,-1.37567138668159,,1.93210938165748,0.2961824930573,-0.266757045416207,0.324212875950179,-0.26675704541615,0.969395832007283,-1.81166386916555,-0.308227832269288,,0.324561503339974,-1.64504313236756,1.87554128769369,-0.906263172789597,1.87554128769557,2.50987028084734,,,0.212804808252888,-2.75368250819448,,,-0.0503149894331687,-0.0554102337146989,1.09838718545297,-0.952318243528815,0.784100633192878,1.34827804788214,-2.8874254370518,-1.22203871213054,-1.84149202982177,1.67882282164562,1.67882282164451,0.0504395002606909,-2.1886430114828,-0.415771743126499,0.182963631783837,0.154766697618314,0.353354955577735,0.0703615845164648,0.755644578809785,0.755644578810269,0.523910405489127,-1.13013576571634,,4.50559999999996,102,618.228921568628,1281.44411764706,2026.0637254902,577.667647058824,658.790196078431,1311.2637254902,1251.62450980392,2028.8431372549,2023.28431372549,0
825.9584,-1.20944280651564,-1.86075058717408,-2.29528160571168,0.0952695057189995,-1.34144584199737,-1.34144584199496,,1.90688206239855,0.281839170579992,-0.244905792432444,0.262174625282567,-0.244905792432364,0.969647954545551,-1.77428538791817,-0.276515842023635,,0.343840536623248,-1.57250368005368,1.84838146059679,-0.914738643623466,1.84838146059868,2.49721297309733,,,0.214093943350215,-2.73984991653831,,,-0.0392266932778561,-0.0727226625514938,1.07019145383263,-0.938568011921472,0.748403766525618,1.34760852166012,-2.86971094813121,-1.20347542789522,-1.77761160294651,1.68386254623271,1.68386254623163,0.0638938269795562,-2.18854744867257,-0.40149315596337,0.165506061226877,0.14275156139884,0.322180622953746,0.040786468722094,0.740237563891648,0.740237563892108,0.616801691500764,-1.19700166660174,,4.60799999999995,103,612.419902912621,1282.45873786408,2042.6359223301,564.728155339806,660.111650485437,1310.94660194175,1253.97087378641,2044.57281553398,2040.69902912621,0
826.0608,-1.19750498140103,-1.78905526351609,-2.22807570590806,0.14999490291886,-1.3066295341023,-1.30662953409992,,1.87865767050019,0.265504223154783,-0.222740216960838,0.200248993910944,-0.222740216960738,0.970712009044615,-1.73657209470539,-0.243506242626014,,0.362196383872532,-1.49867301358637,1.82068294191512,-0.922937289394065,1.820682941917,2.48445990750617,,,0.215868683057591,-2.72548351098144,,,-0.0278859492358616,-0.0897299737753255,1.04181868465394,-0.924942656077375,0.712175324350173,1.34623420434905,-2.85116182727445,-1.18501751669325,-1.71182170684781,1.68712186645977,1.68712186645873,0.078957136074353,-2.18778248285107,-0.385365950748967,0.148246233848979,0.129504421549061,0.29009609584196,0.0112421802564032,0.723539107801187,0.72353910780163,0.71020521707429,-1.26390081598645,,4.71039999999994,102,610.879411764706,1277.51470588235,2046.70098039216,561.806862745098,659.951960784314,1313.00980392157,1242.01960784314,2053.74509803922,2039.6568627451,0
826.1632,-1.18793445647836,-1.71596760676562,-2.16115672748512,0.205772433398604,-1.27121122058612,-1.27121122058376,,1.8474419674855,0.247181968062521,-0.200287635390469,0.138498778614875,-0.200287635390347,0.97261032218644,-1.69856571679579,-0.209206134596286,,0.379594919548713,-1.42370846657806,1.79251128379851,-0.930836591213266,1.79251128380039,2.47156494895198,,,0.21815493313176,-2.71056004574162,,,-0.0163268053106931,-0.106395600495584,1.01335792768977,-0.911525437570692,0.675470063921366,1.3441393515248,-2.83178524713865,-1.1666958075245,-1.64419543436079,1.68859147185713,1.68859147185611,0.0956055750410916,-2.18633273748755,-0.367412108371702,0.13116990095416,0.11509411088776,0.257148546016459,-0.0182593724761096,0.705607465981907,0.705607465982332,0.803971623373669,-1.33070780913716,,4.81279999999993,103,612.960679611651,1272.68737864078,2048.90776699029,564.157281553398,661.764077669903,1307.26213592233,1238.11262135922,2059.50485436893,2038.31067961165,0
826.2656,-1.18076183280011,-1.64158256074094,-2.0946227298331,0.26258519059453,-1.2351831221844,-1.23518312218206,,1.81324846565732,0.226880946905358,-0.177577355973197,0.0769864352736606,-0.177577355973055,0.975358625215358,-1.66030729740155,-0.173630300080467,,0.396006413760526,-1.34776804370115,1.76393161022018,-0.938414418654705,1.76393161022205,2.45848170702116,,,0.220976579689653,-2.69505227606362,,,-0.00458326047594256,-0.122683216277775,0.984896523860212,-0.898397534862888,0.638342398161533,1.34130981153106,-2.81158681849003,-1.14853708825023,-1.57481007318364,1.68826590588293,1.68826590588194,0.11381096329442,-2.18418157639433,-0.34765792630588,0.11426179716238,0.0995962747099271,0.223390266537208,-0.0477075911611784,0.686503861806423,0.686503861806815,0.897950334104529,-1.39729739039263,,4.91519999999991,102,626.363725490196,1278.55931372549,2052.58333333333,581.222549019608,671.504901960784,1314.20294117647,1242.91568627451,2063.12745098039,2042.03921568627,0
826.368,-1.17600896544722,-1.56600035234803,-2.02857082853649,0.320413265454772,-1.19854120239863,-1.19854120239633,,1.77609824338078,0.204613789534696,-0.154640320649229,0.0157739846489992,-0.154640320649067,0.978965910599228,-1.62183700503225,-0.136801222148121,,0.411405596379889,-1.27100975827787,1.73500860164246,-0.945649178543204,1.73500860164435,2.44516390536603,,,0.224355337700875,-2.67892924555216,,,0.00731092637148067,-0.138556933745048,0.956519859374806,-0.88563774746041,0.600846340499824,1.33773296934176,-2.79057077940446,-1.13056439598374,-1.50374700438867,1.68614375807119,1.68614375807025,0.133540888535351,-2.18131124585972,-0.326133946958879,0.0975058179242436,0.0830930149334642,0.188878547329357,-0.0770931441997218,0.666291914993109,0.666291914993465,0.991990203554664,-1.46354517971881,,5.01760000000002,103,772.89854368932,1372.04660194175,2034.34951456311,722.490291262136,823.306796116505,1410.13786407767,1333.95533980583,2043.00970873786,2025.68932038835,0
826.4704,-1.17368906862116,-1.48932616841348,-1.96309698977656,0.379233592788498,-1.16128541881744,-1.16128541881517,,1.73601975318254,0.180397114371489,-0.131508737808989,-0.045077099527801,-0.131508737808812,0.983434358948541,-1.58319394143186,-0.0987490149503919,,0.425771670440388,-1.19359098608295,1.70580646711773,-0.952519961896279,1.70580646711964,2.43156574756721,,,0.228310609298811,-2.66215662049125,,,0.0193224177947859,-0.15398152052459,0.928311099362442,-0.873322187905877,0.563035426890877,1.33339765682483,-2.76874018730606,-1.11279735951861,-1.43109159494951,1.68222784213725,1.68222784213634,0.154758800836281,-2.17770302142657,-0.302874889433325,0.080885215193165,0.0656724553712396,0.153675498813964,-0.106407904060028,0.645037084732394,0.645037084732711,1.08594015731559,-1.52932838154714,,5.12000000000001,102,754.280882352941,1368.09558823529,2040.97058823529,695.369607843137,813.192156862745,1404.71568627451,1331.47549019608,2053.19607843137,2028.74509803922,0
826.5728,-1.17380683178107,-1.41166980801516,-1.89829581103034,0.439019806447787,-1.12341994076762,-1.12341994076537,,1.69304862034378,0.154251465310772,-0.108215703235562,-0.105506017631054,-0.108215703235369,0.988759333183144,-1.54441593359456,-0.0595112563240847,,0.43908826881301,-1.11566783697158,1.67638889553199,-0.959006687643217,1.67638889553392,2.41764228006109,,,0.232859362683511,-2.64469705718737,,,0.0314184691901998,-0.16892263149472,0.900350896565701,-0.861523952042943,0.524962620188381,1.32829402281783,-2.74609710550304,-1.09525259418665,-1.35693307793857,1.676525360321,1.67652536032013,0.177424101888395,-2.17333734798444,-0.277919584982459,0.0643827967525997,0.0474282369076572,0.117847815016234,-0.135644872186192,0.622806131642844,0.622806131643117,1.17964982308321,-1.59452646761161,,5.22239999999999,102,740.591666666667,1369.46225490196,2059.47549019608,679.012745098039,802.170588235294,1402.69215686275,1336.23235294118,2069.43137254902,2049.51960784314,0
826.6752,-1.17635853871567,-1.33314531733517,-1.83426028896684,0.499742100557073,-1.08495332773438,-1.08495332773215,,1.647227427296,0.126201277254599,-0.084794809338844,-0.165452782490222,-0.0847948093386308,0.994929431758626,-1.50553930307605,-0.0191327273935183,,0.451343350555872,-1.03739454834484,1.64681898027582,-0.965090240332198,1.64681898027777,2.40334975069034,,,0.238016033637337,-2.62651059183063,,,0.0435670885348896,-0.18334705297344,0.87271708241202,-0.850312765933432,0.486680213682034,1.32241336223007,-2.7226427797351,-1.07794414534163,-1.28136441542626,1.66904805560464,1.6690480556038,0.201492229605122,-2.16819396921149,-0.251310915103498,0.0479811202886778,0.0284589537120774,0.0814664761833004,-0.164798102316045,0.599666611470257,0.599666611470492,1.27297014798344,-1.65902182956159,,5.32479999999998,103,737.725242718447,1369.08106796117,2060.60679611651,677.684466019418,797.766019417476,1405.25242718447,1332.90970873786,2079.07766990291,2042.1359223301,0
826.7776,-1.18133218253994,-1.2538706109269,-1.77108157349724,0.561367093432705,-1.04589866503655,-1.04589866503435,,1.5986054781664,0.0962748549868421,-0.0612797466624655,-0.224858359572839,-0.0612797466622312,1.00192659212475,-1.46659861916805,0.0223349242624852,,0.462529040916672,-0.958922914990277,1.61715911400906,-0.97075259596039,1.61715911401104,2.38864595694487,,,0.243792441135724,-2.60755505054253,,,0.0557371790554574,-0.197222950962409,0.84548435589518,-0.839754617868854,0.44823975200454,1.31574791108783,-2.69837780694464,-1.06088397284062,-1.20448214112477,1.65981234844025,1.65981234843944,0.226914740154945,-2.16225205435557,-0.22309575178482,0.0316626813486204,0.00886753949396597,0.0446063982377365,-0.193862636442521,0.575686409604793,0.575686409604986,1.36575399541441,-1.72270039555558,,5.42719999999997,102,731.282352941177,1368.28137254902,2077.61274509804,671.949019607843,790.61568627451,1406.74607843137,1329.81666666667,2100.12745098039,2055.09803921569,0
826.88,-1.18870757289872,-1.17396707922289,-1.70884870555745,0.623857692183941,-1.0062736583352,-1.00627365833301,,1.54723853922307,0.0645043488348174,-0.0377039038696137,-0.283664797730534,-0.0377039038693637,1.0097262369106,-1.42762645177808,0.0648335751768198,,0.472641427472448,-0.880401770862459,1.58747085629761,-0.97597693055026,1.58747085629959,2.37349057284714,,,0.250197705206001,-2.58778647959634,,,0.0678986620570616,-0.210520115674612,0.818723987064705,-0.829911391528473,0.409691979233292,1.30829061952389,-2.67330230240145,-1.04408246581418,-1.1263861825516,1.64883945062883,1.64883945062806,0.253639388178624,-2.15549033507431,-0.193324901833703,0.0154100944397207,-0.0112393888426768,0.00734603500386846,-0.222834460650251,0.55093331314929,0.550933313149431,1.45785670708447,-1.78545219540571,,5.52959999999996,102,781.742647058824,1364.78578431373,2096.82352941176,722.658823529412,840.826470588235,1403.41764705882,1326.15392156863,2114.30392156863,2079.3431372549,0
826.9824,-1.19845644060624,-1.09355918199536,-1.6476483415849,0.687172961032986,-0.966100694586291,-0.966100694584129,,1.49318855423297,0.0309257129356455,-0.0140999746766702,-0.341815345249041,-0.0140999746764024,1.01829745498663,-1.38865314470156,0.108299043090607,,0.481680327577326,-0.80197652685081,1.55781478681616,-0.980747709912401,1.55781478681815,2.35784544337044,,,0.257238160725186,-2.56715959406764,,,0.0800225841027305,-0.223210197073169,0.792503552338831,-0.820840522410353,0.371086815995866,1.30003491924526,-2.64741607199793,-1.02754897117712,-1.04717966419159,1.63615544994568,1.63615544994494,0.281610205182186,-2.14788726242055,-0.162053057456294,-0.000793735579045018,-0.0317522192044731,-0.0302330599658847,-0.251710471147358,0.525474611542054,0.525474611542146,1.54913660813985,-1.84717185146339,,5.63199999999995,103,803.249923739416,1247.2899558071,2107.13868390663,753.781238419921,852.71860905891,1272.53825687393,1222.04165474026,2117.24290372786,2097.03446408541,0
827.0848,-1.21054255378898,-1.01277402938885,-1.58756447465965,0.751268002027053,-0.925406878474141,-0.925406878471998,,1.43652333600827,-0.00442136675429331,0.00950041849310639,-0.399254552693548,0.00950041849338706,1.02760320697828,-1.34970662990473,0.15266150021096,,0.489649039129519,-0.723788756417979,1.52825036195191,-0.985050761070071,1.52825036195391,2.34167484206612,,,0.264917268999584,-2.54562824512544,,,0.0920812134779588,-0.235266926334831,0.766886720707772,-0.812594702561586,0.332473366824985,1.29097450640624,-2.62071879656488,-1.01129231297256,-0.966968691634638,1.62179136134292,1.62179136134222,0.310767581008824,-2.13942119093559,-0.129338749386379,-0.0169654510521487,-0.0525590462284096,-0.068046694703869,-0.280488434021433,0.499376722125063,0.499376722125106,1.63945543543676,-1.90775897895785,,5.73439999999994,102,862.929467245522,927.044502904413,2105.74356391229,827.714312977099,898.144621513944,954.964503816794,899.124501992032,2109.52099236641,2101.96613545817,0.598039215686275
827.1872,-1.22492185705252,-0.931740951661577,-1.5286781603157,0.816093857378294,-0.88422404802323,-0.884224048021108,,1.37731623597126,-0.0414935847430746,0.0330670777512301,-0.45592836412994,0.0330670777515235,1.03760054547712,-1.31081229471053,0.197845860430906,,0.496554081405696,-0.645975815753681,1.49883578892667,-0.9888733250853,1.49883578892866,2.32494569489955,,,0.273235532938191,-2.52314590977458,,,0.104048125197275,-0.246666317147458,0.74193310451418,-0.805221652409532,0.293899957438887,1.28110315800751,-2.59321023359725,-0.995321282116526,-0.88586211478489,1.60578314007179,1.60578314007113,0.341048357959313,-2.13007059334616,-0.0952442931711277,-0.0331210839225714,-0.0735463693251064,-0.106008502127325,-0.309166934969382,0.47270484126343,0.472704841263428,1.72867868561511,-1.96711849749602,,5.83679999999993,103,918.791040735893,624.262089860376,2106.39924309285,897.417694360039,940.164387111747,655.212428666716,593.311751054036,2103.47902616171,2109.31946002398,0
827.2896,-1.24154263333792,-0.850591057463617,-1.47106724667448,0.881597438243805,-0.842588766760039,-0.842588766757927,,1.31564579375304,-0.0802441717686434,0.0565715591471681,-0.511784193899267,0.0565715591474818,1.04824084680977,-1.27199289975726,0.243772138370373,,0.502404925856349,-0.56867048868492,1.46962792257536,-0.992204089032635,1.46962792257735,2.307627774384,,,0.28219042032264,-2.49966620257776,,,0.115898271905693,-0.257386841691113,0.717698172930357,-0.798763964145056,0.255414191752704,1.27041458772954,-2.56489043555118,-0.979645087017753,-0.8039712701767,1.58817165229538,1.58817165229476,0.372385941674644,-2.11981430224546,-0.0598357234784182,-0.0492759043241984,-0.0945997779305152,-0.144030398654867,-0.337745329787683,0.445522618674948,0.44552261867489,1.81667589575055,-2.02516086676109,,5.93919999999991,102,936.034803921569,565.625490196079,2174.91176470588,920.863725490196,951.205882352941,597.326470588235,533.924509803922,2125.59803921569,2224.22549019608,0
827.392,-1.26034568106942,-0.769456782704205,-1.41480610608306,0.94772148112211,-0.800542288272718,-0.800542288270627,,1.25159536929858,-0.120623090163248,0.0799874788359183,-0.566770985253897,0.0799874788362463,1.05947005841691,-1.23326853779039,0.290355793659716,,0.507213711637422,-0.492000656889715,1.44068217994112,-0.995033193462691,1.44068217994311,2.28969386499228,,,0.291776296633717,-2.47514339964424,,,0.127608042717425,-0.267409579125113,0.694233214091778,-0.793259008849834,0.217063012243683,1.25890233583671,-2.53575997616824,-0.964273763456729,-0.721409705367152,1.56900260389638,1.5690026038958,0.404710423193745,-2.10863176936773,-0.0231827203333147,-0.0654442851100107,-0.115604622125367,-0.182023047640631,-0.366223706365912,0.417891852798585,0.417891852798479,1.90332087090602,-2.08180225487284,,6.04160000000002,103,936.30145631068,569.028155339806,2137.38834951456,924.508737864078,948.094174757282,601.817475728155,536.238834951456,2122.06796116505,2152.70873786408,0
827.4944,-1.28126450329735,-0.688471435764304,-1.35996537104669,1.01440453264182,-0.75813049089966,-0.758130490897591,,1.18525276132002,-0.162577261033299,0.103290794200173,-0.620839251921774,0.103290794200519,1.07122896813534,-1.19465662698591,0.337508073636643,,0.510994944417135,-0.416089003444885,1.41205246325682,-0.997352214520141,1.4120524632588,2.2711198990198,,,0.301984367630045,-2.44953296267391,,,0.139155313404811,-0.276718337862236,0.671585334289505,-0.788738896680377,0.1788927563115,1.2465596868255,-2.50582017477693,-0.94921854184851,-0.638292887607009,1.54832643390068,1.54832643390016,0.437948705332777,-2.0965033344866,0.0146414671619689,-0.0816395917248925,-0.136446668222208,-0.219896338078621,-0.394602858731256,0.389872211040815,0.38987221104067,1.98849186746356,-2.13696464347204,,6.14400000000001,102,1004.27941176471,544.73137254902,2118.23529411765,993.71862745098,1014.84019607843,577.58137254902,511.88137254902,2118.01960784314,2118.45098039216,0
827.5968,-1.30422551376308,-0.607768745407937,-1.30661168278134,1.0815809643879,-0.715403780903986,-0.715403780901948,,1.11670981903089,-0.206050813451935,0.12646005727977,-0.673941107829589,0.126460057280132,1.08345349901615,-1.15617194114994,0.385136357034784,,0.513765186726999,-0.341052755397194,1.38379108739942,-0.999154126853766,1.38379108740143,2.25188506135855,,,0.312802633280571,-2.42279205470896,,,0.150519484073447,-0.285299753979988,0.649797491341773,-0.785230483610081,0.140949212403133,1.23337961549755,-2.4750733137077,-0.934492165534231,-0.554737897145316,1.52619818022004,1.52619818021957,0.472024632652045,-2.08341050020965,0.053560099645899,-0.0978740990297266,-0.157012739644588,-0.257559880724824,-0.422884263302171,0.361520980643295,0.361520980643113,2.07207173889098,-2.19057588185213,,6.24639999999999,102,1010.75098039216,541.170588235294,2113.55882352941,999.776470588235,1021.72549019608,573.267647058824,509.073529411765,2116.69607843137,2110.42156862745,0
827.6992,-1.32914826751458,-0.527482415277608,-1.25480746030467,1.14918102044183,-0.672416959885808,-0.672416959883801,,1.0460620568898,-0.250985344121724,0.149476639398468,-0.726030290012005,0.149476639398847,1.0960750305304,-1.11782668434308,0.433144493389379,,0.515542752579895,-0.267003462963151,1.35594871651141,-1.00043325787347,1.35594871651344,2.23197186055358,,,0.324215856367711,-2.39488004399626,,,0.161681492548932,-0.29314336596636,0.628908561585527,-0.782755423145439,0.103277677102794,1.21935476786671,-2.44352284999986,-0.920109152071659,-0.470863105937077,1.50267732470005,1.50267732469963,0.50685912965064,-2.06933621110608,0.0934930341057982,-0.114158932288207,-0.177191343368234,-0.294923518678843,-0.451070044029028,0.332892851792315,0.332892851792105,2.15394805069957,-2.24256971147388,,6.34879999999998,103,1011.11941747573,549.293203883495,1972.79611650485,1000.43398058252,1021.80485436893,582.549514563107,516.036893203884,1970.79611650485,1974.79611650485,0
827.8016,-1.3559457189091,-0.447745685750444,-1.20461069245175,1.21713090102448,-0.629229049888307,-0.629229049886332,,0.973408281131742,-0.297320175911647,0.172324927330655,-0.777062178390769,0.172324927331045,1.10902074707622,-1.07963061381353,0.481433136041623,,0.516347416165684,-0.19404680856974,1.32857431528963,-1.00118524133342,1.32857431529169,2.21136616485181,,,0.336205549308419,-2.36575899521237,,,0.172623791562545,-0.300241664036737,0.608953437127487,-0.781330262443006,0.0659230073817877,1.20447748015691,-2.41117362386574,-0.906085995502893,-0.386787842453761,1.47782762436197,1.4778276243616,0.542370351468427,-2.05426513574312,0.134356823116918,-0.130504034496989,-0.19687328006084,-0.33189785321272,-0.479162919161301,0.304039730849817,0.304039730849579,2.23401316962762,-2.29288577784595,,6.45119999999997,102,863.739705882353,583.189705882353,1765,848.988235294118,878.491176470588,619.123529411765,547.255882352941,1747.59803921569,1782.40196078431,0
827.904,-1.38452450421591,-0.368690903170706,-1.15607475112133,1.2853528860056,-0.585903072516405,-0.585903072514469,,0.898850233541108,-0.344992605824126,0.194992490294605,-0.826993817335891,0.194992490295006,1.12221401364108,-1.0415912037367,0.529900074860294,,0.516200140965664,-0.122282443242943,1.30171511458218,-1.00140697266795,1.30171511458427,2.19005720741962,,,0.348749983263986,-2.33539414207813,,,0.183330285493219,-0.306590113073138,0.589963147474255,-0.780966578070831,0.0289296633122573,1.18873983001152,-2.37803206033143,-0.892441314208487,-0.302632041478018,1.45171693419168,1.45171693419137,0.578473845182462,-2.03818394701326,0.176064825675321,-0.146918169807787,-0.215952233412413,-0.368394791896762,-0.507166130517164,0.275010582222555,0.275010582222293,2.31216432805344,-2.34146963338693,,6.55359999999996,102,685.106862745098,611.34068627451,1627.13235294118,672.792156862745,697.421568627451,649.888235294118,572.793137254902,1594.33333333333,1659.93137254902,0
828.0064,-1.4147852459082,-0.290449099483889,-1.10924822649703,1.3537655031129,-0.542505783876134,-0.542505783874233,,0.822492256254162,-0.393938135140684,0.217470212661713,-0.875783946808088,0.217470212662128,1.13557477381389,-1.00371383491204,0.578440575137927,,0.51512283419037,-0.0518038549202955,1.27541658783388,-1.00109656558135,1.27541658783599,2.16803756985919,,,0.361824224241265,-2.30375432553781,,,0.193786232819684,-0.312187150346203,0.571964997688672,-0.781671141851213,-0.00765826035123651,1.17213371084296,-2.3441063526863,-0.879195945014188,-0.218515877511567,1.42441702184766,1.4244170218474,0.615082716203812,-2.02108159137385,0.21852732581293,-0.163408969080415,-0.234325332562332,-0.404328120341307,-0.535083358606554,0.245851301474444,0.245851301474151,2.38830366577326,-2.3882727287275,,6.65599999999995,103,682.426699029126,607.132524271845,1563.41262135922,668.563106796117,696.290291262136,645.13786407767,569.12718446602,1523.34951456311,1603.47572815534,0
828.1088,-1.44662287985483,-0.213149588127114,-1.06417478987586,1.42228374563277,-0.499107369738645,-0.499107369736785,,0.744440980750575,-0.444090676981352,0.239752384167272,-0.923393050423832,0.2397523841677,1.1490199617517,-0.96600200034814,0.626947720610069,,0.513138129868755,0.0173017264428497,1.24972243640276,-1.00025330927366,1.24972243640489,2.14530315129111,,,0.375400198248613,-2.2708123812321,,,0.203978127376161,-0.317034160638923,0.55498271625462,-0.783446108654495,-0.0437970153592526,1.15465092654474,-2.3094066164812,-0.866372975174701,-0.134559383490996,1.39600336830492,1.3960033683047,0.652107798004726,-2.00294953735361,0.261651659186877,-0.179983009081672,-0.251893683824714,-0.439614084287604,-0.562918623260909,0.216604622390371,0.216604622390049,2.46233825819419,-2.43325239464139,,6.75839999999994,102,1165.89166666667,506.579901960784,1477.36764705882,1150.13039215686,1181.65294117647,542.463725490196,470.696078431373,1458.96078431373,1495.77450980392,0
828.2112,-1.47992700979535,-0.136919580290192,-1.02089309022616,1.49081934033061,-0.455781105858045,-0.455781105856225,,0.664805041821787,-0.495382741133663,0.261836743752671,-0.969783421709638,0.261836743753113,1.16246392060255,-0.928457524778267,0.675312752855298,,0.510269201554016,0.0849533893981718,1.2246745819278,-0.99887762637788,1.22467458192995,2.12185312361338,,,0.389446782510134,-2.23654546805598,,,0.213893570330843,-0.321135432252161,0.539036610447636,-0.786289223560758,-0.0794431945161495,1.13628330959826,-2.27394500978244,-0.853997703085792,-0.0508820610283625,1.36655494701797,1.3665549470178,0.689457826451919,-1.98378199815278,0.305342350104227,-0.196645909841343,-0.268562872462193,-0.474171964925324,-0.5906761624221,0.187310054151539,0.18731005415119,2.53418013918918,-2.47637181861926,,6.86079999999993,103,1375.01116504854,462.945631067961,1401.5,1372.03009708738,1377.99223300971,493.823300970874,432.067961165049,1405.11650485437,1397.88349514563,0
828.3136,-1.51458229336131,-0.0618838212459272,-0.979436686834627,1.55928106181287,-0.412602988540537,-0.412602988538764,,0.583694814549507,-0.547745600028995,0.283724481438029,-1.01491924436863,0.283724481438484,1.17581882388149,-0.8910807985509,0.72342540231765,,0.506539603643844,0.151076577579637,1.20031316262325,-0.996971032847036,1.20031316262541,2.09768987059279,,,0.40392991678468,-2.20093533503377,,,0.22352113603373,-0.324498097371798,0.524143729191123,-0.790194048203164,-0.114553739358829,1.11702286457513,-2.23773581990576,-0.842097525059799,0.0323975092651174,1.33615398022162,1.3361539802215,0.727039619309886,-1.9635761276084,0.349501259735847,-0.21340244205038,-0.284243434976755,-0.507924638535918,-0.61836027829322,0.158003842631441,0.158003842631067,2.60374631780872,-2.51760001511017,,6.96319999999992,102,1373.50980392157,457.192156862745,1347.24509803922,1376.16274509804,1370.8568627451,490.18137254902,424.202941176471,1352.75490196078,1341.73529411765,0
828.416,-1.55046886148753,0.0118357562199135,-0.939834016690727,1.62757509015566,-0.369651338142198,-0.369651338140463,,0.501222172158978,-0.601109440039526,0.305420204661729,-1.05876668376942,0.305420204662202,1.18899510012506,-0.853871027042932,0.771174210394639,,0.501973139826132,0.215603114316617,1.17667653221868,-0.994536101534766,1.17667653222084,2.07281891027606,,,0.418812729744903,-2.16396852842697,,,0.232850226087015,-0.327132058235336,0.510318033099515,-0.795150206773371,-0.14908596225489,1.09686193622485,-2.20079551802797,-0.830701750884925,0.115162051455857,1.30488567587623,1.30488567587616,0.764758262955428,-1.94233219128809,0.394027747304498,-0.230256643551082,-0.298851298389217,-0.540799116110601,-0.645975146180072,0.12871895742001,0.128718957419611,2.67095878565773,-2.55691178704716,,7.06560000000002,103,1272.75291262136,465.655339805825,1328.03398058252,1271.46213592233,1274.04368932039,496.638834951456,434.671844660194,1328.29126213592,1327.77669902913,0
828.5184,-1.58746276805315,0.0841203649209662,-0.902108391630453,1.69560541035668,-0.327006373689778,-0.327006373688092,,0.417500263012574,-0.655403501815494,0.326931871465828,-1.10129399034222,0.326931871466313,1.20190186087446,-0.816826497452986,0.818446841093621,,0.496593758808468,0.278471222402083,1.15380126303524,-0.991576429173221,1.15380126303738,2.04724880099869,,,0.43405567851154,-2.12563654815225,,,0.241870905427515,-0.329049896787001,0.497570572429243,-0.801143653582441,-0.182997584251954,1.07579340043279,-2.16314278603186,-0.819841355469445,0.197295972235333,1.272837944853,1.27283794485298,0.802517310822866,-1.92005371549239,0.438818848440637,-0.247211942810048,-0.312308183340822,-0.572727057593117,-0.673524596016834,0.0994851111306691,0.0994851111302444,2.73574451779891,-2.59428767933004,,7.16800000000001,102,995.148529411765,501.072549019608,1372.17156862745,989.296078431373,1001.00098039216,531.830392156863,470.314705882353,1354.29411764706,1390.04901960784,0
828.6208,-1.6254364587413,0.154854686764554,-0.866278015287055,1.76327424846071,-0.284749755007856,-0.284749755006211,,0.33264330280951,-0.710556213610302,0.348270692454834,-1.14247161386618,0.348270692455326,1.2144473287096,-0.779944859435082,0.865130381126411,,0.49042548120118,0.339625542094817,1.13172215226543,-0.988096603892082,1.13172215226756,2.02099103134425,,,0.449616701563476,-2.08593596219626,,,0.250573721721759,-0.330266763884046,0.485909671333864,-0.808156960337734,-0.216246789169186,1.05381087372673,-2.12479852142621,-0.809548679303971,0.278685736934014,1.24010109222854,1.24010109222859,0.840218995692416,-1.89674761573628,0.483769472607851,-0.264271287354589,-0.324541970675868,-0.603645258109676,-0.70101189148587,0.0703288115313307,0.0703288115308671,2.79803547334176,-2.6297139233927,,7.2704,102,994.951470588235,497.499509803922,1413.35784313726,988.900980392157,1001.00196078431,527.910784313726,467.088235294118,1391.45098039216,1435.26470588235,0
828.7232,-1.66425924438177,0.223927188686276,-0.832356009103075,1.83048253454911,-0.24296409206831,-0.24296409206671,,0.246766376304463,-0.766495319113074,0.369451007796108,-1.18227232355383,0.369451007796606,1.22653926256158,-0.743223407522799,0.911111635093245,,0.483492364057709,0.399017149114962,1.11047222415804,-0.984102171179667,1.11047222416017,1.9940598973054,,,0.465451384239601,-2.04486847569055,,,0.258949516802252,-0.330800248376194,0.475341110097652,-0.816169612483707,-0.248792294876537,1.03090893267042,-2.08578582032179,-0.799857090329597,0.359220244022724,1.20676747894032,1.20676747894044,0.877764453014252,-1.87242430218906,0.528772617163141,-0.281437280070789,-0.335487027543205,-0.633496105860785,-0.728439533058914,0.0412734406881898,0.0412734406876917,2.85776859788757,-2.66318236612694,,7.37279999999998,103,947.412621359223,510.97718446602,1484.92718446602,939.158252427184,955.666990291262,543.616504854369,478.33786407767,1461.81553398058,1508.03883495146,0
828.8256,-1.70379777121125,0.291230429130475,-0.80035044435215,1.89713038407356,-0.201732427085666,-0.201732427084103,,0.159985244180109,-0.823147998682353,0.390490146822227,-1.22067132858528,0.390490146822741,1.23808538238698,-0.706659352640209,0.956277429034353,,0.475818505295459,0.456603569793278,1.0900827193137,-0.979599598752617,1.09008271931583,1.96647237233895,,,0.481513133757925,-2.00244094217478,,,0.266989239679992,-0.330670232507349,0.465868295660796,-0.825158300670005,-0.280593440615791,1.00708333352537,-2.04612993147646,-0.790800613506389,0.438791193192106,1.17293115772599,1.17293115772618,0.91505395076447,-1.84709775581662,0.573719594620503,-0.29871232602941,-0.345084483106583,-0.662228005590832,-0.755809094508838,0.0123393567890529,0.0123393567885207,2.91488582354049,-2.69469037616311,,7.47519999999997,102,878.371568627451,531.355392156863,1556.64705882353,868.122549019608,888.620588235294,565.366666666667,497.344117647059,1530.41176470588,1582.88235294118,0
828.928,-1.74391649054506,0.356661350806976,-0.770264385264981,1.96311759324598,-0.161137697913838,-0.161137697912318,,0.0724161520721852,-0.880440984601697,0.411408273591323,-1.25764639654249,0.411408273591852,1.24899379714067,-0.670250077093116,1.00051493198658,,0.467428079001451,0.512348782249281,1.07058307006537,-0.974596241173902,1.07058307006748,1.93824797399661,,,0.497753359734647,-1.95866531014848,,,0.274683767154089,-0.329898740877563,0.457492417326617,-0.83509719944673,-0.311610285008246,0.982331224624409,-2.00585817629518,-0.782413533441775,0.517293441459228,1.13868749162069,1.13868749162095,0.951987122332564,-1.82078556979766,0.618500270572044,-0.316098785077055,-0.353282447225397,-0.689795756027386,-0.783121081821592,-0.0164559835065616,-0.0164559835071288,2.9693340598642,-2.72424072657586,,7.57759999999996,102,880.611764705883,527.404901960784,1605.10294117647,866.721568627451,894.501960784314,563.929411764706,490.880392156863,1580.26470588235,1629.94117647059,0
829.0304,-1.78447813105103,0.420121556591009,-0.742095947831251,2.0283441458008,-0.121262189395186,-0.121262189393701,,-0.015824361250558,-0.938300674240492,0.432228217342836,-1.29317796887198,0.432228217343375,1.2591734364967,-0.633993373111398,1.04371199604829,,0.45834538525758,0.566223189729788,1.05200086960245,-0.969100303935885,1.05200086960455,1.90940862686102,,,0.514121655844091,-1.91355850982979,,,0.282023736089254,-0.328509786515404,0.450212590595347,-0.845958233574755,-0.34180370949546,0.956651345675674,-1.96499983683238,-0.774729980751942,0.594625343078168,1.10413276212476,1.10413276212508,0.988463200614962,-1.79350895501313,0.663003310589572,-0.333599120628837,-0.360036172322776,-0.716160870490519,-0.81037479591785,-0.0450978834656845,-0.0450978834662852,3.02106517312754,-2.75184145537217,,7.67999999999995,103,505.971359223301,771.859708737864,1664.30097087379,488.51359223301,523.429126213592,810.215533980582,733.503883495146,1632.77669902913,1695.82524271845,0
829.1328,-1.82534417103074,0.481517568627665,-0.715838372636746,2.09271072774007,-0.0821869759336475,-0.0821869759321998,,-0.104619659276225,-0.996653247115863,0.45297528633445,-1.3272492726302,0.452975286335003,1.26853448209909,-0.597887666775616,1.08575750813233,,0.448594903567103,0.618203561805256,1.03436184106544,-0.963120806583802,1.03436184106752,1.87997851934697,,,0.530565977713125,-1.86714229123433,,,0.288999391023398,-0.326529214584943,0.444025992778292,-0.857711336533525,-0.371135526663772,0.930044211465876,-1.92358601732319,-0.767783511936366,0.670689068596181,1.06936376958062,1.06936376958099,1.02438125509946,-1.76529271182387,0.707116437523253,-0.351216037252182,-0.365308155947041,-0.741291829845871,-0.837568188777476,-0.0735742411657607,-0.0735742411664031,3.07003595654296,-2.77750570120641,,7.78239999999994,102,407.799509803922,847.703921568628,1680.5637254902,393.059803921569,422.539215686275,888.153921568627,807.253921568628,1640.12745098039,1721,0
829.2352,-1.86637530647858,0.54076107370105,-0.691480106588658,2.15611924630809,-0.0439913578174804,-0.0439913578160801,,-0.193853209013135,-1.05542479334855,0.473677065270977,-1.35984642854754,0.473677065271549,1.27698879128269,-0.561932230031139,1.1265417422991,,0.438201350185367,0.668272953235299,1.0176898046798,-0.956667545130605,1.01768980468185,1.84998395294004,,,0.54703281368915,-1.81944302774764,,,0.295600448302159,-0.323984543115668,0.438927991172623,-0.870324704815936,-0.399568597135877,0.902512282737089,-1.8816494860422,-0.76160668622563,0.745390900744746,1.03447742307477,1.0344774230752,1.0596404381819,-1.73616517170468,0.750726705046592,-0.368952604387244,-0.369068175487646,-0.765164256863394,-0.864697716337989,-0.101875351408002,-0.101875351408675,3.11620809430925,-2.80125150925855,,7.88479999999993,103,415.722330097087,840.82427184466,1696.67475728155,397.699029126214,433.745631067961,874.779611650486,806.868932038835,1655.85436893204,1737.49514563107,0
829.3376,-1.90743191343814,0.597769158153548,-0.669004889877412,2.21847334940899,-0.00675229645092761,-0.00675229644956491,,-0.283408790478745,-1.11454146038534,0.494363196759749,-1.39095855623362,0.494363196760329,1.28445030487229,-0.52612738235879,1.16595670084664,,0.427189744149327,0.716420614753061,1.00200663884346,-0.949751054442405,1.0020066388455,1.81945318536749,,,0.563467349483528,-1.77049150155195,,,0.301815975175227,-0.320904800119835,0.434912261334038,-0.883765047252589,-0.427066958792687,0.87406012884529,-1.83922450643087,-0.756230642555772,0.818641511543269,0.999570315252139,0.999570315252628,1.09414024695881,-1.70615811255709,0.79372079324489,-0.386812366367213,-0.371293251531954,-0.787761008925049,-0.891758200172413,-0.129993670204486,-0.129993670205181,3.15954811675242,-2.82310160359471,,7.98719999999992,102,530.985784313726,691.561274509804,1705.95588235294,506.244117647059,555.727450980392,722.388235294118,660.73431372549,1675.39215686275,1736.51960784314,0
829.44,-1.94837450231719,0.652464531886715,-0.648391847133985,2.27967893998629,0.0294561427383947,0.0294561427397196,,-0.373170715383808,-1.17392962020151,0.515065146765915,-1.42057787627011,0.5150651467665,1.29083543174842,-0.490474677857452,1.20389643857058,,0.41558548400003,0.762641903450117,0.987332234712481,-0.942382570785338,0.98733223471449,1.78841627021715,,,0.57981363125083,-1.7203226807611,,,0.307634283890413,-0.317320357738545,0.431970891116906,-0.897997822716941,-0.45359596720435,0.84469458209941,-1.79634666352012,-0.751684683464009,0.890356228250845,0.964738279802714,0.964738279803252,1.12778080097767,-1.67530665025434,0.835985326210289,-0.404799437754209,-0.371967549236793,-0.809072196605254,-0.918742712766991,-0.157923547548299,-0.157923547549028,3.2000273396986,-2.84308312427736,,8.08960000000002,103,554.940776699029,662.93786407767,1702.67961165049,532.244660194175,577.636893203883,691.240776699029,634.634951456311,1684.08737864078,1721.27184466019,0
829.5424,-1.98906415638209,0.704775735311087,-0.629615583140788,2.33964467669981,0.0645633296985607,0.0645633296998514,,-0.463024052087764,-1.23351605144379,0.535815956332116,-1.44869980701276,0.535815956332706,1.2960634093422,-0.454977067994166,1.24025737733022,,0.403414434017636,0.806938191642309,0.973684443676657,-0.934573994254706,0.973684443678631,1.75690489434873,,,0.596014730702439,-1.66897548426371,,,0.313042845073075,-0.313262766352969,0.4300944652289,-0.912987454468497,-0.479122440556914,0.814424877572224,-1.75305268303352,-0.747995872058912,0.960455291116947,0.930075932990315,0.930075932990888,1.16046313090276,-1.64364910571124,0.877407206451768,-0.422918579542634,-0.371082233726088,-0.829095137792839,-0.945642498669644,-0.18566093770995,-0.185660937710696,3.23762178396118,-2.86122733001398,,8.19200000000001,102,561.016666666667,659.735294117647,1675.48039215686,540.700980392157,581.332352941177,685.932352941177,633.538235294118,1661.30392156863,1689.6568627451,0
829.6448,-2.02936294451419,0.75463731917446,-0.612646285434082,2.3982824505932,0.0985025815663671,0.0985025815676234,,-0.552854851083943,-1.29322812605802,0.556649984989979,-1.4753230518673,0.556649984990575,1.30005664591998,-0.419639033611223,1.27493862364185,,0.390703017720379,0.849316765380953,0.961079016010017,-0.926337852109298,0.961079016011954,1.72495221379502,,,0.612012910714835,-1.61649252390229,,,0.318028227213946,-0.308764593221634,0.429272125609346,-0.928697509748503,-0.503614801770282,0.783262771386864,-1.70938023809302,-0.745188646648844,1.02886409822959,0.895676202731814,0.895676202732424,1.19208947160954,-1.61122684388214,0.917873960016516,-0.44117525116643,-0.368635291227431,-0.847834252346123,-0.972446929242776,-0.213203094510939,-0.213203094511698,3.27231207500439,-2.87756926814435,,8.2944,102,641.113725490196,640.625980392157,1624.05882352941,619.859803921569,662.367647058824,671.104901960784,610.147058823529,1608.27450980392,1639.8431372549,0
829.7472,-2.06913430268784,0.801989987182877,-0.597449838829766,2.45550782893685,0.13121163566392,0.131211635665154,,-0.642550366817855,-1.35299399348792,0.577602650125873,-1.50044967179036,0.577602650126467,1.30274104823751,-0.384466689503598,1.30784229099728,,0.377478313698601,0.889790697941859,0.949529534252926,-0.917687264888923,0.949529534254827,1.6925926878107,,,0.627749785543148,-1.5629198207236,,,0.322576070700176,-0.303859269041209,0.429491605699107,-0.94509083962597,-0.527043214344157,0.751222634569647,-1.66536774616409,-0.743284460171314,1.09551342941983,0.861629849054138,0.861629849054784,1.22256355406807,-1.57808408140764,0.95727408704946,-0.459575637473028,-0.364631317616051,-0.865300897858788,-0.999143469651817,-0.240548256348421,-0.240548256349189,3.30408331944689,-2.89214740661119,,8.39679999999999,103,735.129611650486,621.581553398058,1585.14077669903,711.218446601942,759.040776699029,649.22427184466,593.938834951456,1564.52427184466,1605.7572815534,0
829.8496,-2.10824338370109,0.846780695100911,-0.583987956859464,2.51124046112501,0.162633072489308,0.162633072490521,,-0.731999275230184,-1.41274276246417,0.598710162190167,-1.52408514166911,0.598710162190766,1.30404633084371,-0.349467869565472,1.33887381553247,,0.363768143814891,0.928378685384355,0.939047350940928,-0.90863591503573,0.939047350942763,1.65986190918833,,,0.643166470365389,-1.50830650350831,,,0.32667110603727,-0.298580942047169,0.430739239690635,-0.962129680448607,-0.54937971175261,0.718321522130325,-1.62105416486997,-0.742301454434864,1.16033964441091,0.828024980387121,0.8280249803878,1.25179089328399,-1.54426766254294,0.995497414974958,-0.478126654175381,-0.359081266918504,-0.881513143698157,-1.02571763403185,-0.267695319048944,-0.267695319049708,3.33292494979269,-2.90500321492887,,8.49919999999997,102,743.913725490196,621.159803921569,1566.48039215686,720.371568627451,767.455882352941,650.983333333333,591.336274509804,1542.51960784314,1590.44117647059,0
829.952,-2.14655737692702,0.888962706432469,-0.572218331115276,2.56540444561329,0.192714681012968,0.192714681014168,,-0.82109188833806,-1.47240468188059,0.620009253888252,-1.54623839572052,0.620009253888845,1.3039063008117,-0.314652196427856,1.36794225396268,,0.349601144410069,0.965104842150719,0.929641538588994,-0.899198016209198,0.929641538590793,1.62679642915823,,,0.658203717947836,-1.45270450494434,,,0.330297223682964,-0.292964337449997,0.432999949399948,-0.979775720857777,-0.570598320930392,0.684579215451559,-1.57647879338015,-0.742254179360858,1.22328485540139,0.794946571880709,0.794946571881434,1.27967907458855,-1.50982680518271,1.03243545633989,-0.496835935002591,-0.352002149581519,-0.89649547760634,-1.05215291882299,-0.294643486691816,-0.294643486692578,3.35883053547021,-2.91618069118744,,8.60159999999996,102,749.301960784314,619.466666666667,1551.22058823529,724.174509803922,774.429411764706,649.520588235294,589.412745098039,1520.56862745098,1581.87254901961,0
830.0544,-2.18394580072867,0.928495611746514,-0.562094794220615,2.61792865864166,0.221409762539401,0.221409762540593,,-0.909720367133246,-1.53191131901709,0.641536903474216,-1.56692186802858,0.641536903474807,1.30225911383901,-0.280031133818967,1.39496056018952,,0.335006818903414,0.99999846524941,0.921318853706952,-0.88938828334837,0.921318853708694,1.59343357493758,,,0.672802041460428,-1.39616827285419,,,0.333437597277417,-0.287044622255877,0.436257211788875,-0.997990138994827,-0.590675180602813,0.650018234612042,-1.53168108454239,-0.743153367840034,1.28429707604558,0.762475991638323,0.762475991639087,1.30613804391985,-1.47481281878958,1.06798177691006,-0.515711799929676,-0.343416674593455,-0.910278438692104,-1.07843071870046,-0.321391886584652,-0.321391886585417,3.38179757295765,-2.92572585315846,,8.70399999999995,103,750.275242718447,614.920388349515,1543.66990291262,724.966019417476,775.584466019418,648.590291262136,581.250485436893,1508.26213592233,1579.07766990291,0
830.1568,-2.22028076941655,0.965345322128004,-0.553567488822907,2.66874704476656,0.248677374151185,0.248677374152367,,-0.997778932550361,-1.59119573000514,0.663330053566245,-1.5861515295112,0.663330053566832,1.29904749952102,-0.245618018260928,1.41984584067568,,0.320015574739804,1.03309377714045,0.914083715482146,-0.879221905323444,0.914083715483834,1.55981125640226,,,0.686901823323022,-1.33875451095607,,,0.336074854212107,-0.280857276896285,0.440493011385823,-1.01673361619983,-0.609588655236913,0.61466381932707,-1.48670047505592,-0.745005776168689,1.34333034812257,0.73069053892234,0.730690538923144,1.33108040604203,-1.43927879659658,1.1020323776941,-0.534763200338288,-0.333352838114641,-0.922898174495099,-1.10453023989742,-0.347939136625692,-0.347939136626441,3.40182727471328,-2.93368622020557,,8.80639999999994,102,892.832352941177,613.386274509804,1522.16176470588,868.497058823529,917.167647058823,647.702941176471,579.069607843137,1491.93137254902,1552.39215686275,0
830.2592,-2.2554372360944,0.999484044175826,-0.546583037232356,2.71779887038418,0.274482518115584,0.274482518116764,,-1.08516407008749,-1.65019261341095,0.685425325058198,-1.60394691768885,0.68542532505878,1.29421895524168,-0.211428066885613,1.44251959059329,,0.304658747049602,1.06442965159383,0.90793820290932,-0.868714521525628,0.90793820291097,1.52596776089767,,,0.700443414193232,-1.28052195252536,,,0.338191276478437,-0.274437974180025,0.445687785465644,-1.03596633674434,-0.627319442971025,0.578543880990883,-1.44157623699175,-0.747814090094284,1.40034484477556,0.699663001273928,0.699663001274782,1.35442172805322,-1.40327928795529,1.13448608682884,-0.5539996362035,-0.321843472887993,-0.93439592965913,-1.13042843429947,-0.374282870233719,-0.374282870234448,3.41892437474863,-2.94011030876094,,8.90879999999993,103,1054.97718446602,612.208252427184,1483,1034.6786407767,1075.27572815534,644.359223300971,580.057281553398,1459.19417475728,1506.80582524272,0
830.3616,-2.28929321596862,1.03089023628446,-0.541084714729388,2.76502894548643,0.298796283450482,0.298796283451658,,-1.17177471799238,-1.7088384336916,0.707858723687217,-1.62033115369487,0.7078587236878,1.28772591135029,-0.177478356406223,1.46290791825621,,0.28896861138559,1.09404931905984,0.902882071125006,-0.857882202356777,0.902882071126627,1.49194154279539,,,0.713367232251795,-1.22153115238021,,,0.339769007855072,-0.267822467504888,0.45182037156555,-1.05564798392535,-0.643850673631902,0.541688930697483,-1.39634733978587,-0.751576877378571,1.4553069433636,0.66946124423224,0.669461244233129,1.37608083722458,-1.36686995955534,1.1652449478427,-0.573431043079663,-0.308925780962994,-0.944817484460083,-1.15609997808694,-0.400419252391933,-0.400419252392641,3.43309696648449,-2.94504716182263,,9.01119999999992,102,1051.18839648352,598.676981196565,1476.41107531319,1028.55131284348,1073.82548012356,630.36148992469,566.99247246844,1453.58148449691,1499.24066612947,0
830.464,-2.32172999687326,1.05954853917286,-0.537012636554675,2.81038782005445,0.321595938712596,0.321595938713759,,-1.25751242723642,-1.7670715035376,0.730665338634331,-1.63533094274635,0.730665338634914,1.27952587176219,-0.143787766105724,1.4809417690121,,0.272978385196949,1.12200004278538,0.898912777268273,-0.846741431787063,0.898912777269859,1.45777101903957,,,0.725613873849439,-1.16184426953069,,,0.34079025067413,-0.261046493488015,0.458867961095406,-1.07573773694515,-0.659167995854024,0.5041319873285,-1.35105229856392,-0.756288554299948,1.50818925421071,0.640147847217043,0.640147847217981,1.39598009727724,-1.33010725134017,1.19421458620625,-0.593067649960763,-0.294640867898246,-0.954212561199417,-1.1815173064665,-0.426342533686005,-0.426342533686694,3.44435638452315,-2.94854592886764,,9.11360000000002,103,1044.88117090108,571.174580509077,1484.44530027966,1020.13460207612,1069.62773972603,605.018339100346,537.330821917808,1462.68512110727,1506.20547945205,0.932038834951456
830.5664,-2.35263233923494,1.08544967320126,-0.534303966175772,2.85383195582999,0.342864967967981,0.342864967969125,,-1.34228148699225,-1.82483202437214,0.753879038015978,-1.64897655667289,0.753879038016561,1.2695815308072,-0.110376878409683,1.49655715502866,,0.256722210042255,1.14833275971206,0.896025501205606,-0.835309089003244,0.896025501207163,1.4234943778826,,,0.737124238789453,-1.10152481472104,,,0.341237448409515,-0.254145693631953,0.466806052972406,-1.09619426366691,-0.67325965814741,0.465908465985102,-1.30572898421018,-0.761939338574622,1.55897058947595,0.611779789472589,0.61177978947357,1.41404564863838,-1.29304802636404,1.22130453900861,-0.612919809125215,-0.27903328451802,-0.962634205349761,-1.20665070187349,-0.452044676618069,-0.452044676618726,3.45271712915329,-2.95065549529157,,9.21600000000001,102,1038.65635250853,543.817805152113,1492.6490626397,1011.8196281973,1065.49307681977,579.679795101432,507.955815202794,1471.91295203202,1513.38517324738,0
830.6688,-2.38188866115776,1.10859029949963,-0.53289314467056,2.89532386580499,0.362593041745215,0.362593041746352,,-1.42598901708441,-1.8820620933115,0.777532169803711,-1.66130179579644,0.777532169804289,1.2578608620931,-0.07726783374061,1.50969538844975,,0.240235104203579,1.17310169181666,0.894213153465962,-0.823602427898783,0.894213153467488,1.38914939978515,,,0.747839663540516,-1.04063734931124,,,0.341093456248435,-0.247155554001902,0.475608395691107,-1.11697569933399,-0.686116592384756,0.42705604395578,-1.26041438331974,-0.768515179701409,1.60763586048792,0.584408182079636,0.584408182080655,1.4302076040656,-1.2557492105414,1.24642853950305,-0.632997797471966,-0.262150574662437,-0.970138139444729,-1.23146842831573,-0.47751506704043,-0.477515067041061,3.45819681448022,-2.95142413904597,,9.3184,102,1034.12107843137,538.116176470588,1537.11764705882,1008.80784313725,1059.43431372549,572.217647058824,504.014705882353,1518.98039215686,1555.25490196078,0
830.7712,-2.4093912019677,1.12897284419458,-0.532712137743441,2.93483220948213,0.380775921327658,0.380775921328788,,-1.50854503184928,-1.93870568615805,0.801655273970703,-1.67234392457554,0.801655273971278,1.2443371722803,-0.0444841402812168,1.52030330850189,,0.223552882574133,1.1963639399113,0.893466371146329,-0.811639055930574,0.893466371147829,1.35477328529661,,,0.757702052122229,-0.979247134015001,,,0.340341702556374,-0.24011135705885,0.485246909721219,-1.13803960456416,-0.69773250599138,0.387614503347342,-1.21514431232391,-0.77599767273275,1.65417589845937,0.558078043032307,0.558078043033365,1.44440019693447,-1.21826742146457,1.26950475383134,-0.653311588264893,-0.244042827470609,-0.976782087118343,-1.25593690670522,-0.502740309715435,-0.502740309716032,3.46081611253685,-2.95089918754667,,9.42079999999999,103,1032.93349514563,538.680582524272,1590.58737864078,1005.86796116505,1059.99902912621,573.265048543689,504.096116504854,1576,1605.17475728155,0
830.8736,-2.43503615942089,1.14660528456082,-0.533690698417498,2.9723318344891,0.397415301100648,0.397415301101779,,-1.58986247765677,-1.99470862192609,0.826276806251284,-1.6821435761908,0.826276806251852,1.22898911485052,-0.0120504439661321,1.52833349192742,,0.206712046986668,1.21817906284849,0.893773504859912,-0.799436914090419,0.893773504861361,1.3204024865268,,,0.76665399688526,-0.917419735697919,,,0.338966342499662,-0.233048141547396,0.495691593118477,-1.15934290452439,-0.708103979910739,0.347625553548016,-1.16995309932905,-0.78436396579269,1.69858719874272,0.532828116383642,0.532828116384737,1.45656188380873,-1.18065859163837,1.29045597049649,-0.673870591539876,-0.224762239841726,-0.982625070499027,-1.28002092782366,-0.527704103782718,-0.527704103783272,3.46059867622717,-2.94912666357896,,9.52319999999997,102,1038.57205882353,539.048529411765,1601.54411764706,1013.33529411765,1063.80882352941,580.102941176471,497.994117647059,1587.60784313726,1615.48039215686,0
830.976,-2.45872380011388,1.16150089762232,-0.535756644680982,3.00780376219291,0.412518595496548,0.412518595497685,,-1.66985724359103,-2.05001850799819,0.851422871859263,-1.69074462634926,0.851422871859821,1.211800666739,0.0200077317990748,1.53374444235779,,0.189749651178442,1.23860863558218,0.895120602693334,-0.787014258703546,0.895120602694741,1.28607254402414,,,0.774638885360014,-0.855220608713261,,,0.336952401403377,-0.226000670994915,0.506910421689413,-1.18084181721465,-0.717230561477968,0.307132636725083,-1.12487324894805,-0.793586673532459,1.74087159370473,0.50869073757534,0.508690737576464,1.46663540773659,-1.14297759428439,1.30920974766454,-0.694683362557169,-0.204362703065387,-0.987726693167569,-1.30368389776641,-0.552387193081089,-0.552387193081601,3.45757104602956,-2.94615093025483,,9.62559999999996,102,1043.45637254902,539.607843137255,1484.46078431373,1018.64117647059,1068.27156862745,576.059803921569,503.155882352941,1470.73529411765,1498.1862745098,0
831.0784,-2.48035854764098,1.17367797483152,-0.538836151841039,3.04123512094374,0.426098676126895,0.426098676128028,,-1.74844814541865,-2.10458466080268,0.877116967952062,-1.69819404151278,0.877116967952616,1.19276107701162,0.0516642652062965,1.53650076047333,,0.172703144881155,1.25771578349477,0.897491402099196,-0.774389645408309,0.897491402100534,1.25181793645104,,,0.781600994237328,-0.792714672279962,,,0.334285905970836,-0.219003412018417,0.518869253866849,-1.20249177792429,-0.725114842414391,0.266180717750559,-1.07993510655588,-0.803633812617669,1.78103586623417,0.485691746743999,0.485691746745151,1.47456783412345,-1.10527787845796,1.32569852940785,-0.715757283113998,-0.182899424952943,-0.992146424680939,-1.3268881082574,-0.576767379693406,-0.576767379693883,3.45176255838099,-2.94201435497809,,9.72799999999995,103,886.80145631068,600.760194174757,1321.54368932039,855.05145631068,918.55145631068,637.073786407767,564.446601941748,1299.71844660194,1343.36893203884,0
831.1808,-2.49984905618345,1.18315950871223,-0.542854059375183,3.07261903126488,0.438173563429764,0.438173563430902,,-1.82555688781221,-2.15835800012081,0.903379734761204,-1.70454170613556,0.903379734761751,1.1718647951686,0.0828927236996271,1.53657329587153,,0.155610200084377,1.27556469958459,0.900867340681798,-0.76158191487708,0.900867340683081,1.21767195046892,,,0.787485576871519,-0.729965906641722,,,0.330954007549426,-0.212090521242074,0.531531745991576,-1.22424736411057,-0.731762516874993,0.224816061093215,-1.03516654041213,-0.814468775894032,1.81909132218129,0.463850452278214,0.463850452279399,1.48031057433906,-1.0676111184308,1.33985974589159,-0.737098226598673,-0.160428585320753,-0.995942897193109,-1.34959502715955,-0.600819582183366,-0.600819582183809,3.44320526569253,-2.93675700367844,,9.83039999999994,102,630.211764705882,711.36568627451,1178.63725490196,597.958823529412,662.464705882353,748.253921568627,674.477450980392,1142.05882352941,1215.21568627451,0
831.2832,-2.51710827859284,1.1899728607659,-0.54773419006258,3.10195444519399,0.448766076887167,0.448766076888293,,-1.90110801484365,-2.21129092176958,0.930228718771091,-1.70984022737714,0.930228718771633,1.14911138307104,0.113666654450257,1.53393928080298,,0.138508519810905,1.29222015850134,0.905227593166984,-0.748610179356343,0.905227593168226,1.18366657000132,,,0.792238952353932,-0.667036987987992,,,0.326945105650386,-0.205295838244212,0.544859281687044,-1.24606222514558,-0.737182418736104,0.183085998513175,-0.990592658177287,-0.826050357874723,1.85505334102367,0.443179647295281,0.443179647296488,1.48381941311476,-1.03002688010522,1.35163591392545,-0.758710221553254,-0.137007012631794,-0.999173219898081,-1.37176560879381,-0.6245159206007,-0.624515920601117,3.43193386271525,-2.93041636254593,,9.93279999999993,103,630.034466019418,701.61359223301,1053.41262135922,601.814563106796,658.254368932039,735.568932038835,667.658252427185,1015.98058252427,1090.84466019417,0
831.3856,-2.53205353893232,1.19414942439779,-0.553399676006324,3.12924594181526,0.457903448555431,0.457903448556546,,-1.97502885938375,-2.26333715646574,0.957678154746848,-1.71414471100133,0.957678154747384,1.12450541634032,0.143959874123935,1.52858245013553,,0.121435631193382,1.30774704628531,0.910549139397798,-0.735493809804551,0.91054913939901,1.14983237459724,,,0.795808600345375,-0.603988977620036,,,0.322248977093044,-0.19865288119385,0.558810918058563,-1.26788902334989,-0.741386542068635,0.141038689854544,-0.946235570317003,-0.838332841988973,1.88894092060738,0.42368568007325,0.423685680074486,1.48505455434676,-0.992572304869517,1.3609747532816,-0.780595131867876,-0.11269187030145,-1.00189232152643,-1.39336061991105,-0.647825815752611,-0.647825815752998,3.41798561189874,-2.92302708285573,,10.0351999999999,102,631.257352941177,695.137745098039,958.578431372549,606.377450980392,656.137254901961,728.135294117647,662.140196078431,922.470588235294,994.686274509804,0
831.488,-2.54460661755429,1.19572429865465,-0.559773283302898,3.15450348220936,0.46561690565156,0.465616905652671,,-2.04724949981994,-2.31445162281701,0.985738772705865,-1.71751250443175,0.985738772706393,1.09805638504689,0.173746750741277,1.52049315378678,,0.104428668308361,1.32220992134307,0.916806866893624,-0.722252423145684,0.916806866894799,1.11619843454159,,,0.798143261017723,-0.540881081846069,,,0.316856908608441,-0.192194840676752,0.573343353100765,-1.28967939386607,-0.744390047129285,0.0987228773338126,-0.902114213284982,-0.851266163229978,1.92077623019748,0.40536857602977,0.405368576031026,1.48398069629433,-0.95529181384069,1.36782932979297,-0.802752373280617,-0.0875403489278221,-1.00415234007084,-1.41434097053921,-0.670716095123756,-0.67071609512411,3.40140026988442,-2.91462075273766,,10.1376,103,715.222330097087,677.042718446602,874.169902912622,689.354368932039,741.090291262136,707.196116504854,646.88932038835,845.038834951456,903.300970873786,0
831.5904,-2.55469385120064,1.1947359873416,-0.566777724712031,3.17774212677658,0.471941230225917,0.471941230227026,,-2.1177027315369,-2.36459028183846,1.01441763353043,-1.72000290862646,1.01441763353095,1.0697786042596,0.203002467673494,1.50966846649495,,0.0875241515185781,1.33567261296212,0.923973711405427,-0.708905867981791,0.923973711406557,1.0827921970631,,,0.799193039126089,-0.477770503081595,,,0.310761825054328,-0.185954567037045,0.588410923733223,-1.31138393059195,-0.746211243766563,0.0561876333120081,-0.858244246818039,-0.864796162028721,1.95058418856526,0.388222206794166,0.388222206795444,1.48056714406173,-0.918226841047209,1.37215823175796,-0.825178682677653,-0.061609368877231,-1.00600208280392,-1.43466804084717,-0.693151100666351,-0.693151100666674,3.38222002273602,-2.90522570579158,,10.24,102,1358.8,549.358333333333,775.210784313726,1343.98823529412,1373.61176470588,579.078431372549,519.638235294118,770.764705882353,779.656862745098,0
831.6928,-2.56224624569745,1.19122613366551,-0.574335950362606,3.19898171760232,0.476914308013126,0.476914308014224,,-2.18632405850396,-2.41370999804547,1.04371799508705,-1.72167686378751,1.04371799508755,1.0396911406152,0.231703264518372,1.49611229822387,,0.0707577708316534,1.34819785827467,0.932020836921671,-0.695474206855834,0.932020836922759,1.04963936793526,,,0.798909516837769,-0.414712394152083,,,0.30395840656944,-0.179964546940968,0.603965645717377,-1.33295220439755,-0.7468715390657,0.0134821033893863,-0.814638032915045,-0.878864935028187,1.97839208434251,0.372234500645895,0.372234500647195,1.4747879618532,-0.881415603642795,1.37392578055539,-0.847867950129243,-0.0349553017795881,-1.00748657591564,-1.45430400382337,-0.715092797646951,-0.715092797647241,3.36048943368832,-2.89486687679558,,10.3424,102,1380.87990196078,540.661764705882,735.735294117647,1369.71960784314,1392.04019607843,570.136274509804,511.187254901961,741.578431372549,729.892156862745,0
831.7952,-2.56719959688166,1.18523929151653,-0.582371412893983,3.21824653141725,0.480576681153943,0.480576681155032,,-2.2530517018953,-2.46176840767044,1.07363920651753,-1.72259661806833,1.07363920651802,1.00781775140255,0.259826657023822,1.47983550263511,,0.0541641803958832,1.3598469747319,0.940917847278717,-0.681977692829019,0.940917847279779,1.01676379794916,,,0.797245888052007,-0.35175990352265,,,0.296443193318625,-0.174256863949386,0.619957300272694,-1.35433281703877,-0.746395344681399,-0.0293447487616841,-0.771304689157187,-0.89341126532082,2.00422925010737,0.357387683237379,0.357387683238704,1.46662215372967,-0.844892910618004,1.37310226321008,-0.870811115955167,-0.00763372161912712,-1.00864671627534,-1.47321214904924,-0.736500892774063,-0.736500892774315,3.336255400863,-2.88356571044828,,10.4448,103,1385.99514563107,534.710194174757,712.771844660194,1377.26601941748,1394.72427184466,562.130097087379,507.290291262136,720.543689320388,705,0
831.8976,-2.56949461525054,1.17682272438624,-0.59080831179019,3.23556491280161,0.482971116694606,0.48297111669569,,-2.31782661267472,-2.50872379040711,1.10417662373691,-1.72282539463328,1.1041766237374,0.974186825883939,0.287351640979229,1.46085597489396,,0.0377768048584052,1.37067955690658,0.950633011826241,-0.668436737290227,0.950633011827285,0.984187380480926,,,0.79415712864862,-0.288964278418156,,,0.288214680775993,-0.168863137982035,0.636333561974572,-1.37547348746429,-0.74480994975357,-0.0722443859646864,-0.72825019571795,-0.908371096473457,2.02812679259434,0.343658531965677,0.343658531967017,1.45605384715439,-0.808690006462933,1.369664160421,-0.893996128074666,0.0203008009100872,-1.00951903248325,-1.49135720612716,-0.757332979150138,-0.757332979150347,3.30956712018204,-2.87134012323579,,10.5472,102,1387.87303921569,531.404901960784,702.274509803922,1380.44117647059,1395.30490196078,560.198039215686,502.611764705882,713.882352941177,690.666666666667,0
832,-2.56907705238375,1.16602621925039,-0.599571826298657,3.250968897121,0.484142195807393,0.48414219580847,,-2.38059247419711,-2.55453494103911,1.13532154008868,-1.72242707120649,1.13532154008915,0.938831322348749,0.314258882995293,1.43919873312,,0.0216276499003997,1.38075318089285,0.961133489734257,-0.654871866722928,0.961133489735284,0.951929958940426,,,0.789600207636982,-0.226374992976222,,,0.279273411415725,-0.163814442616985,0.653040157032271,-1.39632116066755,-0.742145366612315,-0.115168926362812,-0.68547753330798,-0.923678017753985,2.05011737316371,0.331018630604243,0.331018630605587,1.44307245214385,-0.772834445790118,1.36359434209965,-0.917407951309091,0.048794846491851,-1.01013555882557,-1.50870564881306,-0.777544727239089,-0.777544727239272,3.28047605065965,-2.85820451793509,,10.6496,102,1387.67892156863,529.905882352941,709.808823529412,1377.83529411765,1397.52254901961,559.937254901961,499.874509803922,723.901960784314,695.71568627451,0
832.1024,-2.56589783208744,1.15290190624736,-0.608588346399814,3.26449382803494,0.484135922314264,0.484135922315331,,-2.4412956890601,-2.59916104258844,1.16706113023271,-1.72146587633765,1.16706113023317,0.901788700159228,0.340530898111098,1.41489598250429,,0.00574710862152424,1.39012310409099,0.972385548087985,-0.641303668844189,0.972385548089003,0.920009239148591,,,0.783534332521731,-0.164039884220398,,,0.269622070230238,-0.159141204653087,0.670021042876433,-1.4168221291508,-0.73843415273536,-0.158071354953834,-0.6429868386165,-0.939263743488946,2.0702350286111,0.319434619735331,0.319434619736682,1.4276727791188,-0.73734999759349,1.35488221278755,-0.941028619429034,0.0777962294948579,-1.01052381913593,-1.52522595271111,-0.797090133654246,-0.797090133654391,3.24903588247482,-2.84416985582768,,10.752,103,1161.60485436893,552.802427184466,747.383495145631,1139.06310679612,1184.14660194175,573.311650485437,532.293203883495,754.203883495146,740.563106796117,0
832.2048,-2.55991319164143,1.13750408015591,-0.617785708461971,3.27617797054455,0.482999345918763,0.48299934591982,,-2.49988535271909,-2.64256154982222,1.19937840647961,-1.72000609987521,1.19937840648007,0.863100844471572,0.366152212141248,1.38798715743969,,-0.00983623926373342,1.39884195807034,0.984354777058472,-0.627752730502032,0.984354777059483,0.888440704531348,,,0.775921218163175,-0.102005293812457,,,0.259265589337106,-0.15487309305817,0.687218605243963,-1.4369221623209,-0.733711209678174,-0.200905714710095,-0.600775574972345,-0.955058579490849,2.08851502444906,0.308868443622517,0.308868443623872,1.4098551107726,-0.702256580883086,1.3435238016174,-0.964837319717121,0.107254018555317,-1.01070690505253,-1.54088879265222,-0.815921825468519,-0.815921825468622,3.21530251313341,-2.82924379722678,,10.8543999999999,102,603.052941176471,630.036764705882,799.985294117647,578.421568627451,627.68431372549,644.478431372549,615.595098039216,776.882352941176,823.088235294118,0
832.3072,-2.5510848367605,1.11988902402998,-0.627093437494634,3.28606211949373,0.480780196147145,0.480780196148211,,-2.55631322092964,-2.68469609563758,1.23225218718757,-1.71811181418417,1.23225218718802,0.822813979823922,0.391109506494585,1.35851893499157,,-0.0250958367016314,1.40695944161061,0.997006309262325,-0.614239569304554,0.997006309263321,0.857237535783834,,,0.766725369816476,-0.040316221180243,,,0.24821126133446,-0.151038902480976,0.704573873301002,-1.45656664477955,-0.728013559309533,-0.243627274260037,-0.558838721157017,-0.970991875388316,2.10499373758473,0.299277594652533,0.299277594653891,1.38962523261507,-0.667570233107586,1.32952180145156,-0.988810503043062,0.137118510443669,-1.01070362675688,-1.55566718196927,-0.833991405979366,-0.833991405979434,3.17933404222794,-2.81343092324614,,10.9567999999999,103,602.855582524272,624.885928398058,829.769417475728,577.582038834952,628.129126213592,647.25729368932,602.514563106796,797.422330097087,862.116504854369,0
832.4096,-2.53938011157353,1.10011483981898,-0.636442992765378,3.29418920284171,0.477526526952879,0.477526526953948,,-2.61053368037109,-2.72552443029898,1.2656570821728,-1.71584659956517,1.26565708217325,0.780978575670668,0.415391744616121,1.32654522285116,,-0.040007370706739,1.41452202888008,1.01030505100729,-0.600784559258229,1.01030505100827,0.82641053553785,,,0.755914372520832,0.0209835050375658,,,0.236468854507016,-0.147666431419297,0.722026754082432,-1.47570072813002,-0.721380101554245,-0.286192675082187,-0.517168981955521,-0.986992471109047,2.11970856738517,0.29061535674276,0.29061535674411,1.36699443281893,-0.633303109306119,1.31288556890115,-1.01292202337889,0.167341173024292,-1.01052872611396,-1.56953655848066,-0.851249828891796,-0.851249828891829,3.14119079343982,-2.79673304792103,,11.0591999999999,102,584.249754901961,780.867763480392,795.585784313726,556.491666666667,612.007843137255,733.113958333333,828.621568627451,821.583333333333,769.588235294118,0.196078431372549
832.512,-2.52477218336301,1.07824129400751,-0.645768009910747,3.30060387812319,0.473286376632645,0.473286376633727,,-2.66250373149252,-2.76500639804015,1.29956350608835,-1.71327326335201,1.29956350608882,0.737649254422431,0.438990279246195,1.29212713431271,,-0.0545490107621732,1.42157271022038,1.02421592998883,-0.587407849457177,1.0242159299898,0.795968055252449,,,0.74345918073738,0.081851031468778,,,0.224050718307459,-0.144782352116578,0.739516285913763,-1.49426950223885,-0.713851362947406,-0.32856006425799,-0.475757025005491,-1.00298915134719,2.13269787389492,0.282831048962566,0.282831048963906,1.3419794841069,-0.599463509387366,1.29363109928272,-1.0371433182124,0.197874565504999,-1.01019315782374,-1.5824748228799,-0.86764779591029,-0.867647795910287,3.10093536407204,-2.77914961989638,,11.1615999999999,103,540.737540453074,973.51534789644,804.804207119741,524.033333333333,557.441747572816,859.231666666667,1087.79902912621,838.666666666667,770.941747572816,0.184466019417476
832.6144,-2.50724023897097,1.05432968400215,-0.655004532861513,3.30535212079195,0.468107450453491,0.468107450454589,,-2.71218298783469,-2.80310195216815,1.33393772712769,-1.71045354582598,1.33393772712816,0.69288470873811,0.461898938271702,1.25533295685075,,-0.0687016664462507,1.428150774725,1.03870415810897,-0.57412927375949,1.03870415810992,0.765915921183726,,,0.729334405576405,0.142244256295395,,,0.210971869864277,-0.142412070506708,0.756980910691188,-1.5122181911906,-0.705469243870145,-0.370689212876876,-0.434591749689106,-1.01891111448662,2.14400094361641,0.275870266982701,0.275870266984022,1.31460261453873,-0.566055936155203,1.27178098321986,-1.06144363540858,0.228672236130537,-1.00970444482498,-1.5944623441491,-0.883136177101158,-0.883136177101118,3.05863269765809,-2.76067820803055,,11.264,102,523.235620915033,926.589526143791,938.918300653595,501.51045751634,544.960784313726,948.751601307189,904.427450980392,893.964052287582,983.872549019608,0
832.7168,-2.48676968760029,1.02844272189847,-0.664091235166038,3.30848080572805,0.462036833147257,0.462036833148371,,-2.75953368778978,-2.83977120701771,1.36874194549474,-1.70744781745868,1.36874194549523,0.646747623297864,0.484114087912681,1.2162381072692,,-0.0824492583896649,1.43429162728504,1.05373549924422,-0.560968247859743,1.05373549924516,0.736257358306875,,,0.713518600659141,0.202121578894803,,,0.197250061157939,-0.140579575791119,0.774358767097112,-1.52949237646945,-0.696276764050446,-0.412541612308427,-0.393660590130243,-1.03468844692264,2.15365798428713,0.269675116800391,0.269675116801683,1.28489145969974,-0.533081191870729,1.24736433527349,-1.08579030139634,0.259688592184556,-1.00906710680146,-1.60548194940892,-0.89766645486219,-0.897666454862112,3.01435017136032,-2.74131506608662,,11.3664,102,525.814215686275,926.843137254902,1012.84803921569,500.064705882353,551.563725490196,951.647058823529,902.039215686274,968.333333333333,1057.36274509804,0
832.8192,-2.46335236896308,1.00064442235253,-0.672969641160134,3.31003728857102,0.455120734728146,0.455120734729278,,-2.80452070789166,-2.8749745191479,1.40393438519561,-1.7043147835629,1.40393438519612,0.599304591021507,0.505634673171472,1.17492506079869,,-0.0957789842691655,1.44002661952405,1.06927652107843,-0.547943649936932,1.06927652107935,0.706992913103184,,,0.695994549820161,0.2614416359697,,,0.182905829022871,-0.139307277909275,0.791588008835324,-1.54603824623139,-0.686317796605337,-0.454080538673196,-0.3529498445844,-1.05025258020203,2.16171014435972,0.264184441832008,0.264184441833271,1.25287897909064,-0.500536520343723,1.22041667487367,-1.11014902166442,0.290878738791464,-1.00828315466003,-1.61551890074695,-0.911191188580237,-0.911191188580128,2.96815767594651,-2.72105576081525,,11.4688,103,532.145631067961,928.860679611651,1062.49029126214,507.941747572816,556.349514563107,955.965048543689,901.756310679612,1017.40776699029,1107.57281553398,0
832.9216,-2.43698677482909,0.970999979795445,-0.681584364247593,3.31006900039025,0.447404267650705,0.447404267651854,,-2.84711156527611,-2.90867258347048,1.43946938279475,-1.7011112181527,1.43946938279527,0.550626019783577,0.526462233125235,1.13148324716708,,-0.108681552992578,1.44538287632688,1.08529480405654,-0.535073683642721,1.08529480405744,0.678120378383516,,,0.676749560208833,0.320163048577701,,,0.167962519643486,-0.138615830724938,0.808607153344881,-1.56180287022277,-0.675636779191221,-0.495271079695684,-0.312445012944644,-1.06553670235707,2.16819954317317,0.259334057619036,0.259334057620282,1.21860332677164,-0.468415794550325,1.19097974901239,-1.13448420566078,0.322198296895199,-1.00735263230561,-1.62456084430079,-0.923664481856789,-0.923664481856653,2.9201276541621,-2.69989582732903,,11.5712,102,565.236274509804,943.89068627451,1095.01470588235,540.230392156863,590.242156862745,974.997058823529,912.78431372549,1047.51960784314,1142.50980392157,0
833.024,-2.40767829484205,0.939575629970801,-0.689883373142283,3.3086230734864,0.438931250394747,0.438931250395916,,-2.88727639999911,-2.94082652689023,1.47529746795014,-1.69789174559236,1.47529746795068,0.50078603641126,0.546600888643646,1.08600892010688,,-0.121151364315012,1.45038311917603,1.10175908581074,-0.522375726637152,1.10175908581163,0.649634726196426,,,0.65577576248711,0.378244208379309,,,0.152446270122843,-0.138523942769249,0.82535546466753,-1.57673450752916,-0.664278405458369,-0.536080125261615,-0.272131117752228,-1.08047609821307,2.17316929307735,0.25505701192642,0.255057011927654,1.18210768459839,-0.436709738561584,1.15910130793747,-1.15875930843977,0.353603229860678,-1.00627416971694,-1.63259771894909,-0.93504241638556,-0.935042416385412,2.87033507714209,-2.67783141128933,,11.6736,102,584.661764705882,948.360784313726,1107.91666666667,556.721568627451,612.601960784314,979.309803921569,917.411764705882,1057.86274509804,1157.97058823529,0
833.1264,-2.37543948910423,0.90643850313217,-0.697818281473905,3.30574601357024,0.429744032891566,0.42974403289275,,-2.92498793389287,-2.97139798583771,1.51136544363516,-1.69470867704477,1.5113654436357,0.449862398597066,0.566057306261063,1.03860501674118,,-0.133186626183149,1.45504550851036,1.11863933597046,-0.509866171929569,1.11863933597133,0.621528057972273,,,0.633070414992863,0.435643125191615,,,0.136385936624064,-0.139048182669056,0.841773364960189,-1.59078295635953,-0.65228732109225,-0.576476330624598,-0.231992985126756,-1.0950084056776,2.17666349823648,0.251283878632158,0.251283878633372,1.14344008015295,-0.405406163853343,1.12483486154399,-1.18293717919592,0.385049715022726,-1.00504550243864,-1.63962162987258,-0.945283415145363,-0.94528341514521,2.81885736999497,-2.65485987392566,,11.776,103,583.200485436893,945.92427184466,1108.61650485437,555.348543689321,611.052427184466,962.479611650486,929.368932038835,1051.29126213592,1165.94174757282,0
833.2288,-2.3402903786793,0.871656480759359,-0.705344645429829,3.30148342388227,0.419883339430907,0.41988333943211,,-2.96022141152091,-3.00034916671304,1.54761647764346,-1.69161189542839,1.547616477644,0.397936414821895,0.584840645905485,0.989381013437365,,-0.144789416419269,1.45938353080149,1.13590677503393,-0.497560271254577,1.13590677503478,0.593789583499279,,,0.608636201982009,0.49231734240153,,,0.119812976294283,-0.140202786926558,0.857802854855865,-1.60389993856827,-0.639707852935749,-0.616430064379148,-0.192015472205857,-1.10907379085884,2.17872722230214,0.247943085138237,0.24794308513944,1.10265321170993,-0.374490203630851,1.08823944364676,-1.20698040267862,0.416494082487279,-1.00366392078394,-1.64562670563544,-0.95434851923851,-0.954348519238358,2.76577431552893,-2.63098035321091,,11.8783999999999,102,620.700490196079,681.943627450981,1107.8137254902,581.830392156863,659.570588235294,698.922549019608,664.964705882353,1048.55882352941,1167.06862745098,0
833.3312,-2.30225873900513,0.835298064946259,-0.712422252593727,3.295879776572,0.409388125318267,0.40938812531949,,-2.99295453642738,-3.027642901535,1.58399021160241,-1.68864877604092,1.58399021160295,0.345092857019924,0.602962496324155,0.938452762240736,,-0.155965700899578,1.4634059428996,1.1535338600311,-0.485471989132252,1.15353386003192,0.566405639039785,,,0.582481511661804,0.548223909455068,,,0.102761302445594,-0.141999474721461,0.87338791577239,-1.61603949241166,-0.626583785766554,-0.655913349950738,-0.152183643349688,-1.12261505723829,2.17940642386833,0.244961271685686,0.244961271686873,1.05980429327864,-0.343944542726435,1.04937939847719,-1.23085161688738,0.447892820035595,-1.00212663071579,-1.65060895836714,-0.962201589498156,-0.962201589498011,2.71116796069113,-2.60619428149898,,11.9807999999999,103,628.083009708738,640.771844660194,1127.30097087379,591.552427184466,664.61359223301,662.521359223301,619.022330097087,1069.41747572816,1185.18446601942,0
833.4336,-2.26138038123871,0.797432266667505,-0.719015387620906,3.28897822391289,0.398295447390808,0.398295447392062,,-3.02316741599829,-3.05324271264911,1.62042288867152,-1.68586413236177,1.62042288867206,0.291419847391188,0.620436796594923,0.885942283258633,,-0.166725319160907,1.46711677250203,1.17149425598312,-0.473613873066856,1.17149425598391,0.539359747717157,,,0.55462068156687,0.603319391430335,,,0.085267130381484,-0.144447272861338,0.888474876783049,-1.6271583504516,-0.612958187476634,-0.694899803112154,-0.112482910156583,-1.13557770914529,2.17874786285943,0.24226368047553,0.242263680476696,1.01495492392051,-0.313749651988676,1.00832419194288,-1.25451379347139,0.479202628062489,-1.00043102562937,-1.65456616123879,-0.96880945355901,-0.968809453558879,2.65512253782234,-2.58050585964482,,12.0831999999999,102,629.491297597537,637.851423028019,1139.22974389861,596.077254901961,662.905340293114,661.351514328808,614.35133172723,1075.63043740573,1202.82905039149,0
833.536,-2.21769940999532,0.758128517588835,-0.725093063786176,3.28082044598789,0.386640352041686,0.386640352042966,,-3.05084252169735,-3.07711289169414,1.65684749964749,-1.68330018270556,1.65684749964802,0.237008708640365,0.637279741909709,0.831977498050515,,-0.177081944101285,1.47051536848023,1.1897628035122,-0.461996940996325,1.18976280351298,0.512632716863373,,,0.525074204805118,0.657559898437936,,,0.0673688213787302,-0.14755235389305,0.903012745466318,-1.63721629721707,-0.598873275960567,-0.7333645642023,-0.0728991526434585,-1.1479099867465,2.17679898186289,0.239774568455146,0.23977456845628,0.968170979178682,-0.2838840376481,0.965148243109359,-1.27793047444532,0.510380505786004,-0.998574879013764,-1.65749775167595,-0.974142016725853,-0.97414201672574,2.59772440298727,-2.55392248527712,,12.1855999999999,103,631.593037542662,640.728683644001,1119.94151220793,604.24,658.946075085324,663.537230769231,617.920136518771,1050.85230769231,1189.03071672355,0.815533980582524
833.6384,-2.17126844780249,0.717456607608113,-0.730629212648021,3.27144653480026,0.374455783376887,0.374455783378196,,-3.07596466467,-3.09921858908798,1.69319394685018,-1.68099653751207,1.69319394685071,0.181953774016135,0.653509676565308,0.776691901950884,,-0.187053015855115,1.47359649638393,1.20831548629498,-0.450630585368801,1.20831548629574,0.486202763639676,,,0.493868894741829,0.71090113079367,,,0.0491067268841307,-0.151317890997963,0.916953507676928,-1.64617650633173,-0.584370317522766,-0.771284225102665,-0.0334188290359827,-1.15956288084156,2.17360776304697,0.237417633641087,0.237417633642185,0.919522515412438,-0.254324509492151,0.919930765325276,-1.30106596651058,0.541383854786893,-0.996556472349428,-1.65940476478088,-0.978172355305087,-0.978172355305001,2.5390619907187,-2.52645513310741,,12.288,102,634.136296928328,641.67139301654,1099.2972748753,612.44,655.832593856655,665.492615384615,617.850170648464,1025.30615384615,1173.28839590444,0.392156862745098
833.7408,-2.1221488140271,0.67548664701486,-0.735602825259846,3.2608949136584,0.361772512501374,0.361772512502718,,-3.09852098419575,-3.11952590578812,1.72938922676846,-1.67899020605925,1.72938922676899,0.126352158224907,0.669146982961368,0.720224184060703,,-0.196659644986203,1.47635047648454,1.22712939643392,-0.439522495005001,1.22712939643467,0.460045661194947,,,0.461038004762892,0.763298451547823,,,0.0305230354157988,-0.155743935836107,0.930252392807075,-1.65400584719965,-0.569489549161379,-0.808636756810534,0.00597093193235476,-1.17049012923618,2.16922255594327,0.235116446490777,0.235116446491844,0.869083673886099,-0.225046462292045,0.872755604246129,-1.32388550120437,0.572170595918534,-0.994374671354916,-1.66028979880997,-0.980876807879271,-0.980876807879223,2.47922578644442,-2.49811868727545,,12.3904,102,637.219142073212,639.969787726695,1108.85066987887,618.849215686275,655.589068460149,664.040823529412,615.898751923978,1028.41843137255,1189.2829083852,0
