time,S1-D1,S1-D8,S1-D9,S1-D15,S2-D1,S2-D2,S2-D3,S2-D9,S3-D1,S3-D2,S3-D16,S4-D2,S4-D3,S4-D5,S5-D3,S5-D4,S5-D5,S6-D2,S6-D5,S6-D17,S7-D6,S7-D7,S8-D6,S8-D7,S8-D18,S9-D3,S9-D4,S9-D9,S9-D11,S9-D19,S10-D8,S10-D9,S10-D10,S10-D11,S11-D8,S11-D10,S11-D20,S12-D10,S12-D11,S12-D12,S13-D4,S13-D11,S13-D12,S14-D10,S14-D12,S14-D21,S15-D13,S15-D14,S16-D13,S16-D14,S16-D22,t_rel_s,eye_n,xp,yp,ps,xpl_i,xpr_i,ypl_i,ypr_i,psl_i,psr_i,blink_prop
819.8144,-1.21281723653817,-0.0707735257944924,-1.74358210365417,-0.26030039027849,-0.325136257549453,-0.325136257550086,,-0.839130594933144,-0.261928102416676,-1.59148388357171,-1.51522862497091,-1.59148388357141,-0.416236862342697,-0.786501179906808,-1.02443396663879,,0.481748639603554,-0.600408500125624,-1.920039762963,0.669749890936021,-1.92003976296058,0.951394454609319,,,0.127038634199722,0.0415073866479721,,,0.650287089147103,1.85485940844138,-2.4488930332513,0.0755697122818387,-1.89075050368232,1.76369439414495,-0.349523531231373,1.37639672395533,-1.6741364118151,0.289254289049565,0.289254289048716,-0.670155931657062,0.244782963296763,-0.453879938525191,0.0915595810876596,-0.0954063635135153,-0.00427984056579232,-0.191478884078865,1.36197572213802,1.3619757221388,0.0975176887241861,0.129452919393282,,0,103,1068.05582524272,990.381553398058,787.325242718446,1109.90194174757,1026.20970873786,1002.52524271845,978.23786407767,746.242718446602,828.407766990292,0
819.9168,-1.12703029450394,-0.110804974736096,-1.67674293737653,-0.204724918160348,-0.353325239670537,-0.353325239671166,,-0.848523370379602,-0.270844192201945,-1.62481038160804,-1.55960026362775,-1.62481038160772,-0.398369891726729,-0.786386135161071,-1.00101455731908,,0.478345543708822,-0.630080069250579,-1.90194458190913,0.687993713273908,-1.90194458190668,0.953012614118187,,,0.164845575462175,-0.0071383401968624,,,0.603333271022599,1.83196107850482,-2.4311088739618,0.0666360489152652,-1.87956670558925,1.7682164024731,-0.36816344719137,1.36651231439239,-1.64134751293644,0.270064384913733,0.270064384912881,-0.629604732714829,0.231298208660973,-0.424661486912506,0.0840083603741724,-0.0984503573782794,-0.0217036845277578,-0.188939543577357,1.37992396237748,1.37992396237825,0.0901304479994386,0.169645806821828,,0.102399999999989,102,973.611764705882,564.350490196078,1238.39705882353,967.277450980392,979.946078431373,556.298039215686,572.402941176471,1233.85294117647,1242.94117647059,0
820.0192,-1.04149873850288,-0.151490712484988,-1.61107290522995,-0.150710319831741,-0.381820326278549,-0.38182032627918,,-0.857720027838075,-0.279047701869381,-1.65753485290688,-1.6036679969918,-1.65753485290653,-0.380353470292061,-0.786786932846923,-0.977714974805062,,0.474697490560368,-0.657527959488769,-1.88315395073099,0.705586585267371,-1.88315395072852,0.954734249704599,,,0.200984421595697,-0.0554640114777556,,,0.554813422786076,1.80881502078564,-2.41354786778169,0.0552872667652091,-1.8692909302983,1.77174369284999,-0.386367704355755,1.35603193745706,-1.60912896863814,0.250620528346118,0.250620528345249,-0.588781993880018,0.217322405084387,-0.395777093507208,0.0760138590817171,-0.101378556865919,-0.0396706340758619,-0.187682475945644,1.3968538160572,1.39685381605796,0.0823187502822381,0.210566756315317,,0.204799999999977,103,975.591262135922,559.71213592233,1279.81067961165,965.109708737864,986.072815533981,548.070873786408,571.353398058252,1277.95145631068,1281.66990291262,0
820.1216,-0.956365067324282,-0.192718142728599,-1.54662520770169,-0.0983109377419719,-0.410554445113448,-0.410554445114075,,-0.86673280678107,-0.286520173650349,-1.6896338516614,-1.64738930843347,-1.68963385166103,-0.362212497136608,-0.787639964127464,-0.954528898683252,,0.470828750858189,-0.682674584663044,-1.86370770854541,0.722500677245256,-1.86370770854291,0.956515143207248,,,0.235396938319837,-0.103362407549476,,,0.504823146812995,1.7854834644235,-2.39621563250564,0.0416224509202667,-1.85989746890502,1.77428732783556,-0.404069094299967,1.34501669000303,-1.57753398611183,0.230968825826292,0.230968825825409,-0.547758680328332,0.202885467636756,-0.367269541830274,0.0676464219099674,-0.104229854101203,-0.0581279254336923,-0.187744227750092,1.4127106253482,1.41271062534895,0.0741002372112144,0.252130473933385,,0.307199999999966,102,974.547549019608,558.149019607843,1318.33333333333,964.827450980392,984.267647058824,546.802941176471,569.495098039216,1316.47058823529,1320.19607843137,0
820.224,-0.871765105985084,-0.234377276709236,-1.4834472100122,-0.0475726498578317,-0.43946299766019,-0.439462997660812,,-0.875575627110277,-0.293246291043921,-1.7210858873258,-1.69072243287441,-1.7210858873254,-0.343969900862497,-0.788883262378445,-0.931448436679473,,0.466761113903483,-0.705450066033641,-1.84364557752558,0.738707566754567,-1.84364557752306,0.958313282239407,,,0.268029491008607,-0.150732761900885,,,0.453459794984643,1.76202482329495,-2.37911696017005,0.0257474180852984,-1.85135792235378,1.77586191746376,-0.421204975586988,1.3335275163881,-1.54661174738664,0.211152659383557,0.211152659382677,-0.506602993156904,0.188015280421133,-0.339181093377566,0.0589812583485639,-0.107046632163231,-0.0770204512373114,-0.189154638986418,1.42744370665803,1.42744370665876,0.0654975309769017,0.294246615338499,,0.409600000000069,103,828.614077669903,478.133009708738,1368.93203883495,820.597087378641,836.631067961165,474.378640776699,481.887378640777,1364.60194174757,1373.26213592233,0
820.3264,-0.787827764262408,-0.276361152498785,-1.42158063854601,0.00146704820070137,-0.468484130529619,-0.468484130530231,,-0.884264110769179,-0.29921412992854,-1.75187136951743,-1.73362638934349,-1.75187136951701,-0.325646596103935,-0.790456836470304,-0.908464271453785,,0.46251380923799,-0.725792393879859,-1.82300696000987,0.754178269147207,-1.82300696000732,0.96008901859092,,,0.29883302276352,-0.197481072114125,,,0.400822186171784,1.73849350443194,-2.36225589532059,0.00777414541525918,-1.84364143610316,1.77648531757547,-0.43771763584729,1.3216246541435,-1.51640733734747,0.191212528463763,0.19121252846287,-0.465380309990557,0.172737697425173,-0.311553417593269,0.0500981632356111,-0.109874628667132,-0.0962909995887693,-0.191936868103194,1.44100639072507,1.44100639072578,0.056538239045894,0.33682000572365,,0.512000000000057,102,824.075980392157,472.748529411765,1409.52450980392,817.841176470588,830.310784313726,474.76862745098,470.728431372549,1409.26470588235,1409.78431372549,0
820.4288,-0.704674837532958,-0.318566233258094,-1.36106180864788,0.0487789373859897,-0.497558985864182,-0.49755898586479,,-0.892815575776728,-0.304415346867144,-1.78197254250479,-1.77606099237496,-1.78197254250435,-0.307261453361421,-0.792302989265784,-0.885565815752626,,0.458103447100172,-0.743647573931632,-1.80183074616795,0.76888328015681,-1.80183074616538,0.961805207076644,,,0.327763036812331,-0.243520358247969,,,0.34701031636534,1.71493973275311,-2.34563579681092,-0.0121798305624162,-1.83671493100773,1.77617829612313,-0.453554631250077,1.30936706694109,-1.48696166885619,0.171185898678388,0.171185898677487,-0.424153153966673,0.157076569862786,-0.284427519749951,0.0410811908359988,-0.112762764432778,-0.115880512961567,-0.196107458893703,1.45335604477161,1.4533560447723,0.0472549234506263,0.379750904345558,,0.614400000000046,102,824.576470588235,475.518137254902,1437.73529411765,819.68137254902,829.471568627451,477.098039215686,473.938235294118,1442.37254901961,1433.09803921569,0
820.5312,-0.622420844878661,-0.360892783016193,-1.30192187506939,0.0943419433761293,-0.526631924747742,-0.526631924748349,,-0.90124898904575,-0.308845291563875,-1.81137341402205,-1.81798684964563,-1.81137341402158,-0.288831279009569,-0.794366618786928,-0.862741370268675,,0.453543976989363,-0.758969745754143,-1.78015512425824,0.782792626893648,-1.78015512425565,0.963427319518693,,,0.354779587207284,-0.28877086956611,,,0.292125060565567,1.69140938720379,-2.32925939541569,-0.0339920506425232,-1.83054334174824,1.77496418158671,-0.468669098636845,1.29681188158608,-1.45831140916347,0.151107059773692,0.151107059772778,-0.382981185250191,0.141053800372012,-0.257843659466868,0.0320182811066691,-0.115762934966829,-0.135728365454339,-0.201676441554344,1.46445407995101,1.46445407995168,0.0376850398614443,0.422935310774314,,0.716800000000035,103,823.390291262136,478.419417475728,1457.00485436893,817.038834951456,829.741747572816,477.928155339806,478.910679611651,1465.04854368932,1448.96116504854,0
820.6336,-0.541172902647931,-0.403245220840341,-1.24418710368807,0.138142970629365,-0.555650721582456,-0.555650721583059,,-0.909584871609321,-0.312503044193632,-1.84005967875836,-1.85936535529801,-1.84005967875786,-0.270370806678173,-0.796595501844483,-0.839978285649755,,0.448846662974961,-0.771721275816546,-1.75801738658461,0.795875927458975,-1.758017386582,0.964923523390912,,,0.379847278073715,-0.333160240996749,,,0.236267866139175,1.66794384507537,-2.31312885101479,-0.0575358052629666,-1.82508986574891,1.77286850556167,-0.483020043071668,1.28401383817224,-1.43048891107548,0.131006999641122,0.13100699964019,-0.34192120806102,0.12468942280446,-0.231841253397139,0.0230008286572134,-0.118929753255239,-0.15577265532235,-0.208647458509529,1.474265946052,1.47426594605265,0.0278708500304252,0.466265313026183,,0.819200000000024,102,822.023039215686,478.314705882353,1472.35784313725,814.312745098039,829.733333333333,477.648039215686,478.98137254902,1480.92156862745,1463.79411764706,0
820.736,-0.461030634540301,-0.445532454853325,-1.18787916778254,0.180176697868131,-0.584566732494002,-0.584566732494604,,-0.917845156777402,-0.31539138335123,-1.86801863441377,-1.90015868547543,-1.86801863441324,-0.251892703300536,-0.798940562123083,-0.817263134179158,,0.444020073683307,-0.781872837930592,-1.73545372883097,0.808102464808753,-1.73545372882834,0.966264717119234,,,0.402935270653021,-0.376623599890263,,,0.179540439400038,1.64457983391747,-2.29724580579977,-0.0826808370960487,-1.82031621818144,1.7699186459937,-0.496572606042264,1.27102475546575,-1.40352214928958,0.110913298350018,0.110913298349078,-0.301027188118759,0.108001704988692,-0.206458759632965,0.0141231859192623,-0.122320233731796,-0.175950510286433,-0.217017908113491,1.48276111264272,1.48276111264334,0.0178593063436849,0.509629476941253,,0.921600000000012,103,819.379126213592,477.285436893204,1495.24757281553,812.269902912621,826.488349514563,476.319417475728,478.25145631068,1500.5145631068,1489.98058252427,0
820.8384,-0.382086118737633,-0.48766819859492,-1.13301547270966,0.22044533123297,-0.613335045370788,-0.613335045371379,,-0.92605300079623,-0.317516678746715,-1.89523908797706,-1.94032979620063,-1.89523908797651,-0.233407591784103,-0.801356127207295,-0.7945818964225,,0.439070084641682,-0.7894034934196,-1.71249904283586,0.819441282945538,-1.71249904283322,0.967424517217356,,,0.424017295036702,-0.419103623233209,,,0.122044426779211,1.6213492926966,-2.28161142782519,-0.109294071357377,-1.81618288784364,1.76614347187488,-0.509298317780637,1.25789300965342,-1.37743465916201,0.0908500392201568,0.090850039219212,-0.26035027442419,0.0910072674990846,-0.181733545985915,0.00548209779048264,-0.125993415138697,-0.196198406412115,-0.226779103854198,1.48991303214605,1.48991303214665,0.00770190414620257,0.55291326990937,,1.024,102,820.199019607843,472.767647058824,1531.79901960784,814.533333333333,825.864705882353,475.2,470.335294117647,1528.24509803922,1535.35294117647,0
820.9408,-0.30442387050641,-0.529571270957896,-1.07960950837704,0.258958312662953,-0.641914618343044,-0.641914618343631,,-0.934232543818204,-0.318888696042523,-1.9217112501855,-1.97984241584342,-1.92171125018492,-0.214924091794391,-0.803800179023665,-0.771920167523251,,0.433999891152851,-0.794300774922535,-1.68918670270867,0.829861309999748,-1.689186702706,0.968379192880656,,,0.443071661542331,-0.460550544466602,,,0.0638810907772718,1.59827924707116,-2.26622643904258,-0.137240376175887,-1.81264939004365,1.76157298804318,-0.521175330982704,1.24466302724838,-1.35224547092756,0.0708377286857831,0.0708377286848455,-0.21993882289525,0.0737212140713864,-0.157701745024007,-0.00282393143522688,-0.130009924405716,-0.216452502683409,-0.237916450531214,1.49569907895163,1.4956990789522,-0.00254550214587712,0.595999512080944,,1.12639999999999,102,964.562745098039,526.448529411765,1577.75,954.324509803922,974.800980392157,537.529411764706,515.367647058824,1575.04901960784,1580.45098039216,0
821.0432,-0.22812085677292,-0.571165875997366,-1.0276712200957,0.295731989574961,-0.670268407094468,-0.670268407095047,,-0.942408622252852,-0.319520312552791,-1.94742661868534,-2.0186610221557,-1.94742661868474,-0.196448879522961,-0.8062345974874,-0.749263384155914,,0.428810031270274,-0.796560764421492,-1.66554834358182,0.839331506539404,-1.66554834357914,0.969107546341108,,,0.46008126807883,-0.500922108818066,,,0.0051509808712479,1.57539170657723,-2.25109112343247,-0.166383355957113,-1.8096745139539,1.75623797996356,-0.532188626101348,1.23137479946776,-1.32796903033342,0.0508932163158138,0.0508932163148849,-0.179838430334432,0.0561572821576748,-0.134398094473875,-0.0106953334329614,-0.13443148701696,-0.23664899123618,-0.250409639665099,1.50010046312573,1.50010046312627,-0.0128229230065423,0.638768859917805,,1.22879999999998,103,971.100970873786,525.955339805825,1622.20388349515,961.901941747573,980.3,540.640776699029,511.269902912621,1620.73786407767,1623.66990291262,0
821.1456,-0.153246539122743,-0.612381857310331,-0.977207386319059,0.330789254447143,-0.698363478384182,-0.698363478384766,,-0.950606440267446,-0.319427159074719,-1.97237785488419,-2.05675080069004,-1.97237785488357,-0.177986763222432,-0.808625393305434,-0.726597065459625,,0.423498419172391,-0.796188147992331,-1.64161363302385,0.847821034771659,-1.64161363302115,0.969590742870456,,,0.475033600490213,-0.540183479485676,,,-0.0540464030123942,1.55270359397043,-2.23620531230092,-0.196586179081794,-1.80721656255007,1.75016965789824,-0.542330178860632,1.21806342460122,-1.30461510249444,0.031029610479322,0.0310296104783957,-0.140091988967124,0.0383280276402937,-0.111855756335787,-0.0180322252809361,-0.139320392397822,-0.256724463571181,-0.264232864378908,1.50310212368445,1.50310212368496,-0.0230665036125484,0.68110033930043,,1.33119999999997,102,970.371078431373,528.008823529412,1661.53921568627,962.142156862745,978.6,544.776470588235,511.241176470588,1667.71568627451,1655.36274509804,0
821.248,-0.0798629442679824,-0.653154925931045,-0.928222000640812,0.364159152839947,-0.726171110507161,-0.726171110507747,,-0.958851214693211,-0.318627211089792,-1.9965586613948,-2.09407759010765,-1.99655866139415,-0.15954076755128,-0.810942926845921,-0.703907056972403,,0.418060388529554,-0.793196234729111,-1.61741004006376,0.855299447489424,-1.61741004006105,0.969812098300239,,,0.48792072257527,-0.578307101680177,,,-0.11361296199971,1.53022672020406,-2.22156834217206,-0.227712435395818,-1.80523358018475,1.74339929746517,-0.551599088605763,1.2047586766258,-1.28218866590094,0.011256191940544,0.0112561919396221,-0.10073975873762,0.0202450478169934,-0.0901061060121888,-0.0247352096425586,-0.14473892011288,-0.27661629669814,-0.279355052056689,1.50469260832474,1.50469260832521,-0.0332088455929167,0.722871945840174,,1.43360000000007,103,969.153883495146,530.871359223301,1695.22330097087,962.576699029126,975.731067961165,548.932038834952,512.810679611651,1710.33009708738,1680.11650485437,0
821.3504,-0.008024763652479,-0.693426861764205,-0.880716660358011,0.395876454835233,-0.75366688129794,-0.753666881298526,,-0.967167810601582,-0.317140353468631,-2.01996366485414,-2.13060782197772,-2.01996366485347,-0.141112221899957,-0.813162109475156,-0.681179769057526,,0.412488745959605,-0.78760693657913,-1.59296261579147,0.861736901105609,-1.59296261578874,0.969756834488826,,,0.498739257530137,-0.615272531950259,,,-0.173452371302248,1.5079678188624,-2.20717898062119,-0.259627003579841,-1.80368355810906,1.73595787550474,-0.560001670455749,1.19148459681999,-1.26068980849379,-0.00842166541546909,-0.00842166541638579,-0.061819443948811,0.00191923564654241,-0.0691784851553861,-0.030706221984521,-0.150748731180938,-0.296263060098371,-0.295740112991382,1.50486394366157,1.50486394366201,-0.0431793817547608,0.763961315696259,,1.53600000000006,102,955.524509803922,529.701960784314,1719.4362745098,950.754901960784,960.294117647059,549.049019607843,510.354901960784,1740.36274509804,1698.50980392157,0
821.4528,0.0622205160041653,-0.733145681933347,-0.834690955749844,0.425981198191316,-0.780830736184101,-0.780830736184684,,-0.975580384033342,-0.314987944592368,-2.04258830592974,-2.16630845826874,-2.04258830592905,-0.122700853809841,-0.815262577447864,-0.658402405217933,,0.406773837218252,-0.779450707541274,-1.56829380625185,0.867104398726566,-1.5682938062491,0.969411816944927,,,0.507490370572425,-0.651066236604889,,,-0.233470470855364,1.48592864701324,-2.19303532186498,-0.292196889893344,-1.80252460766528,1.72787570742336,-0.567551509854153,1.1782591151766,-1.24011363623627,-0.0280025531454217,-0.0280025531463335,-0.0233662638490886,-0.0166389432879178,-0.0490999174654012,-0.035849401939273,-0.157410239734484,-0.315604930523718,-0.313347204054256,1.50361149619821,1.50361149619862,-0.0529047956008339,0.804246447909152,,1.63840000000005,102,950.226960784314,528.936764705882,1740,946.540196078431,953.913725490196,550.047058823529,507.826470588235,1760.70588235294,1719.29411764706,0
821.5552,0.130832450974326,-0.772265762727885,-0.7901428437094,0.45451822632969,-0.80764702136579,-0.807647021366375,,-0.984112046287781,-0.312192408339592,-2.06442873660064,-2.20114692460737,-2.06442873659992,-0.104304892572789,-0.817228822428127,-0.635563177220089,,0.400903630293665,-0.768766437491903,-1.5434233191804,0.871374065234868,-1.54342331917763,0.968765291959938,,,0.514179765165598,-0.68568136018295,,,-0.29357565884362,1.46410614948275,-2.17913466210147,-0.325291990458227,-1.80171509442836,1.71918209820078,-0.574269472632419,1.16509371815637,-1.22045020182648,-0.0474890516858907,-0.0474890516867961,0.0145869847879696,-0.0354191562776062,-0.0298947920173026,-0.0400719425367182,-0.164781995716711,-0.334584088244033,-0.332131006748732,1.50093382207465,1.50093382207502,-0.0623094695145554,0.843606442177992,,1.74080000000004,103,948.302912621359,529.007766990291,1761.16990291262,945.565048543689,951.040776699029,552.802912621359,505.212621359223,1773.19417475728,1749.14563106796,0
821.6576,0.197777449468089,-0.810747902839443,-0.747068987742346,0.481536746411751,-0.834104468377295,-0.834104468377879,,-0.992784560810349,-0.308776877111018,-2.08548172371871,-2.23509103553727,-2.08548172371797,-0.0859211877814443,-0.819050263871042,-0.612651504238083,,0.394863817733326,-0.755601296610653,-1.51836806197306,0.874519450835986,-1.51836806197027,0.967806638176218,,,0.518817700334707,-0.719117464870815,,,-0.353679271021272,1.44249267752665,-2.16547336774882,-0.358785735378661,-1.80121373090369,1.70990501902068,-0.580183665067633,1.15199317807845,-1.20168445917084,-0.0668877075430473,-0.0668877075439404,0.052009872546323,-0.0544108963060488,-0.0115845211701565,-0.0432848671399434,-0.172920113384116,-0.353145068572141,-0.35204201829364,1.49683250313626,1.49683250313661,-0.0713159434143483,0.881922213931752,,1.84320000000002,102,945.166666666667,531.05931372549,1781.26960784314,944.11862745098,946.214705882353,555.719607843137,506.399019607843,1787.77450980392,1774.76470588235,0
821.76,0.263028555598568,-0.848559323864053,-0.705465053362215,0.507089923237907,-0.860196125421451,-0.860196125422036,,-1.00161807804469,-0.304764893184125,-2.10574455663863,-2.26810890898962,-2.10574455663788,-0.0675453447343023,-0.820721256767204,-0.589658194536495,,0.388637935998731,-0.740010532744878,-1.49314215858589,0.876515856274374,-1.49314215858309,0.966526137900988,,,0.521419026845796,-0.751380242986621,,,-0.413695933631933,1.42107625282127,-2.15204674604936,-0.392555593301191,-1.80097962867941,1.7000708158285,-0.585329345193855,1.13895534906,-1.18379624608153,-0.0862089609565777,-0.0862089609574569,0.0888742923481005,-0.0736031700906878,0.00581281955163779,-0.045403704458196,-0.181877768002683,-0.371235056231141,-0.373026852619122,1.49131196728047,1.49131196728078,-0.0798453701771891,0.919077160758446,,1.94560000000001,103,945.363151535438,529.245528073473,1801.76064899234,943.978478412141,946.747824658734,555.5846615196,502.906394627345,1805.10984459392,1798.41145339076,0
821.8624,0.326565214447296,-0.885673612761361,-0.66532595646987,0.53123451195433,-0.885919241446977,-0.885919241447564,,-1.01063090902301,-0.300180158515627,-2.12521495629945,-2.3001688693562,-2.12521495629868,-0.0491718757841732,-0.822241038031776,-0.566575610505852,,0.382207496544345,-0.722057229981606,-1.46775703942114,0.877340671630333,-1.46775703941832,0.964914764203924,,,0.522003231949292,-0.782481205170967,,,-0.473543882850095,1.39984087157159,-2.13884891958567,-0.426483440714069,-1.80097231254763,1.68970395027368,-0.589748789873233,1.12597102652396,-1.16676029277348,-0.105467029409464,-0.105467029410324,0.125154426009988,-0.0929841899571073,0.0222828599399572,-0.0463490616205878,-0.1917047619313,-0.388804124481344,-0.395028546216661,1.4843792935458,1.48437929354608,-0.0878179620026119,0.95495777062194,,2.048,102,941.317986412277,528.584877723319,1815.44338769278,937.37337883959,945.262593984963,549.323890784983,507.845864661654,1819.44880546075,1811.43796992481,0.284313725490196
821.9648,0.388373024745275,-0.922070613601972,-0.626646065022588,0.554030522168482,-0.911275113017829,-0.91127511301841,,-1.01983933583155,-0.29504631433353,-2.1438909859637,-2.33123934288826,-2.14389098596291,-0.0307943631769242,-0.823613619902714,-0.543397816341304,,0.375552126356453,-0.701812034102846,-1.44222158782352,0.876973718081471,-1.44222158782069,0.962963981081127,,,0.520594481146092,-0.812437346739038,,,-0.533145244608225,1.37876684477217,-2.12587270272866,-0.460455819806707,-1.80115170228353,1.67882677254007,-0.593491116206156,1.11302387088699,-1.15054625336828,-0.124679755995839,-0.124679755996687,0.160826715906322,-0.112541076581062,0.0378152951436012,-0.046047111481438,-0.20244714766403,-0.405805425454395,-0.417986862805099,1.47604400747775,1.476044007478,-0.0951534267648818,0.989454171022108,,2.15039999999999,102,935.096598899125,524.036508506762,1827.02501667993,928.113310580205,942.079887218045,542.988054607509,505.084962406015,1833.02559726962,1821.02443609023,0.617647058823529
822.0672,0.44844348407031,-0.957736273774562,-0.589419353792939,0.575540896224425,-0.936268899585864,-0.936268899586434,,-1.02925745118166,-0.289386732642502,-2.16177096852164,-2.36128875517658,-2.16177096852083,-0.0124056245610931,-0.824847638442449,-0.520120701783823,,0.368649722740953,-0.679352841387667,-1.41654232743458,0.875397579431953,-1.41654232743174,0.960665561682664,,,0.517221646288634,-0.841270794793562,,,-0.59242626886652,1.35783116320013,-2.11310948378289,-0.494364115401497,-1.8014780742934,1.66745932700098,-0.596612049269996,1.10009040235456,-1.13511876755474,-0.143868430106376,-0.143868430107217,0.195869832107091,-0.132259582010589,0.0524042136535756,-0.0444300056096446,-0.214146898390403,-0.422195335220001,-0.441838591194628,1.46631787442734,1.46631787442756,-0.101771392584826,1.02246061830004,,2.25279999999998,103,928.350317379485,523.755137989943,1842.45753308517,918.725965075052,937.974669683919,541.188945955797,506.321330024089,1847.23589250804,1837.67917366231,0
822.1696,0.506773727267259,-0.992662448561521,-0.553639516156065,0.595831176500544,-0.960909407466987,-0.960909407467544,,-1.03889701377468,-0.283224310043888,-2.17885341582334,-2.39028544326576,-2.17885341582251,0.00600212722879822,-0.825956163518528,-0.49674207484521,,0.361476629701378,-0.654764443839891,-1.3907236452912,0.872597912874447,-1.39072364528835,0.958011430394763,,,0.511918307466634,-0.869008438745984,,,-0.651317516602983,1.33700786673829,-2.10054912269304,-0.528104675040645,-1.80191201815511,1.65561918979189,-0.599173632890476,1.08714006847083,-1.12043757090566,-0.1630575847959,-0.163057584796731,0.230264631348945,-0.15212384490507,0.0660483732296567,-0.0414362125089171,-0.226841627217411,-0.437933554700327,-0.466517833151753,1.4552146942672,1.45521469426739,-0.107591817896776,1.05387592664254,,2.35519999999997,102,926.943137254902,538.773039215686,1864.34803921569,918.93137254902,934.954901960784,560.613725490196,516.932352941177,1863.17647058824,1865.51960784314,0
822.272,0.563366257604093,-1.0268466686406,-0.519300039286467,0.614969138741298,-0.985208843974783,-0.985208843975329,,-1.04876731248352,-0.276581267969059,-2.19513697155076,-2.4181975926408,-2.1951369715499,0.0244371329505533,-0.826956475589556,-0.473261723065453,,0.354007837928422,-0.628138130101894,-1.3647680513619,0.868563731814384,-1.36476805135904,0.954993527761339,,,0.504722717098627,-0.895681546713399,,,-0.709754002515973,1.31626840020254,-2.08817987324608,-0.561578885082035,-1.80241439893804,1.64332133581533,-0.601243889965127,1.0741353771831,-1.1064576720696,-0.18227477250956,-0.182274772510388,0.263994110553179,-0.172116185873582,0.0787514174982497,-0.0370107744660708,-0.240564363605969,-0.45298316946531,-0.491956282206323,1.44275009850947,1.44275009850963,-0.112535387396902,1.083603841077,,2.45760000000007,103,899.803883495146,538.485922330097,1879.90291262136,892.508737864078,907.099029126214,567.093203883495,509.878640776699,1868.80582524272,1891,0
822.3744,0.618228675030348,-1.06029187448391,-0.486394241787657,0.63302437902194,-1.00918254694643,-1.00918254694696,,-1.05887504577477,-0.269478975507857,-2.21062036688636,-2.44499320470869,-2.21062036688548,0.0429079435419308,-0.827869813390796,-0.449681446786903,,0.346217203850957,-0.599571248350212,-1.33867646701752,0.863287650160038,-1.33867646701465,0.951603693235111,,,0.495677721692727,-0.921325370393442,,,-0.767675296431588,1.29558194973293,-2.07598833446929,-0.594693208733449,-1.80294633077628,1.63057803709241,-0.602896438642687,1.0610320924361,-1.09312960506434,-0.201550318973401,-0.201550318974226,0.297043362572545,-0.192216949215577,0.090522033801419,-0.0311054779321044,-0.2553433962938,-0.46731067510232,-0.518083496563448,1.42894135394823,1.42894135394837,-0.116523896770342,1.11155336135075,,2.56000000000006,102,856.891666666667,531.841176470588,1890.72058823529,851.113725490196,862.669607843137,565.906862745098,497.775490196078,1874.75490196078,1906.6862745098,0
822.4768,0.671373408093264,-1.09300611959161,-0.45491526724032,0.650067849693101,-1.03284869531552,-1.03284869531604,,-1.06922422705212,-0.261937810978149,-2.2253023884624,-2.47064009446909,-2.2253023884615,0.0614232824930159,-0.828721095255979,-0.426005068762825,,0.338077680742066,-0.569166740634988,-1.31244852590724,0.85676607511601,-1.31244852590437,0.947833564132678,,,0.484830643015964,-0.945978740191293,,,-0.825025584903369,1.2749157630417,-2.06395942966295,-0.627359188361664,-1.80346916118498,1.61739879966215,-0.604210062283354,1.0477795005636,-1.08039975441692,-0.220917053220997,-0.220917053221828,0.329399546730471,-0.212404403120375,0.101374050935771,-0.0236789416234359,-0.271202183265829,-0.480885975986453,-0.544827167759174,1.41380717658934,1.41380717658947,-0.119480627030106,1.13763901833978,,2.66240000000005,102,846.243137254902,532.259803921569,1898.88725490196,841.91862745098,850.567647058824,566.778431372549,497.741176470588,1882.90196078431,1914.87254901961,0
822.5792,0.722817453205465,-1.1250022447041,-0.424856031318126,0.666171343896252,-1.0562280063623,-1.0562280063628,,-1.0798161221505,-0.253977064819107,-2.23918185675315,-2.49510591264078,-2.23918185675223,0.0799919106525451,-0.829538617650309,-0.402238426663258,,0.329561553533272,-0.53703265883516,-1.28608287291421,0.848999341701177,-1.28608287291133,0.943674496196443,,,0.472233121442387,-0.969683651080416,,,-0.881753694990842,1.254235461127,-2.05207640376032,-0.659493413975533,-1.80394445942347,1.60379034583308,-0.605268227629116,1.03432075801809,-1.0682107435766,-0.240410010801113,-0.240410010801945,0.361051883923094,-0.232654709950283,0.111326472750068,-0.0146966389068676,-0.288159315250349,-0.493682362766077,-0.572113385274804,1.39736755474998,1.3973675547501,-0.121330708378707,1.16178110023672,,2.76480000000004,103,838.734466019418,532.268446601942,1907.90291262136,835.484466019418,841.984466019417,569.01359223301,495.523300970874,1891.46601941748,1924.33980582524,0
822.6816,0.772582127357229,-1.15629752726986,-0.396209119522278,0.681406938797106,-1.07934342549554,-1.07934342549601,,-1.09064922236833,-0.245614872736691,-2.25225761159732,-2.51835818585377,-2.25225761159637,0.0986224929801656,-0.830353736457307,-0.378389352502008,,0.320640668517333,-0.503281668161415,-1.25957745306171,0.839991788194155,-1.25957745305883,0.93911751755948,,,0.457940926017354,-0.992484841042982,,,-0.937813081705474,1.23350535110273,-2.04032083103417,-0.691017465228859,-1.80433400489981,1.58975664547961,-0.606158547609374,1.02059332657571,-1.05650187329572,-0.260066110378855,-0.260066110379694,0.391991677055923,-0.252941969427311,0.120403444769384,-0.00413087328091395,-0.306228512814343,-0.505676467157197,-0.599866896696424,1.37964358127539,1.37964358127549,-0.122001479794018,1.18390583463204,,2.86720000000003,102,836.035294117647,532.125980392157,1911.69117647059,831.687254901961,840.383333333333,565.943137254902,498.308823529412,1897.83333333333,1925.54901960784,0
822.784,0.820692848388336,-1.1869133096777,-0.36896662067698,0.695846419121151,-1.10221980953209,-1.10221980953253,,-1.1017192552492,-0.236868169884748,-2.26452850511698,-2.54036437254982,-2.26452850511602,0.11732347556916,-0.83120053459766,-0.354467630291859,,0.311286654877039,-0.468030531085363,-1.23292978473179,0.829751770048953,-1.23292978472891,0.934153331460606,,,0.442013742107214,-1.01442936762776,,,-0.993161779390089,1.21268874628235,-2.02867264154872,-0.721857839197577,-1.80459978590284,1.57529899908184,-0.606972184379598,1.00652950185487,-1.04520959891762,-0.279923808765998,-0.279923808766831,0.422212357033546,-0.273238335507339,0.128634153063149,0.00803928823515112,-0.325418645689495,-0.516848183469162,-0.628011359967908,1.36065730023766,1.36065730023775,-0.121422857537633,1.2039455450171,,2.96960000000001,103,929.796601941748,537.846116504854,1902.73300970874,928.998058252427,930.595145631068,570.577669902913,505.114563106796,1899.06796116505,1906.39805825243,0
822.8864,0.867178955850242,-1.21687460744428,-0.343119879899782,0.70956069583919,-1.12488359854528,-1.12488359854569,,-1.1130192320883,-0.227752672083249,-2.27599340873085,-2.56109193781033,-2.27599340872987,0.136102987456118,-0.83211547423815,-0.33048491189344,,0.301471143255665,-0.431399553600465,-1.20613721167484,0.818291610704168,-1.20613721167195,0.928772378096594,,,0.424514948119936,-1.03556619028642,,,-1.04776232042663,1.19174828919022,-2.01711018894966,-0.751945874040868,-1.80470402938782,1.56041617373134,-0.607803189283861,0.992057038787061,-1.03426804461967,-0.300022739392409,-0.300022739393242,0.451709562317058,-0.293514212124524,0.136052657804198,0.0218281338109562,-0.345733776465061,-0.527180543823746,-0.656469581529866,1.34043157306605,1.34043157306611,-0.119527721286869,1.22183879601472,,3.072,102,927.247549019608,537.629411764706,1909.43137254902,925.511764705882,928.983333333333,569.469607843137,505.789215686275,1909.51960784314,1909.3431372549,0
822.9888,0.912073567915632,-1.24620969950212,-0.318659179936338,0.722619218030231,-1.14736247275145,-1.14736247275183,,-1.1245395258929,-0.218282899254602,-2.2866512405434,-2.5805084556071,-2.2866512405424,0.15496877405081,-0.83313702864794,-0.306454579108039,,0.291165987328593,-0.39351198694393,-1.179197127736,0.805627505677774,-1.17919712773311,0.922964949355435,,,0.40551138178943,-1.05594576370171,,,-1.1015816302913,1.17064626394896,-2.00561037223675,-0.781217670661179,-1.80460927233933,1.54510458584725,-0.608747790979145,0.977099859725627,-1.02360955875292,-0.320403336524036,-0.320403336524865,0.480481258099168,-0.313738526095334,0.142697670798212,0.0372434807999208,-0.367173230492255,-0.536659544812461,-0.68516373520018,1.31898996510814,1.31898996510819,-0.116252311363642,1.23753052619999,,3.17439999999999,102,926.063725490196,536.041666666667,1916.44117647059,923.71862745098,928.408823529412,569.297058823529,502.786274509804,1912.66666666667,1920.21568627451,0
823.0912,0.955413450968754,-1.27494970496504,-0.29557338823155,0.735089378397257,-1.16968499647403,-1.16968499647439,,-1.13626797065874,-0.208472251270102,-2.29650101065685,-2.59858174836354,-2.29650101065583,0.1739281519895,-0.834305289753067,-0.282391562927407,,0.280343488194177,-0.354493405338301,-1.15210717061928,0.791779417962983,-1.15210717061638,0.916721336954072,,,0.385073088370357,-1.07561964202244,,,-1.15459090949843,1.14934488672696,-1.99414879896539,-0.809614003967492,-1.80427846235087,1.52935851414797,-0.609903661979664,0.961578807012134,-1.01316530637225,-0.341106449987558,-0.341106449988392,0.508527884222543,-0.333879055724959,0.148612292730525,0.0542868849873896,-0.389731680400493,-0.545273939763344,-0.714015559548978,1.2963566541871,1.29635665418713,-0.111536620819884,1.25097216381833,,3.27679999999998,103,926.633495145631,535.81359223301,1929.13106796117,925.67572815534,927.591262135922,570.376699029126,501.250485436893,1920.18446601942,1938.07766990291,0
823.1936,0.997238878104868,-1.30312815080389,-0.273849607732275,0.747035931078079,-1.1918802546775,-1.19188025467784,,-1.14818997806816,-0.198333137794701,-2.30554187528491,-2.61528006785162,-2.30554187528387,0.192987968372168,-0.835661552408714,-0.258312142831143,,0.268976616156475,-0.31447109418791,-1.1248653885415,0.776770994834865,-1.12486538853861,0.910032000959755,,,0.363273048311448,-1.09464009182577,,,-1.20676551003202,1.12780657544565,-1.98269996485508,-0.837080209341639,-1.80367506349333,1.51317032444284,-0.611369195939266,0.945412398420661,-1.00286588135943,-0.362172959704687,-0.362172959705527,0.535852505798134,-0.353902780976862,0.153843725043077,0.0729538563633198,-0.413399230206399,-0.553015019574045,-0.742946535471447,1.27255636606629,1.27255636606629,-0.105324772905468,1.26212173195211,,3.37919999999997,102,923.905392156863,532.777941176471,1946.45098039216,922.409803921569,925.400980392157,565.312745098039,500.243137254902,1932.20588235294,1960.69607843137,0
823.296,1.03759346572382,-1.33078053423736,-0.253472850950306,0.758520446770157,-1.21397748870256,-1.21397748870288,,-1.16028867513733,-0.187877155709719,-2.31377319119917,-2.6305723113154,-2.3137731911981,0.212154555110777,-0.837247883312102,-0.234233743089911,,0.257039222740564,-0.273573476704232,-1.097470388671,0.760629503306546,-1.0974703886681,0.90288775959795,,,0.340186890406724,-1.11305971457456,,,-1.25808480957065,1.10599421024954,-1.97123742886865,-0.863566033259601,-1.80276314775533,1.49653069602029,-0.613242813075047,0.928517562813508,-0.99264191684732,-0.383643395590595,-0.383643395591437,0.562460940708486,-0.373776226115577,0.158442964944945,0.0932340684294238,-0.438161497945143,-0.559876401810629,-0.771878049876431,1.24761434063305,1.24761434063303,-0.097565385466895,1.27094395456887,,3.48160000000007,103,923,533.073300970874,1947.42718446602,921.502912621359,924.497087378641,566.921359223301,499.225242718447,1934.82524271845,1960.02912621359,0
823.3984,1.07652398313293,-1.35794388499147,-0.234425750687726,0.769600824163331,-1.23600573886776,-1.23600573886806,,-1.17254506563348,-0.177115296559703,-2.32119456423202,-2.64442825833957,-2.32119456423093,0.231433675112438,-0.839106687077324,-0.210174738005247,,0.244506236692507,-0.231929600491304,-1.06992147517177,0.743385765849422,-1.06992147516887,0.895280002990888,,,0.315892598854319,-1.13093108179534,,,-1.30853208328575,1.08387139983006,-1.95973396518763,-0.889025443611573,-1.80150745618669,1.47942884570916,-0.615622299701292,0.910810347846891,-0.982424673522074,-0.405557559264683,-0.405557559265544,0.58836184842927,-0.393465778027721,0.162464487697484,0.11511156368838,-0.463999707064755,-0.565853840383977,-0.800731551090817,1.2215563247755,1.22155632477545,-0.08821192151985,1.27741036124613,,3.58400000000006,102,976.999509803922,531.978431372549,1948.20098039216,975.789215686275,978.209803921569,563.785294117647,500.171568627451,1937,1959.40196078431,0
823.5008,1.11408012504836,-1.38465633465354,-0.216688330283403,0.780330877129172,-1.25799350306108,-1.25799350306136,,-1.18493821417473,-0.166058157142977,-2.32780588447263,-2.65681881121434,-2.32780588447152,0.250830453351931,-0.84128028200886,-0.186154282821516,,0.231353841155851,-0.189668706517922,-1.04221878493239,0.725074091831931,-1.04221878492949,0.887200926308154,,,0.29047022293733,-1.14830638372825,,,-1.35809437149902,1.0614027719988,-1.94816166897915,-0.913416398932707,-1.79987341145025,1.4618527412998,-0.618604188191157,0.892206587217516,-0.972146577435283,-0.427954142468557,-0.427954142469422,0.613566771600299,-0.412937971392856,0.165965917902854,0.138564955542597,-0.490890793461869,-0.570945066633543,-0.829428696331863,1.19440858070747,1.1944085807074,-0.0772230173740455,1.28149937431218,,3.68640000000005,102,1011.89264705882,531.773529411765,1951.00490196078,1010.67450980392,1013.11078431373,561.901960784314,501.645098039216,1943.61764705882,1958.39215686275,0
823.6032,1.15031423711679,-1.41095669794686,-0.200237852912532,0.790760023987975,-1.27996841865331,-1.27996841865356,,-1.19744545210202,-0.154716128290417,-2.33360733986631,-2.6677162266947,-2.33360733986518,0.270349283333862,-0.843810492945537,-0.16219218722795,,0.217559634199934,-0.146919895723207,-1.01436342971925,0.70573221520311,-1.01436342971635,0.878643772621671,,,0.264001598265324,-1.16523708775758,,,-1.40676233887851,1.03855430472205,-1.93649199713672,-0.936700579844105,-1.79782706807917,1.44378928939393,-0.622283183007475,0.872622509296268,-0.961741673873303,-0.450870344629976,-0.450870344630847,0.63809012334868,-0.432159736847026,0.169007686776871,0.163567620011026,-0.518807527916948,-0.575149672305118,-0.857891487571697,1.1661979025745,1.16619790257441,-0.0645627839648721,1.28319636969392,,3.78880000000004,103,1026.16844660194,532.727184466019,1957.12621359223,1024.35048543689,1027.98640776699,565.135922330097,500.318446601942,1948.55339805825,1965.69902912621,0
823.7056,1.18528099887489,-1.43688406459757,-0.185048742245283,0.800933097708803,-1.30195696876984,-1.30195696877006,,-1.21004260225771,-0.143099551289087,-2.3385994059082,-2.67709433889636,-2.33859940590705,0.289993709320058,-0.846738260753052,-0.138308830702296,,0.203102777330348,-0.103811884400572,-0.986357645718784,0.685401246722029,-0.986357645715888,0.869603076344893,,,0.236570082684725,-1.18177360359192,,,-1.45453011670873,1.0152936951942,-1.92469574984133,-0.958843094513716,-1.79533500859586,1.42522448738252,-0.62675162936238,0.851975280167939,-0.951145984245177,-0.474341498299482,-0.474341498300367,0.661949118111841,-0.451098615149975,0.171652668813526,0.190087876693058,-0.547718652672938,-0.578469033319015,-0.886042392117747,1.13695164688683,1.13695164688671,-0.0502010864086075,1.28249372162574,,3.89120000000003,102,1213.59803921569,533.316176470588,1943.4362745098,1208.98235294118,1218.2137254902,562.400980392157,504.23137254902,1944.80392156863,1942.06862745098,0
823.808,1.21903708291054,-1.46247739884642,-0.171092545165676,0.810890266957958,-1.32398421000647,-1.32398421000666,,-1.22270421272302,-0.131218848417783,-2.34278282007963,-2.68492878411299,-2.34278282007846,0.309766300553331,-0.850103264534234,-0.114525096083208,,0.187964132974564,-0.0604728168351759,-0.95820494024552,0.66412563730356,-0.958204940242625,0.860074904005285,,,0.208260297503611,-1.19796495835439,,,-1.50139512270907,0.991590741573168,-1.91274302535022,-0.979812177541578,-1.79236421671206,1.40614354230527,-0.632099014717679,0.830183491037608,-0.94029778840994,-0.49840070899152,-0.498400708992419,0.685163651272314,-0.46972294563227,0.173965793063791,0.218089167587282,-0.57758903110338,-0.580906258402457,-0.913804445786316,1.10669778819808,1.10669778819794,-0.0341138053639699,1.27939084601083,,3.99360000000002,103,1182.95048543689,534.378640776699,1954.68932038835,1176.79417475728,1189.10679611651,562.401941747573,506.355339805825,1957.15533980583,1952.22330097087,0
823.9104,1.25164080713422,-1.48777514761945,-0.158337914752127,0.820667034994503,-1.34607352017278,-1.34607352017294,,-1.23540378715804,-0.119084640406792,-2.34615855344538,-2.69119723979416,-2.3461585534442,0.329668536798557,-0.853943555422309,-0.090862295429056,,0.172126386800378,-0.0170301062569295,-0.929910223896571,0.641953142653163,-0.929910223893678,0.850057092841666,,,0.179157857869159,-1.21385848828741,,,-1.54735786243494,0.967417707663099,-1.90060317930128,-0.999578898753674,-1.78888195706749,1.38653096612971,-0.638411497876274,0.807167602844668,-0.929137869068019,-0.523078509913124,-0.523078509914037,0.707756133975635,-0.488002034985317,0.17601362840615,0.247530238753065,-0.608379805917206,-0.582466146935837,-0.941101338803232,1.07546500409721,1.07546500409706,-0.0162830769284745,1.27389424579845,,4.096,102,979.278921568628,536.991176470588,1990.73529411765,977.639215686274,980.91862745098,570.761764705882,503.220588235294,1986.79411764706,1994.67647058824,0
824.0128,1.28315178623126,-1.51281486135885,-0.146750610255262,0.830294290860874,-1.36824636618144,-1.36824636618157,,-1.24811400667956,-0.106707856388162,-2.34872778442906,-2.6958796796685,-2.34872778442786,0.349700712018251,-0.858295204964786,-0.0673420810915371,,0.155574151225403,0.0263897042450063,-0.901479922891966,0.618934782956772,-0.901479922889077,0.83954948480913,,,0.149349083783054,-1.22949955144781,,,-1.59242171922212,0.942749655802269,-1.88824479603318,-1.01811688645808,-1.78485566875163,1.36637065441897,-0.645771467668038,0.782850353052773,-0.917609739224892,-0.548402531606885,-0.548402531607826,0.729751287194713,-0.505906306614951,0.177863947230691,0.278365322011693,-0.640048560413153,-0.583155151701613,-0.967857488539439,1.04328278201902,1.04328278201885,0.00330249376341712,1.26601754998118,,4.19839999999999,102,954.017156862745,567.346568627451,2002.76960784314,947.242156862745,960.792156862745,601.463725490196,533.229411764706,1998.92156862745,2006.61764705882,0
824.1152,1.31363058438133,-1.53763283102639,-0.136293515632059,0.839798407797201,-1.39052209081765,-1.39052209081773,,-1.26080694673932,-0.0940998329450538,-2.35049187269284,-2.69895863279625,-2.35049187269162,0.36986185213225,-0.863191971961381,-0.0439863496575167,,0.138294050420285,0.0696610597904137,-0.872922069545302,0.595124795910361,-0.872922069542415,0.828554150828188,,,0.118920697104749,-1.24493126218095,,,-1.63659273400473,0.917564749325801,-1.8756356633833,-1.03540206087597,-1.78025286463394,1.34564595402447,-0.654257132523229,0.757157128881111,-0.905659854086841,-0.574397188998683,-0.574397188999656,0.751175902703849,-0.523407429081635,0.179585278379113,0.31054431662693,-0.672549483747288,-0.582981348204649,-0.993998106480406,1.01018153484656,1.01018153484638,0.0246476496207982,1.25578153356234,,4.30079999999998,103,641.51213592233,1207.87766990291,2015.22815533981,631.049514563107,651.974757281553,1247.86310679612,1167.89223300971,2020.58252427184,2009.87378640777,0
824.2176,1.3431383756682,-1.5622637420232,-0.126926668805258,0.849201391789736,-1.41291771413729,-1.41291771413735,,-1.27345429246544,-0.0812724024259676,-2.35145233274926,-2.70041942767932,-2.35145233274802,0.390149644558161,-0.868664987566226,-0.0208171416532424,,0.120274789828944,0.112659502669453,-0.844246367609869,0.570580578445104,-0.844246367606986,0.817075600676407,,,0.0879595158543923,-1.26019424613998,,,-1.67987937166519,0.891844528349969,-1.86274274864621,-1.05141237449745,-1.7750410337046,1.3243397289454,-0.663942133790061,0.7300163208809,-0.893237800943813,-0.60108338527354,-0.601083385274532,0.772058581479313,-0.540478423434328,0.181246461796011,0.344012978247991,-0.705833545714819,-0.581954407503389,-1.01944926626009,0.976192716003745,0.976192716003565,0.0477503343067622,1.24321410941622,,4.40319999999997,102,623.482843137255,1281.31862745098,2017.69607843137,600.944117647059,646.021568627451,1312.81862745098,1249.81862745098,2018.05882352941,2017.33333333333,0
824.32,1.37173662451781,-1.58674034368515,-0.118607283132067,0.858521079617752,-1.43544774302106,-1.43544774302109,,-1.28602754945741,-0.0682379858718882,-2.35161081277415,-2.70025040710354,-2.35161081277288,0.410560386398047,-0.874742453657896,0.00214347501349608,,0.101507215835925,0.155261802543666,-0.815464229411791,0.545362606327396,-0.815464229408912,0.805120972050683,,,0.0565521499444696,-1.27532641500244,,,-1.72229227033771,0.865574151360073,-1.84953219360696,-1.06612756449779,-1.76918756198499,1.30243443389086,-0.674895169902617,0.701359675474868,-0.880296460514221,-0.628478229019969,-0.628478229020992,0.792429454130693,-0.557093749483093,0.18291621017312,0.378713122301795,-0.739848680434223,-0.58008555969128,-1.04413797719976,0.94134893357348,0.941348933573299,0.0726015832436049,1.22835029168932,,4.50560000000007,103,618.213106796117,1281.4427184466,2026.11650485437,577.590291262136,658.835922330097,1311.28155339806,1251.60388349515,2028.91262135922,2023.32038834951,0
824.4224,1.39948679947889,-1.6110931342936,-0.111289742839987,0.867771381131732,-1.45812398393048,-1.45812398393048,,-1.29849824408544,-0.0550097131624129,-2.35096908578466,-2.69844310882774,-2.35096908578338,0.431088962636239,-0.881449350383772,0.0248735552259849,,0.0819843726122416,0.197346139522378,-0.786588784022039,0.519534319966219,-0.786588784019167,0.792700188711222,,,0.0247846918121762,-1.29036276248296,,,-1.76384397347577,0.838742585943849,-1.83596935906943,-1.07952892953921,-1.76265969952402,1.27991219915061,-0.687179623882983,0.671122655495476,-0.86679213792015,-0.65659476590541,-0.656594765906468,0.812319883632899,-0.573229372118377,0.184662676435094,0.414582843584809,-0.774539971273571,-0.577387532660538,-1.0679922668901,0.905684068115856,0.905684068115672,0.0991854523150439,1.2112321357221,,4.60800000000006,102,612.378921568628,1282.47009803922,2042.74509803922,564.679411764706,660.078431372549,1310.92549019608,1254.01470588235,2044.6568627451,2040.83333333333,0
824.5248,1.42645012664805,-1.63535006395221,-0.104925566779815,0.876962560741176,-1.48095535802115,-1.48095535802112,,-1.31083810967418,-0.0416015802482411,-2.34952905490961,-2.69499241382901,-2.34952905490831,0.451728859820541,-0.88880715479318,0.0473514664277696,,0.0617015596589892,0.238792352059446,-0.757634856790625,0.493161970513151,-0.757634856787758,0.779826080763172,,,-0.0072576054390837,-1.30533518472192,,,-1.80454864908315,0.811342737181135,-1.8220189390214,-1.09159914113728,-1.75542459231227,1.2567549231407,-0.700853199128273,0.6392448015997,-0.85268466893088,-0.685441730938936,-0.685441730940025,0.831762156042979,-0.588862810749645,0.186553029599547,0.451556752020133,-0.80984983375927,-0.573874460894689,-1.09094127571433,0.86923339583624,0.869233395836052,0.127478984226893,1.1919086568239,,4.71040000000005,102,610.879411764706,1277.51470588235,2046.70098039216,561.806862745098,659.951960784314,1313.00980392157,1242.01960784314,2053.74509803922,2039.6568627451,0
824.6272,1.45268737929356,-1.65953625846539,-0.0994633491303715,0.886101558429995,-1.50394772003195,-1.5039477200319,,-1.32301925620809,-0.0280286357616304,-2.34729276629685,-2.68989666439165,-2.34729276629553,0.472472212239304,-0.896833578051506,0.069556109507162,,0.0406563881711557,0.279482238451346,-0.728618919639476,0.466314426724392,-0.728618919636612,0.766514468321482,,,-0.0394906643909904,-1.32027232781451,,,-1.84442180028471,0.783371512462221,-1.80764514328966,-1.10232209174779,-1.74744937887272,1.23294436388078,-0.715967577251245,0.605670076018472,-0.837937510282005,-0.715023323865268,-0.715023323866387,0.850789170197112,-0.603973174658893,0.188653048071552,0.489566225859635,-0.845718200801949,-0.56956176923863,-1.11291536380292,0.832033712213269,0.832033712213083,0.157452213334883,1.17043572661702,,4.81280000000004,103,612.960679611651,1272.68737864078,2048.90776699029,564.157281553398,661.764077669903,1307.26213592233,1238.11262135922,2059.50485436893,2038.31067961165,0
824.7296,1.47825869550729,-1.68367376738233,-0.0948486921713884,0.895192353472714,-1.52710368278307,-1.527103682783,,-1.33501432096161,-0.0143071813967998,-2.34426242015438,-2.68315775094934,-2.34426242015304,0.493309874735735,-0.905542330253845,0.0914671576312832,,0.0188488322567767,0.319299891255247,-0.699559011885347,0.439062945649552,-0.699559011882484,0.752784212350508,,,-0.0718319341461638,-1.33519946475189,,,-1.88347996742451,0.754829824912443,-1.79281193363855,-1.11168277704772,-1.73870133900237,1.20846221955678,-0.732568110953602,0.570347169670131,-0.822517817795026,-0.745339005223346,-0.7453390052245,0.869434134679759,-0.618541186705744,0.191026736771286,0.52853968040191,-0.882082711177482,-0.564466036358948,-1.13384622853747,0.794123447985443,0.794123447985258,0.189068206429427,1.14687594739276,,4.91520000000003,102,626.363725490196,1278.55931372549,2052.58333333333,581.222549019608,671.504901960784,1314.20294117647,1242.91568627451,2063.12745098039,2042.03921568627,0
824.832,1.50322341735699,-1.70778133958003,-0.0910241442630204,0.904236368861018,-1.55042245113071,-1.55042245113063,,-1.34679660019948,-0.000454969337767991,-2.34044037553099,-2.67478116411702,-2.34044037552963,0.514231517275431,-0.914942919343824,0.11306530267265,,-0.00371872897927469,0.358132049094733,-0.670474633079121,0.411480911276146,-0.670474633076265,0.738657234644295,,,-0.104200753100493,-1.35013840283992,,,-1.92174042328184,0.725722539902842,-1.77748329417752,-1.11966720980656,-1.72914807892113,1.1832901934711,-0.750693556618343,0.533229764725389,-0.806396507476436,-0.77638331312647,-0.776383313127659,0.8877302749741,-0.632549200148774,0.193735965171632,0.568402844751178,-0.918878894165352,-0.558604838670906,-1.1536670313327,0.755542771380878,0.755542771380694,0.222283134469229,1.12129850763117,,5.01760000000002,103,772.89854368932,1372.04660194175,2034.34951456311,722.490291262136,823.306796116505,1410.13786407767,1333.95533980583,2043.00970873786,2025.68932038835,0
824.9344,1.52763994850198,-1.73187422934528,-0.087929150888064,0.913232902672172,-1.57389967195914,-1.57389967195904,,-1.3583401664199,0.0135086146943109,-2.33582915188902,-2.66477600917479,-2.33582915188764,0.535225737169424,-0.925040486583382,0.134332502379213,,-0.0270414827502576,0.395868459631172,-0.641386607941247,0.383643546336181,-0.641386607938395,0.724158509218838,,,-0.136518714128464,-1.36510741990416,,,-1.95922086920602,0.696058376283201,-1.76162351923396,-1.12626236259626,-1.71875773882929,1.1574100485049,-0.770375842503673,0.494276760502998,-0.789548290908871,-0.808145706039144,-0.808145706040371,0.905710550672904,-0.645981213540426,0.196840119553009,0.609079039483019,-0.956040344167176,-0.551996576445809,-1.17231253568131,0.716333674855797,0.716333674855622,0.257046373955951,1.09377902025288,,5.12000000000001,102,754.280882352941,1368.09558823529,2040.97058823529,695.369607843137,813.192156862745,1404.71568627451,1331.47549019608,2053.19607843137,2028.74509803922,0
825.0368,1.55156562819461,-1.75596403435353,-0.0855000233451815,0.922179560925916,-1.59752730609273,-1.59752730609262,,-1.3696199748937,0.0275623850751241,-2.33043143195878,-2.65315498356909,-2.33043143195739,0.556280183440638,-0.935835677675843,0.155252221632722,,-0.0511121710740174,0.432402249732206,-0.612316920478879,0.355627601445925,-0.612316920476039,0.709316026214055,,,-0.168710018489991,-1.38012122522478,,,-1.99593914073844,0.665849776891404,-1.74519750769684,-1.13145613352304,-1.70749921251495,1.13080366417227,-0.791639865870995,0.453452479903887,-0.771951679678326,-0.840610435908869,-0.840610435910124,0.923407380026543,-0.658822881199607,0.200395769615209,0.650489452072802,-0.993498885139881,-0.544660287019295,-1.18971926013323,0.676540047533434,0.676540047533271,0.293300640290826,1.06439934357679,,5.22239999999999,102,740.591666666667,1369.46225490196,2059.47549019608,679.012745098039,802.170588235294,1402.69215686275,1336.23235294118,2069.43137254902,2049.51960784314,0
825.1392,1.57505661786403,-1.78005856559354,-0.0836699303441618,0.931072667358565,-1.62129352452393,-1.62129352452381,,-1.38061195722944,0.0416832076036322,-2.32425006557634,-2.63993432248891,-2.32425006557493,0.577381684972952,-0.947324547780731,0.175809657945555,,-0.075921098464913,0.467630292922671,-0.583288518564763,0.327511025996515,-0.583288518561935,0.694160726992501,,,-0.20070180772029,-1.39519094126071,,,-2.03191292578796,0.635112756730161,-1.72817105721296,-1.13523732628171,-1.69534237119712,1.10345310893648,-0.814503317396564,0.410726869417134,-0.753588959951185,-0.873756451813403,-0.873756451814691,0.940852366072629,-0.671061505975731,0.204456360331142,0.69255340853914,-1.03118472654664,-0.536615450429685,-1.2058256470725,0.636207734196059,0.636207734195902,0.330982152384343,1.0332473864515,,5.32479999999998,103,737.725242718447,1369.08106796117,2060.60679611651,677.684466019418,797.766019417476,1405.25242718447,1332.90970873786,2079.07766990291,2042.1359223301,0
825.2416,1.59816779457072,-1.80416174903392,-0.0823689200403202,0.939907639149464,-1.64518262909966,-1.64518262909954,,-1.39129309745083,0.0558458732433655,-2.31728807111426,-2.62513371980691,-2.31728807111283,0.598516373486766,-0.959498500136274,0.195991939665284,,-0.101456157808502,0.501453561032313,-0.554325102281318,0.299372629748944,-0.5543251022785,0.678726410648638,,,-0.232424468156614,-1.41032410360247,,,-2.06715949612331,0.603866731079974,-1.7105111525641,-1.13759563789626,-1.68225828515624,1.0753407337477,-0.838976537213627,0.366075694955475,-0.734446143123841,-0.907557333189051,-0.90755733319037,0.958076020827438,-0.682685999990407,0.209071943879016,0.735188639656965,-1.06902661198494,-0.527881792091264,-1.22057224437686,0.595384578920652,0.595384578920509,0.370020824772242,1.00041689771242,,5.42719999999997,102,731.282352941177,1368.28137254902,2077.61274509804,671.949019607843,790.61568627451,1406.74607843137,1329.81666666667,2100.12745098039,2055.09803921569,0
825.344,1.62095264551773,-1.82827355882945,-0.0815239801876182,0.948679325603235,-1.66917499840316,-1.66917499840303,,-1.40164149209329,0.0700229964966921,-2.30954863314366,-2.60877622911606,-2.30954863314222,0.619669794599393,-0.972344258987824,0.215788287650295,,-0.127702870321958,0.53377745067097,-0.525450915982848,0.271291745596103,-0.52545091598004,0.663049612590927,,,-0.26381190593996,-1.42552467698593,,,-2.10169545682406,0.572134324569011,-1.69218624200422,-1.13852165205098,-1.66821943765412,1.04644928749616,-0.865062407417656,0.319480730512582,-0.714512900404414,-0.941981254062138,-0.941981254063486,0.975107493904666,-0.693686813116656,0.21428895935486,0.778311538486101,-1.10695196104552,-0.518479088776205,-1.2339018971285,0.554120448789691,0.55412044878956,0.410340486361154,0.966007235796822,,5.52960000000007,103,781.731553398058,1364.77330097087,2096.95631067961,722.64854368932,840.814563106796,1403.42038834951,1326.12621359223,2114.41747572816,2079.49514563107,0
825.4464,1.64346315978436,-1.85238998225315,-0.0810591418752149,0.95738230523799,-1.69324706243385,-1.69324706243372,,-1.41163640245097,0.0841849396722428,-2.30103509642705,-2.59088814570034,-2.30103509642559,0.640827002039018,-0.985843878213726,0.235190133121935,,-0.154644436386814,0.564512076672651,-0.496690556150022,0.243347898200931,-0.496690556147225,0.647169452410749,,,-0.294801790508856,-1.4407930851861,,,-2.1355365194738,0.539941162214447,-1.67316649344059,-1.13800683846352,-1.6531999249383,1.01676205221879,-0.892756283086562,0.270929936080009,-0.693782487432192,-0.97699098357897,-0.976990983580347,0.991974319169363,-0.704055843862657,0.220150056664934,0.821837401733609,-1.14488700215863,-0.508426986600665,-1.2457599497113,0.512467232936529,0.512467232936411,0.451859128181745,0.930123113776564,,5.63200000000006,102,803.471981815292,1246.15064164834,2107.10572982729,754.096740757372,852.847222873213,1271.25235743152,1221.04892586517,2117.15704984284,2097.05440981173,0
825.5488,1.66574971586461,-1.87650301624991,-0.0808956286512258,0.966011142403062,-1.71737131060154,-1.7173713106014,,-1.42125830596594,0.0982997729440818,-2.29175095385935,-2.57149886736363,-2.29175095385788,0.661972630688943,-0.999974788648201,0.25419118421099,,-0.182261796703474,0.593572525530918,-0.468068792465749,0.215620475376355,-0.468068792462963,0.631127447895974,,,-0.325335762585635,-1.45612625292698,,,-2.16869729752506,0.507315643351458,-1.65342402056637,-1.136043560221,-1.63717563518348,0.98626299315844,-0.922045960600013,0.220417621183897,-0.672251659330848,-1.01254392867877,-1.01254392868016,1.0087021882569,-0.713786346795565,0.226693956156877,0.865680647884226,-1.18275689332275,-0.497744837620694,-1.25609446116158,0.470478813609299,0.470478813609192,0.49448918425697,0.892874316928329,,5.73440000000005,102,862.929467245522,927.044502904413,2105.74356391229,827.714312977099,898.144621513944,954.964503816794,899.124501992032,2109.52099236641,2101.96613545817,0.598039215686275
825.6512,1.68786096454624,-1.90060069185038,-0.0809520469490009,0.974560616689453,-1.74151633186335,-1.74151633186319,,-1.43048894552427,0.112333284906423,-2.28169982516245,-2.55064072911412,-2.28169982516097,0.683090946429679,-1.01470988521322,0.272787437863089,,-0.21053370024275,0.620879074358316,-0.439610390459968,0.188188392489173,-0.439610390457192,0.614967294115227,,,-0.355359601954492,-1.47151765701735,,,-2.20119111481364,0.474288698746514,-1.63293307340983,-1.13262509253672,-1.62012440309548,0.954936918417031,-0.952911675846394,0.167944594752639,-0.649920571026052,-1.0485922184392,-1.04859221844062,1.02531474701178,-0.72287283623705,0.233955339767633,0.909755016644906,-1.22048583515399,-0.486451554763747,-1.26485643602774,0.428211007328566,0.428211007328469,0.538137852810392,0.854375389227346,,5.83680000000004,103,918.791040735893,624.262089860376,2106.39924309285,897.417694360039,940.164387111747,655.212428666716,593.311751054036,2103.47902616171,2109.31946002398,0
825.7536,1.70984370601579,-1.92466711886666,-0.0811446098313569,0.98302593623257,-1.76564687858863,-1.76564687858846,,-1.43931136733311,0.12624905111761,-2.27088542762978,-2.52834880648915,-2.27088542762827,0.704165875983156,-1.0300176486172,0.290977144492965,,-0.239436769254709,0.64635739718131,-0.411339923701664,0.161129736466738,-0.411339923698903,0.598734603878324,,,-0.384823356255866,-1.4869573825081,,,-2.23302981856917,0.440893527958545,-1.6116701980851,-1.12774565804525,-1.60202614547115,0.922769644962191,-0.98532611962096,0.113518307898824,-0.626792658318649,-1.08508282272479,-1.08508282272624,1.04183340135558,-0.731310972645602,0.241964775994489,0.953973764690227,-1.2579971886589,-0.474565480561029,-1.27200006997257,0.385721476987732,0.385721476987643,0.582707465827425,0.81474528316577,,5.93920000000003,102,936.034803921569,565.625490196079,2174.91176470588,920.863725490196,951.205882352941,597.326470588235,533.924509803922,2125.59803921569,2224.22549019608,0
825.856,1.73174275897569,-1.94868254481277,-0.0813873894760273,0.991402930285196,-1.78972394578606,-1.78972394578587,,-1.44770993730387,0.14000856293794,-2.25931154371872,-2.50466068737872,-2.2593115437172,0.725181022965772,-1.04586229324959,0.308760738612656,,-0.268945551044839,0.669938778172549,-0.383281568381645,0.134521379829332,-0.383281568378897,0.582476602213265,,,-0.413681440580109,-1.50243218071672,,,-2.26422359335878,0.407165311269832,-1.5896143769056,-1.12140048477914,-1.58286298830261,0.889748167673217,-1.01925446214663,0.0571529926322956,-0.602874501454494,-1.12195769836689,-1.12195769836836,1.05827712206989,-0.739097419951049,0.250748682002601,0.998249867559482,-1.29521360689325,-0.462104268345879,-1.27748300736433,0.343069618850014,0.343069618849939,0.628095909534499,0.774106967161395,,6.04160000000002,103,936.30145631068,569.028155339806,2137.38834951456,924.508737864078,948.094174757282,601.817475728155,536.238834951456,2122.06796116505,2152.70873786408,0
825.9584,1.75360081919926,-1.97262342581333,-0.081592599109008,0.99968821011875,-1.81370486287119,-1.81370486287098,,-1.45567033228959,0.153571424700054,-2.24698198826929,-2.47961621972237,-2.24698198826775,0.746119672198243,-1.06220393562957,0.326140741556554,,-0.299032551965031,0.691560332021963,-0.355458878236921,0.108438567309585,-0.355458878234194,0.566241772743965,,,-0.441892716299353,-1.51792552852451,,,-2.29478077918423,0.37314089515468,-1.56674715817352,-1.11358589026153,-1.56261939374704,0.855860825512902,-1.05465438979849,-0.00113021132585731,-0.578175677799189,-1.15915396278502,-1.1591539627865,1.07466225189088,-0.746229678922974,0.260329320092385,1.0424962271202,-1.33205718270314,-0.449084780462111,-1.28126660722111,0.300316427940986,0.300316427940922,0.674197089157858,0.732586987987758,,6.14400000000001,102,1004.27941176471,544.73137254902,2118.23529411765,993.71862745098,1014.84019607843,577.58137254902,511.88137254902,2118.01960784314,2118.45098039216,0
826.0608,1.77545830617364,-1.99646250858734,-0.0816709050829561,1.00787929388966,-1.83754339895203,-1.8375433989518,,-1.46317950919435,0.166895629482872,-2.23390057533702,-2.45325724727833,-2.23390057533548,0.766964777871907,-1.0789987809267,0.343121632069183,,-0.329668255777553,0.711165218096813,-0.327894540826132,0.0829544896861351,-0.327894540823421,0.550079465683763,,,-0.469420547232017,-1.53341768985583,,,-2.32470770295605,0.338858459480502,-1.54305278034889,-1.1042993896371,-1.54128229000631,0.821097458827369,-1.09147616306877,-0.0613031540389425,-0.552708609412992,-1.19660409942078,-1.19660409942226,1.09100233202687,-0.752705919252684,0.270724818399483,1.08662588297119,-1.36844961333099,-0.435523007442688,-1.28331621099788,0.257524342140467,0.257524342140418,0.720901423763981,0.690314992141643,,6.24639999999999,102,1010.75098039216,541.170588235294,2113.55882352941,999.776470588235,1021.72549019608,573.267647058824,509.073529411765,2116.69607843137,2110.42156862745,0
826.1632,1.79735319960452,-2.02016892448913,-0.0815317679117982,1.01597469454507,-1.86118988429683,-1.86118988429659,,-1.47022565865945,0.179937909769089,-2.22007108476082,-2.4256273448279,-2.22007108475926,0.787698930432749,-1.09619932681898,0.359709678489081,,-0.360821132677045,0.728702836709289,-0.30061012134359,0.0581398641829678,-0.300610121340899,0.534039484075198,,,-0.496232825316522,-1.54888578153602,,,-2.35400853256108,0.304357178694576,-1.5185182906734,-1.09353982255943,-1.51884120257089,0.78544955670783,-1.12966270421451,-0.123330604533432,-0.526488406457376,-1.23423619726641,-1.23423619726789,1.10730797104888,-0.758524839086395,0.281949204465966,1.13055222788492,-1.40431237914628,-0.421434003530442,-1.28360140181081,0.214757063122109,0.214757063122081,0.768096357554102,0.647423215170149,,6.34879999999998,103,1011.11941747573,549.293203883495,1972.79611650485,1000.43398058252,1021.80485436893,582.549514563107,516.036893203884,1970.79611650485,1974.79611650485,0
826.2656,1.81932087106556,-2.0437083007068,-0.0810838114506533,1.0239739674015,-1.88459135274044,-1.88459135274018,,-1.47679815170734,0.192654143001693,-2.20549723023902,-2.39677155910693,-2.20549723023745,0.808304301955717,-1.11375458546034,0.375912731759723,,-0.392457644917275,0.744129004081665,-0.273625807793512,0.0340625385658376,-0.273625807790841,0.518171663997711,,,-0.522301957862012,-1.56430384720937,,,-2.38268515946893,0.269676888835765,-1.49313365280323,-1.08130749354151,-1.49528838096457,0.748910399865399,-1.16914972009968,-0.187170210757037,-0.499532702378575,-1.27197422144081,-1.2719742214423,1.12358677554011,-0.763685573452184,0.294012445828951,1.17418922336374,-1.43956692592673,-0.406831827794465,-1.28209624438208,0.172079353136406,0.172079353136398,0.815666881403986,0.604045947385674,,6.45119999999997,102,863.739705882353,583.189705882353,1765,848.988235294118,878.491176470588,619.123529411765,547.255882352941,1747.59803921569,1782.40196078431,0
826.368,1.84139391671245,-2.06704289387185,-0.0802352187336702,1.0318777149359,-1.90769170918028,-1.90769170918001,,-1.48288748547333,0.204999792881421,-2.19018263300635,-2.36673615482776,-2.19018263300478,0.828762574973068,-1.13161032321699,0.391739985962568,,-0.424542250306624,0.757406112375279,-0.246960172059219,0.0107871270313504,-0.246960172056568,0.502525459268968,,,-0.547604809273364,-1.57964294219497,,,-2.41073711525752,0.234857772186133,-1.46689183566097,-1.06760432211224,-1.47061891379127,0.71147520745209,-1.20986585898791,-0.252772481530755,-0.471861474082125,-1.3097383060375,-1.309738306039,1.13984335074897,-0.768187658651822,0.306920497844875,1.21745160792598,-1.47413483829821,-0.39172948284491,-1.27877949952003,0.129556809883868,0.129556809883878,0.863496062669281,0.560318980847998,,6.55360000000007,103,685.098058252427,611.272815533981,1626.72815533981,672.763106796117,697.433009708738,649.833009708738,572.712621359223,1593.8640776699,1659.59223300971,0
826.4704,1.86360199362002,-2.09013174523393,-0.078894149917641,1.03968755037869,-1.93043191974717,-1.93043191974689,,-1.48848522756214,0.216930380463503,-2.1741308068008,-2.33556835941539,-2.17413080679922,0.849054861769765,-1.14970931273999,0.407201718855731,,-0.457037398897237,0.768503289601144,-0.220629953999536,-0.0116253265361119,-0.220629953996905,0.487149534075856,,,-0.572122597857231,-1.59487122900231,,,-2.43816152495541,0.199940067237157,-1.43978888018697,-1.05243400203538,-1.44483082926423,0.673141292600845,-1.25173289170323,-0.320080778811502,-0.443496840796683,-1.34744505612918,-1.34744505613069,1.15607936763034,-0.772031047864044,0.320675360838243,1.26025509204755,-1.50793799600559,-0.376138847607009,-1.27363481021227,0.0872556231452258,0.0872556231452577,0.911465581759739,0.516379038018164,,6.65600000000006,102,682.40931372549,607.159803921569,1563.19607843137,668.550980392157,696.267647058824,645.147058823529,569.172549019608,1523.12745098039,1603.26470588235,0
826.5728,1.8859716573741,-2.11293085064633,-0.0769691770906513,1.0474060230637,-1.95275021474375,-1.95275021474346,,-1.49358395349956,0.228401985693287,-2.15734515747616,-2.30331610061733,-2.15734515747458,0.869161618549979,-1.16799158671872,0.422309024683222,,-0.489903514651431,0.777396571224277,-0.194649873094023,-0.0331176658732333,-0.194649873091414,0.472091362174261,,,-0.595840762259526,-1.60995408127651,,,-2.46495309071003,0.164963802708927,-1.41182394466235,-1.03580216757764,-1.41792518113102,0.63390822476,-1.29466590697018,-0.38903131435323,-0.414462838539041,-1.38500784700091,-1.38500784700243,1.17229368533112,-0.775216167132666,0.335275148189488,1.30251653577774,-1.54089870730737,-0.360070601429082,-1.26665085321575,0.0452423129470726,0.0452423129471284,0.959456277555251,0.472363176476839,,6.75840000000005,102,1165.89166666667,506.579901960784,1477.36764705882,1150.13039215686,1181.65294117647,542.463725490196,470.696078431373,1458.96078431373,1495.77450980392,0
826.6752,1.9085261948353,-2.13539333667674,-0.0743697333513498,1.05503651039203,-1.97458229256761,-1.97458229256732,,-1.49817717295281,0.239371768839371,-2.13982899464016,-2.27002773626742,-2.13982899463856,0.889062552536796,-1.18639468076533,0.437073544389044,,-0.523098954060335,0.78406908005135,-0.169032481114516,-0.0536369180193928,-0.169032481111929,0.457396830165451,,,-0.618748816175687,-1.62485419441309,,,-2.49110408982877,0.129968550071517,-1.38299932520005,-1.01771655336396,-1.38990611324562,0.593777995689751,-1.33857351869188,-0.459553151986194,-0.384785170208067,-1.42233711341622,-1.42233711341775,1.18848251210622,-0.777743993902319,0.350714169201959,1.34415410897481,-1.57293981805695,-0.343534137273497,-1.25782144718284,0.00358344281466821,0.00358344281474623,1.00734870661145,0.428408161411305,,6.86080000000004,103,1375.01116504854,462.945631067961,1401.5,1372.03009708738,1377.99223300971,493.823300970874,432.067961165049,1405.11650485437,1397.88349514563,0
826.7776,1.93128544506666,-2.15746963441021,-0.0710065751432252,1.06258308725285,-1.9958615158819,-1.99586151588159,,-1.50225924600768,0.249798480838905,-2.12158554833605,-2.23575177740842,-2.12158554833445,0.908736516203507,-1.20485385463076,0.451507192251933,,-0.556579937545424,0.788511200065428,-0.143788079821479,-0.0731345538088087,-0.143788079818915,0.443109842661274,,,-0.640840199826871,-1.63953170171756,,,-2.5166043706619,0.0949931924805059,-1.35332044233722,-0.998187122564867,-1.36078088803017,0.552755189972948,-1.3833580892739,-0.531568217826681,-0.354490933955348,-1.45934062295824,-1.45934062295978,1.20463958167373,-0.779616131442966,0.366983035313565,1.38508744120806,-1.60398480417163,-0.326537464903301,-1.24714561402843,-0.0376547010071761,-0.0376547010070691,1.05502371748713,0.384649802584938,,6.96320000000003,102,1373.50980392157,457.192156862745,1347.24509803922,1376.16274509804,1370.8568627451,490.18137254902,424.202941176471,1352.75490196078,1341.73529411765,0
826.88,1.95426560445555,-2.17910764558333,-0.0667922565356479,1.07005038720412,-2.01651909694944,-2.01651909694913,,-1.50582529527237,0.259642925894584,-2.10261798483207,-2.20053660501562,-2.10261798483046,0.928161386840456,-1.22330228723392,0.465621879353986,,-0.59030045737438,0.790720730834897,-0.118924724387275,-0.0915666985123344,-0.118924724384735,0.429271931236863,,,-0.662112126836861,-1.65394429538887,,,-2.54144133804286,0.0600757129301024,-1.32279578687148,-0.977226142717171,-1.3305598671803,0.510847161219865,-1.4289159730046,-0.604991320351829,-0.32360833720785,-1.4959237275742,-1.49592372757576,1.22075632246041,-0.780834852469942,0.384068798777945,1.42523777128389,-1.63395786220365,-0.309087111597947,-1.23462759942716,-0.0784064686062821,-0.078406468606153,1.10236303516542,0.341222262195018,,7.06560000000002,103,1272.75291262136,465.655339805825,1328.03398058252,1271.46213592233,1274.04368932039,496.638834951456,434.671844660194,1328.29126213592,1327.77669902913,0
826.9824,1.97747901891837,-2.20025290340811,-0.0616416144690884,1.07744346790838,-2.03648427773671,-2.0364842777364,,-1.50887111819538,0.268868358206679,-2.08292941936812,-2.16443018332102,-2.0829294193665,0.947313938167828,-1.24167125158146,0.479429238939664,,-0.624212175541669,0.790703010415559,-0.0944483131422444,-0.108894284358001,-0.0944483131397276,0.415921877657279,,,-0.682565424917621,-1.66804735413417,,,-2.56559993035408,0.0252530059652248,-1.29143682549826,-0.954848206680447,-1.29925644429072,0.468064210108451,-1.47513778343664,-0.679730186910808,-0.292166408737352,-1.53198959530376,-1.53198959530534,1.23682200388188,-0.781403095824513,0.401955126748387,1.46452810133872,-1.66278401343028,-0.291188037353241,-1.22027686195458,-0.118607235676068,-0.118607235675909,1.14924984404266,0.298257350642072,,7.16800000000001,102,995.148529411765,501.072549019608,1372.17156862745,989.296078431373,1001.00098039216,531.830392156863,470.314705882353,1354.29411764706,1390.04901960784,0
827.0848,2.00093397322572,-2.22084873864446,-0.0554722645124687,1.08476769217494,-2.05568451881136,-2.05568451881106,,-1.51139309783654,0.277440818627333,-2.06252292542276,-2.12747977772919,-2.06252292542114,0.966169715817615,-1.25989028446486,0.492940360021867,,-0.658264330332209,0.788470991149397,-0.0703627425654847,-0.125083142165099,-0.0703627425629875,0.403095366630918,,,-0.702204372644645,-1.68179408311216,,,-2.58906259693906,-0.00943928397462291,-1.25925787013989,-0.931070210296221,-1.26688693595486,0.424419756156218,-1.52190869254827,-0.755685530090776,-0.260194721840202,-1.56743943769226,-1.56743943769387,1.2528238489927,-0.781324409202103,0.420622507662059,1.50288335402638,-1.69038923443856,-0.272843588133876,-1.20410803826823,-0.158193803944677,-0.158193803944492,1.19556935143653,0.255883835107388,,7.2704,102,994.951470588235,497.499509803922,1413.35784313726,988.900980392157,1001.00196078431,527.910784313726,467.088235294118,1391.45098039216,1435.26470588235,0
827.1872,2.02463449081887,-2.24083646206166,-0.0482051028626181,1.09202863446936,-2.07404571051328,-2.07404571051298,,-1.51338810438791,0.285329427405096,-2.04140153969963,-2.08973168421209,-2.04140153969801,0.984702927289927,-1.27788736490643,0.506165534558642,,-0.692403667531831,0.784045257441215,-0.0466700997580088,-0.140104033737834,-0.0466700997555344,0.390824677374222,,,-0.721036534736346,-1.69513567190739,,,-2.61180928554498,-0.0439668959759223,-1.22627591366232,-0.905911299949368,-1.23347043745529,0.379930496584987,-1.56910876870687,-0.832751155422013,-0.227723138980287,-1.60217275281932,-1.60217275282094,1.26874710573814,-0.780602833305124,0.440048487023574,1.54023052841987,-1.71670062135001,-0.254055506048944,-1.18614088927456,-0.197104794442339,-0.197104794442131,1.24120931405139,0.214226784527728,,7.37279999999998,103,947.412621359223,510.97718446602,1484.92718446602,939.158252427184,955.666990291262,543.616504854369,478.33786407767,1461.81553398058,1508.03883495146,0
827.2896,2.04858015705575,-2.26015556656487,-0.0397648010415164,1.09923201387852,-2.09149240853574,-2.09149240853546,,-1.51485337560464,0.292506645957541,-2.01956826266271,-2.05123096995608,-2.01956826266107,1.00288635372708,-1.29558910575066,0.519114025111456,,-0.726574405588021,0.777453992262283,-0.0233708721568895,-0.153932633628496,-0.0233708721544368,0.379138411732386,,,-0.739072595759285,-1.70802147127647,,,-2.6338174461652,-0.0782970571616133,-1.19251043860516,-0.879392798346244,-1.19902865074807,0.334616552722529,-1.61661335036873,-0.910814107691194,-0.194781587015165,-1.63608759216698,-1.63608759216861,1.28457507539284,-0.779242726535369,0.460207932116615,1.57649885016364,-1.74164658504157,-0.234823999512438,-1.16640023131603,-0.235281024535575,-0.235281024535338,1.28606052115148,0.173406963504832,,7.47519999999997,102,878.371568627451,531.355392156863,1556.64705882353,868.122549019608,888.620588235294,565.366666666667,497.344117647059,1530.41176470588,1582.88235294118,0
827.392,2.07276597587794,-2.27874394577906,-0.0300802756354538,1.10638364215965,-2.10794808625015,-2.10794808624987,,-1.51578636418485,0.29894851131041,-1.99702605613583,-2.01202122164796,-1.99702605613418,1.02069128933713,-1.31292095568177,0.531793862267136,,-0.760718239059586,0.768732909948652,-0.000464164860959177,-0.166549473046722,-0.000464164858527779,0.368061251332494,,,-0.756326192102886,-1.72039918582481,,,-2.65506205423182,-0.112398558816233,-1.15798321489161,-0.851538113988894,-1.16358569888263,0.288501609727289,-1.66429344597195,-0.989754843266397,-0.161399871429453,-1.66908084479768,-1.66908084479933,1.30028910575663,-0.777248538417358,0.481073323598059,1.61161991419475,-1.76515706908856,-0.215147862685479,-1.14491585476602,-0.272665866862938,-0.272665866862679,1.33001723945015,0.133540275589297,,7.57760000000008,103,880.646116504854,527.426699029126,1605.27184466019,866.752427184466,894.539805825243,563.967961165049,490.885436893204,1580.47572815534,1630.06796116505,0
827.4944,2.09718226422507,-2.29653812643224,-0.0190851238387592,1.1134893734186,-2.12333539768886,-2.1233353976886,,-1.51618454913805,0.304634837678018,-1.97377784000961,-1.97214430239655,-1.97377784000796,1.03808751158105,-1.32980741027018,0.544211676746956,,-0.794774381378605,0.757925162927107,0.0220520757718792,-0.17793985355865,0.0220520757742859,0.357613741588637,,,-0.772813742418753,-1.73221508044284,,,-2.67551565475068,-0.146241806654943,-1.12271810415263,-0.82237264114546,-1.12716794270358,0.2416130520613,-1.71201615666616,-1.06944742364074,-0.127607531782298,-1.70104852976827,-1.70104852976993,1.31586856112115,-0.774624547491577,0.502615067108051,1.64552782193387,-1.78716378408963,-0.195024630734168,-1.12172242970786,-0.309205590973016,-0.309205590972725,1.37297762557678,0.0947372508491919,,7.68000000000006,102,502.263725490196,774.23431372549,1664.71078431373,484.774509803922,519.752941176471,812.591176470588,735.877450980392,1633.07843137255,1696.3431372549,0
827.5968,2.12181458298378,-2.31347351419178,-0.00671802602258672,1.12055505252118,-2.13757645293404,-2.13757645293379,,-1.51604522431245,0.309549376020798,-1.94982648955373,-1.93164012549405,-1.94982648955207,1.05504327985002,-1.34617223480069,0.556372561549726,,-0.82867964525201,0.745081214009135,0.0441808287333108,-0.188093729755203,0.0441808287356976,0.347812109050607,,,-0.78855427372446,-1.74341419940367,,,-2.6951484288056,-0.179798849929642,-1.08674087838073,-0.791923659015612,-1.08980380850583,0.193982089174615,-1.75964512669479,-1.14975973898541,-0.0934337307076912,-1.7318860961778,-1.73188609617947,1.33129078261745,-0.771374585265673,0.524801812149771,1.67815931338813,-1.80760045168229,-0.174450759273046,-1.09685939749782,-0.344849687112194,-0.344849687111881,1.41484410610505,0.0571025755968085,,7.78240000000005,102,407.799509803922,847.703921568628,1680.5637254902,393.059803921569,422.539215686275,888.153921568627,807.253921568628,1640.12745098039,1721,0
827.6992,2.14664370268656,-2.32948465380962,0.00707688116233389,1.12758646916988,-2.15059311412338,-2.15059311412314,,-1.51536529111065,0.313679924552694,-1.92517483447629,-1.89054645607066,-1.92517483447462,1.07152535828632,-1.36193870365398,0.568279955534179,,-0.862368558428939,0.730258661358614,0.0659257521166087,-0.197005557231495,0.0659257521189748,0.338668121630819,,,-0.803569237409318,-1.75394059767979,,,-2.71392828540826,-0.21304339322535,-1.05007904898395,-0.76022023810933,-1.0515236260084,0.145643861605818,-1.80704102732046,-1.23055377527691,-0.0589071643013235,-1.7614887402988,-1.76148874030049,1.34653105717032,-0.767501775768671,0.547600760329605,1.70945388957326,-1.82640304684374,-0.153421816995545,-1.07037084942585,-0.379551166525256,-0.379551166524929,1.45552371995511,0.0207346711338166,,7.88480000000004,103,415.722330097087,840.82427184466,1696.67475728155,397.699029126214,433.745631067961,874.779611650486,806.868932038835,1655.85436893204,1737.49514563107,0
827.8016,2.1716456058635,-2.34450550523133,0.0223496616701229,1.13458932624821,-2.16230732122134,-2.16230732122111,,-1.51414108524796,0.317018384379349,-1.89982566031081,-1.84889874679676,-1.89982566030912,1.08749906224536,-1.37702986003553,0.57993554546559,,-0.895773512531729,0.713522011057116,0.0872909249336809,-0.20467410543386,0.0872909249360275,0.330188997702973,,,-0.817882309413362,-1.76373758508703,,,-2.73182098326348,-0.24595078961786,-1.01276169776868,-0.727293157434443,-1.01235947111868,0.0966375194563725,-1.85406207637115,-1.31168593405023,-0.0240559836320154,-1.78975175324336,-1.78975175324505,1.36156261317857,-0.76300831926302,0.570977946234092,1.73935391973413,-1.84351002776402,-0.131932683153034,-1.0423053964303,-0.413266829298794,-0.413266829298455,1.49492841585402,-0.014274664347086,,7.98720000000003,102,530.985784313726,691.561274509804,1705.95588235294,506.244117647059,555.727450980392,722.388235294118,660.73431372549,1675.39215686275,1736.51960784314,0
827.904,2.19679153034987,-2.35846973564998,0.0391442728261284,1.14156922803111,-2.17264145008446,-2.17264145008423,,-1.5123682555429,0.319560754701779,-1.87378171195166,-1.80673000601105,-1.87378171194996,1.1029283326851,-1.39136879556639,0.59133919242524,,-0.928824941061175,0.694942404532977,0.108280582448524,-0.211102240283781,0.108280582450854,0.322377366147833,,,-0.83151917081136,-1.77274798278259,,,-2.74879028473229,-0.278498009204422,-0.974819306710669,-0.693174830956908,-0.972345010566704,0.0470062695764714,-1.90056458966485,-1.3930074053557,0.0110922792667091,-1.8165709070946,-1.81657090709629,1.37635665050198,-0.757895333062513,0.594898482622874,1.76780473017666,-1.85886254770055,-0.109977746035618,-1.01271603268686,-0.445957492479954,-0.445957492479601,1.5329752985954,-0.0478405392190449,,8.08960000000002,103,554.940776699029,662.93786407767,1702.67961165049,532.244660194175,577.636893203883,691.240776699029,634.634951456311,1684.08737864078,1721.27184466019,0
828.0064,2.22204805635344,-2.37131102541566,0.0574983004213731,1.14853168718812,-2.18151869793013,-2.1815186979299,,-1.51004169433735,0.321307071157493,-1.84704569933561,-1.7640706960362,-1.8470456993339,1.11777584454076,-1.40487894568168,0.602488892975608,,-0.96145152246098,0.674597313792374,0.128898856235414,-0.216296684611186,0.128898856237727,0.315231278319953,,,-0.844507269751615,-1.78091438950583,,,-2.76479814116463,-0.310663577664364,-0.936283592794003,-0.657899242688239,-0.931515353120288,-0.00320261026534421,-1.94640355767373,-1.47436459050797,0.046510782407664,-1.84184287896839,-1.84184287897009,1.39088240315804,-0.752162748722777,0.619326769054734,1.79475467082227,-1.87240464315456,-0.0875510996547722,-0.981659992268654,-0.477588173447227,-0.477588173446862,1.56958682151175,-0.0798851767160598,,8.19200000000001,102,561.016666666667,659.735294117647,1675.48039215686,540.700980392157,581.332352941177,685.932352941177,633.538235294118,1661.30392156863,1689.6568627451,0
828.1088,2.24737723621678,-2.38296338636726,0.0774427364803629,1.15548214186448,-2.18886348985672,-2.18886348985648,,-1.50715550961875,0.322261304168388,-1.81962030611921,-1.72094866574555,-1.81962030611749,1.13200315246326,-1.41748439673293,0.613380782003824,,-0.993580406826974,0.652570212593718,0.149149532526107,-0.220267762598704,0.149149532528403,0.308744270155224,,,-0.856875570966062,-1.78817945500746,,,-2.7798049096299,-0.342427484687616,-0.897187356444981,-0.621501895588901,-0.889906915621012,-0.0539377923786701,-1.9914332431721,-1.55559957340975,0.0821734376980962,-1.86546570903754,-1.86546570903925,1.40510723140456,-0.745809261844562,0.644226665060286,1.82015515394381,-1.88408338964424,-0.0646467335606576,-0.949198597368485,-0.508128224280863,-0.508128224280478,1.60469092579533,-0.110338054801257,,8.2944,102,641.113725490196,640.625980392157,1624.05882352941,619.859803921569,662.367647058824,671.104901960784,610.147058823529,1608.27450980392,1639.8431372549,0
828.2112,2.2727367616744,-2.39336149066845,0.0990017950126936,1.16242597236909,-2.19460189977554,-2.19460189977529,,-1.50370303043563,0.322431232139445,-1.79150820232149,-1.67738912391898,-1.79150820231976,1.14557087058169,-1.42911019983985,0.624009175905433,,-1.02513746629955,0.628950225920414,0.169035835109722,-0.223029130792049,0.169035835112001,0.30290546567657,,,-0.868654299182193,-1.79448615820118,,,-2.79376960089228,-0.37377106855187,-0.857564345953897,-0.584019780343387,-0.847557307550407,-0.105143954139865,-2.03550779639011,-1.6365506367292,0.118054961505699,-1.88733928582649,-1.8873392858282,1.41899673934622,-0.738832329419941,0.669561630082306,1.84396066332687,-1.89384902022181,-0.0412587107879741,-0.91539709783783,-0.537551417255025,-0.537551417254626,1.63822112802152,-0.139135983542006,,8.39679999999999,103,735.129611650486,621.581553398058,1585.14077669903,711.218446601942,759.040776699029,649.22427184466,593.938834951456,1564.52427184466,1605.7572815534,0
828.3136,2.29808016157085,-2.40244100642944,0.1221927608151,1.16936851006283,-2.19866207789475,-2.1986620778945,,-1.49967683996259,0.321828288410794,-1.7627120610484,-1.63341465625587,-1.76271206104666,1.15843887788069,-1.43968268488309,0.634366649156415,,-1.05604756763239,0.603831758138357,0.188560230806722,-0.224597496850479,0.188560230808983,0.297699709328406,,,-0.879874679385473,-1.79977808674657,,,-2.80665015317448,-0.404676886697115,-0.817449135590291,-0.545491363779839,-0.804505232264422,-0.156761859292173,-2.07848188220176,-1.71705281165006,0.154130906738614,-1.90736584772734,-1.90736584772905,1.43251491730722,-0.731228210412437,0.695294835000522,1.86612873981377,-1.90165501301105,-0.017381334320836,-0.880324500028889,-0.565835989284308,-0.565835989283897,1.67011655985105,-0.166223126804404,,8.49919999999997,102,743.913725490196,621.159803921569,1566.48039215686,720.371568627451,767.455882352941,650.983333333333,591.336274509804,1542.51960784314,1590.44117647059,0
828.416,2.32335702497262,-2.41013893873994,0.147025866134738,1.17631503547344,-2.20097468108877,-2.20097468108851,,-1.49506883373663,0.320467372570615,-1.733234578321,-1.5890452868104,-1.73323457831926,1.17056654240723,-1.4491297716772,0.644444137214712,,-1.08623486500572,0.577314097388965,0.207724257836508,-0.224992326362224,0.207724257838755,0.293107721226974,,,-0.890568674781964,-1.80399971642986,,,-2.81840372295321,-0.435128579242623,-0.776877015436978,-0.505956592163597,-0.760790401903859,-0.208728458501858,-2.12021131606182,-1.79693845214773,0.190377672380954,-1.92545049349685,-1.92545049349856,1.44562431544572,-0.722992051966664,0.721389249586281,1.88661995454918,-1.90745816428756,0.00699068969250114,-0.844053380413129,-0.592964654110136,-0.592964654109716,1.70032196987754,-0.19155097865204,,8.60160000000008,103,749.328155339806,619.424757281553,1551.17475728155,724.194174757282,774.46213592233,649.502912621359,589.346601941748,1520.5145631068,1581.83495145631,0
828.5184,2.34851324755443,-2.41639397787038,0.17350419009734,1.18327077102448,-2.20147330867422,-2.20147330867395,,-1.48987030602271,0.318366622593667,-1.70307849323845,-1.54429858387149,-1.7030784932367,1.18191296128102,-1.45738128137148,0.654231059935236,,-1.1156231124213,0.549500992193047,0.226528384117619,-0.224235537230793,0.226528384119854,0.289106278742389,,,-0.900768721059447,-1.80709669074974,,,-2.82898698649415,-0.465110725773087,-0.735883890273595,-0.465456905666629,-0.716453462771512,-0.260977011104453,-2.16055370863279,-1.87603783554618,0.226772489834879,-1.94150170425808,-1.94150170425977,1.45828625068858,-0.714118021657238,0.747807707757105,1.90539788169122,-1.91121866609432,0.0318620804541552,-0.806659681161846,-0.618924584037827,-0.618924584037404,1.72878769795917,-0.21507830179127,,8.70400000000007,102,750.258333333333,614.918137254902,1543.64215686275,724.953921568628,775.562745098039,648.599019607843,581.237254901961,1508.19607843137,1579.08823529412,0
828.6208,2.37349130003257,-2.42114685286042,0.201623581460106,1.19024088011041,-2.20009494315055,-2.20009494315028,,-1.48407206571531,0.315547154408636,-1.67224660394559,-1.49918980404829,-1.67224660394383,1.19243721390086,-1.4643692496099,0.66371546115516,,-1.14413599341845,0.520500203400707,0.244971900685335,-0.222351184228523,0.244971900687554,0.285668426996622,,,-0.910507453213516,-1.8090160983556,,,-2.83835644928489,-0.494608692844397,-0.694506182498575,-0.424035262092007,-0.671535926676553,-0.313437234140059,-2.19936911440566,-1.95417979147851,0.263293389182838,-1.95543187749399,-1.95543187749566,1.47046103395161,-0.704599471299053,0.774512954646214,1.92242907760216,-1.91290019922553,0.0572367966919581,-0.768222489050984,-0.643707360628317,-0.643707360627884,1.75546962518671,-0.236771029699233,,8.80640000000005,102,892.832352941177,613.386274509804,1522.16176470588,868.497058823529,917.167647058823,647.702941176471,579.069607843137,1491.93137254902,1552.39215686275,0
828.7232,2.39823051785089,-2.4243406823281,0.231372613848521,1.19723047564603,-2.19678038586919,-2.19678038586892,,-1.47766457162994,0.31203278377056,-1.64074177663787,-1.45373206109767,-1.64074177663611,1.20209862600118,-1.4700282353248,0.672884165125819,,-1.17169746265633,0.490423046501409,0.263052846584941,-0.219365142292518,0.263052846587142,0.282763713514441,,,-0.919817424642252,-1.80970674190277,,,-2.84646876374222,-0.523608472768855,-0.652780736882782,-0.381736169216779,-0.626080106328298,-0.366035478302695,-2.2365206712165,-2.03119234900127,0.29991914617739,-1.9671578601589,-1.96715786016053,1.48210820267788,-0.694429113732685,0.801467682691094,1.93768306606807,-1.91247003947047,0.0831178391858885,-0.728823801675328,-0.667308898207441,-0.66730889820701,1.78032909852329,-0.256602134165903,,8.90880000000004,103,1054.97718446602,612.208252427184,1483,1034.6786407767,1075.27572815534,644.359223300971,580.057281553398,1459.19417475728,1506.80582524272,0
828.8256,2.4226674117274,-2.42592131335297,0.262732584414918,1.20424462542858,-2.19147467348414,-2.19147467348387,,-1.47063807009961,0.30784974726488,-1.60856694906366,-1.40793650791825,-1.60856694906189,1.21085704332713,-1.47429561659696,0.681722953415904,,-1.19823209388023,0.459383941681033,0.280767958347312,-0.215304800193668,0.2807679583495,0.280358439885533,,,-0.928730825864557,-1.80911939277277,,,-2.85328105840554,-0.552096517755671,-0.610744731871882,-0.33860572705926,-0.580129058862251,-0.418694923716076,-2.2718752170452,-2.10690338497807,0.336629207119106,-1.97660146271013,-1.97660146271174,1.49318675592743,-0.683599206480951,0.828634561599643,1.95113232519788,-1.90989916858846,0.109507048359506,-0.688548285619419,-0.689729344838456,-0.689729344838024,1.8033328309765,-0.274551461184352,,9.01120000000003,102,1051.18839648352,598.676981196565,1476.41107531319,1028.55131284348,1073.82548012356,630.36148992469,566.99247246844,1453.58148449691,1499.24066612947,0
828.928,2.44673599606513,-2.42583764334912,0.29567755820762,1.211288338868,-2.18412746535308,-2.18412746535281,,-1.46298272581431,0.303026431443157,-1.57572513105184,-1.36181252809365,-1.57572513105007,1.21867311136235,-1.47711187062212,0.690216759433931,,-1.22366543006139,0.427499978227106,0.298112639625787,-0.210198773206291,0.29811263962796,0.27841592628583,,,-0.937279212058309,-1.80720702967015,,,-2.85875128049968,-0.58005957233376,-0.568435604843833,-0.294691680108539,-0.533726543297695,-0.471335790283436,-2.30530387901262,-2.18114126500358,0.373403592375148,-1.98368994254811,-1.98368994254969,1.50365539618077,-0.672101745080162,0.855976263316714,1.96275227207292,-1.90516238299083,0.136404901893607,-0.647483031332645,-0.710972961937733,-0.710972961937297,1.8244527803539,-0.290605538005214,,9.11360000000002,103,1044.88117090108,571.174580509077,1484.44530027966,1020.13460207612,1069.62773972603,605.018339100346,537.330821917808,1462.68512110727,1506.20547945205,0.932038834951456
829.0304,2.47036812822752,-2.42404192365945,0.330174450290978,1.21836652765798,-2.17469339859624,-2.17469339859597,,-1.45468874944594,0.29759311007805,-1.54221940262564,-1.31536793822788,-1.54221940262386,1.22550855395792,-1.47842083999704,0.6983498698723,,-1.24792433126032,0.394890488802625,0.315080944906642,-0.204076635800652,0.315080944908797,0.276896787256056,,,-0.945493244521066,-1.80392506034299,,,-2.86283854854973,-0.607484504869529,-0.525890995505012,-0.250043475058284,-0.486916993841908,-0.523875562993148,-2.33668263750905,-2.25373547944012,0.410222783204436,-1.98835645172157,-1.9883564517231,1.51347278202992,-0.659928669852002,0.883455481855486,1.97252124252453,-1.89823839730963,0.163810312627101,-0.605717308892851,-0.731047984235695,-0.731047984235264,1.84366601159195,-0.304757358103709,,9.21600000000001,102,1038.65635250853,543.817805152113,1492.6490626397,1011.8196281973,1065.49307681977,579.679795101432,507.955815202794,1471.91295203202,1513.38517324738,0
829.1328,2.49349385097585,-2.4204900449282,0.366183135035566,1.22548393854721,-2.16313241183113,-2.16313241183087,,-1.44574652925171,0.291581686832996,-1.50805290963641,-1.26860920308131,-1.50805290963463,1.23132644360438,-1.47816998749083,0.706106122264745,,-1.27093731666565,0.3616766266123,0.331665568270793,-0.196968668612419,0.331665568272934,0.275759217120422,,,-0.953402450071958,-1.79923152531564,,,-2.86550350783207,-0.634358141780072,-0.483148706467336,-0.204712317927778,-0.439745506434439,-0.576229234644979,-2.36589286958308,-2.32451727998118,0.447067592959462,-1.99054044714813,-1.99054044714964,1.52259779465827,-0.647072089641623,0.911034946699037,1.98042046696142,-1.88910994679939,0.19172042183816,-0.563342326576488,-0.749966465367907,-0.749966465367479,1.86095454864268,-0.317006154406457,,9.3184,102,1034.12107843137,538.116176470588,1537.11764705882,1008.80784313725,1059.43431372549,572.217647058824,504.014705882353,1518.98039215686,1555.25490196078,0
829.2352,2.51604173325455,-2.41514180508604,0.403656574963142,1.23264506190328,-2.14941004138556,-2.14941004138532,,-1.43614677186083,0.28502543914097,-1.47322885696694,-1.22154166477566,-1.47322885696515,1.23609145826667,-1.47631064125502,0.713469090824915,,-1.29263490162381,0.327980938045891,0.347857834102787,-0.188905613713982,0.347857834104911,0.274959282032905,,,-0.96103500419613,-1.79308728378927,,,-2.86670868119906,-0.660667112128573,-0.44024667539838,-0.158751226334627,-0.392257832862435,-0.628309568767222,-2.39282187390682,-2.39332032106942,0.483919021044225,-1.99018806750172,-1.9901880675032,1.53098981466509,-0.633524520387666,0.9386774285977,1.98643404713704,-1.87776389781166,0.220130380926293,-0.520450991274507,-0.767744113842913,-0.767744113842491,1.87630521858723,-0.327357166225104,,9.42079999999999,103,1032.93349514563,538.680582524272,1590.58737864078,1005.86796116505,1059.99902912621,573.265048543689,504.096116504854,1576,1605.17475728155,0
829.3376,2.53793920817033,-2.40796116155531,0.442540965555484,1.23985402984197,-2.1334976943316,-2.13349769433138,,-1.42588065665116,0.27795875974887,-1.43775049742599,-1.17416978459297,-1.43775049742419,1.23977012180388,-1.47279823468524,0.7204222541003,,-1.31294993452648,0.29392692122223,0.363647698674235,-0.179918438311651,0.363647698676343,0.274451215611868,,,-0.968417541362943,-1.78545618392087,,,-2.8664188085322,-0.686397708754865,-0.397222950518366,-0.112215074157475,-0.34450037517972,-0.680027387674215,-2.41736337853847,-2.45998131169639,0.520758093205311,-1.98725248513393,-1.98725248513539,1.53860899693529,-0.619279126267418,0.966345739695059,1.99054893732474,-1.86419137160387,0.24903311864819,-0.477137668168345,-0.784400120119644,-0.784400120119232,1.8897094865305,-0.335821397994058,,9.52319999999997,102,1038.57205882353,539.048529411765,1601.54411764706,1013.33529411765,1063.80882352941,580.102941176471,497.994117647059,1587.60784313726,1615.48039215686,0
829.44,2.55911290912426,-2.39891646667904,0.482775898585564,1.24711452282657,-2.11537289775896,-2.11537289775875,,-1.41494000447539,0.270416899326133,-1.40162111351909,-1.12649739101918,-1.40162111351728,1.24233102646367,-1.46759254356418,0.726949140861823,,-1.33181793604154,0.259638565963713,0.379023775914566,-0.170038113352643,0.379023775916654,0.274187717460788,,,-0.97557499026997,-1.77630521896594,,,-2.86460116773404,-0.711535766413671,-0.35411566302974,-0.0651606270722908,-0.296520174956502,-0.731291890772235,-2.43941802857955,-2.52434068014113,0.557565697878614,-1.98169423733934,-1.98169423734078,1.5454165290173,-0.604329947659452,0.99400273194662,1.99275492835553,-1.84838787667408,0.27841909919032,-0.4334979362055,-0.799956974877444,-0.799956974877041,1.90116328220061,-0.342415369304092,,9.62560000000008,103,1043.47087378641,539.597087378641,1483.56796116505,1018.6359223301,1068.30582524272,576.071844660194,503.122330097087,1469.85436893204,1497.28155339806,0
829.5424,2.57948900451573,-2.38798068040443,0.524294552029991,1.25442969328531,-2.09501951682976,-2.09501951682957,,-1.40331745554213,0.262435716618657,-1.36484399296768,-1.07852792441177,-1.36484399296587,1.24374503630901,-1.46065791602287,0.733033455462469,,-1.34917743581441,0.225239882878325,0.393973391848308,-0.159295415726998,0.393973391850374,0.274120255380412,,,-0.982530430325643,-1.76560466807227,,,-2.86122587059767,-0.736066554374171,-0.310962996416245,-0.0176465701327646,-0.248364897665957,-0.782011002894333,-2.45889384462207,-2.58624324456088,0.594322427864624,-1.97348153368233,-1.97348153368377,1.55137486292174,-0.588672104645404,1.0216112970367,1.99304462950954,-1.83035343677514,0.308276083736588,-0.389628335820875,-0.814440282283012,-0.814440282282617,1.91066682617581,-0.347160863630615,,9.72800000000007,102,885.250980392157,601.370588235294,1320.84803921569,853.452941176471,917.049019607843,637.659803921569,565.08137254902,1298.93137254902,1342.76470588235,0
829.6448,2.59899352778374,-2.37513155255939,0.567023911758911,1.26180209808873,-2.07242793233435,-2.07242793233418,,-1.39100665154062,0.254051437962657,-1.3274224025533,-1.03026467061335,-1.32742240255148,1.24398546914257,-1.45196348685305,0.738659184656001,,-1.36497029712051,0.190854433073739,0.40848266218909,-0.147720762016081,0.408482662191134,0.274199371429024,,,-0.98930496984567,-1.75332821932671,,,-2.85626612927244,-0.759974682660751,-0.267803156998052,0.0302664703454581,-0.200082816322072,-0.832091748132913,-2.47570664232179,-2.64553887791339,0.63100843043904,-1.96259053198985,-1.96259053199129,1.55644791568362,-0.572301970371829,1.0491343698975,1.99141344420784,-1.81009270052735,0.33858891177898,-0.34562610804749,-0.827878574790639,-0.827878574790255,1.91822446461372,-0.350084685194001,,9.83040000000005,102,630.211764705882,711.36568627451,1178.63725490196,597.958823529412,662.464705882353,748.253921568627,674.477450980392,1142.05882352941,1215.21568627451,0
829.7472,2.61755269485409,-2.36035176957984,0.610885020631646,1.26923362794789,-2.04759517134282,-2.04759517134266,,-1.37800242059625,0.24530042770591,-1.28935956323491,-0.981710980966706,-1.28935956323308,1.24302825224692,-1.44148337099301,0.743810682920652,,-1.37914202093822,0.156604861633002,0.422536589718437,-0.13534408046871,0.422536589720462,0.274374991339231,,,-0.995917650572963,-1.73945307338457,,,-2.84969849215001,-0.783244023781852,-0.22467434726682,0.078515910699581,-0.151722795528297,-0.881440647548882,-2.48978040848133,-2.70208316221336,0.667603263815817,-1.94900557539448,-1.94900557539591,1.56060123674173,-0.555217312436779,1.07653493599811,1.98785954261871,-1.7876150288112,0.369339313531867,-0.301588927820756,-0.840303135103719,-0.840303135103342,1.92384451276958,-0.351218426600649,,9.93280000000004,103,630.034466019418,701.61359223301,1053.41262135922,601.814563106796,658.254368932039,735.568932038835,667.658252427185,1015.98058252427,1090.84466019417,0
829.8496,2.63509320076901,-2.34362906526385,0.655793244309485,1.2767254297224,-2.02052498875816,-2.02052498875802,,-1.36430096203123,0.236218975493368,-1.25065862542605,-0.932870479940424,-1.25065862542421,1.24085204686067,-1.42919683623972,0.748472729616709,,-1.39164202553184,0.122612428984606,0.436119188373215,-0.122194725752606,0.436119188375219,0.274596734181707,,,-1.00238538563868,-1.7239600281537,,,-2.84150305078521,-0.805857653103581,-0.181614739030991,0.127037201924418,-0.103334272920437,-0.929964143834296,-2.50104763462198,-2.75573803572489,0.704085758529918,-1.93271938510601,-1.93271938510743,1.56380213910512,-0.537417402417198,1.1037760387352,1.98238384168856,-1.7629345720223,0.400505751117067,-0.257614634197987,-0.851747828136079,-0.851747828135724,1.92753909940745,-0.35059824408021,,10.0352,102,631.257352941177,695.137745098039,958.578431372549,606.377450980392,656.137254901961,728.135294117647,662.140196078431,922.470588235294,994.686274509804,0
829.952,2.65154249200764,-2.32495630051589,0.701658542795835,1.2842778214353,-1.99122790207464,-1.99122790207451,,-1.34990002640843,0.226843103449176,-1.21132264133295,-0.883747262676307,-1.21132264133111,1.23743833854822,-1.41508845792391,0.752630552591794,,-1.40242390371889,0.0889965305554365,0.449213645623779,-0.108301437294546,0.449213645625759,0.274814213474281,,,-1.00872294032044,-1.70683354780708,,,-2.8316636215002,-0.827797812321007,-0.138662443726581,0.17576383288096,-0.0549672349911282,-0.977569055744249,-2.50944961336853,-2.80637243973435,0.740433885207808,-1.91373320681609,-1.91373320681751,1.56601979046977,-0.518903094533213,1.13082078115737,1.97498999985436,-1.73607035185889,0.432063276600741,-0.213800956476897,-0.862248944284022,-0.86224894428368,1.9293240055365,-0.348264638099327,,10.1376,103,715.222330097087,677.042718446602,874.169902912622,689.354368932039,741.090291262136,707.196116504854,646.88932038835,845.038834951456,903.300970873786,0
830.0544,2.66682901422982,-2.30433151990551,0.748385737524911,1.29189019774032,-1.95972118460693,-1.95972118460681,,-1.33479909198277,0.217208385165398,-1.1713545311932,-0.834346084206896,-1.17135453119135,1.23277149227787,-1.39914825879064,0.756269814704198,,-1.41144566425925,0.0558741932949736,0.461802528203074,-0.0936923371383645,0.461802528205031,0.274977320373271,,,-1.01494296377416,-1.68806182045187,,,-2.82016790611456,-0.849045901537745,-0.0958554790945673,0.22462734878542,-0.00667218543324492,-1.02416306255495,-2.51493670425018,-2.85386297013418,0.776624630808769,-1.89205691114427,-1.89205691114568,1.56722526499722,-0.499676875734058,1.1576323198291,1.96568442156108,-1.70704634789279,0.463983398423166,-0.170245230906442,-0.871845057908249,-0.871845057907928,1.92921849959654,-0.344262242557837,,10.24,102,1358.8,549.358333333333,775.210784313726,1343.98823529412,1373.61176470588,579.078431372549,519.638235294118,770.764705882353,779.656862745098,0
830.1568,2.68088243477141,-2.2817579913305,0.795874765192518,1.29956092486916,-1.92602882326317,-1.92602882326306,,-1.31899954464499,0.207349761327848,-1.13075704170164,-0.784672541135237,-1.13075704169978,1.22683877148733,-1.3813718360884,0.759376561098048,,-1.41866996239959,0.0233595390018684,0.473868023774263,-0.0783949567995268,0.473868023776195,0.27503648799538,,,-1.02105607175728,-1.66763680706477,,,-2.80700763465287,-0.869582502460126,-0.0532317314940727,0.273557389282242,0.0414998958761764,-1.06965521702957,-2.51746857342853,-2.89809453581528,0.81263388582888,-1.86770905052844,-1.86770905052986,1.56739156541505,-0.479742892595832,1.18417385491572,1.95447626041158,-1.67589157786614,0.49623395579206,-0.127044101803451,-0.880576907930587,-0.880576907930272,1.92724517805178,-0.338639630729332,,10.3424,102,1380.87990196078,540.661764705882,735.735294117647,1369.71960784314,1392.04019607843,570.136274509804,511.187254901961,741.578431372549,729.892156862745,0
830.2592,2.6936338406413,-2.25724423016822,0.844020917617186,1.30728723070087,-1.89018144737078,-1.89018144737068,,-1.30250486528504,0.197301345561975,-1.08953269986101,-0.734733247186944,-1.08953269985915,1.21963032352628,-1.36176047309173,0.761937132048855,,-1.42406431696228,-0.0084367835332108,0.485392199173831,-0.062436275821901,0.485392199175741,0.274942943879222,,,-1.02707096653616,-1.64555428081293,,,-2.79217868929673,-0.889387426260993,-0.0108289139240014,0.322481750279972,0.0894976044640499,-1.1139564798918,-2.51701440747181,-2.93896101744645,0.848436346421468,-1.84071687505041,-1.84071687505183,1.56649363453753,-0.459106966453249,1.21040862354718,1.94137741613601,-1.64264016338717,0.528779006659047,-0.0842932088846173,-0.888487300826758,-0.888487300826458,1.92342981824406,-0.331449143189346,,10.4448,103,1385.99514563107,534.710194174757,712.771844660194,1377.26601941748,1394.72427184466,562.130097087379,507.290291262136,720.543689320388,705,0
830.3616,2.70501591874422,-2.23080400281741,0.892715083199928,1.31506510016212,-1.85221623404325,-1.85221623404316,,-1.28532081982667,0.187096231252827,-1.04768377248758,-0.684536006684598,-1.04768377248571,1.21113914006836,-1.34032122459444,0.763938058999797,,-1.42760130340851,-0.0394081751541189,0.496357249194695,-0.0458427540199126,0.496357249196581,0.274648958628562,,,-1.0329945689512,-1.62181385215006,,,-2.77568120712462,-0.908439770920303,0.0313154769905662,0.371326473764056,0.137269172156902,-1.15698025854448,-2.51355309369164,-2.9763659049256,0.884005433304034,-1.81111630549005,-1.81111630549146,1.56450838015826,-0.437776613591431,1.23629990200608,1.92640252995664,-1.60733137831287,0.561578741251022,-0.0420868749370616,-0.895621020252273,-0.895621020251982,1.91780124132768,-0.322746730297871,,10.5472,102,1387.87303921569,531.404901960784,702.274509803922,1380.44117647059,1395.30490196078,560.198039215686,502.611764705882,713.882352941177,690.666666666667,0
830.464,2.71496312963777,-2.20245629910917,0.941844018609505,1.32288918158653,-1.81217678952631,-1.81217678952622,,-1.26745564245399,0.176766313568259,-1.00521224384919,-0.634089991357444,-1.00521224384731,1.20136100383283,-1.31706696088931,0.765365968068243,,-1.42925871161747,-0.0694526373180522,0.506745713834277,-0.0286403490749886,0.506745713836138,0.274108094962638,,,-1.03883214058672,-1.5964189726585,,,-2.75751966116428,-0.92671797374672,0.073164198939427,0.420015967822486,0.184762533190254,-1.19864292674728,-2.50707335153937,-3.01022288012221,0.919313220657374,-1.77895185613497,-1.77895185613635,1.56141473033116,-0.415761083851653,1.26181101882903,1.90956898479588,-1.57000967786461,0.594589434983208,-0.000517810127760732,-0.902024718587738,-0.90202471858746,1.91039117693523,-0.312591791559819,,10.6496000000001,103,1387.66262135922,529.894660194175,709.932038834951,1377.8,1397.52524271845,559.927184466019,499.86213592233,724,695.864077669903,0
830.5664,2.72341188195222,-2.17222526080986,0.991290676446056,1.33075269943434,-1.77011299640871,-1.77011299640864,,-1.24892020142913,0.166342129303169,-0.962119819052094,-0.583405922686867,-0.962119819050215,1.19029442668131,-1.29201635592851,0.766207506381517,,-1.42901966223243,-0.0984732688876343,0.516540657431681,-0.0108545263251528,0.516540657433517,0.27327545369156,,,-1.04458738983139,-1.56937691000766,,,-2.73770292056089,-0.944199855733031,0.114680292654141,0.468473156056734,0.231925392043878,-1.2388643056228,-2.49757379725418,-3.04045631318837,0.954330360472544,-1.74427649823675,-1.74427649823811,1.55719371825282,-0.393071417579563,1.28690537800294,1.89089691311891,-1.53072470826689,0.627763445703318,0.0403231594439011,-0.907746774516992,-0.907746774516726,1.9012341252968,-0.301046999261407,,10.7520000000001,102,1159.40490196078,553.038235294118,747.627450980392,1136.75784313726,1182.05196078431,573.452941176471,532.623529411765,754.401960784314,740.852941176471,0
830.6688,2.73030070483828,-2.1401400551635,1.04093459915089,1.33864736400665,-1.72608081155005,-1.72608081154999,,-1.22972813521251,0.155852713422793,-0.918407954259997,-0.53249625697607,-0.918407954258112,1.17794057423001,-1.2651938109989,0.766449290185362,,-1.42687267866207,-0.126378696334143,0.525725821968621,0.00748972046296956,0.525725821970433,0.272107904864241,,,-1.05026256860996,-1.54069868800221,,,-2.7162442867209,-0.960862665225183,0.155827103710001,0.516619653949888,0.278705294054263,-1.27756809542299,-2.48506292832585,-3.06700165245009,0.989025991872873,-1.70715145910658,-1.70715145910791,1.55182858112876,-0.369720509746142,1.31154648890272,1.87040921284001,-1.48953130188451,0.661049247870468,0.0803473374809628,-0.91283711589732,-0.91283711589707,1.89036722089459,-0.288178107718925,,10.8544000000001,102,603.052941176471,630.036764705882,799.985294117647,578.421568627451,627.68431372549,644.478431372549,615.595098039216,776.882352941176,823.088235294118,0
830.7712,2.7355704103835,-2.10623468780678,1.09065237527457,1.34656327327856,-1.68014200327954,-1.68014200327949,,-1.20989594675449,0.145325484806175,-0.87407791071745,-0.481375369483985,-0.87407791071556,1.16430316910255,-1.23662931221011,0.766077865473773,,-1.42281171123532,-0.153083439966007,0.534285776944104,0.0263678165039419,0.534285776945888,0.270564291272506,,,-1.05585856849676,-1.51039898959613,,,-2.69316149644521,-0.976683130659834,0.196568303865081,0.564375968676968,0.325049702786363,-1.31468225748549,-2.46955902184052,-3.08980570286411,1.02336763683334,-1.6676459573648,-1.6676459573661,1.54530485549488,-0.345723170949838,1.33569799623945,1.84813157051748,-1.44648946426533,0.694391491951597,0.119468376279841,-0.917347015073857,-0.917347015073637,1.87783010254239,-0.274053757045531,,10.9568,103,602.855582524272,624.885928398058,829.769417475728,577.582038834952,628.129126213592,647.25729368932,602.514563106796,797.422330097087,862.116504854369,0
830.8736,2.73916423880969,-2.07054775606447,1.14031814703169,1.35448880785337,-1.63236382439048,-1.63236382439045,,-1.18944304818661,0.134786185059486,-0.829130828265684,-0.430059736630644,-0.829130828263786,1.14938836945372,-1.20635822483804,0.765079674877809,,-1.41683610998934,-0.178508225885059,0.542206082549233,0.0457555115552094,0.542206082550989,0.26860559861555,,,-1.0613750217089,-1.47849602482166,,,-2.66847668267892,-0.99163752714489,0.236867916650182,0.611661718527781,0.370906086684898,-1.35013935342276,-2.4510899483531,-3.1088268008343,1.05732108946634,-1.62583687740148,-1.62583687740276,1.53761045868416,-0.3210961821594,1.3593237022091,1.82409248751536,-1.40166435290612,0.727731082198848,0.157602468017057,-0.921328867458323,-0.92132886745813,1.86366478958464,-0.258745280714047,,11.0592,102,584.249754901961,780.867763480392,795.585784313726,556.491666666667,612.007843137255,733.113958333333,828.621568627451,821.583333333333,769.588235294118,0.196078431372549
830.976,2.74102798213361,-2.03312214997692,1.18980415402993,1.36241052144758,-1.58281862568423,-1.58281862568421,,-1.1683917558633,0.124258884541381,-0.783567815261577,-0.37856811586738,-0.783567815259673,1.13320462437499,-1.17442102964379,0.763441029790613,,-1.40895054642243,-0.202580251984659,0.549473466504304,0.0656287506383585,0.549473466506033,0.266195094294533,,,-1.06681041054507,-1.44501136846526,,,-2.64221628972853,-1.00570175582802,0.276690348245549,0.658395870429411,0.416222015355156,-1.3838768503724,-2.429692909331,-3.12403489968114,1.09085030428663,-1.58180838685438,-1.58180838685564,1.52873575412524,-0.295858343489341,1.38238757777297,1.79832330078249,-1.35512623914726,0.76100527302514,0.19466850935477,-0.924835966607382,-0.924835966607214,1.84791556202647,-0.242326524601564,,11.1616,103,540.737540453074,973.51534789644,804.804207119741,524.033333333333,557.441747572816,859.231666666667,1087.79902912621,838.666666666667,770.941747572816,0.184466019417476
831.0784,2.74111008463891,-1.99400471387502,1.23898129484511,1.37031303104328,-1.53158342208161,-1.53158342208161,,-1.14676724435223,0.113766051278044,-0.737390052823254,-0.326921721046707,-0.737390052821344,1.11576251004857,-1.14086300929428,0.761148087817498,,-1.39916488923522,-0.225233413340412,0.556076002208114,0.0859635276135757,0.556076002209815,0.263298437802317,,,-1.07216218821828,-1.40996977476409,,,-2.61441094642343,-1.01885143309493,0.316000423984277,0.704496997071118,0.460945266195438,-1.41583739935351,-2.40541411125443,-3.13541158220957,1.12391728989151,-1.53565150277744,-1.53565150277868,1.51867360042297,-0.270030514125223,1.40485376682181,1.77085819149498,-1.30695044416762,0.794147787537354,0.230588240709596,-0.927922285352977,-0.927922285352841,1.83062884303555,-0.22487368106519,,11.264,102,523.235620915033,926.589526143791,938.918300653595,501.51045751634,544.960784313726,948.751601307189,904.427450980392,893.964052287582,983.872549019608,0
831.1808,2.73936171926765,-1.95324588311375,1.28771968689862,1.37817891560874,-1.47873942639024,-1.47873942639025,,-1.12459747256925,0.103328672503398,-0.690598910179103,-0.275144389849493,-0.690598910177189,1.09707454988839,-1.10573389644165,0.75818683272261,,-1.38749403981739,-0.246408493751548,0.562003275632158,0.106735738474788,0.562003275633834,0.259883760139826,,,-1.07742691284425,-1.37339897752896,,,-2.58509530192873,-1.03106198925523,0.354763433459689,0.749883555992644,0.505023944424895,-1.44596909262152,-2.37830839168013,-3.14295001742742,1.15648202100134,-1.48746361438564,-1.48746361438686,1.50741938179897,-0.243635636919925,1.42668658897811,1.7417341814847,-1.25721724708325,0.827088961351273,0.265286364138448,-0.930642266353847,-0.930642266353751,1.81185308069188,-0.206465137131564,,11.3664,102,525.814215686275,926.843137254902,1012.84803921569,500.064705882353,551.563725490196,951.647058823529,902.039215686274,968.333333333333,1057.36274509804,0
831.2832,2.73573683859139,-1.91089930813472,1.33588920754373,1.38598863231783,-1.42437156428827,-1.42437156428829,,-1.10191309350074,0.092966420162528,-0.643196067165724,-0.223262737815446,-0.643196067163804,1.07715501975087,-1.06908749564577,0.754543050843909,,-1.37395773228632,-0.266053333085995,0.567246536279973,0.127921043100833,0.567246536281621,0.255921705710581,,,-1.08260039497423,-1.33532948309508,,,-2.55430782668246,-1.04230877980643,0.392945189863604,0.794474192149048,0.548406621363692,-1.47422570409651,-2.34843881066753,-3.1466548753344,1.18850238400439,-1.43734797036106,-1.43734797036226,1.49497102092151,-0.216698746095329,1.44785054429961,1.71099112051334,-1.20601176677226,0.859755914096067,0.298690647144104,-0.933050624071087,-0.93305062407102,1.79163862544045,-0.187181334088375,,11.4688,103,532.145631067961,928.860679611651,1062.49029126214,507.941747572816,556.349514563107,955.965048543689,901.756310679612,1017.40776699029,1107.57281553398,0
831.3856,2.73019220115304,-1.86702147605544,1.383360004649,1.39372045229089,-1.36856798280235,-1.36856798280237,,-1.07874735293692,0.0826978500161052,-0.595183641105121,-0.171306289763999,-0.595183641103195,1.05601974021598,-1.03098129114582,0.750202299256232,,-1.35858030485219,-0.284122980084048,0.57179883292142,0.149494737202563,0.571798832923044,0.251385433216628,,,-1.08767785795729,-1.29579436242062,,,-2.52209058218582,-1.05256721213804,0.430512109513966,0.838188063499524,0.59104249548427,-1.50056691527833,-2.31587621803785,-3.14654220994127,1.21993416280602,-1.38541313810562,-1.3854131381068,1.48132898576451,-0.189246966086338,1.46831032276434,1.67867166598163,-1.1534238176311,0.892072750897883,0.330732017381948,-0.935202161384064,-0.935202161384025,1.77003760332861,-0.167104634465956,,11.5712,102,565.236274509804,943.89068627451,1095.01470588235,540.230392156863,590.242156862745,974.997058823529,912.78431372549,1047.51960784314,1142.50980392157,0
831.488,2.72268737751168,-1.82167134144956,1.4300029679595,1.40135041422177,-1.31141956622564,-1.31141956622567,,-1.0551359754337,0.0725406255986655,-0.546564315839913,-0.119307576553585,-0.546564315837981,1.03368586269589,-0.991476054224558,0.745149866116697,,-1.3413904524961,-0.300579840104221,0.575655132144646,0.171431637594773,0.575655132146247,0.24625057817127,,,-1.09265410907702,-1.25482904905892,,,-2.48848896916588,-1.06181288660583,0.467431318015044,0.880945185383839,0.632881579981888,-1.52495853316724,-2.28069880796628,-3.14263932527716,1.25073106367771,-1.33177244592996,-1.33177244593113,1.4664963049982,-0.16130951043824,1.48803082358235,1.6448212559069,-1.09954773983919,0.923960794278089,0.361344646423966,-0.937151604566462,-0.937151604566455,1.74710378786131,-0.146319191923059,,11.6736000000001,103,584.615048543689,948.309223300971,1107.96116504854,556.647572815534,612.582524271845,979.178640776699,917.439805825243,1057.87378640777,1158.04854368932,0
831.5904,2.71318474130216,-1.77490997974593,1.47569015164082,1.40885229831405,-1.25301947494223,-1.25301947494226,,-1.03111703235052,0.0625117659073657,-0.497341469252536,-0.0673021852921978,-0.497341469250598,1.01017165855721,-0.950635464799659,0.739370726257092,,-1.32242097154305,-0.315393828937062,0.578812411301895,0.193705990628643,0.578812411303469,0.240495185266297,,,-1.09752371765682,-1.21247115022882,,,-2.45355146707241,-1.07002174685507,0.503670792192931,0.922666786135692,0.673874921715526,-1.54737271237447,-2.24299167559037,-3.13498464681833,1.28084478156876,-1.27654342428741,-1.27654342428856,1.45047859415962,-0.132917678794042,1.50697718953769,1.6094880747827,-1.04448220486519,0.955338844634055,0.39046601799995,-0.93895345978515,-0.93895345978518,1.72289247308401,-0.124910821802844,,11.7760000000001,102,583.233333333333,945.952450980392,1108.57843137255,555.409803921569,611.056862745098,962.44705882353,929.457843137255,1051.21568627451,1165.94117647059,0
831.6928,2.70164945115242,-1.72680027318799,1.52029514350852,1.41619763027766,-1.19346271908662,-1.19346271908665,,-1.00673079116504,0.052627919032466,-0.447519294742442,-0.0153287553379886,-0.4475192947405,0.985496318618085,-0.908525757565374,0.732849495336245,,-1.30170850393874,-0.328542539552019,0.581269716495741,0.216291414784482,0.581269716497291,0.234099624167151,,,-1.10228119214493,-1.1687602761115,,,-2.41732937374665,-1.07717023165574,0.539199545714369,0.96327566649198,0.713974855438492,-1.56778818884385,-2.20284638662995,-3.12362761355392,1.31022511837513,-1.21984725888012,-1.21984725888124,1.43328407800431,-0.104104835672663,1.52511486096891,1.57272301161887,-0.988329996024629,0.98612346845395,0.418036981102087,-0.940661889141098,-0.940661889141174,1.69746034900459,-0.102966869107978,,11.8784000000001,102,620.700490196079,681.943627450981,1107.8137254902,581.830392156863,659.570588235294,698.922549019608,664.964705882353,1048.55882352941,1167.06862745098,0
831.7952,2.68804943320276,-1.67740663030817,1.56369339304086,1.42335573092033,-1.13284577029015,-1.13284577029019,,-0.982019552845361,0.0429056573501017,-0.397102914672966,0.0365710790169605,-0.397102914671021,0.959679770889657,-0.865215393721943,0.72557039220292,,-1.27929328478124,-0.340011412971135,0.583028184823962,0.239160881092944,0.583028184825484,0.227046502968887,,,-1.10692114322412,-1.1237378878684,,,-2.3798765463468,-1.08323541940333,0.573987854546912,1.00269655527225,0.753135288030393,-1.58619051866171,-2.16036055870802,-3.10862858363028,1.33882016160184,-1.16180825755991,-1.16180825756102,1.41492358765572,-0.0749063489986324,1.54240965371321,1.53457961409963,-0.931197767256796,1.0162293156053,0.444001796659194,-0.942330595081607,-0.942330595081732,1.67086537623599,-0.0805760627121996,,11.9808,103,628.083009708738,640.771844660194,1127.30097087379,591.552427184466,664.61359223301,662.521359223301,619.022330097087,1069.41747572816,1185.18446601942,0
831.8976,2.67235537819353,-1.62679473258289,1.60576252517657,1.43029382113388,-1.0712662068482,-1.07126620684824,,-0.957027486453275,0.0333617761048496,-0.346098488914375,0.0883527902763895,-0.346098488912426,0.932742528943605,-0.820774750959298,0.717517230130136,,-1.255218894207,-0.349793887704837,0.584091040637912,0.262286726155443,0.584091040639411,0.219320587232663,,,-1.11143842298626,-1.07744716211567,,,-2.34124914120654,-1.08819515912371,0.60800750295769,1.04085644989563,0.791311994173204,-1.60257230511699,-2.11563744360109,-3.09005872976801,1.3665765189567,-1.10255332618432,-1.1025533261854,1.39541052150587,-0.0453594788405331,1.55882786081305,1.49511404473795,-0.873195784829494,1.04556946772988,0.468308190079924,-0.944012697160375,-0.944012697160544,1.6431666535535,-0.0578283399057734,,12.0832,102,629.491297597537,637.851423028019,1139.22974389861,596.077254901961,662.905340293114,661.351514328808,614.35133172723,1075.63043740573,1202.82905039149,0
832,2.65454076541314,-1.57503130069509,1.64638266616795,1.4369771743006,-1.00882238481388,-1.00882238481391,,-0.931800466990486,0.0240135620481807,-0.294513325330362,0.139969093446543,-0.294513325328407,0.904705582689518,-0.775275822420355,0.708673457986201,,-1.22953201560545,-0.357891499551046,0.584463578415782,0.285640687120542,0.584463578417259,0.210908726593533,,,-1.11582824004354,-1.02993287061287,,,-2.3015053519919,-1.0920281879763,0.641232025750938,1.07768492924087,0.828462900686829,-1.61693339583652,-2.06878550083732,-3.06799990030182,1.3934395933712,-1.0422114506265,-1.04221145062757,1.37476077741128,-0.015503228868398,1.57433637020085,1.45438503849465,-0.814437649203604,1.07405582137687,0.490907415798761,-0.945760588249407,-0.945760588249622,1.61442427489913,-0.0348146297521494,,12.1856,103,631.593037542662,640.728683644001,1119.94151220793,604.24,658.946075085324,663.537230769231,617.920136518771,1050.85230769231,1189.03071672355,0.815533980582524
832.1024,2.63458191850133,-1.52218387464727,1.68543679552573,1.44336929937146,-0.945613128458188,-0.945613128458213,,-0.906385918573669,0.0148789953041892,-0.242355997497894,0.191370108166901,-0.242355997495934,0.875590334366093,-0.728791919243238,0.699022258306256,,-1.20228220371785,-0.364313915953377,0.584153141633683,0.309193947119316,0.584153141635137,0.201799789495244,,,-1.12008625521644,-0.981241275039744,,,-2.26070514789748,-1.09471424019914,0.67363693113279,1.11311443366447,0.864548345749296,-1.62928103647932,-2.01991796006831,-3.04254443132415,1.4193538835731,-0.980913186242888,-0.980913186243934,1.35299267468406,0.0146218156088569,1.58890278828378,1.41245385625448,-0.755039987801622,1.1015995116955,0.511754330138709,-0.947625764357705,-0.947625764357964,1.58469917532955,-0.0116265898459226,,12.288,102,634.136296928328,641.67139301654,1099.2972748753,612.44,655.832593856655,665.492615384615,617.850170648464,1025.30615384615,1173.28839590444,0.392156862745098
