time,S1-D1,S1-D8,S1-D9,S1-D15,S2-D1,S2-D2,S2-D3,S2-D9,S3-D1,S3-D2,S3-D16,S4-D2,S4-D3,S4-D5,S5-D3,S5-D4,S5-D5,S6-D2,S6-D5,S6-D17,S7-D6,S7-D7,S8-D6,S8-D7,S8-D18,S9-D3,S9-D4,S9-D9,S9-D11,S9-D19,S10-D8,S10-D9,S10-D10,S10-D11,S11-D8,S11-D10,S11-D20,S12-D10,S12-D11,S12-D12,S13-D4,S13-D11,S13-D12,S14-D10,S14-D12,S14-D21,S15-D13,S15-D14,S16-D13,S16-D14,S16-D22,t_rel_s,eye_n,xp,yp,ps,xpl_i,xpr_i,ypl_i,ypr_i,psl_i,psr_i,blink_prop
700.416,-0.827149294941717,0.265434961590808,-0.686469101613494,0.548841964540436,-1.04682925516771,-1.0468292551673,-1.07512773798305,,-2.18274132503639,0.353162728810665,-0.869510459468169,0.353162728810872,0.527961781176465,-0.151088837840053,0.429918218149504,1.10112904010818,0.216625608472706,1.00601338849456,1.74322219024084,,1.95280112649418,0.454366820156423,-0.0429104454396998,0.248575701826899,-1.41707037616934,0.737478556157672,0.737478556164646,-0.647750656886762,0.647750656885465,-0.0400852246119772,0.53674520790503,-0.0588238809489901,0.738887789731671,1.61303971002537,0.301047338620088,2.29370725265064,-1.42517244981415,0.29286357820879,0.292863578211438,0.663741688486062,,0.875697228111817,1.105816561357,0.949108349341202,1.79451859502962,0.31964428847677,1.02274549108366,1.02274549108327,-0.241585450780994,0.241585450780685,0.115049994763889,0,103,958.423786407767,553.681067961165,529.330097087379,950.457281553398,966.390291262136,552.287378640777,555.074757281553,540.485436893204,518.174757281553,0
700.5184,-0.844021201759454,0.285932424956382,-0.695357375116292,0.546272432264313,-1.08058501896767,-1.08058501896726,-1.05080788079554,,-2.21277402432626,0.32811944297613,-0.847179515105623,0.328119442976314,0.481497048905828,-0.133406778181602,0.393988458182874,1.08228627005014,0.213796824826424,0.988976387228126,1.71607399373615,,1.930810280233,0.499141748577178,0.00974476988026455,0.297032030005268,-1.42298635753346,0.736053049208943,0.736053049215913,-0.66312346351594,0.663123463514642,-0.0766200213380226,0.54683725464205,-0.0285230521522319,0.790191509317474,1.64232587047001,0.274894358596046,2.30735191690547,-1.319508828266,0.312347348582091,0.312347348584704,0.64633985591916,,0.848788661110098,1.11030776096488,0.940779254104903,1.79219960084107,0.307135155985391,1.01039977742078,1.01039977742036,-0.208259751444667,0.208259751444367,0.0871083445389528,0.102399999999989,102,957.469117647059,559.998529411765,533.25,948.702941176471,966.235294117647,557.769607843137,562.227450980392,545.294117647059,521.205882352941,0
700.6208,-0.8608371606479,0.306493327549401,-0.704171619220709,0.543860173449365,-1.11509322281932,-1.11509322281892,-1.02592275579228,,-2.241070010532,0.3030021212713,-0.824248126922987,0.30300212127147,0.435078747990449,-0.116891214142023,0.357595158052434,1.06264728785616,0.211136873400367,0.971277969931506,1.68790674473227,,1.90746251813669,0.544051458698625,0.06276026413686,0.345719214473428,-1.42805699288967,0.732435573180511,0.732435573187523,-0.678092298506939,0.67809229850564,-0.113674408943891,0.556487666353825,0.0012853190723307,0.840243016329654,1.67082422732987,0.246408259353436,2.31794047691436,-1.21093098940871,0.331903216467711,0.331903216470257,0.628455871751879,,0.820833477763383,1.11452652530566,0.930773466328321,1.7883007576661,0.294666179764546,0.997247523019001,0.997247523018565,-0.175975000771747,0.175975000771458,0.0592846439701934,0.204799999999977,103,955.456796116505,563.030097087379,534.388349514563,947.750485436893,963.163106796116,557.38640776699,568.673786407767,546.106796116505,522.669902912621,0
700.7232,-0.877593099116627,0.32708961341455,-0.71291752357409,0.541615212205992,-1.15029779219704,-1.15029779219666,-1.000429978263,,-2.2675415533187,0.277824831790485,-0.800778072636186,0.277824831790675,0.388742092152742,-0.101534475572123,0.320774707776241,1.04221671745009,0.208622525926445,0.952917464930754,1.65872477296789,,1.88274451238989,0.589083851404334,0.116129233714444,0.394627288875916,-1.43224999094174,0.726599543076688,0.726599543083637,-0.692637021676012,0.692637021674713,-0.151155224637679,0.565669872576146,0.0305229709816815,0.88890904191404,1.69842074810277,0.215657949488079,2.32539064841461,-1.09968785766447,0.351428227833621,0.351428227836125,0.610077109272262,,0.791842464098842,1.11841897433069,0.919088043855148,1.78276877420362,0.282286617689006,0.983287695480206,0.983287695479748,-0.14481657761615,0.144816577615881,0.0316043814630592,0.307199999999966,102,952.530392156863,556.524509803922,530.078431372549,947.379411764706,957.68137254902,549.101960784314,563.947058823529,542.833333333333,517.323529411765,0
700.8256,-0.894285841679676,0.347693476967725,-0.721601534975299,0.539548345930568,-1.18614069273575,-1.18614069273539,-0.974288163527226,,-2.29210649855462,0.252600662978133,-0.776833686931541,0.25260066297833,0.34252097193545,-0.0873254851137325,0.283563736550384,1.0209997193213,0.20622913578504,0.93389438165606,1.62853268965103,,1.85664437264594,0.63422100441522,0.169838971060187,0.443740382586208,-1.43553493385077,0.71852461610947,0.718524616116424,-0.706738048491488,0.706738048490184,-0.188967726352447,0.574357841368117,0.0591133228025158,0.936059131175436,1.72500251088161,0.182719523156983,2.32962790592425,-0.986037775773626,0.370821301324044,0.370821301326488,0.591191335029102,,0.761828367961022,1.12193021128016,0.905725547634803,1.77555373668877,0.270045449726317,0.968523061868241,0.968523061867765,-0.114868665045022,0.114868665044771,0.00409241805846874,0.409599999999955,102,950.379411764706,551.963235294118,535.264705882353,946.547058823529,954.211764705882,540.580392156863,563.346078431373,550.274509803922,520.254901960784,0
700.928,-0.910913025543986,0.368277355341331,-0.730230780824571,0.537671001636181,-1.22256210581145,-1.22256210581112,-0.94745742611535,,-2.31468886464405,0.227341723279584,-0.752481434059047,0.227341723279779,0.296447802266021,-0.0742499434100341,0.245998889137199,0.999002064486281,0.203930808583548,0.914208509863631,1.59733540615228,,1.82915168190228,0.679438527456572,0.223870115252012,0.493036026600219,-1.43788343795919,0.708196762211752,0.708196762218726,-0.720376436146862,0.720376436145554,-0.227016116188744,0.582526282944642,0.086981952812928,0.981566519559874,1.75045812237647,0.147676016517996,2.33058579239134,-0.870246699228367,0.389984640378172,0.389984640380536,0.571786893701704,,0.730805953048203,1.12500469007171,0.890694103988753,1.76660950554682,0.257990986524034,0.952960223425041,0.952960223424556,-0.0862139368734024,0.0862139368731675,-0.023226965704993,0.511999999999944,103,951.645631067961,555.442233009709,557.936893203884,951.464077669903,951.827184466019,543.558252427185,567.326213592233,573.961165048544,541.912621359223,0
701.0304,-0.927473005766807,0.388813910861651,-0.738812986033458,0.535995085386767,-1.25950060106047,-1.25950060106017,-0.919899866484163,,-2.33521943759043,0.202059154895639,-0.727789474902614,0.202059154895844,0.250553382157962,-0.0622905224894091,0.208116610093377,0.976230223069108,0.201700569986567,0.893860031072711,1.56513818059194,,1.80025755234972,0.724704955905836,0.278195937115914,0.542484496565707,-1.43926930738452,0.695608298850527,0.695608298857529,-0.733533968563433,0.733533968562119,-0.265204058462206,0.590150849328862,0.114057058039519,1.02530898133912,1.77467812860791,0.110617130364072,2.32820618969744,-0.752586383449625,0.408825163971001,0.408825163973302,0.551852898799893,,0.698792054531278,1.1275865930239,0.874007442258358,1.75589410241162,0.246170486020293,0.936609635513458,0.93660963551296,-0.0589332445385817,0.0589332445383661,-0.05033002683754,0.614399999999932,102,950.044607843137,562.688725490196,590.421568627451,950.753921568628,949.335294117647,544.513725490196,580.863725490196,605.362745098039,575.480392156863,0
701.1328,-0.943964755404916,0.409276008856951,-0.747356386816578,0.53453283522858,-1.29689330280399,-1.29689330280372,-0.891580042756017,,-2.35363633452413,0.176763156387368,-0.702827246672885,0.17676315638755,0.20486677424536,-0.051427065849051,0.169952943702734,0.952691459329028,0.19951052411434,0.872849633722321,1.53194669817689,,1.76995470910976,0.769981210845684,0.332781688443638,0.592048221783006,-1.43966868189432,0.680757901154907,0.680757901161959,-0.746193228424948,0.746193228423625,-0.303435173949152,0.597208321571925,0.140269875406857,1.06716961344041,1.79755542658074,0.0716389278907907,2.32243956837235,-0.633332629995359,0.427255885162319,0.427255885164557,0.531379426384663,,0.665805637656271,1.12962021078659,0.85568491027418,1.74337008174337,0.234629791329292,0.919485606762475,0.91948560676195,-0.0331053085784332,0.0331053085782359,-0.0771935153804511,0.716799999999921,103,947.315048543689,575.227669902913,617.407766990291,948.392233009709,946.23786407767,551.427184466019,599.028155339806,630.155339805825,604.660194174757,0
701.2352,-0.960387762046492,0.429636694983933,-0.755869641251008,0.533296680319727,-1.33467605067427,-1.33467605067405,-0.862465418145024,,-2.36988549935758,0.151463014376174,-0.677665065470813,0.151463014376315,0.159415213244859,-0.0416367927484652,0.131543359233488,0.928393931615293,0.197332002622302,0.851178630742999,1.49776718812934,,1.73823760891894,0.815220154251196,0.387584046779544,0.641681290292358,-1.43906017860555,0.663650596527218,0.663650596534328,-0.758337653115754,0.75833765311442,-0.341613501038012,0.603676776424372,0.165555061365767,1.10703753884788,1.81898568071689,0.0308435174316485,2.31324522997844,-0.512763631922868,0.445197172956089,0.445197172958243,0.510357707636966,,0.631867857917649,1.13105031729258,0.835751472598528,1.72900488415261,0.223413000204399,0.901606274090845,0.901606274090307,-0.00880641388788653,0.00880641388770812,-0.103794625236233,0.81919999999991,102,944.966176470588,580.445588235294,635.220588235294,946.888235294118,943.044117647059,556.180392156863,604.710784313726,645.696078431373,624.745098039216,0
701.3376,-0.976741916741938,0.449869172438286,-0.764361732739634,0.532299101463556,-1.37278355257867,-1.37278355257849,-0.832526772937762,,-2.38392110301535,0.126167150011201,-0.652373757470085,0.126167150011291,0.114224053268936,-0.0328945032210739,0.0929226123533403,0.903346802402869,0.195135708170863,0.828849084798156,1.46260658046287,,1.70510260232536,0.860366260825064,0.442550680919936,0.691329073264478,-1.43742502382543,0.644297750469165,0.644297750476338,-0.769951584366127,0.769951584364785,-0.379643922008826,0.609535723261314,0.1898510448128,1.14480853335705,1.83886773906828,-0.0116612712161566,2.30059154354223,-0.391158441125117,0.462577847528232,0.462577847530333,0.488780316833057,,0.597002120649041,1.13182253082382,0.814237697752484,1.71277116790231,0.212562175710572,0.88299355260117,0.882993552600629,0.0138898925868152,-0.0138898925869649,-0.130110939949577,0.921599999999899,103,943.55,584.307281553398,650.669902912622,944.664077669903,942.435922330097,566.200970873786,602.41359223301,660.21359223301,641.126213592233,0
701.44,-0.993027387590808,0.469946776760757,-0.772841859886076,0.531552485737676,-1.41114952267507,-1.41114952267493,-0.801738574297327,,-2.39570583802481,0.10088318994562,-0.627024325033693,0.100883189945662,0.069316765217019,-0.025172778295825,0.0541246556354656,0.877560367693019,0.1928918565328,0.805863950168667,1.42647270826384,,1.67054815052469,0.905355423029508,0.497619956917531,0.740927986743325,-1.434747168427,0.622717049566835,0.622717049573978,-0.781020325572088,0.781020325570737,-0.417432555133288,0.614766202580384,0.213100375119708,1.18038558858889,1.85710403701973,-0.0557622093309004,2.28445616727006,-0.268795582511869,0.479336075055933,0.479336075057968,0.466641351778298,,0.561234138666933,1.1318836490445,0.791179742772822,1.69464711367692,0.202117106776273,0.863673064843579,0.863673064843035,0.0349130994441958,-0.0349130994443166,-0.15612037304353,1.024,102,942.380392156863,589.066666666667,664.803921568627,942.629411764706,942.13137254902,573.95,604.183333333333,675.725490196079,653.882352941177,0
701.5424,-1.00924447001922,0.489842946101629,-0.781319306028142,0.531068969572033,-1.44970679521615,-1.44970679521605,-0.770079302327651,,-2.40521111333974,0.0756180725732338,-0.601687652524641,0.0756180725732482,0.024714991790582,-0.018442164954414,0.0151826097930677,0.851046214550759,0.190570320166368,0.782227239518245,1.38937455853756,,1.63457510355691,0.950114910277687,0.552720808456754,0.79040541309608,-1.43101338059679,0.598932486051007,0.598932486058104,-0.791530215692117,0.791530215690759,-0.454887114351282,0.619350840575116,0.235250082675163,1.213679423707,1.87360097331091,-0.101340985552151,2.26482624101448,-0.145951845045992,0.495420045223198,0.495420045225187,0.443936603335775,,0.524591987014871,1.13118194554762,0.766619344082969,1.67461669792121,0.192115123479947,0.843674061251037,0.843674061250496,0.05419602207324,-0.0541960220733322,-0.181801103697587,1.12639999999999,102,941.108823529412,589.365196078431,672.416666666667,939.203921568627,943.013725490196,582.505882352941,596.224509803922,680.607843137255,664.225490196079,0
701.6448,-1.02539341210093,0.50953118684486,-0.789803286917545,0.530860269556373,-1.48838741096634,-1.48838741096628,-0.737531734197394,,-2.41241716285319,0.0503781929413968,-0.576434249353368,0.0503781929413865,-0.0195613449821032,-0.0126713343762178,-0.0238712041821377,0.823817407082919,0.188140774447942,0.757944216047367,1.35132256251986,,1.59718703048165,0.994563506505509,0.60777279906007,0.839679807951587,-1.42621331507058,0.572974342915703,0.572974342922728,-0.801468720794008,0.80146872079264,-0.491917239062091,0.623273859776348,0.256252053923952,1.24460894819153,1.88826924652092,-0.148274516203236,2.24169853433429,-0.0229012682748801,0.510788427218541,0.51078842722047,0.420663709881452,,0.487106152267192,1.12966742183902,0.740603815919595,1.65266992998024,0.182590967775765,0.823029341841036,0.823029341840519,0.071675092483033,-0.0716750924830945,-0.207131512413256,1.22879999999998,103,937.214077669903,598.195631067961,678.058252427184,936.733009708738,937.695145631068,593.555339805825,602.835922330097,684.155339805825,671.961165048544,0
701.7472,-1.0414742225838,0.528985037674899,-0.7983027826927,0.530937506613948,-1.52712268179673,-1.52712268179671,-0.704083188094251,,-2.41731307523364,0.0251695785076382,-0.551334020536876,0.0251695785075991,-0.0634938989388418,-0.00782721166203837,-0.0630051854843009,0.79588869110634,0.185572847510745,0.733021602708392,1.31232890674088,,1.55839057884176,1.03861184398199,0.662686396653045,0.88866101175429,-1.4203395645678,0.544879172497776,0.544879172504688,-0.810824538950371,0.810824538948994,-0.528434795001882,0.62652105336275,0.27606340039306,1.27310166269439,1.90102415043492,-0.196435254747543,2.21507954364865,0.10008568158762,0.525410604336946,0.525410604338835,0.39682229368253,,0.448809573093614,1.12729201999618,0.71318604428262,1.62880304850714,0.173576716347311,0.801775177902894,0.801775177902381,0.0872906585291772,-0.087290658529207,-0.232090122758766,1.33119999999997,102,941.161764705882,605.61568627451,665.838235294118,941.454901960784,940.86862745098,596.657843137255,614.573529411765,671.774509803922,659.901960784314,0
701.8496,-1.0574864718688,0.548178037237548,-0.806826362017252,0.531311031680487,-1.56584324309697,-1.56584324309698,-0.669725723280813,,-2.41989673909503,-1.91473704731543e-06,-0.526456054169787,-1.91473711561515e-06,-0.107065728783514,-0.00387508559646936,-0.102188340692598,0.767276707869304,0.182836274842391,0.707467800296021,1.2724078525422,,1.51819584605356,1.08216294007731,0.717363467377905,0.937250772778951,-1.41338770109143,0.51468976083521,0.514689760841973,-0.819587715598866,0.819587715597476,-0.564354145910611,0.629079735420613,0.294646790699318,1.29909397955086,1.91178583688815,-0.245691505752985,2.18498554452734,0.22274277130086,0.539266687379017,0.539266687380866,0.372414081177131,,0.409737672616789,1.1240098082475,0.684424460911016,1.60301867650308,0.165101746483457,0.779951224872505,0.779951224872016,0.100987303468763,-0.100987303468764,-0.256655551593626,1.43359999999996,102,951.034803921569,582.498529411765,633.088235294118,956.357843137255,945.711764705882,577.258823529412,587.738235294118,643.294117647059,622.882352941176,0
701.952,-1.07342909134614,0.567083699785971,-0.81538200196897,0.531990258478632,-1.60447910153422,-1.60447910153426,-0.634456287252362,,-2.42017469283815,-0.0251303904208976,-0.501868419337864,-0.0251303904210095,-0.150261101636289,-0.00077870666158811,-0.1413901419725,0.738000215079017,0.179901058469502,0.68129311285152,1.2315760636737,,1.47661675848368,1.12511293066599,0.771697979749154,0.985343474144141,-1.4053563113379,0.482455074245038,0.482455074251669,-0.827749770089715,0.827749770088314,-0.599592397957016,0.630938677339558,0.31197072722592,1.3225314564873,1.92047955693734,-0.295907746565413,2.15144260991869,0.344808527668209,0.552347309618175,0.552347309619973,0.347443014607695,,0.369928388671495,1.11977714972771,0.654382991649478,1.5753259402479,0.157192730847412,0.75760042002432,0.757600420023846,0.112714191511588,-0.11271419151156,-0.280806466616582,1.53599999999994,103,952.08786407767,586.090291262136,611.174757281553,955.17572815534,949,585.120388349515,587.060194174757,626.436893203884,595.912621359223,0
702.0544,-1.08930017431356,0.585675502237299,-0.823976905545081,0.532983506060731,-1.64295968362532,-1.6429596836254,-0.598276804008788,,-2.41816187756758,-0.0502096870623406,-0.477637971486079,-0.0502096870624824,-0.193065270713224,0.00149962409573322,-0.180580357015938,0.708080315688164,0.176737629821578,0.654509980592526,1.18985293980825,,1.43367145398036,1.16735197385489,0.825576889119169,1.03282703673371,-1.39624702610721,0.44823018762378,0.44823018763024,-0.835303831202165,0.835303831200748,-0.634069620326066,0.632088035016081,0.328009769639647,1.34336895315286,1.92703588755968,-0.34694495806092,2.11448660214992,0.466026664917532,0.564653214819868,0.564653214821621,0.321915360732917,,0.329422206948961,1.11455285863621,0.623130982693893,1.54574055887065,0.149873649966334,0.734768862388106,0.734768862387636,0.122425435099816,-0.122425435099758,-0.304521550955971,1.63839999999993,102,956.55637254902,578.657352941177,602.524509803922,958.961764705882,954.150980392157,579.358823529412,577.955882352941,620.725490196079,584.323529411765,0
702.1568,-1.10509678506165,0.603926886850648,-0.83261732153758,0.534297852433094,-1.68121389201993,-1.68121389202004,-0.561194204253342,,-2.41388130151431,-0.0752331488267389,-0.453830163170309,-0.0752331488268807,-0.235464235479503,0.0029989747046863,-0.21972885883012,0.677540688751053,0.17331701745187,0.627133215636252,1.1472609414211,,1.3893826523631,1.20876527242331,0.87888114716823,1.07958394444915,-1.3860645406812,0.41207619404816,0.41207619405445,-0.842244774808974,0.842244774807537,-0.667709043051362,0.632519267920124,0.342744718267116,1.36157072757291,1.93139094580525,-0.398660963794855,2.07416314172465,0.586146448601806,0.576194663795344,0.576194663797047,0.295839812169046,,0.288262192065528,1.10829834308963,0.590743108576321,1.51428490693373,0.143165821653847,0.711505672236469,0.711505672236013,0.130080465507174,-0.130080465507077,-0.327779476232658,1.74079999999992,103,958.809708737864,579.485922330097,599.470873786408,960.68932038835,956.930097087379,582.565048543689,576.406796116505,620.320388349515,578.621359223301,0
702.2592,-1.12081478368347,0.621811284262766,-0.84130837226687,0.535938998588139,-1.71917017675871,-1.71917017675884,-0.523220400804918,,-2.40736363054316,-0.100193403635413,-0.430508858304739,-0.100193403635571,-0.277444498866512,0.00375970895310288,-0.25880542970912,0.646407811727038,0.169611022287761,0.599180231777415,1.10382588612051,,1.34377799325718,1.2492341506255,0.931486768980245,1.1254923256216,-1.37481662161881,0.374060094048982,0.374060094055082,-0.848569358428188,0.848569358426737,-0.700437232329707,0.632225053237969,0.356162769805443,1.37711049222727,1.9334865868549,-0.450910775726676,2.03052755007117,0.704923035443953,0.586990697014666,0.586990697016316,0.269227569181015,,0.246494003231641,1.10097773296026,0.557299262028703,1.48098804852413,0.137087953530113,0.687862827880503,0.68786282788006,0.135644380256695,-0.135644380256563,-0.350558885712916,1.84319999999991,102,957.410294117647,579.260294117647,594.470588235294,956.519607843137,958.300980392157,580.83137254902,577.689215686275,613.490196078431,575.450980392157,0
702.3616,-1.13644867023007,0.639302159258199,-0.850053891767773,0.537911139700543,-1.75675662351306,-1.75675662351322,-0.484372212632464,,-2.39864672659483,-0.125082157829937,-0.40773614911137,-0.125082157830121,-0.318992834022867,0.00382341747510594,-0.297779572239942,0.614711163937223,0.165592399967653,0.570671259236828,1.05957720236932,,1.29689032622591,1.28863713078242,0.983265901557132,1.17042703490626,-1.3625140964357,0.334254660770117,0.334254660775999,-0.854276349031891,0.85427634903042,-0.732184246653345,0.631199204359133,0.368257650412281,1.3899714497304,1.93327057978637,-0.503546948436652,1.98364475675643,0.822117824188122,0.597068297370531,0.597068297372141,0.242092393795072,,0.204165884028258,1.09255799533317,0.522884422008285,1.4458857424119,0.131656224084398,0.663894979423616,0.66389497942319,0.139088249139796,-0.139088249139633,-0.372838392048306,1.9455999999999,103,954.282524271845,578.45,584.18932038835,950.670873786408,957.894174757282,579.477669902913,577.422330097087,596.135922330097,572.242718446602,0
702.464,-1.15199144876627,0.656373076822611,-0.858856275779045,0.540216841369276,-1.79390105308576,-1.79390105308596,-0.444671244040375,,-2.38777516077925,-0.149890013266711,-0.385572177896359,-0.149890013266927,-0.36009606755449,0.00323284803440721,-0.3366203361365,0.58248340207533,0.16123504313104,0.541629534983947,1.0145481359272,,1.24875794658836,1.32685097268506,1.03408785688656,1.21426069842126,-1.34917082638686,0.292738275184918,0.292738275190565,-0.859366634833234,0.859366634831749,-0.762883778626573,0.629436605730084,0.37902971978917,1.40014631862711,1.93069675792557,-0.556419951062651,1.93358915906946,0.937498835240982,0.606461502163446,0.606461502164996,0.214450639783347,,0.161328626705179,1.0830090467675,0.487588491402813,1.40902042027669,0.126884394139089,0.63965923816797,0.639659238167565,0.140389376055009,-0.140389376054813,-0.394596598691595,2.048,102,951.246568627451,582.207843137255,577.936274509804,946.800980392157,955.692156862745,577.851960784314,586.563725490196,588.588235294118,567.28431372549,0
702.5664,-1.16743451223657,0.672997783670442,-0.867716346021411,0.542856926130807,-1.83053112442586,-1.8305311244261,-0.404143732516823,,-2.37479972604527,-0.174606311938968,-0.364074969778746,-0.174606311939211,-0.400740880469733,0.00203182794336925,-0.375296165112696,0.549760498846625,0.15651415143218,0.512081458353572,0.968775913587451,,1.19942477850117,1.36375165319143,1.08382008744297,1.25686469954004,-1.33480366578457,0.249594727590802,0.249594727596275,-0.863843305027115,0.863843305025607,-0.792473283395147,0.626933172202993,0.388486030879112,1.40763734323488,1.92572514802813,-0.609378567848269,1.88044442966416,1.05084111102181,0.615210511779555,0.615210511781062,0.186321270480295,,0.118035520787421,1.07230387368337,0.451506092289744,1.37044113915148,0.122783945176428,0.61521493664985,0.615214936649453,0.139531521062099,-0.139531521061875,-0.41581215220818,2.15039999999999,102,949.577450980392,574.605392156863,572.794117647059,942.345098039216,956.809803921569,567.036274509804,582.174509803922,583.901960784314,561.686274509804,0
702.6688,-1.18276755060454,0.689150302595047,-0.876633231975355,0.545830382736109,-1.86657444015152,-1.86657444015178,-0.362820384840079,,-2.35977696941291,-0.199219013220855,-0.343300283750955,-0.199219013221129,-0.440913624509025,0.000265174521734747,-0.413774763396548,0.516581836812314,0.151406378374161,0.482056702823205,0.922301873477003,,1.14894051177712,1.39921527696818,1.1323290953893,1.29811009634833,-1.31943241096015,0.204912988163262,0.204912988168557,-0.867711685006579,0.867711685005054,-0.820894089324897,0.623685832962274,0.396640332127825,1.41245627211225,1.9183220876965,-0.662270330094158,1.82430328160881,1.16192711170029,0.623360827002562,0.62336082700401,0.157725874453152,,0.0743422962357506,1.06041866609208,0.41473630954382,1.33020350576041,0.119364235251863,0.590623353710489,0.590623353710105,0.13650508458505,-0.136505084584793,-0.436463823747326,2.25279999999998,103,945.237378640777,581.168446601942,568.23786407767,935.574757281553,954.9,572.727184466019,589.609708737864,575.621359223301,560.854368932039,0
702.7712,-1.19797848627462,0.704805038395644,-0.885604274344414,0.549134308960701,-1.90195866221523,-1.90195866221551,-0.320736218936517,,-2.34276875482921,-0.223714608033324,-0.323301485947088,-0.22371460803363,-0.48060015512397,-0.00202140524633242,-0.452022982569495,0.482990251830786,0.145889951549151,0.451588278358064,0.875171564581204,,1.09736069353714,1.4331189184672,1.17948127650606,1.3378684712511,-1.30307973948393,0.158786955425522,0.158786955430653,-0.870979327501013,0.870979327499471,-0.848091485730587,0.6196925327152,0.403513009776346,1.41462429111389,1.90846033690281,-0.714941972604783,1.76526720433656,1.27054708422064,0.630962427673885,0.630962427675277,0.128688678171438,,0.0303070622310521,1.04733295914806,0.377382382166061,1.28836956703284,0.116632665215886,0.56594740243371,0.565947402433345,0.131307251121956,-0.131307251121664,-0.456530610189772,2.35519999999997,102,944.488235294118,586.621568627451,568.700980392157,936.102941176471,952.873529411765,574.21568627451,599.027450980392,574.264705882353,563.137254901961,0
702.8736,-1.21305344190859,0.719936892417136,-0.894624956008029,0.552763889611507,-1.93661164744358,-1.93661164744389,-0.277930418607039,,-2.32384185422132,-0.248078071872038,-0.304129444738094,-0.248078071872396,-0.51978568966197,-0.00478142196135234,-0.490006735068536,0.449032023858879,0.139944771005295,0.420712543326866,0.827434806194401,,1.04474676545514,1.46534139654458,1.2251437018549,1.37601271482226,-1.28577113821016,0.11131519344015,0.111315193445122,-0.873655970682508,0.873655970680946,-0.874014786118925,0.614952240471546,0.409130976092554,1.41417190348752,1.89611917927466,-0.76723990359038,1.70344617481602,1.37649939668112,0.63806899465835,0.638068994659692,0.0992365445052635,,-0.0140097675082387,1.03302976863393,0.339551349064257,1.2450076589618,0.114594858614276,0.541251281083353,0.541251281083017,0.123942088586818,-0.123942088586498,-0.475991844710461,2.45759999999996,102,943.183333333333,587.617156862745,570.872549019608,937.101960784314,949.264705882353,576.717647058824,598.516666666667,576.803921568627,564.941176470588,0
702.976,-1.22797674463044,0.734521381710332,-0.903688865566501,0.556712404260884,-1.97046160708036,-1.97046160708068,-0.234446197350227,,-2.30306755624671,-0.272292854566638,-0.285832446310121,-0.27229285456705,-0.558454699780338,-0.00796771306901733,-0.527690940694641,0.414756817490323,0.133552493874791,0.389469169715609,0.779145695284546,,0.991166037244796,1.4957639815849,1.26918483800444,1.4124177441651,-1.26753481693595,0.0626006658388222,0.0626006658436558,-0.875753477559247,0.875753477557661,-0.898617370584001,0.609464959747304,0.413527515106761,1.41113876149724,1.88128450111705,-0.819010677391908,1.63895833824265,1.47959084091169,0.644737171447829,0.644737171449118,0.0693989453121516,,-0.0585455728035072,1.01749570513143,0.301353658889802,1.20019220695631,0.113254865571463,0.516600089338893,0.516600089338584,0.114420599635179,-0.11442059963483,-0.494827312763299,2.55999999999995,103,946.058252427184,570.251941747573,578.859223300971,944.611650485437,947.504854368932,572.834951456311,567.668932038835,588.097087378641,569.621359223301,0
703.0784,-1.24273096657094,0.748534759839237,-0.912787694440526,0.560971258137903,-2.0034372868665,-2.00343728686683,-0.190330661301992,,-2.28052128453738,-0.296340900816823,-0.268456130219203,-0.296340900817304,-0.596590839356824,-0.0115325486514893,-0.565039504933602,0.380217578485166,0.126696611640726,0.357901068396648,0.7303625575992,,0.936691597730508,1.52427103334323,1.31147520396481,1.44696115395405,-1.24840160275439,0.0127504684034754,0.0127504684081862,-0.877285770039908,0.877285770038297,-0.921856715884445,0.603231740436891,0.416742101903008,1.40557346906176,1.86394883690251,-0.870101463217687,1.57192965012249,1.57963691093433,0.65102585734781,0.651025857349036,0.0392079042884166,,-0.103235650822032,1.00072105724489,0.262902752013322,1.15400347494746,0.112615396857581,0.492059416743321,0.492059416743042,0.102760719129698,-0.102760719129322,-0.513017378385899,2.66239999999993,102,946.096568627451,574.676470588235,593.03431372549,946.929411764706,945.263725490196,581.255882352941,568.09705882353,604.901960784314,581.166666666667,0
703.1808,-1.25729699740551,0.761954137040254,-0.921911264223454,0.565530031257592,-2.03546816081182,-2.03546816081215,-0.145634660752323,,-2.25628222310624,-0.320202695107511,-0.252043443646628,-0.320202695108038,-0.634176902932211,-0.0154277301049227,-0.602015322845047,0.345470392291347,0.11936252225746,0.326054280146016,0.681147845254183,,0.881402171580952,1.55075056767421,1.35188796287051,1.47952379825715,-1.22840481164329,-0.0381244451003481,-0.0381244450958374,-0.878268765286778,0.878268765285135,-0.943694423987932,0.5962546988403,0.418820207085607,1.39753337902471,1.84411137671791,-0.920360510507084,1.50249347353316,1.67646206619668,0.656995526327403,0.656995526328585,0.00869791441088177,,-0.148013360923446,0.982699840924559,0.224314616833827,1.10652726218595,0.112678086792704,0.467694910495165,0.467694910494938,0.0889872526715573,-0.0889872526711494,-0.530543130685744,2.76479999999992,103,949.349029126214,583.335922330097,606.432038834952,951.167961165049,947.530097087379,577.442718446602,589.229126213592,613.679611650485,599.184466019418,0
703.2832,-1.27165414433371,0.774757597680052,-0.931047580709683,0.570376543686744,-2.06648463456612,-2.06648463456649,-0.100412624931951,,-2.23043295258903,-0.343857329197091,-0.236634610720513,-0.343857329197647,-0.671194812172429,-0.0196046815826715,-0.638580306108501,0.310574305639826,0.111537594786397,0.293977832879254,0.631567983701495,,0.825381925474249,1.57509475451609,1.39029945085737,1.50999030555957,-1.20758009958322,-0.0899095535834417,-0.0899095535790955,-0.878720310823272,0.8787203108216,-0.964096256913637,0.588537056305102,0.419813081153578,1.38708439454712,1.82177793839328,-0.969637619233868,1.43079012762661,1.76989998634499,0.66270757418899,0.66270757419012,-0.0220941617582835,,-0.192810283483877,0.963429815505506,0.185707315021842,1.05785454405528,0.113443779946931,0.443571821983196,0.44357182198302,0.0731317573881857,-0.0731317573877481,-0.547386559580197,2.86719999999991,102,962.952941176471,608.637745098039,622.573529411765,961.405882352941,964.5,594.804901960784,622.470588235294,627.990196078431,617.156862745098,0
703.3856,-1.28578025980118,0.78692431562619,-0.940182914673202,0.575496940991217,-2.09641826112241,-2.09641826112279,-0.054722383050399,,-2.20305910774244,-0.367282597663048,-0.222267112360331,-0.367282597663644,-0.707625634721147,-0.0240145356909698,-0.674695437976213,0.275591106244431,0.103211220515786,0.261723559541215,0.581693168503942,,0.768720220389698,1.59720035393498,1.42658964949695,1.53824953366186,-1.18596529966577,-0.142487086603374,-0.142487086599211,-0.878660108249752,0.878660108248057,-0.983032178929292,0.580083203436949,0.419777501031315,1.37430076395722,1.79696091164298,-1.01778462609212,1.35696638689473,1.85979381949522,0.668223700838704,0.668223700839794,-0.0531292014935413,,-0.237556386867565,0.942912469328322,0.147200467669302,1.0080810532829,0.114912833958311,0.419754527066671,0.41975452706655,0.0552323655354507,-0.0552323655349873,-0.563530765702416,2.9695999999999,103,960.901941747573,618.431067961165,642.990291262136,961.073786407767,960.730097087379,604.632038834952,632.230097087379,652.019417475728,633.961165048544,0
703.488,-1.29965190115375,0.798434672775508,-0.949301911551186,0.580875809694873,-2.1252019766024,-2.1252019766028,-0.00862498075485324,,-2.1742490699128,-0.390455130175645,-0.20897567369188,-0.390455130176279,-0.743449641247317,-0.0286082155136832,-0.710320862483912,0.240585054318747,0.0943748432902702,0.22934586968041,0.531597112699819,,0.711511306396945,1.61696909680044,1.4606426072245,1.56419497059956,-1.16360025008601,-0.195736378543992,-0.195736378539983,-0.878109621153982,0.878109621152263,-1.00047640210219,0.57089878319323,0.41877546941973,1.35926484786111,1.7696791816869,-1.06465591317122,1.28117493473247,1.94599642048695,0.673605330111307,0.673605330112373,-0.0843659388634645,,-0.282180200850023,0.921152977716351,0.108914702012161,0.957306803910664,0.117085426158136,0.396306024452122,0.396306024452049,0.0353335414100622,-0.0353335414095808,-0.578960202109804,3.072,102,962.90931372549,622.641666666667,658.112745098039,962.304901960784,963.513725490196,614.741176470588,630.542156862745,671.156862745098,645.06862745098,0
703.5904,-1.31324452269216,0.809270387017236,-0.958387728343897,0.586496329900308,-2.15277036062782,-2.15277036062824,0.0378155004402576,,-2.14409370137873,-0.4133505635662,-0.196792257473597,-0.413350563566882,-0.778646399509805,-0.0333365169149448,-0.745416008530656,0.205622565916866,0.0850219639457528,0.196901473678892,0.481356750230761,,0.653853962979201,1.63430801496142,1.49234681345791,1.58772508599855,-1.14052661494328,-0.249534263417427,-0.249534263413588,-0.877091972361648,0.877091972359908,-1.01640743123672,0.560990771978664,0.416873875810127,1.34206683757591,1.73995803584926,-1.11010893805922,1.20357377663321,2.0283705720472,0.678913065156378,0.678913065157419,-0.115761092343737,,-0.326608999407111,0.898160132699493,0.0709710712296519,0.905635567307133,0.119961847650822,0.37328743154789,0.373287431547855,0.0134857589889346,-0.0134857589884284,-0.59366093589109,3.17439999999999,102,965.057352941176,623.99068627451,661.789215686274,965.854901960784,964.259803921569,622.792156862745,625.189215686275,674,649.578431372549,0
703.6928,-1.32653269125586,0.819414650467413,-0.967422189119375,0.592340461976974,-2.17905991539069,-2.17905991539114,0.084532125421388,,-2.11268611146166,-0.43594374636111,-0.18574606146695,-0.43594374636185,-0.813194895071629,-0.0381501954122211,-0.77993974096199,0.170771857677608,0.075148118453212,0.164449067926529,0.431051907769187,,0.595851096707819,1.64912972691847,1.52159553059897,1.60874363857207,-1.11678769916448,-0.303755507953235,-0.303755507949583,-0.875631838295681,0.875631838293918,-1.0308081060628,0.550367534649834,0.414144135998358,1.32280440862971,1.70782905327556,-1.15400477792329,1.12432561979127,2.1067891821863,0.684206177813853,0.684206177814878,-0.147269506838146,,-0.370768997130466,0.873946243498958,0.0334904653478784,0.853174313505031,0.123542767531993,0.350757501000846,0.350757501000851,-0.0102549021265408,0.0102549021270659,-0.607620910592067,3.27679999999998,103,969.735922330097,619.958252427185,649.310679611651,969.597087378641,969.874757281553,610.039805825243,629.876699029126,660.339805825243,638.281553398058,0
703.7952,-1.33949031038703,0.828852272755907,-0.976385946859577,0.598389155731087,-2.20400934956158,-2.20400934956204,0.131455306978321,,-2.08012143136301,-0.45820896111022,-0.175863517153286,-0.45820896111101,-0.847073663978559,-0.0430000590974781,-0.813850525513496,0.136102568170203,0.0647508348977503,0.132048995258885,0.380764960698781,,0.537609313271411,1.66135268691673,1.5482870913994,1.62715994756157,-1.09242825866574,-0.358273273546384,-0.358273273542939,-0.873755343227396,0.873755343225614,-1.04366563780327,0.539038838485542,0.410661822647408,1.30158230175403,1.67332997807581,-1.19620867628141,1.04359722949297,2.18113545443283,0.68954213278109,0.689542132782113,-0.17884431130974,,-0.414585561677691,0.848527011830232,-0.00340697369382368,0.800032631998576,0.127829452878365,0.328772171376343,0.328772171376393,-0.0358272330966258,0.0358272330971697,-0.620830189655218,3.37919999999997,102,974.246078431373,615.725,625.710784313726,972.405882352941,976.086274509804,607.44705882353,624.002941176471,631.166666666667,620.254901960784,0
703.8976,-1.35209084071061,0.837569825184828,-0.985258641458802,0.604622569465105,-2.22755985500079,-2.22755985500127,0.1785130443001,,-2.04649657834891,-0.480120148715915,-0.167168288421601,-0.480120148716749,-0.880260925889823,-0.0478370661636615,-0.847106596180883,0.101685369191654,0.0538295798332813,0.0997628944602994,0.330580483248103,,0.479238477858429,1.67090140360321,1.57232516830127,1.64288913451087,-1.06749430511287,-0.412959594349961,-0.412959594346772,-0.871489947739723,0.87148994773792,-1.05497163486995,0.527015827132278,0.406506290811805,1.27851183755122,1.63650457669216,-1.23659058031458,0.961558774059105,2.25130303005717,0.694976148074229,0.694976148075276,-0.210437093044692,,-0.457983443436373,0.821921389289212,-0.0396024275449929,0.746322143028444,0.132823937180737,0.307384154806594,0.307384154806694,-0.0631654314958983,0.063165431496462,-0.633281166277638,3.48159999999996,102,978.536274509804,614.871078431373,609.578431372549,977.595098039216,979.477450980392,613.844117647059,615.898039215686,611.901960784314,607.254901960784,0
704,-1.36430751069617,0.845555786946407,-0.994019047995137,0.611020290649517,-2.24965537122458,-2.24965537122507,0.225631209894803,,-2.0119099989182,-0.501651122235345,-0.159681271176645,-0.501651122236213,-0.912734712869863,-0.0526124238283934,-0.879666119124517,0.0675915741879917,0.0423857074761485,0.0676533478302613,0.280584892573392,,0.420851270746724,1.67770662904195,1.5936190174535,1.65585233697754,-1.04203290159065,-0.467685861020334,-0.467685861017355,-0.868864321483111,0.868864321481287,-1.06472211093525,0.514310967815699,0.40176029617424,1.25371038218877,1.59740247829746,-1.27502565920887,0.878383165261028,2.31719610197092,0.700560790777225,0.700560790778269,-0.24199809203111,,-0.50088702406692,0.794151420164771,-0.0749789668698126,0.692155903025318,0.138529136111752,0.28664256184705,0.286642561847209,-0.0921996859419776,0.0921996859425586,-0.644968731042807,3.58399999999995,103,984.343689320388,612.721844660194,605.990291262136,985.22427184466,983.463106796117,607.254368932039,618.18932038835,603.699029126214,608.281553398058,0
704.1024,-1.37611351483296,0.852800694466978,-1.00264521212627,0.617561554302068,-2.27024283524512,-2.27024283524563,0.272733895468625,,-1.97646138378717,-0.522775763145748,-0.15342059686517,-0.522775763146652,-0.944472991956135,-0.0572776853435563,-0.911487349899136,0.0338927469645121,0.0304224215576724,0.0357835315698535,0.230866084208081,,0.36256274265666,1.68170551598004,1.61208369747919,1.66597689297632,-1.01609194288082,-0.522323304467819,-0.522323304465005,-0.865908195101987,0.865908195100144,-1.07291746785874,0.500937985281943,0.396509603283207,1.22730078118281,1.55607899458658,-1.31139479796362,0.794245394565312,2.37872950056226,0.706345604210691,0.706345604211744,-0.273476417873348,,-0.543220584111851,0.765242064862041,-0.109422106286681,0.637647799979569,0.144948908880409,0.266592567594636,0.266592567594838,-0.122856801093643,0.122856801094234,-0.655890391586833,3.68639999999994,102,995.140196078431,610.707352941177,615.911764705882,999.276470588235,991.003921568628,603.821568627451,617.593137254902,610.127450980392,621.696078431373,0
704.2048,-1.38748219659406,0.859297288978552,-1.01111457180752,0.624225457611744,-2.28927241347531,-2.28927241347582,0.31974382787513,,-1.94025135167665,-0.543468200180259,-0.148401642935162,-0.543468200181199,-0.975453779870994,-0.0617848456560389,-0.942528782723086,0.000660311807208231,0.017944750870343,0.00421687017876275,0.181513060242258,,0.304489873925117,1.68284174448305,1.6276402646078,1.67319649749098,-0.989719914870472,-0.576743479080941,-0.576743479078284,-0.862652190618052,0.862652190616184,-1.07956244638073,0.486911789792617,0.390842579696884,1.19941076743165,1.51259491546337,-1.34558506483449,0.70932186243328,2.43582875369619,0.712376764895336,0.712376764896377,-0.30482028698897,,-0.584908586802531,0.735220993854175,-0.142820347356951,0.582911930354125,0.152088059804411,0.247275125147547,0.247275125147809,-0.155060852800804,0.155060852801397,-0.666046341015893,3.78879999999992,103,1023.52718446602,616.391747572816,628.606796116505,1030.15145631068,1016.90291262136,606.100970873786,626.682524271845,620.990291262136,636.223300970874,0
704.3072,-1.39838721670426,0.865040654931908,-1.01940406831919,0.630991171860228,-2.30669771444296,-2.30669771444345,0.366582862614829,,-1.90338110233712,-0.563702977668529,-0.144637049801174,-0.563702977669525,-1.00565525330091,-0.0660864406822673,-0.972749297157231,-0.0320348387235226,0.00495953202984905,-0.0269833097176108,0.132615550762747,,0.246751135133616,1.68106562368839,1.6402159482132,1.67745133613022,-0.962965632247044,-0.630818751221452,-0.630818751218902,-0.859127625984001,0.859127625982109,-1.08466604163715,0.472248402640275,0.384849764620549,1.17017233512969,1.46701628085087,-1.377490156848,0.623789697033363,2.48843012638787,0.718696773468849,0.71869677346987,-0.335977276184175,,-0.625875975446607,0.704118346064202,-0.175065711417462,0.528061950355958,0.159952275476215,0.228726725941039,0.228726725941357,-0.18873386704064,0.188733867041236,-0.675439477782052,3.89119999999991,102,1077.84558823529,625.570098039216,645.28431372549,1085.19803921569,1070.4931372549,615.652941176471,635.487254901961,638.794117647059,651.774509803922,0
704.4096,-1.40880271090749,0.870028345578103,-1.02749025178766,0.637838154982235,-2.32247598452604,-2.32247598452652,0.413172555818201,,-1.86595203628502,-0.583455222001644,-0.142136739639755,-0.583455222002692,-1.03505586345583,-0.0701356527786375,-1.00210831149564,-0.0641227449376889,-0.00852461054679081,-0.0577541339155808,0.0842636276755921,,0.189466042629852,1.67633417516785,1.64974431016052,1.67868820117071,-0.935877958293219,-0.68442280448657,-0.684422804484204,-0.855366289170186,0.855366289168273,-1.08824138764392,0.456964878405073,0.378623399675732,1.13972106366219,1.41941413450555,-1.40701083503771,0.53782605943935,2.5364806487221,0.725344185265593,0.725344185266603,-0.366894588735281,,-0.666048482826831,0.671966457743958,-0.206054268760626,0.473210402177596,0.168547996764238,0.210979197530337,0.210979197530707,-0.223796527879077,0.223796527879676,-0.684075388012335,3.9935999999999,102,1081.6137254902,630.580392156863,663.485294117647,1091.7068627451,1071.52058823529,626.016666666667,635.144117647059,658.460784313726,668.509803921569,0
704.512,-1.41870344070986,0.874260495659187,-1.03534938448315,0.644746365978282,-2.33656828862065,-2.33656828862111,0.459434805022418,,-1.82806533953011,-0.602700809432645,-0.14090793230185,-0.602700809433743,-1.06363445917817,-0.0738864185604436,-1.03056594520272,-0.0955347901655027,-0.0224972969311477,-0.0880335455368717,0.0365473159023585,,0.132754708670667,1.66861120323253,1.65616539008619,1.67686059401174,-0.908505513575287,-0.737431171091559,-0.737431171089366,-0.851400187033415,0.851400187031482,-1.09030561998608,0.441079219199531,0.372256921735781,1.10819538423965,1.36986426861854,-1.43405535968489,0.451607437246913,2.57993813931838,0.732353382175661,0.732353382176654,-0.397519325682277,,-0.705352947504586,0.638799578098079,-0.235686666738097,0.418468028547973,0.177882229286602,0.1940595310888,0.194059531089204,-0.26016891984645,0.260168919847051,-0.691962306376428,4.09599999999989,103,985.288834951456,636.489805825243,685.587378640777,988.538834951456,982.038834951456,632.119417475728,640.860194174757,681.300970873786,689.873786407767,0
704.6144,-1.42806493741487,0.877739921147743,-1.04295754221184,0.651696475700462,-2.34893967521187,-2.34893967521232,0.505292534950998,,-1.78982154106303,-0.621416531275423,-0.140955157871079,-0.621416531276584,-1.09137041331457,-0.0772935334094859,-1.05808318297357,-0.126204109486335,-0.036946441357548,-0.117760672217085,-0.0104437876419349,,0.0767373931283238,1.65786735784066,1.65942584006759,1.67192881881948,-0.880896383205725,-0.789721787089712,-0.789721787087645,-0.847261283096552,0.847261283094596,-1.09087972671772,0.424610280035221,0.365844428676755,1.0757358008889,1.31844696541881,-1.45853992359161,0.365308936164533,2.61877122485608,0.739754383068506,0.739754383069488,-0.427798751471789,,-0.743717627213203,0.604653589261391,-0.263868647049336,0.363943099929679,0.187962302375657,0.177989742982383,0.177989742982849,-0.297771286212613,0.297771286213211,-0.699111071035999,4.19839999999999,102,911.312745098039,632.026470588235,697.71568627451,911.252941176471,911.372549019608,627.238235294118,636.814705882353,703,692.43137254902,0
704.7168,-1.43686363820962,0.880472204370037,-1.05029071320199,0.658670063113287,-2.35955932490348,-2.35955932490391,0.550670392291034,,-1.75132005662634,-0.639580249308852,-0.142280269234183,-0.639580249310064,-1.1182437427547,-0.0803127497185461,-1.08462203012673,-0.156065981698749,-0.0518583193936964,-0.146876182200691,-0.0566208786564404,,0.0215340634733922,1.64408019642227,1.65947905398434,1.6638600732996,-0.853097834050238,-0.841175556899452,-0.84117555689746,-0.842981239170631,0.842981239168654,-1.08998839629585,0.407577672853956,0.35948012977351,1.04248409114135,1.26524673730017,-1.48038906920527,0.2791035840498,2.65295934970697,0.747572688124321,0.747572688125285,-0.45768054406107,,-0.781072499186289,0.569565744618685,-0.290511533055001,0.309740782704786,0.198795593167453,0.162786784089929,0.16278678409045,-0.336524757013234,0.336524757013832,-0.705535085014565,4.30079999999998,103,800.178155339806,690.564077669903,681.893203883495,792.055339805825,808.300970873787,756.179611650485,624.94854368932,669.038834951456,694.747572815534,0
704.8192,-1.44507701356415,0.882465761732811,-1.05732489473368,0.665649786595139,-2.36840068379047,-2.36840068379087,0.595495408235388,,-1.71265872547803,-0.657171035839278,-0.144882458571633,-0.657171035840524,-1.14423521538079,-0.0829008686304165,-1.11014565288164,-0.18505819226865,-0.067217649638971,-0.175322618026076,-0.101896291251369,,-0.0327360355698153,1.62723424971052,1.65628529684844,1.65262854180809,-0.825156051141607,-0.891676907456431,-0.891676907454501,-0.838591172672766,0.838591172670768,-1.08765986977434,0.390001679774413,0.353257791359834,1.00858251496897,1.21035206401724,-1.49953607193195,0.19316166120301,2.68249276871969,0.755829152207712,0.755829152208649,-0.487113025144359,,-0.817349541997581,0.533574434480459,-0.315532668034066,0.255962571921948,0.210389235358087,0.148462508966117,0.148462508966702,-0.376351996990543,0.376351996991135,-0.711250291217347,4.40319999999997,102,632.536764705882,736.427941176471,670.799019607843,615.685294117647,649.388235294118,861.91862745098,610.937254901961,636.480392156863,705.117647058824,0
704.9216,-1.45268368658964,0.883731891248605,-1.06403618906971,0.672619525904336,-2.37544158632943,-2.37544158632979,0.639697596118501,,-1.67393333834435,-0.674169297859225,-0.148758279765916,-0.674169297860513,-1.16932644338603,-0.0850158281999443,-1.1346185042855,-0.213121363539424,-0.0830076846472589,-0.203044703477845,-0.146183830650587,,-0.0859548082368243,1.60732109349818,1.64981183829199,1.63821549369056,-0.797115896758977,-0.94111431397995,-0.94111431397804,-0.834121437240068,0.834121437238048,-1.08392580068058,0.37190318198632,0.347270189782702,0.974173055991948,1.15385512479814,-1.51592327530018,0.107650066911032,2.7073725198205,0.76453988352184,0.764539883522773,-0.516045374395466,,-0.852483001172249,0.496718980597624,-0.338855792481305,0.202705799394236,0.222749830024424,0.135023707657393,0.135023707658051,-0.417177745528256,0.417177745528839,-0.716275158378024,4.50559999999996,102,631.442156862745,717.006862745098,684.696078431373,619.862745098039,643.021568627451,831.987254901961,602.026470588235,649.21568627451,720.176470588235,0
705.024,-1.45966354603083,0.884284798471563,-1.07040090073084,0.679564497776898,-2.38066437383991,-2.38066437384024,0.683210472899754,,-1.6352371596374,-0.69055688998838,-0.153901677048736,-0.690556889989701,-1.19349996773836,-0.0866167953041021,-1.15800644345734,-0.240199258312729,-0.099210303298152,-0.229989627566687,-0.189399106582696,,-0.138005741425847,1.58433942469655,1.64003309349041,1.6206093872786,-0.769020688326054,-0.989380784319751,-0.989380784317855,-0.829601428936002,0.829601428933959,-1.078821119153,0.353303603923264,0.341608582842717,0.939396707733939,1.09585152438066,-1.529502368803,0.0227317291153839,2.72761037827326,0.773716165070218,0.773716165071151,-0.544427838791198,,-0.886409647479511,0.459039451967962,-0.360411357080842,0.150063212660433,0.23588317026594,0.12247219257036,0.12247219257108,-0.458929245983208,0.458929245983781,-0.72063066314297,4.60799999999995,103,697.076699029126,698.822815533981,695.354368932039,685.342718446602,708.810679611651,800.697087378641,596.948543689321,661.194174757282,729.514563106796,0
705.1264,-1.46599785542999,0.884141602557994,-1.07639563691602,0.686471352251496,-2.38405601392735,-2.38405601392763,0.725971509944718,,-1.59666045605231,-0.706317224681269,-0.160304020496615,-0.706317224682612,-1.21673934254422,-0.0876642709632073,-1.18027686056893,-0.266239071665176,-0.115806095561249,-0.256107316687562,-0.231459887802418,,-0.18877436294888,1.55829513775005,1.62693077384286,1.59980597820469,-0.740911986444081,-1.03637429461012,-1.03637429460828,-0.825059415520531,0.825059415518474,-1.07238389131233,0.334224868974455,0.336362203807018,0.904392804155861,1.03644001391012,-1.54023460512714,-0.0614349387021896,2.74322879826756,0.783364396619525,0.783364396620478,-0.572211951085828,,-0.919069039531805,0.420576487683579,-0.380136773953896,0.0981226092799319,0.249793986139898,0.110804925759754,0.110804925760559,-0.501536573873657,0.501536573874222,-0.724340249348157,4.71039999999994,102,825.489215686275,659.68137254902,694.073529411765,817.974509803922,833.003921568628,732.354901960784,587.007843137255,669.529411764706,718.617647058824,0
705.2288,-1.47166936164384,0.883322326907716,-1.08199741254319,0.693328256900293,-2.38560822377117,-2.38560822377142,0.767922521209897,,-1.55829004270433,-0.721435388832347,-0.167954149012706,-0.721435388833723,-1.23902922966203,-0.08812021637072,-1.20139882044988,-0.291191728639349,-0.132774433224991,-0.281350709063542,-0.272286497395503,,-0.238148741854634,1.52920139673756,1.61049404738777,1.57580842928664,-0.712829385982982,-1.08199817542623,-1.08199817542439,-0.820522384544423,0.820522384542351,-1.06465516630755,0.314689365651081,0.331617772184326,0.869298385912926,0.975722210133262,-1.5480909612486,-0.144696533066934,2.75426084783566,0.79348605497629,0.793486054977255,-0.599350768041755,,-0.950403799510769,0.381371114709826,-0.397976612865041,0.046966509734505,0.264485712311535,0.100014172334285,0.100014172335163,-0.544932877330817,0.544932877331373,-0.727429754696682,4.81279999999993,103,1046.03630386402,625.757319804156,688.796133196094,1057.14862714552,1034.92398058252,625.47337747239,626.041262135922,684.904887751412,692.687378640777,0
705.3312,-1.47666240324113,0.88184987746385,-1.08718375936267,0.700124972758414,-2.38531759419039,-2.3853175941906,0.809009996169789,,-1.52020885719938,-0.735898269002378,-0.176838418380815,-0.735898269003805,-1.26035550689645,-0.0879482008693463,-1.22134322848232,-0.315012193291293,-0.150093527602795,-0.305676036470336,-0.311802250194495,,-0.286020032476563,1.49707870000243,1.59071970582061,1.54862741880826,-0.684810310392083,-1.12616145418834,-1.12616145418653,-0.816015908847623,0.81601590884554,-1.05567881148636,0.294719924745423,0.327459012989344,0.834247593291737,0.913802319880362,-1.55305225439919,-0.226905109449251,2.7607501401262,0.804077672382698,0.804077672383659,-0.625799127332837,,-0.980359901319427,0.341464563463583,-0.413882751452171,-0.00332813549809239,0.279960275936665,0.0900876742605254,0.0900876742614779,-0.58905454420552,0.589054544206067,-0.729927309033143,4.91519999999991,102,1094.98122946514,637.028133954155,682.322125119389,1107.15229226361,1082.81016666667,631.51876790831,642.5375,680.820916905444,683.823333333333,0.696078431372549
705.4336,-1.48096301339471,0.879750007313704,-1.09193283454701,0.706852920208966,-2.38318570305313,-2.38318570305332,0.849185384076281,,-1.48249557574229,-0.749694676327218,-0.186940748942748,-0.749694676328667,-1.28070538036438,-0.0871135665999045,-1.24008300765991,-0.337659774550123,-0.167740482024914,-0.329043102117887,-0.349933908405641,,-0.332283039723816,1.46195493806228,1.5676123343605,1.51828124605631,-0.656889816160646,-1.1687791611713,-1.16877916116944,-0.811564033900757,0.811564033898664,-1.04550134314416,0.274339803507407,0.323966186769686,0.799371082543735,0.85078687805662,-1.55510922275803,-0.307918582988013,2.7627507599564,0.815130835452797,0.815130835453743,-0.65151390942491,,-1.00888696018286,0.300898098579807,-0.427814485366919,-0.0526901928904512,0.296217898888953,0.0810088477198568,0.0810088477208774,-0.633841302531124,0.633841302531661,-0.731863213114382,5.0175999999999,102,1145.72028677173,647.304853151863,676.390148042025,1157.39240687679,1134.04816666667,639.322206303725,655.2875,676.436962750716,676.343333333333,0.754901960784314
705.536,-1.48455900884124,0.877051264056923,-1.09622352204508,0.713505229535362,-2.37921920491854,-2.3792192049187,0.888405329720108,,-1.44522428260597,-0.762815458356847,-0.198242668963686,-0.762815458358322,-1.30006748653737,-0.0855836019276051,-1.25759326977185,-0.35909840772274,-0.185691346179106,-0.351415537627801,-0.386612125920759,,-0.376836776225343,1.42386544889677,1.54118448325123,1.48479593600707,-0.629100415136089,-1.20977260024734,-1.20977260024544,-0.80718919687349,0.807189196871391,-1.03417176019647,0.253572670164891,0.321215646144234,0.764795474316337,0.786784502953321,-1.55426257230329,-0.387601077481852,2.76032718171895,0.826632207942673,0.826632207943615,-0.676454289239611,,-1.03593851139428,0.259712878958444,-0.439738596608945,-0.101054532146761,0.313256909961242,0.0727570076859368,0.0727570076870317,-0.679236248028422,0.679236248028955,-0.733269800098081,5.11999999999989,103,1190.18546572947,649.008130562266,681.999198021904,1206.83471786671,1173.53621359223,636.728397046862,661.28786407767,679.870240704002,684.128155339806,0
705.6384,-1.48744005952824,0.873784917854188,-1.10003552235728,0.720076771600517,-2.37342989160083,-2.37342989160098,0.926631855725927,,-1.40846419985629,-0.775253590104262,-0.210723353795887,-0.775253590105742,-1.31843197494311,-0.0833277190624331,-1.27385147025491,-0.379296899793912,-0.203921172216304,-0.372761028736174,-0.42177186762649,,-0.419584995017089,1.38285307383794,1.51145684134741,1.44820534524488,-0.601471916968473,-1.24906957816678,-1.24906957816484,-0.802912188131365,0.80291218812926,-1.0217413818704,0.232442586649426,0.319279436910427,0.730642852468684,0.721905666490714,-1.55052298395909,-0.465823220455369,2.75355417429508,0.838563579868032,0.838563579868965,-0.700581971604794,,-1.06147227281106,0.217949846648833,-0.4496293735332,-0.148362147096168,0.331073566992842,0.065307619142404,0.0653076191435561,-0.725185787209908,0.725185787210436,-0.734181275516281,5.22239999999999,102,1113.77692251592,629.387936124315,723.407000847341,1130.70205047319,1096.85179455865,611.21261829653,647.5632539521,723.452681388013,723.361320306669,0.0294117647058824
705.7408,-1.48959773947843,0.869984870760649,-1.10334943102454,0.726564166421508,-2.36583472651132,-2.36583472651145,0.963832491124159,,-1.37227948298015,-0.787004242288528,-0.224359663536845,-0.787004242290006,-1.33579057114209,-0.0803176365551201,-1.28883754664908,-0.398229137329118,-0.222404065583199,-0.393051507252279,-0.455352807544256,,-0.460436697018743,1.33896821263223,1.47845841046725,1.40855126771744,-0.574031286398858,-1.28660458565217,-1.28660458565019,-0.798752161203971,0.79875216120186,-1.00826368250168,0.210973991879025,0.318224953689463,0.697030328690826,0.656262474535444,-1.54391107450121,-0.542462384616307,2.74251669026526,0.850901943086817,0.850901943087743,-0.723861414490235,,-1.08545039280834,0.175649634534986,-0.457468575886892,-0.194560215454461,0.349661892775195,0.0586325729892958,0.0586325729904963,-0.771639493594005,0.771639493594535,-0.734633532634176,5.32479999999998,103,935.465393011909,644.483201074083,748.434103238623,950.696529968454,920.234256055363,648.332492113565,640.633910034602,738.003154574133,758.865051903114,1
705.8432,-1.49102556413131,0.865687550077847,-1.10614680984171,0.732965768673054,-2.35645585826177,-2.35645585826189,0.999980353292368,,-1.33672907980128,-0.798064829142994,-0.239126182944855,-0.798064829144468,-1.35213662815241,-0.0765275687189554,-1.30253404922027,-0.41587426343497,-0.241113220886457,-0.412263312946386,-0.48729972066626,,-0.499306624142632,1.29226887237885,1.44222667754594,1.365883535971,-0.546802505483476,-1.32231892753545,-1.32231892753346,-0.7947266913265,0.794726691324381,-0.993794110039278,0.18919168829348,0.318114650382611,0.664069677314406,0.58996845339259,-1.53445730767749,-0.617402877466287,2.72730973917222,0.863619591551875,0.863619591552789,-0.746260049783996,,-1.10783968934875,0.132852479397857,-0.463245340674768,-0.239602106840465,0.369013531046807,0.0527004841443456,0.0527004841455869,-0.81854989040528,0.818549890405811,-0.734663944058876,5.42719999999997,102,757.482213463797,659.674493569818,773.438799089435,770.691009463723,744.273417463871,685.452365930599,633.896621209037,752.553627760252,794.323970418617,0.0980392156862745
705.9456,-1.4917190208335,0.860931788661302,-1.10841025606237,0.739281629884991,-2.34532061880641,-2.34532061880651,1.03505419418872,,-1.30186663632817,-0.808435043259159,-0.254995267657572,-0.808435043260631,-1.36746518125896,-0.0719344226083329,-1.31492627804529,-0.432216838042173,-0.260020935384069,-0.430377336327861,-0.517562889828374,,-0.536115758252066,1.24282070579047,1.40280778389368,1.32026011489956,-0.519806431845045,-1.35616080171904,-1.35616080171701,-0.79085187711881,0.790851877116684,-0.978389873045737,0.167120835424578,0.319005796827585,0.631867035758167,0.5231383397047,-1.52220185442348,-0.690536081551608,2.7080382464608,0.876684248727977,0.876684248728854,-0.767748511911944,,-1.12861188628662,0.0895981274946093,-0.466956030724504,-0.283447352688803,0.389117628664105,0.0474770059137122,0.047477005914984,-0.8658721787769,0.865872178777428,-0.734311133384882,5.52959999999996,102,678.512360054432,628.665503804045,823.857301911301,681.177661285334,675.847058823529,620.394733098287,636.936274509804,816.832250881425,830.882352941176,0
706.048,-1.49167559632573,0.855758692597809,-1.1101234730667,0.745513437703306,-2.332461507826,-2.3324615078261,1.06903842542969,,-1.26774042777369,-0.818116886849469,-0.271937099295685,-0.818116886850943,-1.38177301898255,-0.0665180042257578,-1.32600243927844,-0.447246997475364,-0.27909859888016,-0.447379156013916,-0.54609854426981,,-0.57079184528879,1.19069703904442,1.36025669450708,1.27174718940771,-0.493060650442536,-1.38808532923783,-1.38808532923569,-0.787142474658019,0.787142474655888,-0.96210968730211,0.144786955265088,0.320950267919526,0.600522661426914,0.455887871958759,-1.50719440408489,-0.761760549308473,2.684816900068,0.890059232812194,0.890059232813045,-0.788300877815882,,-1.14774384826226,0.0459257277906222,-0.468604035679356,-0.326061590330974,0.409960746703479,0.0429251518683066,0.0429251518696131,-0.913563917477246,0.913563917477765,-0.733614734246325,5.63199999999995,103,681.527184466019,622.897572815534,849.961165048544,688.030097087379,675.02427184466,602.476699029126,643.318446601942,847.844660194175,852.077669902913,0
706.1504,-1.49089479895004,0.850211493013373,-1.11127134145366,0.751664432120939,-2.31791615666453,-2.31791615666462,1.1019231344972,,-1.23439330139608,-0.827114701694073,-0.289919748414607,-0.827114701695558,-1.39505876765937,-0.0602612357867967,-1.33575381900134,-0.460960615291483,-0.298316666196959,-0.463259173672703,-0.572869322771172,,-0.603269942219222,1.13597889382932,1.31463736978515,1.22041924967977,-0.466579325568352,-1.41805454204847,-1.41805454204628,-0.783612053069454,0.783612053067319,-0.945013486290974,0.1222159490117,0.323994357202504,0.570130734901319,0.388333584045172,-1.4894939329113,-0.830982057491008,2.65776998460672,0.903703670809102,0.903703670809923,-0.807894909073701,,-1.16521780646297,0.00187372083940753,-0.468199538421608,-0.367416483934534,0.431526798835958,0.0390056180959857,0.0390056180973095,-0.9615846462797,0.961584646280209,-0.732615145951092,5.73439999999994,102,692.08063921037,629.139054567525,858.958077990316,696.286948623247,687.874329797493,613.693695763145,644.584413371906,855.326442062277,862.589713918354,0
706.2528,-1.48937816859706,0.844335377912738,-1.11183998539504,0.757739298077457,-2.30172725990197,-2.30172725990204,1.13370409016667,,-1.20186263247457,-0.835435188623173,-0.308909241176096,-0.83543518862466,-1.40732297021441,-0.0531503788653547,-1.34417495417932,-0.473359445788762,-0.317644623203297,-0.478012732518357,-0.597844726969748,,-0.633492955621697,1.07875500645953,1.26602293515482,1.16635917384764,-0.440373065181454,-1.44603733586577,-1.44603733586353,-0.780273167261535,0.780273167259393,-0.92716211093916,0.099434117409115,0.328178619713368,0.540779203399764,0.320592603070487,-1.46916843721809,-0.898113624966257,2.62703119940949,0.917572761995615,0.917572761996404,-0.826512278006969,,-1.18102156115194,-0.0425202610746345,-0.465759258218941,-0.40748961643298,0.45379701266126,0.0356771032299303,0.0356771032312613,-1.00989545340691,1.00989545340741,-0.731353291591197,5.83679999999993,103,743.024796274446,639.958573042452,853.438653879949,720.596477794793,765.453114754098,622.535834609495,657.38131147541,853.670750382849,853.206557377049,0.660194174757282
706.3552,-1.48712926910004,0.838177303038268,-1.11181682962532,0.763744035817988,-2.28394246723771,-2.28394246723777,1.16438272365183,,-1.17018030281694,-0.843087404616864,-0.328869625948384,-0.843087404618378,-1.41856813846995,-0.0451752502802458,-1.35126377561895,-0.484451226957803,-0.337050957641137,-0.491640201343193,-0.621001527732998,,-0.661412134839316,1.01912183902632,1.21449583523724,1.10965829947353,-0.414448806312838,-1.47200939015808,-1.47200939015575,-0.7771375486344,0.77713754863225,-0.908616995462466,0.0764681758854738,0.333537753979289,0.512549663028653,0.252782452004641,-1.44629463526623,-0.963075496731992,2.59274345520622,0.931618079963152,0.931618079963908,-0.844138763114283,,-1.19514864970906,-0.0872194695920566,-0.461306180784502,-0.446264348241742,0.476749910659554,0.0328966255512315,0.0328966255525653,-1.05845851087366,1.05845851087415,-0.729870381069051,5.93919999999991,102,799.311508297141,647.065253433083,846.873280947958,746.700229709035,851.922786885246,632.817228177642,661.313278688525,851.630168453293,842.116393442623,1
706.4576,-1.48415366377958,0.831785783952691,-1.11119064698095,0.769685814247852,-2.26461423688965,-2.26461423688968,1.19396607497599,,-1.13937270906464,-0.850082733535486,-0.349763037672269,-0.850082733537003,-1.42879877153018,-0.0363294184109639,-1.35702171057286,-0.494249733219695,-0.356503143424342,-0.504147017411052,-0.642324107410855,,-0.686987501670689,0.957183571042389,1.1601479555922,1.05041646992802,-0.388809725003537,-1.49595305554321,-1.49595305554079,-0.774216312787817,0.774216312785665,-0.889439860962706,0.0533452597994835,0.340100524623609,0.485517274500999,0.185020855126138,-1.42095764131136,-1.02579509977319,2.55505864565687,0.945787899701506,0.945787899702225,-0.860764408560619,,-1.20759847640514,-0.132188085321111,-0.454869287302162,-0.483729646197766,0.500361310407615,0.0306198339377699,0.0306198339391207,-1.10723661037788,1.10723661037836,-0.728207683148859,6.0415999999999,102,848.256084294085,652.314235910416,844.190464601476,772.676646248086,923.835522340084,643.048468606432,661.580003214401,849.59954058193,838.781388621022,1
706.56,-1.48045887902668,0.825210672199091,-1.10995160010954,0.775572815213703,-2.24379965608982,-2.24379965608983,1.22246670101112,,-1.10946080220287,-0.856434834656294,-0.371549757693071,-0.856434834657825,-1.43802134558018,-0.0266103747601203,-1.36145374774946,-0.502774781410459,-0.37596764445682,-0.51554369246036,-0.66180473648108,,-0.710188216746339,0.893052061457128,1.10308069979888,0.988742044566551,-0.363455175976635,-1.5178572161137,-1.51785721611116,-0.771520177318466,0.771520177316306,-0.869692423048852,0.0300929189222586,0.347889714054744,0.459750697272925,0.117425545072353,-1.3932506209743,-1.0862069803606,2.51413738950467,0.960027541294786,0.960027541295477,-0.876383645490268,,-1.21837640259842,-0.177391227948174,-0.446483296702827,-0.519879889901419,0.52460434439963,0.0288013065079488,0.0288013065093024,-1.15619271657035,1.15619271657081,-0.726406313278531,6.14399999999989,103,856.318656638491,655.034930331746,850.325000840297,798.780398162328,913.856915114654,653.329862174579,656.739998488912,847.558958652374,853.09104302822,1
706.6624,-1.476054361378,0.818502917438516,-1.10809128182451,0.781414077045186,-2.22156023411614,-2.22156023411613,1.2499025427657,,-1.08046015567827,-0.86215957595675,-0.39418826717092,-0.862159575958291,-1.44624428546713,-0.0160196797775388,-1.3645684740319,-0.510052197476778,-0.395409942526649,-0.525845789263857,-0.67944378542146,,-0.7309928875735,0.826846777505542,1.04340501741206,0.924751868749397,-0.338380670661661,-1.53771714053653,-1.53771714053385,-0.769059678778789,0.769059678776625,-0.849436114940756,0.00673910228348727,0.356922086894499,0.435312024332592,0.050114072843779,-1.36327443966152,-1.14425273148289,2.47014873558505,0.974279727530389,0.974279727531049,-0.890995371109189,,-1.22749379425108,-0.222794926831233,-0.436188434144423,-0.554714661337223,0.549449497621808,0.0273948279621421,0.0273948279635057,-1.20528953655676,1.20528953655721,-0.724507040618071,6.24639999999999,102,848.57904001883,656.539285458912,852.889538555962,824.88415007657,872.27392996109,663.611255742726,649.467315175097,845.518376722818,860.260700389105,0.754901960784314
706.7648,-1.47095143202003,0.811714316792336,-1.10560275738449,0.787219344267343,-2.19796167202666,-2.19796167202663,1.27629674829784,,-1.05238105921664,-0.867274957940719,-0.417635295765822,-0.867274957942238,-1.45347792649553,-0.00456308130422567,-1.36637809010767,-0.516113750115553,-0.414794591955238,-0.535073874733598,-0.695249871287823,,-0.749389820556526,0.758694690428379,0.981241381485886,0.858571203176211,-0.313577898948436,-1.5555343305564,-1.55553433055357,-0.766845376908558,0.76684537690639,-0.828731823827244,-0.0166878631192811,0.367208356913906,0.412256710726756,-0.0167963781763162,-1.33113730822842,-1.19988091279058,2.42326982068352,0.98848495421906,0.988484954219702,-0.904602982024311,,-1.23496802347106,-0.268366050382818,-0.42403023212868,-0.588238521243769,0.574864659017434,0.0263536348334328,0.0263536348348016,-1.25448910466626,1.25448910466668,-0.722550110216167,6.34879999999998,103,843.168860429944,646.239034531302,860.304705146139,852.765906421446,833.571814438442,654.333272870545,638.144796192059,851.162506133008,869.446904159269,0
706.8672,-1.46516324083164,0.804897253669046,-1.1024806099047,0.792998927960779,-2.173073612302,-2.17307361230195,1.30167744776627,,-1.02522863710109,-0.871801030461972,-0.441845871514067,-0.871801030463495,-1.45973446909638,0.00774939536930144,-1.3668984070682,-0.520997053808184,-0.43408529918031,-0.543253451343346,-0.709239938916295,,-0.76537721558502,0.688730135601183,0.916719711893379,0.790333609501463,-0.28903479404691,-1.57131636424795,-1.57131636424502,-0.764888033279982,0.764888033277806,-0.807639638709641,-0.0401592922695475,0.378753154042844,0.390633504197534,-0.0831891761394412,-1.29695442038594,-1.25304696063647,2.37368547092618,1.00258186940289,1.00258186940352,-0.91721436106931,,-1.24082242247171,-0.314072197346931,-0.410059361754656,-0.62046077319861,0.60081518274952,0.0256306240380896,0.0256306240394634,-1.30375239133889,1.30375239133931,-0.720575071825526,6.45119999999997,102,849.439215686275,596.156862745098,824.960784313726,873.098039215686,825.780392156863,564.657843137255,627.655882352941,826.401960784314,823.519607843137,0
706.9696,-1.4587047220376,0.798104430151939,-1.09872098946395,0.798763578591492,-2.14696937062396,-2.14696937062388,1.32607747963953,,-0.999002990410565,-0.875759802403857,-0.466773379273502,-0.875759802405356,-1.4650279252428,0.0209033832514704,-1.36614882404152,-0.524745440457781,-0.453245020279067,-0.550414864757904,-0.721439279320231,,-0.778963301726811,0.617094630677687,0.84997923787578,0.720180785712242,-0.264735636687758,-1.58507672490097,-1.58507672489791,-0.763198754271357,0.763198754269173,-0.786218610746591,-0.0636461518844597,0.391554992390571,0.370484392390758,-0.148948428315119,-1.2608475722406,-1.30371308690079,2.32158773962006,1.01650765389327,1.01650765389389,-0.92884182099896,,-1.24508619162695,-0.359881557317558,-0.394331484830737,-0.651395215052646,0.62726395870086,0.0251785305327848,0.025178530534157,-1.35303894772767,1.35303894772808,-0.71862060818201,6.55359999999996,102,854.019607843137,583.256862745098,722.049019607843,885.212745098039,822.826470588235,562.729411764706,603.78431372549,720.676470588235,723.421568627451,0
707.072,-1.45159255451817,0.791388596984702,-1.09432166739678,0.804524370226262,-2.11972565108127,-2.11972565108116,1.34953407190026,,-0.973699361115717,-0.879175144085336,-0.492369633899683,-0.879175144086807,-1.46937405600281,0.0348801313088229,-1.36415228798003,-0.527407798580225,-0.472236067935991,-0.556593185029504,-0.731881491281133,,-0.790166416229444,0.543936643988819,0.781168293041628,0.648262343859196,-0.240661193204654,-1.59683460686574,-1.59683460686254,-0.761789099058291,0.761789099056107,-0.764526527913474,-0.0871190562048419,0.405606243321192,0.351844577129315,-0.213959181157932,-1.22294475411028,-1.35184816895445,2.26717537765991,1.0301983946732,1.0301983946738,-0.939502013507632,,-1.2477942677942,-0.405762751403622,-0.376907115237692,-0.681059878877472,0.654171499171227,0.0249500825829252,0.0249500825842946,-1.40230659294597,1.40230659294637,-0.716724360416413,6.65599999999995,103,962.221844660194,577.457281553398,665.490291262136,996.317475728155,928.126213592233,552.500970873786,602.41359223301,663.543689320388,667.436893203884,0
707.1744,-1.44384512861619,0.784802283534284,-1.0892820966927,0.810292593102047,-2.09142224594674,-2.0914222459466,1.37208848741157,,-0.949308309938078,-0.882072683023586,-0.518584972464446,-0.882072683025026,-1.47279030118546,0.0496564825354399,-1.36093523715252,-0.529038380365315,-0.491020222217188,-0.561828060493944,-0.740608393484381,,-0.799015031289337,0.46941130415718,0.710444035388842,0.574735521706958,-0.216788879861372,-1.60661469334511,-1.60661469334179,-0.760671162430803,0.76067116242862,-0.742619705012523,-0.110548253852038,0.420893122963139,0.334742479343549,-0.278107642157999,-1.18337970728497,-1.39742763595471,2.21065323579308,1.0435894449996,1.04358944500018,-0.949215814571405,,-1.24898716167093,-0.451684667134262,-0.357851478712187,-0.70947676421859,0.681496052981281,0.0248981404402855,0.0248981404416554,-1.45151114818714,1.45151114818754,-0.714922752360278,6.75839999999994,102,1119.65294117647,572.229411764706,628.833333333333,1158.17058823529,1081.13529411765,534.366666666667,610.092156862745,629.176470588235,628.490196078431,0
707.2768,-1.43548251777603,0.778397528256736,-1.08360347676067,0.816079652256236,-2.06214172089251,-2.06214172089234,1.39378564582142,,-0.925815893686566,-0.884479693879961,-0.545368368176645,-0.884479693881354,-1.47529570290594,0.0652048740323187,-1.3565275293597,-0.529696579091347,-0.509558844350704,-0.566163546373908,-0.747669894391377,,-0.805547732913102,0.393680038454824,0.63797208192998,0.49976481659559,-0.193092944236208,-1.6144469053768,-1.61444690537333,-0.759857640601412,0.759857640599232,-0.720552789864077,-0.133903617671246,0.437395705994608,0.31919977079972,-0.341281430583343,-1.14229144431181,-1.44043335914906,2.15223159993144,1.05661576843898,1.05661576843952,-0.958008195671871,,-1.24871077229762,-0.497616304138145,-0.337234362069321,-0.736671573213308,0.709193754036716,0.0249758232420707,0.0249758232434402,-1.50060622389889,1.5006062238993,-0.713250816899246,6.86079999999993,103,1121.53252427184,563.020873786408,613.432038834951,1155.9427184466,1087.12233009709,519.377669902913,606.664077669903,621.543689320388,605.320388349515,0
707.3792,-1.42652645067979,0.772225607845256,-1.07728881910725,0.821896971588429,-2.03196908395055,-2.03196908395035,1.4146737314835,,-0.903203832845531,-0.886424983836641,-0.572667566796901,-0.886424983837976,-1.47691082518278,0.0814933616600229,-1.35096235574156,-0.529446681774731,-0.527812997263631,-0.569647913115174,-0.753123825426664,,-0.80981315573531,0.316910127841532,0.563926047577425,0.42352153007697,-0.16954465697278,-1.62036612555258,-1.62036612554898,-0.759361881431224,0.759361881429056,-0.69837858633385,-0.157154648950926,0.455087970207776,0.30523142082432,-0.403369860698557,-1.09982373710065,-1.48085355449603,2.09212546072499,1.06921226906039,1.06921226906088,-0.965908085158537,,-1.24701618292532,-0.543526644252822,-0.315129947397475,-0.762673456969963,0.737218805346552,0.0251366246189366,0.0251366246203059,-1.54954306439606,1.54954306439648,-0.711742028839077,6.96319999999992,102,1122.87058823529,561.857352941177,606.882352941177,1154.9137254902,1090.82745098039,515.302941176471,608.411764705882,617.480392156863,596.28431372549,0
707.4816,-1.41700028113289,0.766336762049906,-1.07034301236951,0.82775590370853,-2.00099143369307,-2.00099143369285,1.43480378754314,,-0.881449674993803,-0.887938776715646,-0.600429245543843,-0.88793877671692,-1.47765767165284,0.0984856674034197,-1.34427614294414,-0.528357603403114,-0.54574357848164,-0.572333441139807,-0.757035737998805,,-0.811869875928706,0.239274175945069,0.488486985572179,0.346183220574826,-0.146112514644449,-1.62441190359208,-1.62441190358829,-0.759197914271772,0.759197914269615,-0.676147892554793,-0.180270499427346,0.473937860835091,0.292845739763428,-0.464264256024907,-1.05612457839389,-1.51868270070917,2.03055371587892,1.08131411437217,1.08131411437263,-0.972948216885566,,-1.24395943671294,-0.589384549051276,-0.291616635005108,-0.787514779014956,0.76552369869024,0.0253345075183739,0.0253345075197362,-1.59827044451075,1.59827044451118,-0.71042814960543,7.0655999999999,102,1119.85392156863,557.825,610.524509803922,1150.35490196078,1089.35294117647,511.542156862745,604.107843137255,620.705882352941,600.343137254902,0
707.584,-1.40692895767288,0.760779913541967,-1.06277288876828,0.833667647620199,-1.96929758316017,-1.9692975831599,1.45422928741143,,-0.860526968646986,-0.889052601714624,-0.628599196374183,-0.889052601715828,-1.47755960315069,0.116141239715697,-1.33650844951635,-0.526502609505299,-0.563311468864636,-0.574276208621232,-0.759478659481738,,-0.811786260789223,0.160949498922545,0.411842734758442,0.267933070374162,-0.122762460213241,-1.62662815048021,-1.62662815047624,-0.759380447224162,0.759380447222017,-0.653909348543829,-0.203220006330883,0.493907353613421,0.282044401282774,-0.52385828683931,-1.01134561940539,-1.55392146540224,1.9677382996006,1.09285705581263,1.09285705581305,-0.979164959919684,,-1.2396012875076,-0.635158677031488,-0.266776864849526,-0.81123089614416,0.794059470745246,0.0255239654083469,0.0255239654097123,-1.64673460615091,1.64673460615135,-0.70933908545157,7.16799999999989,103,784.827669902913,614.890776699029,648.893203883495,808.727184466019,760.928155339806,595.441747572816,634.339805825243,665.660194174757,632.126213592233,0
707.6864,-1.39633899679506,0.755602386121838,-1.05458729451829,0.839643178246451,-1.93697766009609,-1.93697766009579,1.47300567302584,,-0.840405457808834,-0.889799191281992,-0.657122537923236,-0.889799191283116,-1.47664125505084,0.13441531563543,-1.32770186131336,-0.523959031690973,-0.580477696812542,-0.575535876254886,-0.760532801824851,,-0.809640270114437,0.082117442213965,0.334187177844198,0.188959172211659,-0.0994581263149334,-1.62706282184464,-1.62706282184049,-0.759924815069738,0.759924815067606,-0.631709285911588,-0.225971731214738,0.514952500183958,0.27282243792596,-0.582048318868535,-0.965641583515736,-1.58657662410043,1.90390323148629,1.10377774563128,1.10377774563167,-0.984598125391042,,-1.23400692211729,-0.680817410232121,-0.240696943712699,-0.833859952723383,0.822775992956942,0.0256600480477962,0.0256600480491705,-1.6948792268069,1.69487922680733,-0.708502754754352,7.2704,102,651,641.388235294118,685.926470588235,678.2,623.8,635.891176470588,646.885294117647,706.578431372549,665.274509803922,0
707.7888,-1.38525846246847,0.750849627413373,-1.04579716462206,0.845693192198625,-1.9041226883123,-1.90412268831196,1.49118985426316,,-0.821051295531069,-0.890212388143625,-0.685943960490799,-0.890212388144662,-1.47492845355546,0.153258982130798,-1.31790188624605,-0.520807976361873,-0.597203614601717,-0.576175468523306,-0.760285219353296,,-0.805519204869646,0.00296262166624248,0.255719407389882,0.10945373261487,-0.0761611025464811,-1.62576758493849,-1.62576758493421,-0.76084686804152,0.760846868039393,-0.609591575591001,-0.248493992808562,0.537023453610595,0.265168221995773,-0.63873376331521,-0.91916965476997,-1.61666095861201,1.83927357720098,1.11401404606003,1.11401404606038,-0.989290751662808,,-1.22724565439769,-0.726328785229874,-0.213466877454377,-0.855442683137473,0.851622290409597,0.0256983635999353,0.0256983636013111,-1.74264541914946,1.74264541914989,-0.707944957804443,7.37279999999998,103,660.626355520816,629.077466780484,708.434097570759,683.96927184466,637.283439196972,623.134696601942,635.020236959026,726.115685679612,690.752509461906,0
707.8912,-1.37371695414645,0.74656494300178,-1.03641560175775,0.851828072975097,-1.8708241586328,-1.87082415863245,1.50883966977959,,-0.802427266388632,-0.890327059222559,-0.715008007401703,-0.8903270592235,-1.47244813236214,0.172619242914709,-1.3071568470088,-0.517134023861895,-0.613451081695546,-0.576261148022159,-0.758829417367119,,-0.799519402907243,-0.0763279204109137,0.176642791567487,0.0296121830990894,-0.0528312249025501,-1.62279746244973,-1.62279746244528,-0.762162806627214,0.762162806625094,-0.587597472582041,-0.270754890446363,0.560064486548734,0.259063451886896,-0.693817426163967,-0.872088838609974,-1.64419312990801,1.77407431418912,1.12350532841499,1.12350532841529,-0.993288874440636,,-1.21939059629358,-0.771660430869924,-0.185180201043129,-0.876022218856875,0.880546889144616,0.0255950736375828,0.0255950736389463,-1.78997176454687,1.78997176454729,-0.707689244317182,7.47519999999997,102,696.416419491525,552.338638771187,673.835182733051,717.8325,675.000338983051,550.488125,554.189152542373,683.7296875,663.940677966102,0.53921568627451
707.9936,-1.36174560261484,0.742789245959826,-1.02645795730707,0.858057875825399,-1.83717359862255,-1.83717359862218,1.52601331328833,,-0.784493011699439,-0.890179013027908,-0.744259394592325,-0.890179013028749,-1.46922824950145,0.192439097377784,-1.29551776869854,-0.513024913344559,-0.629182650040018,-0.575861977710033,-0.756264914060733,,-0.791745881155676,-0.155565652640655,0.0971639344303083,-0.0503678079135375,-0.029426881541674,-1.61821044905324,-1.61821044904868,-0.763888978076193,0.763888978074074,-0.565765457026284,-0.292722324621488,0.58401402241326,0.254483158232789,-0.747205861853202,-0.824559290695675,-1.66919752822949,1.70852910153065,1.13219276187305,1.1321927618733,-0.996641290405043,,-1.21051831326056,-0.81677952022091,-0.155933795701384,-0.895643898799921,0.909498191637869,0.0253068987334876,0.0253068987348427,-1.83679438826663,1.83679438826705,-0.707756774723017,7.57759999999996,102,736.555148305085,469.268066737288,630.66076536017,757.1025,716.00779661017,472.585625,465.950508474576,633.6859375,627.635593220339,0.627450980392157
708.096,-1.34937706602419,0.739560821339632,-1.01594190748152,0.864392328127865,-1.80326214793487,-1.80326214793449,1.54276873264832,,-0.767205266308658,-0.889804914553977,-0.773643363438575,-0.889804914554735,-1.46529769936358,0.212657635182008,-1.28303825510931,-0.508571205896398,-0.644361748583944,-0.575049664002814,-0.752696755520976,,-0.782311919170104,-0.23456157573007,0.0174915431301889,-0.130287411523721,-0.00590532538994739,-1.61206710330483,-1.61206710330018,-0.766041651232718,0.766041651230606,-0.544131074832406,-0.314364025169007,0.608804697239988,0.251395735118087,-0.798809737448115,-0.77674161430136,-1.69170410856428,1.64285897436937,1.14001959019283,1.14001959019304,-0.99939931952892,,-1.20070847007645,-0.861652745098275,-0.125827681747729,-0.914355081881519,0.938424868725249,0.0247911533273472,0.0247911533287003,-1.88304708786589,1.88304708786629,-0.708166172216868,7.67999999999995,103,771.538693845648,393.947931648017,591.630594608771,794.962087378641,748.115300312654,393.253434466019,394.642428830015,591.244569174757,592.016620042784,0
708.1984,-1.33664551505417,0.736915105247276,-1.00488751430244,0.870840837891601,-1.76918014501865,-1.76918014501825,1.55916301404822,,-0.75051812773411,-0.889242192527108,-0.803106047712507,-0.889242192527768,-1.46068621966256,0.233210150294544,-1.26977435182323,-0.503865920299803,-0.65895286624158,-0.573898275646688,-0.748234989003085,,-0.771338585610334,-0.313127283889175,-0.0621647522154825,-0.209947758361469,0.0177770140846113,-1.60443013043745,-1.60443013043269,-0.768636779357512,0.768636779355409,-0.52272679206381,-0.335647590960554,0.634363458275726,0.249762997689992,-0.848544209260336,-0.728796140342729,-1.71174822638394,1.57728101824043,1.14693139078309,1.14693139078327,-1.00161656627031,,-1.19004347138862,-0.906246317361005,-0.0949647800840966,-0.932204960165635,0.967276243365555,0.0240058218461981,0.0240058218475526,-1.92866151451166,1.92866151451205,-0.708933369238062,7.78239999999994,102,775.900980392157,360.896568627451,588.127450980392,803.771568627451,748.030392156863,342.857843137255,378.935294117647,592.980392156863,583.274509803922,0
708.3008,-1.32358660037639,0.734884481166566,-0.993317264115522,0.877412503381617,-1.7350167323509,-1.73501673235049,1.57525176982086,,-0.734383369582759,-0.888528939679947,-0.832594825290134,-0.888528939680527,-1.4554243048345,0.254028279082176,-1.25578440488104,-0.499004143898659,-0.67292173375207,-0.572483940614619,-0.742994111250828,,-0.758954225306567,-0.391076002072698,-0.141595559042075,-0.28915103614167,0.0416642202962144,-1.59536398232892,-1.59536398232403,-0.771689749489068,0.771689749486965,-0.501581884494918,-0.356540534938597,0.660611689783499,0.249540264140276,-0.896329308863669,-0.680882215311966,-1.72937049219174,1.51200709563038,1.15287631017675,1.15287631017688,-1.00334867656792,,-1.17860810030956,-0.950525993780952,-0.0634506454171261,-0.949244372029192,0.996002641325724,0.0229096730941173,0.0229096730954535,-1.97356738307211,1.97356738307248,-0.710071461353796,7.88479999999993,103,700.179611650485,433.629611650485,607.490291262136,726.6,673.759223300971,421.901941747573,445.357281553398,615.359223300971,599.621359223301,0
708.4032,-1.31023740198464,0.733498097434853,-0.981256081912214,0.884116120926841,-1.7008594884475,-1.70085948844709,1.59108854976009,,-0.718750787670239,-0.887703811332552,-0.862058629726659,-0.88770381133304,-1.44954313892176,0.275040163826077,-1.24112892669283,-0.494082626652184,-0.686235506478091,-0.570884528504218,-0.737092507563778,,-0.745293927224699,-0.468223547744288,-0.220592810304253,-0.367701512364251,0.0658005738117431,-1.58493449743417,-1.58493449742917,-0.775215111618981,0.775215111616881,-0.480722375888734,-0.377010327228482,0.687465349843407,0.250676453682002,-0.942090330426694,-0.63315751956302,-1.74461665460207,1.44724267317467,1.15780527627805,1.15780527627814,-1.00465308572542,,-1.16648915571468,-0.994457115666134,-0.0313931816219949,-0.965525615202394,1.02455569525853,0.0214623987498201,0.021462398751141,-2.01769267760823,2.01769267760858,-0.711590583763121,7.98719999999992,102,385.536274509804,835.027941176471,666.137254901961,394.096078431373,376.976470588235,839.316666666667,830.739215686275,677.93137254902,654.343137254902,0
708.5056,-1.2966363628602,0.732781709693124,-0.968731322478052,0.890960192838036,-1.66679409321385,-1.66679409321343,1.60672428785934,,-0.703568556205984,-0.886805926240094,-0.891448210205052,-0.886805926240513,-1.44307454909992,0.29617063812764,-1.22587047180957,-0.489199363484252,-0.698862951079371,-0.56917932349551,-0.730651881571126,,-0.730498977332951,-0.54438919458317,-0.29895075755637,-0.44540645949977,0.0902302235503121,-1.57320858957689,-1.57320858957175,-0.779226285691206,0.779226285689109,-0.460171023399981,-0.397024435865549,0.714835111912968,0.253114193790103,-0.985758205129462,-0.585777426048464,-1.75753750300951,1.38318575882053,1.16167219522645,1.16167219522651,-1.0055887504964,,-1.15377508440253,-1.03800465410193,0.00109765487066303,-0.981102255679402,1.05288859786001,0.0196247634659408,0.0196247634672357,-2.0609638339063,2.06096383390664,-0.713497820080179,8.08959999999991,102,390.843137254902,825.82205882353,722.828431372549,400.893137254902,380.793137254902,834.595098039216,817.049019607843,737.019607843137,708.637254901961,0
708.608,-1.2828232077289,0.732757552148066,-0.95577273777748,0.897952938871664,-1.6329040276309,-1.63290402763047,1.62220678735307,,-0.688783580035783,-0.885874767882704,-0.920716339156813,-0.885874767883063,-1.43605096807101,0.317341429460467,-1.21007351356307,-0.4844531620555,-0.710774637747912,-0.567448685700393,-0.723796662366352,,-0.71471628316622,-0.619396434588277,-0.376466866369815,-0.522076979410378,0.114996840188316,-1.56025398230098,-1.56025398229576,-0.783735248981727,0.783735248979627,-0.439947341276618,-0.416550365293807,0.742626517940611,0.256789944562307,-1.02726984523159,-0.538894399499521,-1.76818876793272,1.32002593879449,1.16443414219475,1.16443414219479,-1.00621585642302,,-1.14055559987276,-1.08113325528818,0.0339101693944239,-0.99602892275776,1.08095629955518,0.0173587645371712,0.0173587645384366,-2.10330589894024,2.10330589894057,-0.715797146604127,8.19199999999989,103,537.89854368932,806.639805825243,772.038834951456,544.838834951456,530.958252427184,817.985436893204,795.294174757282,789.097087378641,754.980582524272,0
708.7104,-1.26883884458088,0.733444240679017,-0.942412417360182,0.905102312032608,-1.59927030270878,-1.59927030270834,1.63758024358849,,-0.674341842698785,-0.884950079574512,-0.949817972642752,-0.884950079574808,-1.42850538961703,0.338471376879446,-1.19380430769622,-0.479943187737999,-0.721943136812439,-0.565773693479863,-0.716653374665968,,-0.698097752813977,-0.693073642462249,-0.452942617790498,-0.597528730844415,0.140143252319836,-1.54613897979265,-1.54613897978734,-0.788752204911208,0.788752204909113,-0.420067656265653,-0.435555686640981,0.770740151450278,0.261634159263333,-1.06656844538437,-0.492657431676861,-1.77663099956851,1.25794350445999,1.16605155030455,1.16605155030457,-1.00659549223088,,-1.12692127919271,-1.12380728528003,0.0669312722782112,-1.01036108071596,1.10871564428094,0.0146278073259215,0.0146278073271575,-2.14464267300944,2.14464267300975,-0.718489410316094,8.2944,102,599.300490196078,800.901470588235,793.176470588235,606.459803921569,592.141176470588,823.3,778.502941176471,814.617647058824,771.735294117647,0
708.8128,-1.25472524574705,0.734856708997077,-0.928684698370209,0.912416015812258,-1.56597121095687,-1.56597121095642,1.65288480418654,,-0.660188756312221,-0.88407174676639,-0.978710370806971,-0.884071746766651,-1.42047130679416,0.359476665619116,-1.1771307323553,-0.475768478671192,-0.732343215675312,-0.564235759688328,-0.7093499656973,,-0.680799618743699,-0.765254649302264,-0.528184221716444,-0.671582566605307,0.165711070688791,-1.5309322658149,-1.53093226580952,-0.794285234451933,0.794285234449836,-0.400545192461459,-0.454008053962543,0.799071836189708,0.26757149646669,-1.10360373995266,-0.447211506888227,-1.78292941786568,1.197108664395,1.16648839450761,1.16648839450762,-1.00678929032197,,-1.11296313588851,-1.16599087760492,0.100046857946086,-1.02415477492859,1.13612544129788,0.0113969040381953,0.0113969040393868,-2.18489683896999,2.18489683897029,-0.721572334730896,8.39679999999999,103,665.881982405844,737.337685116786,792.586280838141,670.598954962244,661.165009849444,753.804267799353,720.87110243422,817.592570118663,767.579991557619,0
708.9152,-1.24052530583076,0.737006176920367,-0.914626042939215,0.919901517415091,-1.53308209462372,-1.53308209462327,1.6681561687291,,-0.646269514748972,-0.883279661861245,-1.00735318426663,-0.88327966186145,-1.41198262901542,0.380271084161107,-1.16012209849628,-0.472027427916766,-0.741952030611882,-0.56291621812965,-0.702015091472775,,-0.662981706226984,-0.835779234750209,-0.6020032496536,-0.74406508890754,0.191740308401463,-1.51470272644887,-1.51470272644342,-0.800339938502516,0.800339938500424,-0.381390185503232,-0.471875209046514,0.82751286917346,0.274521090407158,-1.13833222401706,-0.402697091770047,-1.78715373844199,1.13768084100865,1.16571236381963,1.16571236381964,-1.00685904093676,,-1.09877217472864,-1.2076479885228,0.133142221011482,-1.03746635604082,1.1631464783545,0.00763290179626275,0.00763290179740969,-2.22399008169091,2.2239900816912,-0.725040547768067,8.49919999999997,102,743.446682518116,686.783050271739,763.37352807971,743.352604166667,743.540760869565,708.1296875,665.436413043478,781.442708333333,745.304347826087,0.0588235294117647
709.0176,-1.22628267420229,0.739900147947442,-0.900274881767253,0.927566050934786,-1.50067512453375,-1.50067512453328,1.68342523645929,,-0.632529444156232,-0.882613567910648,-1.0357085092997,-0.882613567910809,-1.40307357755934,0.400766312547341,-1.1428489264558,-0.468817233585841,-0.750749307958574,-0.561895879877657,-0.694777369999621,,-0.644806651121441,-0.904493547705299,-0.674217194953222,-0.814809132262167,0.218269005414802,-1.49751929627578,-1.49751929627026,-0.806919085819806,0.806919085817717,-0.362610025639291,-0.489124983035197,0.855950299538925,0.282396880701705,-1.17071734674654,-0.359249644973526,-1.78937798140557,1.07980805377857,1.16369501718926,1.16369501718927,-1.00686628946314,,-1.08443893634827,-1.24874246269811,0.166102507418191,-1.05035218635722,1.18974148607099,0.00330474070491705,0.00330474070602227,-2.26184319998579,2.26184319998608,-0.728885632159538,8.60159999999996,102,752.894463315217,719.806012228261,724.746263586957,752.4546875,753.334239130435,771.7734375,667.838586956522,730.796875,718.695652173913,0.794117647058824
709.12,-1.2120415615342,0.743542431830636,-0.885671424858808,0.935416607079878,-1.46881908262989,-1.4688190826294,1.69871781474795,,-0.6189143440682,-0.882112880430457,-1.06374091324042,-0.882112880430591,-1.39377856235468,0.420872250323374,-1.12538268771659,-0.46623332259818,-0.758717510196978,-0.561254563494877,-0.68776461117614,,-0.626439075160578,-0.971250463971913,-0.744649967112288,-0.883654181577786,0.245332863373603,-1.479450829281,-1.47945082927538,-0.814022275372744,0.81402227537066,-0.344209427696693,-0.505725300446287,0.884267254892687,0.291107995023343,-1.20072968135201,-0.316999146761031,-1.78968026837615,1.0236263921765,1.16041192082713,1.16041192082716,-1.00687192217236,,-1.07005303646945,-1.28923811039425,0.198813195126709,-1.06286833383348,1.21587506393262,-0.00161626908134501,-0.00161626908027439,-2.29837621125885,2.29837621125915,-0.733096205305364,8.70399999999995,103,762.103970264059,742.01198114535,692.41887692885,761.893338727077,762.314601801041,817.052346278317,666.971616012382,688.175026968716,696.662726888983,0
709.2224,-1.19784652300957,0.74793318695457,-0.870857443645696,0.943459910745132,-1.4375791438068,-1.4375791438063,1.71405439684893,,-0.60537081578785,-0.881816491225526,-1.09141743125071,-0.88181649122564,-1.38413204753371,0.440497387218854,-1.10779551755024,-0.464368757759141,-0.765841984198143,-0.561070607057121,-0.681103033145918,,-0.608044729051852,-1.03590988463604,-0.813132323304707,-0.950446729037499,0.272964891787591,-1.46056599653055,-1.46056599652482,-0.82164561018899,0.821645610186907,-0.3261906242522,-0.521644186062153,0.912343301135861,0.300559167331347,-1.22834707097974,-0.276069653794614,-1.78814261157876,0.969259577767302,1.15584276686253,1.15584276686259,-1.00693574180521,,-1.05570270149443,-1.3290987981259,0.231160595197743,-1.07507026271601,1.24151357576612,-0.00715617100016917,-0.00715617099913992,-2.33350844762292,2.33350844762321,-0.737658033694467,8.80639999999994,102,772.878431372549,671.764215686275,732.558823529412,778.444117647059,767.312745098039,702.138235294118,641.390196078431,749.774509803922,715.343137254902,0
709.3248,-1.18374222272456,0.753068977647444,-0.855876030393786,0.951702389780475,-1.40701665803569,-1.40701665803515,1.72945000581133,,-0.591846576408583,-0.881762559171399,-1.11870753532162,-0.8817625591715,-1.37416841255247,0.459549211829151,-1.09015990697799,-0.463313637698911,-0.772111090138316,-0.561420370021001,-0.674916471779539,,-0.589789610990129,-1.09833897476857,-0.879502237656481,-1.01504056973226,0.30119506290247,-1.44093321107818,-1.44093321107238,-0.829781379620872,0.829781379618786,-0.308553576420494,-0.536849775261838,0.940054818940465,0.310651170747002,-1.25355474700371,-0.236578886627493,-1.78485069721058,0.916818609020726,1.14997147622992,1.14997147623,-1.00711603601593,,-1.04147430336702,-1.36828855358565,0.26303236307547,-1.08701252964209,1.26662501979482,-0.0133381013724796,-0.0133381013714981,-2.36715864638964,2.36715864638992,-0.742554178317488,8.90879999999993,103,773.48932038835,666.61359223301,755.417475728155,779.733980582524,767.244660194175,684.231067961165,648.996116504854,774.68932038835,736.145631067961,0
709.4272,-1.16977318272621,0.758942842660463,-0.840771339399474,0.960150135221797,-1.37718893778707,-1.3771889377865,1.74491408973331,,-0.578290759162323,-0.881988288513341,-1.14558307607494,-0.881988288513441,-1.36392180740683,0.477934647648528,-1.07254837729826,-0.463154496760442,-0.777516309148298,-0.562377730733048,-0.669325586652962,,-0.571839062787785,-1.15841234184482,-0.943605209132056,-1.07729703605756,0.330049974793786,-1.42062057523289,-1.42062057522707,-0.838417761929539,0.838417761927442,-0.291296196446188,-0.5513103345916,0.967275394732838,0.321281252278708,-1.27634541552918,-0.198637855844588,-1.77989366308378,0.866401481799206,1.14278628975944,1.14278628975955,-1.00746914849518,,-1.02745190196994,-1.40677167913766,0.294318008862868,-1.09874848863962,1.29117887867049,-0.0201820487136448,-0.0201820487127121,-2.39924504752492,2.39924504752519,-0.747765160418769,9.01119999999992,102,768.600490196079,670.448529411765,781.43137254902,774.912745098039,762.288235294118,682.137254901961,658.759803921569,800.411764705882,762.450980392157,0
709.5296,-1.15598351697648,0.765544372136029,-0.825588311158042,0.968808848397584,-1.34814905464722,-1.34814905464662,1.76045044845131,,-0.564654205564019,-0.882529689635438,-1.17201819783675,-0.882529689635532,-1.35342599231634,0.495560505412577,-1.05503313294355,-0.463973709361058,-0.782052327013862,-0.564013582989608,-0.664447065205043,,-0.554356842251875,-1.21601215625561,-1.00529451155115,-1.13708517374977,0.35955252699049,-1.39969584029706,-1.39969584029126,-0.847538573554685,0.847538573552578,-0.274414578559192,-0.564994305807735,0.993876241994697,0.332343568284206,-1.29671930926454,-0.162350529902912,-1.77336386967317,0.818092983650302,1.13427984871973,1.13427984871985,-1.00804906781149,,-1.01371680805639,-1.4445128615701,0.324909393319428,-1.11033000384579,1.31514595678301,-0.0277046344041673,-0.0277046344032776,-2.42968551712943,2.42968551712968,-0.753269136020847,9.11359999999991,102,765.011764705882,676.344607843137,809.078431372549,774.135294117647,755.888235294118,680.406862745098,672.282352941176,827.71568627451,790.441176470588,0
709.632,-1.14241664832929,0.772859792017399,-0.810372378062687,0.977683768661036,-1.31994564415269,-1.31994564415206,1.77605717573543,,-0.550889755862191,-0.883421315121631,-1.19798922831264,-0.883421315121735,-1.3427141501023,0.512333944257277,-1.03768568487218,-0.465848899762542,-0.785717092504167,-0.566395332175641,-0.660392824666714,,-0.53750416927756,-1.27102821887366,-1.06443139165695,-1.19428186496935,0.389721614686685,-1.37822636818964,-1.37822636818387,-0.857123091484984,0.857123091482871,-0.257903236617015,-0.577870385688851,1.0197266762368,0.343729629956044,-1.31468420441787,-0.127813544004085,-1.76535666354586,0.771964563204312,1.1244492626846,1.12444926268474,-1.00890704599763,,-1.00034717775775,-1.48147726638228,0.354701197914829,-1.12180716805299,1.33849821170201,-0.0359189199945325,-0.0359189199936982,-2.45839771182724,2.4583977118275,-0.759042070613186,9.21599999999989,103,750.559223300971,686.629126213592,818.665048543689,757.978640776699,743.139805825243,696.566019417476,676.692233009709,835.281553398058,802.04854368932,0
709.7344,-1.12911500688811,0.780872056772923,-0.795169149805815,0.986779577323651,-1.29262271467287,-1.2926227146722,1.79172661221396,,-0.536952537526035,-0.884695964863143,-1.2234745465076,-0.884695964863276,-1.33181866034458,0.528162937126497,-1.02057643623449,-0.468852353881809,-0.788511851220884,-0.569586388221181,-0.657269208024506,,-0.521438742381547,-1.32335798121628,-1.12088522127036,-1.24877190422455,0.420571846451308,-1.35627908597872,-1.35627908597299,-0.86714596343407,0.867145963431955,-0.241755346250341,-0.589907645320403,1.04469466251819,0.355328775730505,-1.33025540412292,-0.0951159446349681,-1.75597013031358,0.728074274033014,1.11329616203659,1.11329616203675,-1.01009125018151,,-0.987417641736282,-1.51763061184069,0.383591364173215,-1.13322802633111,1.3612085838004,-0.0448342475250794,-0.0448342475242903,-2.48529928908707,2.48529928908732,-0.765057908701544,9.3184,102,739.107843137255,687.916176470588,804.357843137255,748.262745098039,729.952941176471,694.710784313726,681.121568627451,816.990196078431,791.725490196079,0
709.8368,-1.11611970895709,0.789560952323144,-0.780024077103741,0.996100275460196,-1.26621945797202,-1.26621945797134,1.80744531703541,,-0.522800243001528,-0.886384353908472,-1.24845443465304,-0.886384353908612,-1.32077082451683,0.542956737646549,-1.00377422138402,-0.47305042749063,-0.790441154797186,-0.573645650402571,-0.655176168281092,,-0.506313721020036,-1.37290652363595,-1.1745336081711,-1.30044803227801,0.452113290051149,-1.33392042476518,-1.33392042475948,-0.877577209504606,0.877577209502485,-0.225962985925526,-0.601075683710061,1.06864744326322,0.367028687603021,-1.34345568858572,-0.0643389610695679,-1.74530482963767,0.686466789087317,1.10082673402959,1.10082673402979,-1.01164644485448,,-0.974998965171207,-1.55293922438301,0.411481504486288,-1.14463830450241,1.38325082551626,-0.0544561132137791,-0.0544561132130304,-2.51030816464809,2.51030816464833,-0.771288735754776,9.42079999999999,103,726.477669902913,696.414077669903,775.427184466019,735.659223300971,717.296116504854,715.12427184466,677.703883495146,786.407766990291,764.446601941748,0
709.9392,-1.10347021658651,0.798903212526142,-0.764982092607609,1.00564903490542,-1.24077006311695,-1.24077006311625,1.82319407277011,,-0.508393387792125,-0.888514736464426,-1.27291092074518,-0.888514736464591,-1.30960053283386,0.556626347571051,-0.987345789925408,-0.478502947568595,-0.791512839374821,-0.578626979930028,-0.654206438530186,,-0.492276670082998,-1.41958649765158,-1.22526247011912,-1.34921093348276,0.484351252414119,-1.31121623485318,-1.31121623484755,-0.888382313182213,0.888382313180083,-0.210517367134949,-0.611344804635592,1.09145224114468,0.378715961845309,-1.35431522739732,-0.0355557950147025,-1.7334634987552,0.647173480325893,1.08705174118524,1.08705174118547,-1.01361370369443,,-0.963157733780074,-1.58737007917428,0.438277289005442,-1.15608114243246,1.40459933116187,-0.0647860665896945,-0.0647860665889848,-2.53334281883139,2.53334281883164,-0.777704932865279,9.52319999999997,102,721.864705882353,660.172058823529,709.93137254902,730.388235294118,713.341176470588,667.233333333333,653.110784313726,724.441176470588,695.421568627451,0
710.0416,-1.09120398036271,0.808872655558885,-0.750087229339589,1.01542802439088,-1.2163035371676,-1.21630353716688,1.83894793421042,,-0.49369554814377,-0.891112484122311,-1.29682761875852,-0.891112484122494,-1.29833586944404,0.569084983471241,-0.971355233214284,-0.485262610195741,-0.791737962486923,-0.58457866107474,-0.654444694075584,,-0.479468469969085,-1.46331803952494,-1.27296607768703,-1.39496920310557,0.517286100178688,-1.28823167234715,-1.2882316723416,-0.899522394016553,0.899522394014416,-0.195409040731281,-0.620686201557072,1.11297702181798,0.390276738860986,-1.36287144592248,-0.00883142183603963,-1.72055070854672,0.610212557697329,1.07198651856651,1.07198651856678,-1.01603015377385,,-0.951956063716739,-1.62089083090474,0.463888812714156,-1.16759683371804,1.42522897037962,-0.075821622102343,-0.0758216221016754,-2.55432264718377,2.55432264718401,-0.784275326723982,9.62559999999996,102,719.882352941177,651.005392156863,622.504901960784,723.887254901961,715.877450980392,656.812745098039,645.198039215686,632.225490196078,612.78431372549,0
710.144,-1.07935607325797,0.819440346845648,-0.735382221735806,1.0254382163475,-1.19284353659144,-1.1928435365907,1.85467632371133,,-0.478673582256892,-0.894199627950116,-1.32018957342243,-0.894199627950313,-1.28700266518188,0.580248537292125,-0.955863364298065,-0.493374386983553,-0.791130690837143,-0.591542859795826,-0.655966724440774,,-0.46802220956787,-1.50402866216537,-1.31754707190778,-1.43763929132353,0.550913125219245,-1.26503105701238,-1.26503105700692,-0.910954449676566,0.910954449674426,-0.180628067354035,-0.629072137064811,1.13309129729647,0.401597389687451,-1.36916884222675,0.0157776004161102,-1.70667246435241,0.575589261764886,1.0556509474457,1.05565094744601,-1.01892875654364,,-0.941451335913017,-1.65346984423856,0.488230947104485,-1.1792225771848,1.44511493179667,-0.0875561711319556,-0.087556171131336,-2.57316834098466,2.57316834098492,-0.79096733875771,9.72799999999995,103,715.423300970874,637.300485436893,559.02427184466,709.779611650485,721.066990291262,647.63786407767,626.963106796117,564.611650485437,553.436893203884,0
710.2464,-1.06795883020588,0.830574789005397,-0.720908102902992,1.03567918391396,-1.17040821677394,-1.17040821677318,1.87034317076946,,-0.463297834393321,-0.897794389687652,-1.34298311405346,-0.89779438968787,-1.2756240279018,0.590036021282667,-0.940927083605261,-0.502874961827558,-0.789708142697141,-0.599555099654396,-0.658838646243972,,-0.458062099280385,-1.54165313044899,-1.35891646030465,-1.47714542838137,0.585222455750123,-1.24167770592021,-1.24167770591484,-0.922631655451125,0.922631655448986,-0.166164146624415,-0.636476112172452,1.15166694709136,0.412565238963089,-1.37325876433434,0.0382233149144116,-1.69193576319332,0.543296106109356,1.03806940978109,1.03806940978143,-1.02233812989151,,-0.931695958560563,-1.68507623911476,0.511223681323836,-1.19099225073846,1.46423258518335,-0.0999788918567963,-0.0999788918562171,-2.58980228215665,2.58980228215692,-0.797747137089938,9.83039999999994,102,865.655882352941,616.379411764706,507.852941176471,858.257843137255,873.053921568628,614.070588235294,618.688235294118,509.21568627451,506.490196078431,0
710.3488,-1.05704151110374,0.842242129868286,-0.706703817740153,1.04614889915327,-1.1490101097916,-1.14901010979081,1.88590709153934,,-0.447542314729589,-0.901910736277858,-1.36519571760331,-0.901910736278091,-1.26421989511162,0.598369987738401,-0.926598776517921,-0.513792225116295,-0.787490199661794,-0.608643781712558,-0.663116193110474,,-0.449702452951032,-1.5761333215683,-1.39699359125317,-1.51341953183666,0.620199008928692,-1.21823375199833,-1.21823375199304,-0.934503711352421,0.934503711350275,-0.152006709981674,-0.64287302900161,1.16857902785829,0.42306928416411,-1.3751991678831,0.0584665378982625,-1.67644813704021,0.513313169597515,1.01927073449048,1.01927073449085,-1.0262824136698,,-0.92273716331522,-1.71567996422985,0.532792452690041,-1.20293622025963,1.48255736874111,-0.113074668989013,-0.113074668988481,-2.60414894382085,2.60414894382112,-0.804579793775222,9.93279999999993,103,1140.64466019418,641.73932038835,455.684466019418,1141.72038834951,1139.56893203884,647.392233009709,636.08640776699,442.087378640777,469.281553398058,0
710.4512,-1.04662999630846,0.854406373232677,-0.692805865633606,1.05684353773248,-1.12865603484213,-1.12865603484131,1.90132160408399,,-0.431384843922521,-0.906557982393845,-1.3868158773526,-0.90655798239406,-1.25280664028194,0.605176919604396,-0.912925773998425,-0.526144844770121,-0.784499305246926,-0.618829768890909,-0.6688441031298,,-0.443046772092867,-1.60741807031443,-1.43170610618091,-1.54640109562714,0.655822477140799,-1.19475995796134,-1.19475995795614,-0.946517226942908,0.946517226940759,-0.138144991208789,-0.648239351991175,1.18370654470666,0.433000871398532,-1.37505436859998,0.076477005182192,-1.66031721200917,0.485608443492912,0.999288144852908,0.999288144853309,-1.03078117402556,,-0.914616836682203,-1.74525189668577,0.552868455351139,-1.21508119048498,1.50006470328103,-0.126824044180063,-0.126824044179592,-2.61613529206662,2.6161352920669,-0.81142944891053,10.0351999999999,102,1144.72254901961,634.535294117647,444.671568627451,1145.79117647059,1143.65392156863,634.741176470588,634.329411764706,439.009803921569,450.333333333333,0
710.5536,-1.0367465101583,0.867029578193179,-0.679247973335638,1.06775728722052,-1.10934703645218,-1.10934703645132,1.91653537598009,,-0.414807149623419,-0.911740446270773,-1.40783297322688,-0.911740446270967,-1.24139673443008,0.610387596475097,-0.899949875799047,-0.539941918567515,-0.78076026251334,-0.630126041150577,-0.676055600337118,,-0.438186935934567,-1.63546300158718,-1.46298987252311,-1.57603706353668,0.692067339916675,-1.17131553178907,-1.17131553178399,-0.958616135067475,0.958616135065322,-0.124568091799612,-0.652553270915641,1.19693317564581,0.442254312651832,-1.37289478871804,0.0922334767635955,-1.64365029704794,0.460138240807207,0.978159208611062,0.978159208611504,-1.0358493344384,,-0.90737138123798,-1.7737639498003,0.571388909111476,-1.22745009502017,1.51672993009618,-0.141203215742808,-0.141203215742392,-2.62569118328924,2.62569118328954,-0.818259482380367,10.1375999999999,102,1108.52912731247,636.10217125548,438.17315845257,1101.08476827094,1115.973486354,626.952852049911,645.251490461049,431.960784313725,444.385532591415,0
710.656,-1.02740936617186,0.880072041780021,-0.666060793850755,1.0788821561488,-1.09107834580691,-1.09107834580604,1.93149249963905,,-0.397794904955121,-0.917457156648436,-1.42823714322881,-0.917457156648617,-1.22999845252826,0.613937443131075,-0.88770692334049,-0.555182706382907,-0.776300035172781,-0.642537421201492,-0.68477196197029,,-0.435202490541815,-1.66023035626955,-1.49078890291599,-1.60228169296988,0.728902897090349,-1.14795794468694,-1.14795794468201,-0.970742126613998,0.970742126611846,-0.111265052689885,-0.655794866903113,1.20814796005029,0.450727455652173,-1.3687966891702,0.105723789476966,-1.62655400075458,0.4368476721749,0.955925786183844,0.95592578618431,-1.04149712412974,,-0.901031601513324,-1.80118917160994,0.588297276603718,-1.24006201827861,1.53252826902104,-0.156184096925153,-0.156184096924781,-2.63274974846422,2.63274974846453,-0.825032692076874,10.2399999999999,103,1006.09416973792,668.684101146601,440.986486486487,994.101515151515,1018.08682432432,671.412121212121,665.956081081081,432,449.972972972973,0.932038834951456
710.7584,-1.01863273538512,0.893492469202456,-0.653271631244932,1.0902077863729,-1.07383936869676,-1.07383936869586,1.94613279146515,,-0.380337705898596,-0.923701612823857,-1.44801916065388,-0.923701612824032,-1.21861562135039,0.615766860243928,-0.876226419241547,-0.571856444386435,-0.771147549849935,-0.656060372056403,-0.695002175506833,,-0.434160039934394,-1.68168881771734,-1.5150552653926,-1.62509641529784,0.766293324562669,-1.12474275036567,-1.12474275036081,-0.982835093374732,0.982835093372576,-0.098224933351504,-0.657946278214778,1.21724596455925,0.458322227215233,-1.36284188344882,0.116944857562004,-1.6091338712796,0.415671186750693,0.932633970348916,0.932633970349405,-1.04773004491514,,-0.895622615668645,-1.82750182913667,0.603543429464018,-1.252932144165,1.54743479627427,-0.17173442933584,-0.171734429335511,-2.63724775557782,2.63724775557814,-0.831711475031581,10.3424,102,901.865793918919,702.11097972973,443.756756756757,886.725,917.006587837838,716.45,687.77195945946,432,455.513513513514,0.323529411764706
710.8608,-1.01042644203068,0.90724813937454,-0.640904192721533,1.10172127230692,-1.05761370735091,-1.05761370734999,1.96039211797919,,-0.362428988614775,-0.930461600102091,-1.46717032552345,-0.930461600102284,-1.2072474089366,0.615821529022659,-0.865531197244384,-0.589942243482671,-0.765333492773062,-0.670682867055626,-0.70674269463962,,-0.435112745594755,-1.69981334420389,-1.53574898756112,-1.64444969716393,0.804197759393775,-1.10172340284255,-1.10172340283774,-0.99483356175294,0.99483356175078,-0.0854368907760786,-0.658991858088708,1.22412892969521,0.464945165582931,-1.35511743449065,0.12590262769233,-1.59149405522303,0.396533173080033,0.908334011036366,0.90833401103688,-1.05454886303621,,-0.891163796788894,-1.85267748324582,0.617083772442735,-1.26607172902719,1.56142444199828,-0.187817936069079,-0.187817936068778,-2.63912594637984,2.63912594638016,-0.838258005890554,10.4448,103,834.847267489246,715.573263897172,452.59262660719,814.273762871433,855.420772107058,730.079229185055,701.067298609289,444.73786407767,460.44738913671,0
710.9632,-1.00279578881605,0.921295073663446,-0.628978367389893,1.11340698987619,-1.04237922160402,-1.04237922160308,1.97420275823764,,-0.344065884992103,-0.937719059653165,-1.48568237999826,-0.937719059653364,-1.19588815428983,0.614052682668554,-0.855637144336052,-0.609409071313153,-0.75889009323542,-0.686384330219387,-0.719977298884958,,-0.438099934761547,-1.71458501107586,-1.55283795683685,-1.66031690582642,0.842570423992813,-1.07895106779744,-1.07895106779271,-1.00667510844109,1.00667510843893,-0.0728902468758983,-0.658918318285103,1.22870589349211,0.470507946926299,-1.34571533796848,0.132611999405294,-1.57373697008726,0.379348613400593,0.883080218583792,0.88308021858432,-1.06194963150173,,-0.887668745572093,-1.87669306413886,0.628881336835411,-1.2794880994002,1.57447200518162,-0.204394496170056,-0.204394496169783,-2.63832935025145,2.63832935025177,-0.844634406316499,10.5472,102,846.218137254902,703.545588235294,464.995098039216,832.626470588235,859.809803921569,706.612745098039,700.478431372549,466.627450980392,463.362745098039,0
711.0656,-0.995741415576579,0.935588217312085,-0.617510032066164,1.12524644249915,-1.02810813503589,-1.02810813503493,1.98749381090819,,-0.325249011211929,-0.945450013235963,-1.50354745631856,-0.945450013236179,-1.18452723828128,0.610417341856803,-0.84655297719206,-0.630215818986892,-0.751850888468266,-0.703135646857591,-0.734677060197666,,-0.443146817106157,-1.72599086731151,-1.56629781933784,-1.67268018239037,0.881360799584194,-1.0564744229905,-1.05647442298582,-1.01829676196772,1.01829676196556,-0.0605745313521825,-0.657714853403333,1.23089378373595,0.474927903440459,-1.33473219481344,0.13709672404658,-1.55596298222176,0.364023783900751,0.856930837094054,0.856930837094594,-1.06992374792817,,-0.885145295175944,-1.89952696057176,0.638905852863715,-1.29318467933382,1.58655218217786,-0.221420330955013,-0.221420330954766,-2.63480757998664,2.63480757998697,-0.850802900091099,10.6496,102,957.344117647059,681.301470588235,475.303921568627,947.922549019608,966.76568627451,683.383333333333,679.219607843137,470.333333333333,480.274509803922,0
711.168,-0.989259197965015,0.950081641923148,-0.60651088751672,1.13721813692882,-1.01476719339512,-1.01476719339416,2.00019164920774,,-0.305982189207574,-0.953624546800026,-1.52075806104666,-0.953624546800248,-1.17314900054958,0.604878510520754,-0.838280079053001,-0.652311457904088,-0.744250469531556,-0.720899249045025,-0.75080042149938,,-0.450264314695462,-1.73402381209521,-1.57611188150557,-1.68152832793428,0.920513855788631,-1.03433944793977,-1.03433944793518,-1.02963539250618,1.02963539250402,-0.0484794894008219,-0.655373234414109,1.2306179583949,0.478128526121876,-1.32226887293596,0.139389290818761,-1.53827008261393,0.350456994417755,0.829947880902503,0.829947880903061,-1.07845805140942,,-0.883595548189802,-1.92115913095764,0.647133804413824,-1.30716105233441,1.59763960307727,-0.238848200551924,-0.238848200551705,-2.62851511308235,2.62851511308269,-0.856725953616603,10.752,103,1001.21941747573,652.965533980583,482.922330097087,992.634951456311,1009.80388349515,666.35145631068,639.579611650485,474.932038834951,490.912621359223,0
711.2704,-0.983340193376055,0.964728769910384,-0.595988331593971,1.14929750193847,-1.00231787971134,-1.00231787971038,2.01222041860631,,-0.286272116524873,-0.96220685881469,-1.53730709058112,-0.96220685881492,-1.16173271109783,0.597405326147437,-0.830812407722486,-0.675635290910101,-0.736124214645349,-0.739629280966796,-0.768293389424606,,-0.45944901238521,-1.73868249459613,-1.58227101881607,-1.6868567062409,0.959970333636018,-1.01258921039799,-1.01258921039348,-1.04062808139095,1.04062808138879,-0.0365950539238336,-0.651887856261967,1.22781266398801,0.480039939019599,-1.30843015564482,0.139530797849326,-1.52075355922893,0.33853936372955,0.802196934356074,0.802196934356652,-1.08753495537319,,-0.88301594220331,-1.9415712308162,0.653548461301002,-1.32141305649247,1.60770886955183,-0.256627608923513,-0.256627608923318,-2.61941156393142,2.61941156393175,-0.862366410132947,10.8543999999999,102,1071.21715686275,600.229411764706,465.06862745098,1066.16960784314,1076.26470588235,630.895098039216,569.563725490196,448.303921568628,481.833333333333,0
711.3728,-0.97797064011405,0.979482612820211,-0.585945377650213,1.16145685866998,-0.990716683287417,-0.99071668328645,2.02350256192809,,-0.266128017730072,-0.971155378485701,-1.55318786389576,-0.971155378485947,-1.15025260889843,0.58797316417381,-0.824136486420414,-0.700117293380999,-0.727508022437556,-0.759271842821176,-0.787089835665765,,-0.470683229681249,-1.73997123624858,-1.58477359483135,-1.68866716408908,0.999667068037987,-0.991263662204155,-0.991263662199612,-1.05121246239802,1.05121246239586,-0.0249112961581881,-0.647255736608833,1.22242139077216,0.480599324217223,-1.29332437566262,0.137570798030482,-1.50350567358916,0.328155627523948,0.773746922484017,0.773746922484633,-1.09713260657827,,-0.883397337838234,-1.96074673986256,0.658139879527732,-1.33593290450697,1.61673459243453,-0.274705016802667,-0.274705016802488,-2.60746195339561,2.60746195339594,-0.867687631462144,10.9567999999999,103,1072.92184466019,584.332524271845,453.854368932039,1067.79223300971,1078.05145631068,609.102912621359,559.56213592233,440.019417475728,467.68932038835,0
711.4752,-0.973132011323793,0.99429601170395,-0.576380623663695,1.17366544556992,-0.979915413524514,-0.979915413523533,2.03395935247266,,-0.245561315741651,-0.980422952925585,-1.56839415652002,-0.980422952925839,-1.13867801453919,0.576563705123036,-0.81823148033783,-0.725678528412244,-0.718438059732837,-0.779765302417237,-0.807111890794355,,-0.483935202155075,-1.73789997344508,-1.58362539316589,-1.68696796896523,1.03953733307769,-0.970399455043233,-0.970399455038671,-1.06132704005215,1.06132704004999,-0.0134183756547749,-0.641476479499513,1.21439712641278,0.479751278759667,-1.27706303772297,0.13356710999182,-1.48661535388017,0.31918497412354,0.744669860704535,0.744669860705173,-1.10722505977314,,-0.884725124699534,-1.97867107279035,0.660904862631459,-1.35070931896624,1.62469143289015,-0.293024066704527,-0.293024066704363,-2.59263697560097,2.59263697560128,-0.872653656184897,11.0591999999999,102,1324.66911764706,560.872058823529,427.210784313726,1346.28137254902,1303.0568627451,552.027450980392,569.716666666667,409.705882352941,444.71568627451,0
711.5776,-0.968801118250083,1.00912186916279,-0.567288270494362,1.18588949496316,-0.969861548276652,-0.969861548275662,2.04351141953553,,-0.224585348424011,-0.989957094600907,-1.5829202265121,-0.98995709460117,-1.12697351101096,0.563164975378315,-0.813069348618113,-0.752231615314936,-0.708950535883485,-0.801040658731679,-0.828270408425908,,-0.499159351265897,-1.7324842195747,-1.57883956424924,-1.68177376436016,1.07951120082357,-0.950029779742516,-0.950029779737877,-1.07091149878512,1.07091149878296,-0.00210650634953633,-0.634552222575725,1.20370252754813,0.477448098572095,-1.25976043667067,0.127585591769943,-1.47016791543902,0.311501901306237,0.715040586621077,0.715040586621738,-1.11778246184663,,-0.88697934410653,-1.99533166872013,0.661846886302005,-1.36572767640891,1.63155415143167,-0.311525823976764,-0.311525823976643,-2.57491325299451,2.57491325299482,-0.877229371734977,11.1615999999999,102,1466.73970588235,534.63137254902,405.813725490196,1507.67549019608,1425.80392156863,491.58431372549,577.678431372549,392.147058823529,419.480392156863,0
711.68,-0.964950255172938,1.02391336658231,-0.558658184283232,1.19809235574304,-0.960498610102786,-0.960498610101783,2.05207925488276,,-0.203215136322395,-0.999700279765466,-1.59676083157939,-0.999700279765754,-1.11509918163519,0.547771369175688,-0.808615058140721,-0.779681236522854,-0.699081510075041,-0.823021945714549,-0.850465483199109,,-0.516296625972268,-1.72374504628487,-1.57043658669988,-1.67310554250209,1.11951591311615,-0.930184227725432,-0.930184227720727,-1.07990701404002,1.07990701403786,0.00903405487838414,-0.626487580690951,1.19031003378037,0.473649999223768,-1.24153327958026,0.119699882417329,-1.45424481468283,0.304977088540016,0.684936472617409,0.684936472618097,-1.12877124415841,,-0.890134829549989,-2.01071806571726,0.660975997457123,-1.38097015740078,1.63729766684037,-0.330149031459792,-0.330149031459708,-2.55427356862129,2.55427356862158,-0.88138069154365,11.2639999999999,103,1470.10194174757,526.470873786408,393.985436893204,1515.57184466019,1424.63203883495,479.400970873787,573.540776699029,385.902912621359,402.067961165049,0
711.7824,-0.961547383138309,1.03862416540502,-0.550476000682213,1.21023465832743,-0.95176656856996,-0.951766568568953,2.05958369152018,,-0.181467193749084,-1.00959029507226,-1.60991124121485,-1.00959029507257,-1.10301090164735,0.530383658842176,-0.804826852782454,-0.807924679399156,-0.688866732514816,-0.845626673460103,-0.873587020426021,,-0.535274913229868,-1.71170908365213,-1.55844424102317,-1.66099063337786,1.1594762710378,-0.910888672369366,-0.910888672364655,-1.08825656962045,1.08825656961829,0.0200130015475874,-0.617289590594841,1.17420194412692,0.468325290363718,-1.22250031857957,0.109991120861552,-1.43892343663656,0.299478281774852,0.654437116400626,0.654437116401314,-1.14015432541291,,-0.894161366504503,-2.02482197245257,0.658308701557276,-1.39641590318245,1.64189712685474,-0.348830371035301,-0.34883037103525,-2.53070706963387,2.53070706963413,-0.885074730503221,11.3664,102,1471.9318627451,532.237745098039,389.656862745098,1521.41274509804,1422.45098039216,478.937254901961,585.538235294118,381.901960784314,397.411764705882,0
711.8848,-0.958556354670097,1.05320859527847,-0.542723272004031,1.22227452097796,-0.943602270276392,-0.943602270275372,2.06594635132198,,-0.159359369414765,-1.01956063685023,-1.62236724975642,-1.01956063685057,-1.09066068936885,0.511009000323495,-0.801656580662937,-0.836852420088097,-0.678341516252233,-0.868766312326445,-0.897515369210017,,-0.556009525984155,-1.69640853841721,-1.54289759273681,-1.64546270832645,1.19931505017433,-0.892165167941974,-0.892165167937291,-1.09590528067175,1.09590528066959,0.0308399651564341,-0.606967653806009,1.15537046327675,0.461450516919383,-1.20278199787836,0.09854765165428,-1.42427691192186,0.294871191244671,0.623624005480411,0.623624005481107,-1.15189133104481,,-0.899023874779362,-2.03763735214178,0.65386784946361,-1.4120411842931,1.64532799267028,-0.367504728880171,-0.367504728880154,-2.50420944288527,2.50420944288552,-0.888279974536539,11.4688,103,1108.01116504854,647.350485436893,423.432038834951,1118.6145631068,1097.40776699029,621.857281553398,672.843689320388,424.436893203884,422.427184466019,0
