time,S1-D1,S1-D8,S1-D9,S1-D15,S2-D1,S2-D2,S2-D3,S2-D9,S3-D1,S3-D2,S3-D16,S4-D2,S4-D3,S4-D5,S5-D3,S5-D4,S5-D5,S6-D2,S6-D5,S6-D17,S7-D6,S7-D7,S8-D6,S8-D7,S8-D18,S9-D3,S9-D4,S9-D9,S9-D11,S9-D19,S10-D8,S10-D9,S10-D10,S10-D11,S11-D8,S11-D10,S11-D20,S12-D10,S12-D11,S12-D12,S13-D4,S13-D11,S13-D12,S14-D10,S14-D12,S14-D21,S15-D13,S15-D14,S16-D13,S16-D14,S16-D22,t_rel_s,eye_n,xp,yp,ps,xpl_i,xpr_i,ypl_i,ypr_i,psl_i,psr_i,blink_prop
1281.7408,-1.77218167947494,,,0.302995963576532,0.952978886021134,0.95297888602293,-1.46250636318089,-0.417677454343165,-1.38243652594858,2.04678734727792,1.53223543772642,2.0467873472789,,-2.69983716390982,,,,0.436786846018274,0.128500204327761,1.49591523010995,,,2.61881048258659,1.33337362699239,0.197487487674593,,0.0954472918939005,,-1.07130481914963,-0.0360974671668514,0.203257985535926,-0.814228674428,,1.25257135234067,,0.789615806711134,0.275113692057743,,0.970636935489954,1.60187154656063,,,1.63280152041974,-2.24399776170304,-0.192440039216547,0.482513573779501,,,-0.232154087138382,0.232154087138183,0.823022905758062,0,103,951.766990291262,565.522330097087,874.252427184466,931.364077669903,972.169902912621,567.699029126214,563.345631067961,818.631067961165,929.873786407767,0
1281.8432,-1.80532135164219,,,0.320544112002663,0.992244282832888,0.992244282834706,-1.46412750787813,-0.427375028075457,-1.38746129627291,2.02452485305565,1.54703610077805,2.02452485305665,,-2.68605021015296,,,,0.404563326838764,0.106865882514451,1.48905433291712,,,2.64243393231417,1.32702891587173,0.213643033504525,,0.086142967852944,,-1.06229983663077,-0.016403195897387,0.186946253710774,-0.810990850537997,,1.22989630444818,,0.749102651541766,0.332029858518462,,0.971803057459183,1.59307322514681,,,1.62185602814106,-2.26272491042066,-0.231357205150124,0.497660398967576,,,-0.225485525192952,0.22548552519275,0.846275164486301,0.102399999999989,102,953.93431372549,563.608823529412,851.166666666667,934.761764705882,973.106862745098,569.254901960784,557.962745098039,794.352941176471,907.980392156863,0
1281.9456,-1.83821500646232,,,0.337705724668532,1.03041936531208,1.03041936531392,-1.46357251694785,-0.435396651357114,-1.39003028740549,2.00096140965921,1.56006725161005,2.00096140966023,,-2.6718459104367,,,,0.371402545826278,0.0845323145509571,1.48164711163416,,,2.66354259997168,1.31794887333712,0.229306368260408,,0.0772501484536688,,-1.05305418894151,0.00354451250676639,0.17024443800288,-0.807202083771001,,1.20658266145867,,0.708560933438623,0.38770535973204,,0.973788917462605,1.58471879764318,,,1.61138142860401,-2.2811318130051,-0.269178052496747,0.512629454007365,,,-0.218971716127959,0.218971716127754,0.869379920269019,0.204799999999977,103,954.785922330097,560.672330097088,830.873786407767,937.555339805825,972.016504854369,559.467961165049,561.876699029126,774.52427184466,887.223300970874,0
1282.048,-1.87073289337082,,,0.354421574426632,1.06729896108878,1.06729896109064,-1.4607903680355,-0.441701632193454,-1.39008539200546,1.97614780723303,1.57131199056696,1.97614780723406,,-2.65724297494783,,,,0.337459405192502,0.0616180347605466,1.47365312625819,,,2.68219226258476,1.30623469892179,0.244404389222541,,0.06879661756667,,-1.04356902208104,0.0237083049697736,0.153187602175883,-0.802878739656089,,1.18267028358069,,0.66807370962958,0.442064114684591,,0.97660662979773,1.57688288085421,,,1.6014206338437,-2.29918008548138,-0.305791720691334,0.52736416641827,,,-0.21267100561754,0.212671005617334,0.892285139820106,0.307199999999966,102,967.39362745098,492.724019607843,775.936274509804,949.485294117647,985.301960784314,490.029411764706,495.418627450981,724.186274509804,827.686274509804,0
1282.1504,-1.9027416040793,,,0.370635260399909,1.10267602839934,1.10267602840122,-1.45573809071607,-0.446252852400007,-1.38757659573646,1.95013986072735,1.58075611432596,1.95013986072839,,-2.64225900339248,,,,0.302892106168871,0.0382458337767028,1.46503112333041,,,2.69844919513697,1.29200021940516,0.258866467916588,,0.0608083243672001,,-1.03384526800058,0.0440504405699043,0.135812561332655,-0.7980387142114,,1.15820027480457,,0.627723800472447,0.495034915845891,,0.980263175452128,1.56963630492893,,,1.59201459769428,-2.31683093780695,-0.341089839117181,0.541806362064305,,,-0.206643475471755,0.206643475471545,0.914938427804046,0.409599999999955,102,1015.35049019608,258.869117647059,673.671568627451,1009.28333333333,1021.41764705882,264.195098039216,253.543137254902,629.862745098039,717.480392156863,0
1282.2528,-1.9341049877709,,,0.386293713740521,1.13634306521412,1.13634306521603,-1.44838117610476,-0.449016946716759,-1.38246238794958,1.92299830115858,1.58838828586397,1.92299830115964,,-2.62691057708598,,,,0.267861207003065,0.0145419861038424,1.45573935406694,,,2.71238965801606,1.27537110960472,0.272625018089126,,0.0533093676432,,-1.02388373157399,0.0645329897844284,0.118157813137798,-0.792701401299842,,1.13321487217594,,0.587593537206271,0.546551798400392,,0.984760291584883,1.56304577906988,,,1.58320217746635,-2.33404536242903,-0.374966961642685,0.555896516943064,,,-0.200950622499044,0.20095062249883,0.937287235470869,0.511999999999944,103,1014.19029126214,229.644174757282,611.218446601942,1017.65631067961,1010.72427184466,242.21359223301,217.074757281553,575.145631067961,647.291262135922,0
1282.3552,-1.96468513005191,,,0.401347695864053,1.16809356084897,1.16809356085091,-1.43869390174789,-0.449964474394109,-1.37471009858825,1.89478863704543,1.59420020847336,1.89478863704651,,-2.61121335719867,,,,0.232528628857082,-0.00936457665089841,1.44573590967533,,,2.7240992960188,1.25648402148506,0.285616050889705,,0.0463220105060377,,-1.01368514754062,0.0851180315019545,0.100263473837165,-0.786887657849083,,1.10775732822536,,0.547764517272195,0.596554403688433,,0.990094414271066,1.55717358909128,,,1.57502001861349,-2.35078432650738,-0.40732097061428,0.56957404894599,,,-0.195655007654656,0.19565500765444,0.959279074076291,0.614399999999932,102,1017.23235294118,231.672549019608,561.225490196078,1024.64705882353,1009.81764705882,260.667647058824,202.677450980392,530.019607843137,592.43137254902,0
1282.4576,-1.9943433738533,,,0.415752271277561,1.1977234512637,1.19772345126566,-1.4266595693124,-0.449070092322264,-1.36429616266755,1.865580977521,1.59818679463493,1.86558097752209,,-2.5951821889202,,,,0.197056619229551,-0.0333431421711395,1.43497906453933,,,2.73367245326851,1.23548562830377,0.297779716204308,,0.0398667172399435,,-1.00325020542503,0.105767842762828,0.0821712076178286,-0.780619761312846,,1.08187178789825,,0.508317367185184,0.644988339252083,,0.996256665862472,1.5520773224269,,,1.56750245544255,-2.36700896500774,-0.438053457524612,0.582777650023499,,,-0.190819877913992,0.190819877913771,0.980861736332672,0.716799999999921,103,1024.5432038835,138.354368932039,537.757281553398,1031.40291262136,1017.68349514563,168.468932038835,108.239805825243,507.922330097087,567.592233009709,0
1282.56,-2.02294136275694,,,0.429467239515216,1.22503254871998,1.22503254872196,-1.4122706523048,-0.446312728943425,-1.35120630972223,1.83544980775489,1.60034631682989,1.83544980775599,,-2.57883121476371,,,,0.16160668249895,-0.0572621337207213,1.42342762089029,,,2.74121140520758,1.21253159311925,0.309060829477075,,0.0339622030562582,,-0.992579548117427,0.126445078243412,0.0639241401562183,-0.773921354225486,,1.05560315675968,,0.469331506846127,0.691805531696122,,1.0032328824243,1.54780961079103,,,1.56068141573266,-2.38268077491569,-0.467070099079429,0.59544565711514,,,-0.186508763608305,0.186508763608083,1.00198352620496,0.81919999999991,102,1034.14950980392,146.475,519.053921568627,1046.69215686275,1021.6068627451,180.260784313725,112.689215686275,494.980392156863,543.127450980392,0
1282.6624,-2.05034209125682,,,0.442457516840245,1.24982593335775,1.24982593335975,-1.39552885143157,-0.441675750973107,-1.33543567320844,1.80447371233595,1.60068052953969,1.80447371233707,,-2.56217399864154,,,,0.126338490108079,-0.0809900500994718,1.41104125224253,,,2.74682551023991,1.18778547502133,0.319409382027253,,0.0286254888698148,,-0.981673755670693,0.147112940199294,0.0455667570590796,-0.766817376736912,,1.02899695750711,,0.430884909546954,0.736964559449513,,1.01100368386013,1.544417883335,,,1.55458631941258,-2.39776181251843,-0.49428104593928,0.607516456442651,,,-0.182785054576329,0.182785054576104,1.02259349246937,0.921599999999899,102,1029.94166666667,148.55,521.828431372549,1043.95098039216,1015.93235294118,184.646078431373,112.453921568627,500.441176470588,543.21568627451,0
1282.7648,-2.07641094866164,,,0.454693465871036,1.27191530426612,1.27191530426814,-1.37644506204199,-0.43514711621324,-1.31698882103694,1.77273505188434,1.59919475942254,1.77273505188547,,-2.54522365866827,,,,0.0914087903721332,-0.104396408057776,1.39778084295668,,,2.75063029082016,1.16141758880383,0.328781029346634,,0.0238719523255358,,-0.970533327607475,0.167735339496952,0.0271447951270204,-0.759333992739281,,1.00209917473684,,0.393053854744014,0.780430946064668,,1.01954459112274,1.54194412970382,,,1.5492439675359,-2.41221489493567,-0.519601331252666,0.61892890963486,,,-0.179711559555518,0.179711559555291,1.0426416582612,1.02399999999989,103,1021.14757281553,152.51359223301,541.621359223301,1033.40970873786,1008.8854368932,192.063106796117,112.964077669903,521.291262135922,561.95145631068,0
1282.8672,-2.1010167428004,,,0.466151175958412,1.29112028979694,1.29112028979898,-1.35503926880682,-0.426719508791245,-1.29587971853859,1.74031960531304,1.59589796873452,1.74031960531418,,-2.52799300160354,,,,0.0569703446769481,-0.127352664357626,1.38360882182992,,,2.75274645981104,1.13360383253135,0.337137546823256,,0.0197153675733454,,-0.959158673746222,0.188277044624871,0.00870513349536797,-0.751498514348282,,0.974956090002058,,0.355912673547641,0.822177392185389,,1.0288261919286,1.54042467654801,,,1.54467842019686,-2.42600380171502,-0.542951296058872,0.629622786686648,,,-0.177350054403109,0.17735005440288,1.06207923988829,1.12639999999988,102,1015.39117647059,161.180392156863,564.705882352941,1026.81176470588,1003.97058823529,202.157843137255,120.202941176471,544.774509803922,584.637254901961,0
1282.9696,-2.12403268775521,,,0.476812696413667,1.30726971681398,1.30726971681604,-1.33134038907435,-0.416390451447072,-1.27213163978013,1.70731618906703,1.59080279919522,1.70731618906818,,-2.51049464751466,,,,0.0231709176319609,-0.149733097398087,1.3684894897964,,,2.75329890704734,1.10452449263281,0.344447237707353,,0.0161679334439658,,-0.947550116450382,0.208703813622748,-0.00970431345558707,-0.743339326474207,,0.947614107821006,,0.319533488786288,0.862183924957135,,1.03881435578625,1.53988998183523,,,1.54091086094469,-2.43909346553948,-0.564257022228771,0.6395391924732,,,-0.175760824801547,0.175760824801315,1.08085885252328,1.22879999999986,103,1017.07961165049,189.916990291262,582.441747572816,1028.74757281553,1005.41165048544,225.772815533981,154.061165048544,565.718446601942,599.165048543689,0
1283.072,-2.14533734270866,,,0.4866662191755,1.32020283844238,1.32020283844445,-1.30538608404384,-0.404162387110365,-1.24577704032114,1.67381625905166,1.58392559929657,1.67381625905281,,-2.49274113376172,,,,-0.00984765626690951,-0.171415635501616,1.35238934087142,,,2.75241565725964,1.07436303065234,0.350685277805731,,0.0132402939277107,,-0.935707901349621,0.228982503429456,-0.0280347053475504,-0.734885810437652,,0.9201195725668,,0.283985951601385,0.900437948139945,,1.04947049992684,1.54036445283347,,,1.53795945023017,-2.45145014305464,-0.583450758389572,0.648620978089814,,,-0.175002208708226,0.175002208707992,1.09893470168727,1.33119999999985,102,1008.6637254902,189.914215686275,602.240196078431,1016.74705882353,1000.58039215686,217.390196078431,162.438235294118,586.098039215686,618.382352941176,0
1283.1744,-2.16481549696119,,,0.495706203173254,1.32977051444434,1.32977051444643,-1.27722254855971,-0.390042726363871,-1.21685739917005,1.6399134988509,1.57528643242849,1.63991349885206,,-2.47474499232071,,,,-0.0419503135902921,-0.192282627474279,1.33527737041653,,,2.7502268097863,1.04330485534197,0.355833988149669,,0.0109415513137025,,-0.923632213087303,0.24908115026082,-0.0462363957274075,-0.726168262436889,,0.892518580331257,,0.249336977346463,0.936934187693493,,1.06075190420851,1.54186629619018,,,1.53583918083393,-2.46304156695104,-0.600471320522378,0.656813133426651,,,-0.175130143936655,0.17513014393642,1.11626275639981,1.43360000000007,103,995.481067961165,227.609708737864,621.966019417476,1003.77378640777,987.188349514563,253.419417475728,201.8,605.718446601942,638.21359223301,0
1283.2768,-2.18235899809022,,,0.503933435990155,1.33583632563091,1.33583632563301,-1.24690428062848,-0.374043866323334,-1.18542303295329,1.60570339984247,1.56490906125317,1.60570339984364,,-2.45651879928232,,,,-0.0730094999493959,-0.212221555156392,1.31712536105079,,,2.74686347174146,1.01153608985326,0.359883035741917,,0.00927927049618323,,-0.911323193712571,0.268969017572424,-0.0642590697329352,-0.717217802218628,,0.864856793820306,,0.215650487140375,0.97167454303248,,1.07261206785691,1.54440740839402,,,1.53456174999915,-2.47383708335408,-0.615264449701719,0.664063161011662,,,-0.176197725980591,0.176197725980355,1.13280089942945,1.53600000000006,102,990.55,238.318137254902,646.436274509804,998.317647058824,982.782352941176,259.579411764706,217.056862745098,630.617647058824,662.254901960784,0
1283.3792,-2.19786751377293,,,0.511355034837279,1.33827759590888,1.33827759591099,-1.21449382558394,-0.356183189893238,-1.15153288143709,1.57128284007374,1.55282090668709,1.57128284007492,,-2.43807519820127,,,,-0.102905798207323,-0.231125687005248,1.29790813815214,,,2.74245669606411,0.979242349192265,0.362829565920098,,0.00825947693397519,,-0.898780959284042,0.28861661565152,-0.0820518989497825,-0.708066271869177,,0.837179267846101,,0.182987164429359,1.00466786232549,,1.08500110020084,1.54799331281816,,,1.53413545492793,-2.48380777099406,-0.627783112665658,0.670321431743181,,,-0.178254780539211,0.178254780538972,1.14850905415185,1.63840000000005,102,984.030392156863,244.08137254902,671.161764705882,989.341176470588,978.719607843137,265.863725490196,222.299019607843,657.058823529412,685.264705882353,0
1283.4816,-2.21124921472946,,,0.517984387824856,1.33698630198867,1.3369863019908,-1.18006148986785,-0.336483050043597,-1.11525426194541,1.53674966812449,1.53905298376593,1.53674966812569,,-2.4194269003992,,,,-0.131528442988005,-0.248894671974881,1.27760379206776,,,2.7371364349392,0.946607542224479,0.36467826817183,,0.00788665243063909,,-0.886005607407341,0.30799570178103,-0.0995637092013041,-0.698746128193451,,0.80953029134056,,0.151404234859848,1.03592965808201,,1.09786613894889,1.55262314830856,,,1.53456511352191,-2.49292653423155,-0.637987732925249,0.675541522306839,,,-0.181347454684225,0.181347454683983,1.16334929039256,1.74080000000004,103,979.900970873786,251.514563106796,672.621359223301,984.529126213592,975.272815533981,276.665048543689,226.364077669903,659.281553398058,685.961165048544,0
1283.584,-2.22242137010173,,,0.523841029769307,1.33186986292837,1.33186986293051,-1.14368502200053,-0.314970739736769,-1.0766625908806,1.50220229771485,1.52363981782975,1.50220229771607,,-2.40058666440625,,,,-0.158775719262798,-0.265435074640926,1.25619386894176,,,2.73103051974038,0.913812708907547,0.365441374471944,,0.00816373025533853,,-0.872997208837708,0.32707926837663,-0.116743162372566,-0.689290329695301,,0.781953250507419,,0.120955274592284,1.06548177503091,,1.11115178718068,1.55828971281169,,,1.53585201272494,-2.50116816468071,-0.64584634257378,0.679680532783854,,,-0.185517828287379,0.185517828287136,1.17728591182233,1.84320000000002,102,963.446568627451,254.255882352941,667.808823529412,968.990196078431,957.902941176471,281.135294117647,227.376470588235,655.245098039216,680.372549019608,0
1283.6864,-2.23131085043266,,,0.528950444979684,1.32285180922131,1.32285180922345,-1.1054492583052,-0.291678447550983,-1.03584107032513,1.46773931921515,1.50661934370201,1.46773931921638,,-2.3815672545796,,,,-0.184555244022467,-0.280660851408545,1.23366353457289,,,2.72426368041251,0.881034902326698,0.365138587412538,,0.0090920894994334,,-0.859755780996721,0.345841521680565,-0.133538958788271,-0.679732215542586,,0.754490514313561,,0.0916900490828674,1.09335201980322,,1.12480055639971,1.56497956228647,,,1.53799388512429,-2.50850936919773,-0.651334651140207,0.682699379895165,,,-0.190803543579082,0.190803543578838,1.19028552847219,1.94560000000001,103,935.470873786408,250.634466019418,667.966019417476,938.974757281553,931.966990291262,282.357281553398,218.911650485437,654.912621359223,681.019417475728,0
1283.7888,-2.23785453555874,,,0.533343794097956,1.30987233442123,1.30987233442337,-1.06544573023593,-0.26664319881623,-0.99288033701707,1.43345913262674,1.48803278908359,1.43345913262798,,-2.36238138118404,,,,-0.208784132393442,-0.294493764585057,1.21000171535305,,,2.71695661777919,0.848446126417047,0.363796936811391,,0.0106715465981335,,-0.846281249117202,0.364257849317392,-0.149900065565283,-0.670105373100842,,0.727183337464687,,0.0636543779301827,1.11957375801103,,1.13875330363667,1.57267315982612,,,1.54098490934085,-2.51492876517173,-0.654436039390054,0.68456305930043,,,-0.197237451019189,0.197237451018945,1.20231711911629,2.048,102,932.958333333333,252.868137254902,664.068627450981,934.251960784314,931.664705882353,287.136274509804,218.6,652.598039215686,675.539215686275,0
1283.8912,-2.24199962618172,,,0.537057566642245,1.29288873498557,1.29288873498771,-1.02377223215194,-0.239906781475593,-0.947878072432778,1.3994595986947,1.46792454052915,1.39945959869595,,-2.34304162878049,,,,-0.231389054376546,-0.306863729183913,1.18520121771068,,,2.70922514093951,0.816212341328075,0.36145056821598,,0.0129003373762505,,-0.832573406317696,0.382304774384338,-0.165775973444393,-0.66044349054387,,0.70007176834108,,0.0368900092938323,1.14418547864365,,1.15294965513834,1.58134506346906,,,1.54481572260214,-2.52040684735678,-0.6551415007432,0.685240872847768,,,-0.204847274111765,0.204847274111524,1.21335208708294,2.15039999999999,102,932.025490196078,257.282352941176,653.06862745098,935.533333333333,928.517647058823,292.317647058824,222.247058823529,642.852941176471,663.28431372549,0
1283.9936,-2.24370385606733,,,0.540133163487668,1.27187574796067,1.27187574796282,-0.980532350316845,-0.211515653643438,-0.900938573483486,1.36583769463484,1.44634198849037,1.3658376946361,,-2.32356037682195,,,,-0.252306194622543,-0.317709086146311,1.15925882602246,,,2.70117937977431,0.784492547472963,0.35814047050137,,0.0157750819814124,,-0.818631880454715,0.399959898831738,-0.181116981964182,-0.650780193090879,,0.673194543194767,,0.0114344780657986,1.1672303223971,,1.16732841275246,1.59096413915147,,,1.5494734279353,-2.52492593027229,-0.653449561772177,0.68470661912025,,,-0.213655296124685,0.213655296124445,1.22336431169073,2.25279999999998,103,894.457766990291,236.770873786408,661.043689320388,898.145631067961,890.769902912621,268.388349514563,205.153398058252,649.009708737864,673.077669902913,0
1284.096,-2.2429355986215,,,0.542616416072574,1.24682579999112,1.24682579999327,-0.935834954769175,-0.181520825469515,-0.852172282408775,1.33268916006131,1.42333535083465,1.33268916006258,,-2.30394970962488,,,,-0.271481130891521,-0.326976795519499,1.13217538120409,,,2.69292307770187,0.753437954741072,0.353914149859203,,0.0192907312752179,,-0.804456106274414,0.417201843936554,-0.195874506554599,-0.641148868092416,,0.646588950353025,,-0.0126790717360435,1.18875557152829,,1.181827940946,1.60149379112935,,,1.55494158252177,-2.52847007122274,-0.649366208230255,0.682938744155313,,,-0.223678067609666,0.223678067609431,1.23233019748103,2.35519999999997,102,881.013725490196,247.35637254902,660.147058823529,887.321568627451,874.705882352941,280.289215686275,214.423529411765,645.950980392157,674.343137254902,0
1284.1984,-2.23967386450723,,,0.544557052391054,1.21774917956246,1.21774917956461,-0.889793658592464,-0.149977706934149,-0.801695276491244,1.30010812887937,1.39895747930301,1.30010812888065,,-2.28422131426475,,,,-0.288868644896887,-0.334622545899238,1.10395584524706,,,2.68455296075931,0.723191235888123,0.348825255749718,,0.0234405015824501,,-0.790045297466864,0.434010193228777,-0.210001392177477,-0.631582490124012,,0.620290661587297,,-0.035422098319157,1.20881210226158,,1.19638653580527,1.61289220971555,,,1.56120016951837,-2.53102498668361,-0.642904828286601,0.679920448106639,,,-0.234926135563047,0.234926135562815,1.2402287207538,2.45759999999996,102,896.202941176471,242.938235294118,653.509803921569,900.563725490196,891.842156862745,277.83137254902,208.045098039216,639.401960784314,667.617647058824,0
1284.3008,-2.23390819723039,,,0.546008123339286,1.18467413618429,1.18467413618644,-0.84252625298801,-0.11694591760444,-0.749628723126246,1.26818675338098,1.37326365432236,1.26818675338227,,-2.26438637102013,,,,-0.304432475649846,-0.340610780992316,1.07460935610082,,,2.67615817216792,0.693885857696755,0.342933163644005,,0.028215809032133,,-0.775398417671182,0.45036543810304,-0.223452213973237,-0.622113456156366,,0.594333541662629,,-0.0567708862252382,1.22745380526809,,1.21094278187727,1.62511263925707,,,1.5682255695158,-2.53257798025909,-0.634086170089595,0.675639745091223,,,-0.247403803682432,0.247403803682204,1.24704146662368,2.55999999999995,103,910.633495145631,235.433980582524,647.441747572816,914.703883495146,906.563106796117,265.707766990291,205.160194174757,633.320388349515,661.563106796117,0
1284.4032,-2.22563848369853,,,0.547025404357985,1.14764690208838,1.14764690209052,-0.794154128248864,-0.0824890575766926,-0.696098308408721,1.23701482984817,1.34631137033024,1.23701482984947,,-2.2444554419114,,,,-0.318145023200076,-0.344914647826211,1.04414927203113,,,2.6678197631538,0.665645482895162,0.336302520308008,,0.0336062117949405,,-0.760514154713354,0.46624892628899,-0.236183551668547,-0.61277343397865,,0.568749449755885,,-0.0767067616970681,1.24473698454208,,1.22543590318218,1.63810366982605,,,1.57599054810534,-2.53311789379689,-0.622938302442105,0.67008947449471,,,-0.261108936707831,0.261108936707605,1.25275264572891,2.66239999999993,102,950.607352941176,192.509803921569,640.480392156863,952.588235294118,948.626470588235,226.020588235294,158.999019607843,626.333333333333,654.627450980392,0
1284.5056,-2.21487469983997,,,0.54766678460887,1.10673162801999,1.10673162802212,-0.744801689958972,-0.0466744379146511,-0.641233646404267,1.20667943282464,1.31816011160982,1.20667943282595,,-2.22443836008547,,,,-0.329987009666159,-0.347515873560713,1.01259319971972,,,2.65961023841162,0.638583437945398,0.329002758253128,,0.0395993618842733,,-0.745390903029303,0.481642815795715,-0.248154236063137,-0.603593220387137,,0.543568041377925,,-0.0952162885440355,1.2607197483561,,1.23980611001927,1.65180955632547,,,1.58446426712147,-2.53263508065265,-0.609496565898211,0.663267262696237,,,-0.2760328171566,0.276032817156376,1.25734908129353,2.76479999999992,103,973.835922330097,180.652427184466,642,978.260194174757,969.411650485437,219.72427184466,141.580582524272,627.747572815534,656.252427184466,0
1284.608,-2.20163660717332,,,0.547991652407259,1.06201022267874,1.06201022268086,-0.694595778513371,-0.00957276931695883,-0.585167675403646,1.17726456275193,1.28887112036025,1.17726456275324,,-2.20434412221197,,,,-0.339947104819775,-0.348404579463964,0.979963000712217,,,2.65159316016576,0.61280224389173,0.321107584356564,,0.0461809671094985,,-0.730026756569221,0.49653003701309,-0.259325570543947,-0.594602604465516,,0.518816577980099,,-0.11229143730248,1.27546140614976,,1.2539949386821,1.66617056694952,,,1.59361232133631,-2.53112139387633,-0.593803502978952,0.655175436714036,,,-0.292160058960411,0.292160058960188,1.26082016158568,2.86719999999991,102,994.221078431373,183.704901960784,641.230392156863,1000.07058823529,988.371568627451,222.974509803922,144.435294117647,628.970588235294,653.490196078431,0
1284.7104,-2.18595340996844,,,0.548060285890877,1.01358208476846,1.01358208477055,-0.643665100270357,0.028742187800293,-0.528036049323923,1.14885081061355,1.2585071623011,1.14885081061486,,-2.1841807871715,,,,-0.348021525338236,-0.347579041022608,0.946284774555917,,,2.6438228134363,0.588393208459676,0.312694444034822,,0.0533347687029208,,-0.714419511818737,0.510894263543636,-0.269661526924271,-0.585830234530364,,0.494519755488495,,-0.127929715086385,1.28902188282419,,1.26794557997632,1.6811233591974,,,1.60339680474792,-2.52857018451691,-0.57590875549872,0.645820893734118,,,-0.309468583232442,0.309468583232219,1.26315775603408,2.9695999999999,102,1002.14166666667,178.496568627451,651.235294117647,1008.30490196078,995.978431372549,213.170588235294,143.822549019608,643.21568627451,659.254901960784,0
1284.8128,-2.16786338000414,,,0.547933259806064,0.96156371893067,0.961563718932744,-0.592139678431777,0.0681940045682569,-0.469976533771816,1.12151504326887,1.22713229708924,1.12151504327018,,-2.16395538336842,,,,-0.354213618715792,-0.345045402557545,0.911588819099164,,,2.63634393191478,0.565436078531235,0.303843960383053,,0.0610425415752559,,-0.69856667939858,0.524719889701914,-0.279128913029693,-0.57730348885826,,0.470699566793018,,-0.142134240525569,1.30146116107988,,1.28160319133522,1.69660137949037,,,1.61377641439664,-2.52497630840778,-0.555868915004621,0.635214930248885,,,-0.327929661219202,0.32792966121898,1.26435609479306,3.07199999999989,103,1008.6713592233,194.323786407767,668.898058252427,1016.47961165049,1000.86310679612,228.904854368932,159.742718446602,666.21359223301,671.582524271845,0
1284.9152,-2.14741345626765,,,0.547670877824197,0.906088230076364,0.906088230078419,-0.540150328645853,0.108703987353027,-0.411128414325892,1.09533011377443,1.19481166000539,1.09533011377574,,-2.14367382391677,,,,-0.358533442759735,-0.340817353346887,0.875909569085372,,,2.62919148568049,0.543998753860066,0.294639348799249,,0.0692841200524105,,-0.682465500999545,0.537992011475003,-0.287697511962449,-0.569048348577701,,0.447375212762234,,-0.154913750890295,1.31283876508966,,1.29491518576475,1.71253528309545,,,1.62470659797783,-2.52033613842871,-0.533747313233744,0.623373033293712,,,-0.347508026770991,0.347508026770771,1.26441161302999,3.17439999999988,102,1013.14852941176,219.654901960784,695.838235294118,1019.06470588235,1007.23235294118,258.071568627451,181.238235294118,697.21568627451,694.460784313726,0
1285.0176,-2.12465882425868,,,0.547332636627114,0.847304692086571,0.847304692088602,-0.48782816136101,0.150191592061225,-0.351631923200345,1.07036460138909,1.16161125939452,1.07036460139041,,-2.12334082629169,,,,-0.360997348313466,-0.334915769313331,0.839285515008253,,,2.62239053548834,0.524137064567382,0.285165810271455,,0.0780374488129283,,-0.666112963934242,0.550696409618112,-0.295340192980187,-0.561089271606231,,0.42456307054608,,-0.166282533409657,1.32321329996616,,1.30783149293037,1.7288533711818,,,1.63613974810525,-2.51464757800809,-0.50961374321092,0.610314635990703,,,-0.368162057819623,0.368162057819404,1.26332276288326,3.27679999999987,103,1010.22087378641,234.453398058252,726.436893203884,1013.91747572816,1006.52427184466,267.654368932039,201.252427184466,726.242718446602,726.631067961165,0
1285.12,-2.09966247332684,,,0.546976727062843,0.78537738838358,0.785377388385584,-0.435304112966798,0.192574833323087,-0.291627691947947,1.04668258471081,1.12759779188207,1.04668258471212,,-2.10295983379262,,,,-0.361627567004684,-0.327368320635945,0.801759102485112,,,2.61595615768642,0.505894615650191,0.27550991032165,,0.0872786568826277,,-0.649505802213389,0.562819534993102,-0.302032991129849,-0.553449070769535,,0.402276719567187,,-0.176260280231561,1.33264205751656,,1.32030479103684,1.74548203987993,,,1.64802544521111,-2.50791007507236,-0.483544107026495,0.596062839617373,,,-0.389844021942686,0.389844021942467,1.26108979796664,3.37919999999986,102,1005.56470588235,238.2,741.166666666667,1007.10784313726,1004.02156862745,268.556862745098,207.843137254902,735.882352941177,746.450980392157,0
1285.2224,-2.07249472874854,,,0.546659576847645,0.720484926157546,0.720484926159524,-0.382708507016648,0.235770673129948,-0.231256237118895,1.024343446807,1.09283847279189,1.02434344680831,,-2.08253294325663,,,,-0.360451801935638,-0.318209044653782,0.763376607377586,,,2.60989344100339,0.48930270083821,0.265758954543161,,0.096982147881174,,-0.632640478581287,0.574348493715018,-0.307755154905097,-0.546148799654344,,0.380527018169637,,-0.184871878879111,1.34118069256106,,1.33229070602921,1.76234623409391,,,1.66031074685358,-2.5001246390419,-0.455619996774268,0.58064410355219,,,-0.412500376081664,0.412500376081445,1.25771453849284,3.48160000000007,103,989.028155339806,240.969417475728,716.543689320388,989.860194174757,988.196116504854,271.956310679612,209.982524271845,708.174757281554,724.912621359223,0
1285.3248,-2.04323275956175,,,0.546435436764394,0.652819233679801,0.652819233681744,-0.330170641566299,0.279695380391935,-0.170657478782435,1.00340170467217,1.05740087417609,1.00340170467347,,-2.062060853835,,,,-0.357502821860942,-0.307477885876134,0.724187978634125,,,2.60419755560006,0.474380286832629,0.256000372752842,,0.107120695871509,,-0.615513155861519,0.585271028735264,-0.312489166753699,-0.539207645124818,,0.35932221548271,,-0.192147164450069,1.34888296749233,,1.34374797164773,1.77936989723074,,,1.6729405095662,-2.49129386136832,-0.425928230292616,0.564087902710915,,,-0.436072110525337,0.436072110525119,1.25320012915437,3.58400000000006,102,967.45,227.776470588235,692.627450980392,970.701960784314,964.198039215686,268.490196078431,187.062745098039,684.009803921569,701.245098039216,0
1285.4272,-2.01196006373872,,,0.546356011370534,0.582584460149236,0.582584460151148,-0.2778183912122,0.324264863355016,-0.109970281620151,0.983906853042223,1.02135276207481,0.983906853043517,,-2.04154285529128,,,,-0.352818064259195,-0.295220207115666,0.68424664334157,,,2.59885389657157,0.461134070830115,0.246321121859727,,0.117665539478966,,-0.598119676242037,0.595575501431271,-0.316220740268835,-0.53264282622882,,0.338668075266047,,-0.198120665411299,1.35580055574344,,1.35463854953624,1.79647640797746,,,1.6858577200437,-2.48142193514313,-0.394560371623213,0.546426353563226,,,-0.46049513037895,0.460495130378732,1.24755080629314,3.68640000000005,102,964.485294117647,239.89068627451,665.642156862745,969.450980392157,959.519607843137,282.758823529412,197.022549019608,658.686274509804,672.598039215686,0
1285.5296,-1.97876592760099,,,0.546470136125223,0.50999580385521,0.509995803857091,-0.225777808975477,0.369394984844235,-0.0493320023848323,0.965903217155632,0.984761927506763,0.965903217156919,,-2.02097686687523,,,,-0.346439251426674,-0.281486276568124,0.643609275267628,,,2.5938383073731,0.449558618147488,0.23680711432616,,0.128586474691844,,-0.580455564069043,0.605250885012163,-0.318938792638357,-0.526469506125217,,0.318567990507178,,-0.202831364636386,1.3619828898554,,1.36492771762473,1.81358899911592,,,1.69900381684358,-2.47051466801169,-0.361612257900239,0.527693818252478,,,-0.485700666910427,0.485700666910205,1.24077169433765,3.78880000000004,103,956.261650485437,235.497087378641,655.956310679612,963.038834951456,949.484466019418,273.502912621359,197.491262135922,649.73786407767,662.174757281554,0
1285.632,-1.94374485636318,,,0.546823501657491,0.435278290605955,0.435278290607801,-0.174172717527724,0.415001870555506,0.0111219689352615,0.949429814032817,0.947696007890844,0.949429814034093,,-2.00035952597925,,,,-0.33841201829582,-0.266330737833322,0.602335534386133,,,2.58911738924912,0.439636585318113,0.227542674110828,,0.139851951944081,,-0.562516054886698,0.614286781151919,-0.320635391701294,-0.520700725031131,,0.299023080391911,,-0.206322479101865,1.36747703927331,,1.37458413463936,1.83063115895902,,,1.71231899729317,-2.45857948654147,-0.327183538529375,0.507926504724272,,,-0.511615708351724,0.511615708351501,1.23286864935802,3.89120000000003,102,951.464215686275,236.215196078431,653.421568627451,959.246078431373,943.682352941176,277.188235294118,195.242156862745,647.980392156863,658.862745098039,0
1285.7344,-1.90699597874189,,,0.547458422276476,0.358665512882983,0.358665512884789,-0.123124286650113,0.461002214444888,0.0712586783805102,0.934520221870578,0.910222296769769,0.934520221871843,,-1.9796863157844,,,,-0.328785549376109,-0.249812073746389,0.560487785759361,,,2.58464889610977,0.431339025368584,0.218610015804414,,0.15142918472988,,-0.544296141783196,0.622673465248317,-0.321305682979627,-0.515347355074499,,0.280032275132682,,-0.208641247014843,1.37232760720458,,1.38357987970724,1.84752701872347,,,1.72574251205775,-2.44562543338097,-0.291377224519332,0.487162079281577,,,-0.538163441901386,0.538163441901161,1.2238481582728,3.99360000000002,103,950.53786407767,241.283495145631,649.393203883495,958.517475728155,942.558252427184,282.120388349515,200.446601941748,645.058252427184,653.728155339806,0
1285.8368,-1.86862243346545,,,0.548413642750838,0.28039833032182,0.280398330323586,-0.0727505984776268,0.507313577532962,0.130948085020621,0.921202455593444,0.872407542632625,0.9212024555947,,-1.95895171427268,,,,-0.317612225601197,-0.231992077468293,0.518130802269764,,,2.58038220565532,0.42462576477154,0.210088739346715,,0.163284276906202,,-0.525790625643488,0.630401962061536,-0.320947806539611,-0.510418069867151,,0.261592402604322,,-0.209838703068082,1.37657664266822,,1.39189045950919,1.86420172926361,,,1.73921294851147,-2.43166315640517,-0.254299245274609,0.465439300054568,,,-0.565263705746789,0.565263705746564,1.2137172906351,4.096,102,953.139215686275,241.385784313726,645.411764705882,960.736274509804,945.542156862745,281.247058823529,201.524509803922,640.333333333333,650.490196078431,0
1285.9392,-1.82873074657708,,,0.549724176610152,0.200723532039514,0.200723532041236,-0.0231662071110849,0.553854669641194,0.190063536215979,0.90949884839727,0.834317742137772,0.909498848398519,,-1.93814934440735,,,,-0.304947285507706,-0.212935342856449,0.475331453265417,,,2.57625885604658,0.419445842376366,0.202055335904692,,0.175382373573176,,-0.506994157877062,0.637464151398787,-0.319562813131575,-0.505919319890726,,0.243698292139583,,-0.209969421995691,1.3802635687306,,1.39949477663083,1.88058183038286,,,1.75266850280316,-2.41670488460078,-0.216058006766588,0.442797674471584,,,-0.592833453722477,0.592833453722249,1.20248369041373,4.19839999999999,102,956.698039215686,258.301470588235,640.676470588235,963.389215686274,950.006862745098,302.088235294118,214.514705882353,635.774509803922,645.578431372549,0
1286.0416,-1.78743020613029,,,0.551421170561166,0.119892469977601,0.119892469979279,0.0255182939281052,0.600545601200558,0.248482224994517,0.899425943480637,0.796017935725796,0.89942594348187,,-1.917272107529,,,,-0.290848506597692,-0.192708781408568,0.432158382616645,,,2.57221313925295,0.415738004073881,0.194582708039086,,0.187687835891989,,-0.487901271015728,0.643852899020509,-0.317154583495684,-0.501855311309795,,0.22634290372745,,-0.209091220147882,1.38342512904274,,1.40637505954985,1.89659561471591,,,1.76604724229785,-2.40076438350255,-0.176763939971476,0.419277141221562,,,-0.620787229218054,0.620787229217826,1.19015559112256,4.30079999999998,103,953.745631067961,252.102912621359,643.655339805825,959.422330097087,948.068932038835,291.827184466019,212.378640776699,637.95145631068,649.359223300971,0
1286.144,-1.74483223841361,,,0.553531791938487,0.0381596778194196,0.03815967782105,0.0731966810443107,0.647308096141273,0.306085613286862,0.890994403955798,0.757572012264251,0.890994403957018,,-1.89631228880072,,,,-0.275375909976851,-0.171381169188599,0.388681680411544,,,2.56817274004213,0.413431246868006,0.187739713074004,,0.200164434224727,,-0.468506400868293,0.649562201876702,-0.313729749458961,-0.49822799306512,,0.209517481212937,,-0.207264818009955,1.38609535541211,,1.41251676097907,1.91217348587707,,,1.77928736177962,-2.38385688585118,-0.136529029279591,0.394917774898216,,,-0.649037636279691,0.649037636279461,1.1767418410887,4.40319999999997,102,953.741176470588,261.900980392157,649.014705882353,959.43137254902,948.050980392157,300.283333333333,223.51862745098,639.647058823529,658.382352941177,0
1286.2464,-1.70104979216465,,,0.556079138622382,-0.0442185144487367,-0.0442185144471519,0.119767476966988,0.694065661759796,0.362759811306179,0.884208951981104,0.719042525471749,0.884208951982312,,-1.87526163364498,,,,-0.258591484640164,-0.149022725126764,0.34497255117399,,,2.56405940748616,0.412445406277607,0.181590739846127,,0.212775549363395,,-0.448803907202994,0.654587332983134,-0.309297615508896,-0.495037056969861,,0.193211726209439,,-0.20455347083693,1.3883055613965,,1.41790843178761,1.92724830952941,,,1.79232743901661,-2.36599899979557,-0.0954663151368792,0.369759510867063,,,-0.677495797176878,0.677495797176646,1.16225193169552,4.50559999999996,102,950.672058823529,258.119117647059,659.990196078431,955.674509803922,945.669607843137,293.193137254902,223.045098039216,648.598039215686,671.382352941177,0
1286.3488,-1.65619673890073,,,0.559082172390098,-0.126985365780477,-0.126985365778943,0.165134291069232,0.740743712664976,0.418395909352983,0.879068349531508,0.680490523550653,0.879068349532701,,-1.85411140234817,,,,-0.240558922069477,-0.125704718997594,0.301102981815529,,,2.55978964810847,0.412691785497266,0.176195325640857,,0.22548437288654,,-0.428788097135612,0.658924973384304,-0.303870081036271,-0.492279952056371,,0.177413993409608,,-0.201022569631796,1.39008436736016,,1.42254157470445,1.94175575495088,,,1.80510669538174,-2.34720860128536,-0.0536893701861555,0.343841889388342,,,-0.706071794610055,0.706071794609821,1.14669602565702,4.60799999999995,103,964.294174757282,270.908252427184,655.635922330097,967.345631067961,961.242718446602,304.858252427184,236.958252427185,642.300970873786,668.970873786408,0
1286.4512,-1.61038729146249,,,0.56255567544777,-0.209885102375197,-0.209885102373709,0.209206123046021,0.787269646869338,0.472890260845032,0.875565428809733,0.641975396147657,0.875565428810911,,-1.83285241270938,,,,-0.221343352304919,-0.101499104956066,0.257145413624544,,,2.55527543510982,0.414073829510369,0.171607813916729,,0.238254102409079,,-0.408453253638561,0.662573326022676,-0.297461563009408,-0.489951913688842,,0.162111507463314,,-0.196739214059948,1.39145775753135,,1.42641048000488,1.95563461985151,,,1.81756525994693,-2.3275047160294,-0.0113117577109365,0.317203820215376,,,-0.734675102236738,0.734675102236501,1.13008498629843,4.71039999999994,102,999.21568627451,271.677941176471,643.799019607843,1002.78333333333,995.648039215686,300.06568627451,243.290196078431,632.921568627451,654.676470588235,0
1286.5536,-1.56373543824992,,,0.566510227958035,-0.292664274550063,-0.292664274548622,0.251897629913511,0.833572879181667,0.526144718489932,0.87368717113843,0.603554742400282,0.873687171139593,,-1.81147508076619,,,,-0.201011078948864,-0.0764781786556381,0.213172420706288,,,2.55042493512623,0.416487848235315,0.167877051181417,,0.251048128237401,,-0.387793675439822,0.665532212885995,-0.290088918811367,-0.488046007797851,,0.147290594837261,,-0.191771768799818,1.3924491624287,,1.42951204424099,1.96882712515817,,,1.82964442606962,-2.30690739587698,0.0315535051610411,0.289883370459719,,,-0.763215007984949,0.763215007984711,1.11243041168953,4.81279999999993,103,995.345145631068,263.23786407767,629.946601941748,1000.10485436893,990.585436893204,289.491262135922,236.984466019418,618.368932038835,641.52427184466,0
1286.656,-1.51635439465594,,,0.570952206744787,-0.375073072292758,-0.37507307229136,0.293129358238098,0.879584847298454,0.578066831021621,0.873414826307886,0.565284258824791,0.873414826309035,,-1.78996946793081,,,,-0.179629317453477,-0.0507142600666638,0.169256394599759,,,2.54514325703343,0.419823790289038,0.165046125470398,,0.26383020627802,,-0.366803738381408,0.667803159193475,-0.281771368257929,-0.486553189834511,,0.132936919145826,,-0.186189422563418,1.39307955815724,,1.43184557305561,1.98127916621984,,,1.84128688714363,-2.28543759733964,0.0747944500679459,0.261917578842472,,,-0.791601034310965,0.791601034310723,1.09374467762601,4.91519999999991,102,991.66568627451,248.963235294118,625.78431372549,997.500980392157,985.830392156863,271.180392156863,226.746078431373,611.911764705882,639.656862745098,0
1286.7584,-1.46835607726121,,,0.575883810473809,-0.456866582360308,-0.456866582358956,0.332827945593031,0.925239009028751,0.628570010819587,0.874724063007145,0.527217644808206,0.87472406300828,,-1.76832533694331,,,,-0.157265944673328,-0.0242794064136929,0.125469234961942,,,2.53933322282249,0.423966064617677,0.163152151417429,,0.276564614020949,,-0.345477986081552,0.669389468887825,-0.272530411071983,-0.485462378350912,,0.119035711189023,,-0.180061762426702,1.39336757868861,,1.43341257096658,1.99294051384262,,,1.85243694306869,-2.26311706971536,0.118300604128901,0.2333422996989,,,-0.819743358074388,0.819743358074144,1.07404099168109,5.0175999999999,102,997.199019607843,262.842156862745,621.093137254902,1004.79411764706,989.603921568627,283.561764705882,242.122549019608,607.558823529412,634.627450980392,0
1286.8608,-1.41985060683104,,,0.581303117306746,-0.537805975778725,-0.537805975777417,0.370926292952419,0.970470843536145,0.677573678714696,0.877585144041255,0.489406528004423,0.877585144042373,,-1.74653221353515,,,,-0.133989267733292,0.00275483890866213,0.0818820481565168,,,2.53289615671358,0.42879440258969,0.162226103846024,,0.289216289103919,,-0.323811253647248,0.670296295325653,-0.262389736508522,-0.484760542271478,,0.1055719920279,,-0.173458363859125,1.39332964015566,,1.43421652207706,2.00376496723387,,,1.8630406768416,-2.23996825682821,0.161963375079483,0.204192080833023,,,-0.847553230342917,0.84755323034267,1.05333345602588,5.11999999999989,103,995.619417475728,264.516504854369,626.155339805825,1003.69805825243,987.540776699029,287.52427184466,241.508737864078,614.78640776699,637.52427184466,0
1286.9632,-1.37094584816858,,,0.587204176825568,-0.617659616153177,-0.617659616151911,0.407363703188787,1.01521786269773,0.725003384241485,0.881963125213063,0.45190041453035,0.881963125214163,,-1.72457945088786,,,,-0.109867818142899,0.030317655249295,0.0385648574228536,,,2.52573269041862,0.434184750542027,0.16229269818376,,0.301750949830866,,-0.301798826425301,0.670530709387807,-0.251375126457606,-0.484432798012365,,0.0925307926384214,,-0.166448391280582,1.39298007431062,,1.43426266525455,2.01371046635748,,,1.87304610755972,-2.21601421477666,0.205676381530252,0.17450007893395,,,-0.874943395387043,0.874943395386795,1.0316371316698,5.22239999999988,102,999.907843137255,275.016176470588,625.568627450981,1007.21764705882,992.598039215686,307.71568627451,242.316666666667,617.039215686275,634.098039215686,0
1287.0656,-1.32174699622088,,,0.593577135196726,-0.696204080238015,-0.696204080236795,0.442085977858106,1.0594196334497,0.770790895121783,0.887818079353318,0.414746666544793,0.887818079354393,,-1.70245629640157,,,,-0.0849701745906034,0.0583391088120325,-0.00441367084692768,,,2.51774358284121,0.44001018251152,0.163370315067066,,0.31413519896761,,-0.279436633429495,0.670101766113112,-0.23951435521306,-0.484462511796166,,0.0798973744173476,,-0.159100202896725,1.3923312679369,,1.43355776818418,2.02273917252289,,,1.88240332812409,-2.19127854615157,0.249335740383262,0.14429801386372,,,-0.901828507547217,0.901828507546966,1.00896809736294,5.32479999999987,103,1006.12427184466,273.613106796117,613.810679611651,1012.1067961165,1000.14174757282,301.270873786408,245.955339805825,607.669902912621,619.95145631068,0
1287.168,-1.27235621440505,,,0.600408392992215,-0.773225088163347,-0.773225088162171,0.475045469053338,1.10301780496578,0.81487425095735,0.895105345013963,0.377990506150019,0.895105345015014,,-1.68015196055426,,,,-0.0593648156922776,0.0867502752005854,-0.0469864816968988,,,2.50883054860808,0.446141822804069,0.165470967552028,,0.326336617502951,,-0.256721470795171,0.669020571244853,-0.22683708640949,-0.484831405592751,,0.0676574524560797,,-0.151480952475882,1.39139380928894,,1.43210990591094,2.03081752474059,,,1.89106463351415,-2.16578534698554,0.292840324773929,0.113616159480315,,,-0.928125541658007,0.928125541657754,0.985343502405513,5.42719999999986,102,1009.69607843137,264.592156862745,606.5,1016.57058823529,1002.82156862745,298.929411764706,230.254901960784,602.823529411765,610.176470588235,0
1287.2704,-1.22287232619551,,,0.607680794872822,-0.848518346552415,-0.848518346551279,0.506201087676577,1.1459561257262,0.857197776610901,0.903775796036434,0.341675042418063,0.903775796037466,,-1.65765568574053,,,,-0.0331200019190478,0.115483327251399,-0.0890883669044758,,,2.49889708608,0.452449767199976,0.168600311418217,,0.338323858148136,,-0.233651245800545,0.667300348702013,-0.213374766081603,-0.485519668477288,,0.0557974230190602,,-0.143656180012731,1.39017664791766,,1.42992824728416,2.03791627826185,,,1.8989846437825,-2.13955915984742,0.336092006678633,0.0824833661410702,,,-0.953754189057996,0.95375418905774,0.960781617625826,5.52960000000007,103,1013.85097087379,263.321844660194,603.412621359223,1021.94563106796,1005.75631067961,297.140776699029,229.502912621359,598.844660194175,607.980582524272,0
1287.3728,-1.17339055822736,,,0.615373848484495,-0.921890309469046,-0.921890309467955,0.535518268753613,1.1881804322993,0.89771204892325,0.913776126185982,0.305841315286112,0.913776126186989,,-1.63495680986573,,,,-0.00630368402447871,0.144471596412559,-0.13065618219971,,,2.48784929307906,0.458803990879546,0.172757701014051,,0.350066748283133,,-0.210225227154356,0.664956508165006,-0.199160512336535,-0.486506075565363,,0.0443046007662547,,-0.135689381924828,1.38868727624003,,1.42702284854725,2.04401053258982,,,1.90612042734771,-2.11262492551833,0.378995901664214,0.0509271110263909,,,-0.978637231966546,0.978637231966287,0.935301888731323,5.63200000000006,102,1015.09901960784,275.194117647059,604.759803921569,1023.13823529412,1007.05980392157,313.069607843137,237.31862745098,598.823529411765,610.696078431373,0
1287.4752,-1.12400233205879,,,0.623463969253339,-0.99315886388637,-0.993158863885324,0.562968894166077,1.22963859577838,0.936373811764367,0.925049143009218,0.270528346281127,0.925049143010201,,-1.6120448161917,,,,0.0210165664541239,0.173649617262714,-0.17162904756347,,,2.47559665943456,0.465075233644656,0.1779362946468,,0.361536411156465,,-0.186444284813181,0.662006711276693,-0.184229004033524,-0.487768114591361,,0.0331674759286501,,-0.127641549042367,1.38693194050944,,1.42340445113709,2.0490797576098,,,1.91243163252638,-2.08500792463434,0.421460638093891,0.0189735761680219,,,-1.00270089400304,1.00270089400277,0.908924992233483,5.73440000000005,102,827.328431372549,621.729411764706,351.387254901961,536.589215686275,1118.06764705882,822.583333333333,420.875490196078,251.088235294118,451.686274509804,0
1287.5776,-1.07479510066354,,,0.631924747337579,-1.0621539478248,-1.0621539478238,0.588531176350446,1.27028041567241,0.973145838531952,0.937534066756853,0.235773188779552,0.937534066757812,,-1.58890935931797,,,,0.0487736097688478,0.202953164972518,-0.211948531416061,,,2.4620528334864,0.471135860144947,0.184123213676484,,0.372705410771505,,-0.162311105279414,0.658470936260724,-0.168616372449409,-0.489282117810956,,0.0223760013147188,,-0.119570661258752,1.38491588832018,,1.4190842800834,2.05310782586649,,,1.91788063524871,-2.05673370110528,0.463398672605007,-0.0133522430910428,,,-1.02587516841059,1.02587516841033,0.881672890551173,5.83680000000004,103,1048.5432038835,222.53640776699,561.655339805825,1053.44951456311,1043.63689320388,272.292233009709,172.780582524272,544.68932038835,578.621359223301,0
1287.68,-1.0258522242603,,,0.640727230466073,-1.12871810275764,-1.12871810275666,0.612189508206593,1.31005745605297,1.00799674452127,0.95116683107117,0.201610979252503,0.951166831072107,,-1.56554026140528,,,,0.0769007767081702,0.232319293512711,-0.251558817994879,,,2.44713636757962,0.476860697137109,0.191299755294726,,0.38354791857519,,-0.13783037551988,0.654371539175367,-0.152360099799148,-0.491023396717648,,0.0119219100041868,,-0.111531138950559,1.38264365524137,,1.41407383917129,2.05608305453217,,,1.92243270444306,-2.02782796264967,0.504726659662283,-0.0460263990854149,,,-1.04809412540439,1.04809412540412,0.853568882643368,5.93920000000003,102,1046.54754901961,231.479411764706,614.647058823529,1054.25882352941,1038.8362745098,285.573529411765,177.385294117647,600.029411764706,629.264705882353,0
1287.7824,-0.977252879381877,,,0.649840213925608,-1.19270694698666,-1.19270694698572,0.633934283307448,1.34892283403791,1.04090075640422,0.965880380523045,0.168074994427008,0.965880380523962,,-1.5419274858456,,,,0.105331892938451,0.261686379929102,-0.29040685468142,,,2.43077144292277,0.482127843789374,0.19944165093018,,0.394039890505579,,-0.113008938865396,0.649733302495083,-0.135498923936458,-0.492966379919817,,0.00179904721469409,,-0.103573275876224,1.38011937959295,,1.40838470040288,2.05799825079314,,,1.92605617233691,-1.99831646031378,0.545365853598334,-0.0790258310753739,,,-1.06929619882856,1.06929619882829,0.824637648384121,6.04160000000002,103,1044.7,245.063106796117,655.932038834951,1048.90776699029,1040.49223300971,295.249514563107,194.876699029126,645.844660194175,666.019417475728,0
1287.8848,-0.929071995997653,,,0.659230529216279,-1.25398954450701,-1.2539895445061,0.653761689340585,1.38683098830172,1.07183745174333,0.981604958166559,0.135196712807089,0.98160495816746,,-1.51806110942112,,,,0.134001287698918,0.290994178632506,-0.328442475275427,,,2.41288856175404,0.486819442119437,0.208519357424441,,0.404159235678638,,-0.0878559367783805,0.644583456228025,-0.118072744048476,-0.495084756637697,,-0.00799631547051193,,-0.0957427016709757,1.37734712089902,,1.4020282877452,2.05885074318047,,,1.9287225847319,-1.96822485748023,0.585242492760003,-0.112328198487354,,,-1.08942445382324,1.08942445382297,0.794905286385358,6.14400000000001,102,1046.40637254902,256.288725490196,667.18137254902,1048.73235294118,1044.08039215686,301.808823529412,210.76862745098,659.254901960784,675.107843137255,0
1287.9872,-0.881380219773827,,,0.66886332580242,-1.31244864466895,-1.31244864466807,0.671673477379972,1.42373745695684,1.10079148181362,0.998268376662267,0.103005869033819,0.99826837666315,,-1.49393131580836,,,,0.162843788896938,0.320183887886163,-0.365618498022909,,,2.39342519033735,0.490822395112734,0.21849837217562,,0.413885958605129,,-0.0623829552470266,0.638951662346935,-0.100122524526645,-0.497351626282176,,-0.0174652156750614,,-0.0880799232808777,1.37433115742251,,1.39501565784193,2.05864237840972,,,1.93040680913078,-1.93757860529118,0.624288112017628,-0.145911719571207,,,-1.10842683948698,1.1084268394867,0.764399346075627,6.24639999999999,102,1035.11568627451,231.958333333333,674.210784313726,1035.88137254902,1034.35,279.109803921569,184.806862745098,670.666666666667,677.754901960784,0
1288.0896,-0.834243899965106,,,0.678702344499747,-1.36798078034407,-1.36798078034321,0.687676710340247,1.45959868358423,1.12775228764073,1.01579626895885,0.0715304845459755,1.01579626895972,,-1.46952842393728,,,,0.191794708135248,0.349198226764792,-0.401890800925794,,,2.37232634061402,0.494029026103378,0.229339570223149,,0.423202265090487,,-0.0366041902301191,0.632869963708326,-0.08169019909504,-0.499739652133638,,-0.0266058055654389,,-0.0806199749297505,1.37107624862976,,1.38735728357989,2.05737947208164,,,1.9310870927163,-1.90640284084816,0.662439752008805,-0.179755017321743,,,-1.12625642704904,1.12625642704877,0.733148856458285,6.34879999999998,103,1036.77233009709,242.863106796117,664.970873786408,1040.92912621359,1032.61553398058,293.898058252427,191.828155339806,662.815533980583,667.126213592233,0
1288.192,-0.787725106879911,,,0.688710183865023,-1.42049622572226,-1.42049622572142,0.701783495296071,1.49437186477729,1.15271381822989,1.03411231667077,0.0407968613153359,1.03411231667162,,-1.44484295369901,,,,0.22078981594188,0.377981517579914,-0.437218377403319,,,2.3495450804955,0.496337672561588,0.240999561037796,,0.432092631019545,,-0.0105366364711321,0.626372702087665,-0.0628185762066354,-0.502221219146117,,-0.0354132338166159,,-0.0733921847572021,1.36758785766434,,1.37906284756039,2.05507271451999,,,1.93074507229032,-1.87472231751548,0.699640057212927,-0.213836972691198,,,-1.14287162570576,1.14287162570549,0.70118435490797,6.45119999999997,102,1057.02303921569,245.927450980392,662.612745098039,1062.11568627451,1051.93039215686,292.648039215686,199.206862745098,659.794117647059,665.43137254902,0
1288.2944,-0.741881683138809,,,0.69884856069345,-1.46991882302274,-1.46991882302193,0.714010702798624,1.52801484847419,1.17567425711566,1.05313845445498,0.0108295357849663,1.05313845445581,,-1.41986572298637,,,,0.249765304323501,0.406479769246321,-0.471563372590138,,,2.32504296369866,0.497653204547468,0.25343105711327,,0.440543838031734,,0.0157997050645429,0.619496407060202,-0.0435512431069571,-0.504768599061261,,-0.0438796009046072,,-0.0664200524202284,1.36387233329308,,1.37014104974242,2.05173704074514,,,1.92936574106128,-1.84256136737134,0.735837270226388,-0.248136588245443,,,-1.1582363628219,1.15823636282162,0.668537919648554,6.55359999999996,102,1068.80196078431,254.808333333333,652.730392156863,1076.10882352941,1061.49509803922,294.351960784314,215.264705882353,647.676470588235,657.78431372549,0
1288.3968,-0.696767327134115,,,0.709078564650001,-1.51618569468467,-1.51618569468388,0.724379670554389,1.56048607577224,1.1966357522633,1.07279504792116,-0.0183487945271597,1.07279504792197,,-1.39458796640646,,,,0.278657734287837,0.434640759685526,-0.504891097883489,,,2.29879037761201,0.497887466017648,0.266583242965677,,0.448544981590814,,0.0423816104273854,0.612279655277988,-0.0239324681741146,-0.507354123496508,,-0.0519939782787348,,-0.0597212237781206,1.35993705309,,1.36059943193555,2.04739147343747,,,1.92693738003378,-1.8099438884115,0.770985142817052,-0.282632862233189,,,-1.17232021428595,1.17232021428567,0.63524321154543,6.65599999999995,103,1059.24223300971,240.866019417476,648.791262135922,1068.20097087379,1050.28349514563,279.377669902913,202.354368932039,642.73786407767,654.844660194175,0
1288.4992,-0.652431698884405,,,0.719360908344414,-1.55924686557203,-1.55924686557126,0.732915883743118,1.59174454115757,1.21560413337586,1.09300104329683,-0.0467173471337112,1.09300104329761,,-1.36900146848363,,,,0.307403968394777,0.462414118600299,-0.537170022170657,,,2.27076681712577,0.496959650392201,0.280402134725116,,0.456087457658476,,0.0691824175949144,0.604762900051379,-0.00400710595461788,-0.509950359509833,,-0.0597424829222316,,-0.0533075462946857,1.35579053078028,,1.3504442252386,2.04205894420295,,,1.92345146560468,-1.77689334641874,0.805042793388015,-0.31730466680728,,,-1.18509847249945,1.18509847249916,0.601335531606597,6.75839999999994,102,1058.15245098039,256.437254901961,632.946078431373,1071.16862745098,1045.1362745098,291.91568627451,220.958823529412,626.696078431373,639.196078431373,0
1288.6016,-0.608920537438719,,,0.729656174839807,-1.59906481912504,-1.59906481912429,0.739648625083946,1.62174975070429,1.23258860310503,1.11367409006258,-0.0742573133108293,1.11367409006334,,-1.34309870786924,,,,0.335941091543628,0.489751415744603,-0.568371742310099,,,2.24096109267199,0.494796621507634,0.294830925668412,,0.463164934142913,,0.0961718231844966,0.59698827181293,0.0161794906008601,-0.512530279825606,,-0.0671084030379983,,-0.0471851919415583,1.35144249090441,,1.33968023001032,2.03576609761908,,,1.91890256586347,-1.74343278477464,0.837974537833171,-0.352130625658436,,,-1.19655214474916,1.19655214474888,0.566851894693694,6.86079999999993,103,1056.39854368932,270.933495145631,624.752427184466,1070.2640776699,1042.53300970874,309.265048543689,232.601941747573,617.970873786408,631.533980582524,0
1288.704,-0.566275785868645,,,0.739925060937006,-1.63561400079284,-1.63561400079211,0.744610594979181,1.65046168024127,1.24760140319743,1.13473064260908,-0.100951898234722,1.13473064260983,,-1.31687300886075,,,,0.364206326733805,0.51660626032601,-0.598470938644358,,,2.20937147189932,0.491333177199269,0.309810319883276,,0.469773312378609,,0.1233156963794,0.58899935061548,0.0365815483932676,-0.515067421343219,,-0.0740723707328654,,-0.0413548376838555,1.34690391545723,,1.32831073717749,2.02854308441835,,,1.91328823539793,-1.70958484113089,0.869749709955922,-0.387088993523771,,,-1.20666788127947,1.20666788127918,0.531831110725845,6.96319999999992,102,1056.31715686275,277.187254901961,624.75,1070.17647058824,1042.45784313725,318.673529411765,235.700980392157,616.578431372549,632.921568627451,0
1288.8064,-0.524535723751693,,,0.750128611594159,-1.66888027503215,-1.66888027503143,0.747837513099324,1.67784074723005,1.26065747028802,1.15608605292445,-0.126786354393856,1.15608605292519,,-1.29031869222262,,,,0.392136954360487,0.542934411682782,-0.627445320681383,,,2.17600574511833,0.48651224474362,0.325278864733811,,0.475910682254993,,0.150575912922447,0.580840915201892,0.0571529412032334,-0.517536025522723,,-0.0806125723304407,,-0.0358118912221866,1.34218707046759,,1.31633749609578,2.02042334987485,,,1.90660891325058,-1.6753717691028,0.90034248069275,-0.422157541031409,,,-1.21543783748839,1.2154378374881,0.496313857631556,7.0655999999999,102,1055.66225490196,288.095588235294,622.411764705882,1067.09803921569,1044.22647058824,331.439215686275,244.751960784314,612.656862745098,632.166666666667,0
1288.9088,-0.483735103820646,,,0.760228444234493,-1.69886034479579,-1.69886034479508,0.749367722040636,1.70384780020805,1.27177410007163,1.17765467076481,-0.15174801855559,1.17765467076553,,-1.26343121163255,,,,0.419670243724759,0.56869389578573,-0.65527556621041,,,2.14088120199779,0.480285004689816,0.341173301352979,,0.481577270084877,,0.177910219661897,0.572558678885067,0.0778472444956179,-0.519911151691013,,-0.0867049808192942,,-0.0305467448943766,1.33730552266327,,1.30376072883421,2.01144342054775,,,1.89886782262648,-1.64081545368658,0.929731687468607,-0.457313440378593,,,-1.22285948119797,1.22285948119767,0.460342725205999,7.16799999999989,103,1058.73737864078,320.023786407767,618.339805825243,1069.83106796117,1047.64368932039,360.844660194175,279.202912621359,606.495145631068,630.184466019418,0
1289.0112,-0.443905286207818,,,0.770186966110974,-1.72556114607716,-1.72556114607647,0.749241815551154,1.72844411602672,1.28097063499228,1.19934996743914,-0.175826356865771,1.19934996743986,,-1.23620726065788,,,,0.446743407100116,0.593845121796283,-0.681945257444892,,,2.10402451230201,0.472610951474892,0.357428954086238,,0.486775371422864,,0.205272152380106,0.564199024257234,0.0986177779792608,-0.522168752627369,,-0.0923235956345277,,-0.0255450445868466,1.33227415484746,,1.29057918530368,2.00164269038718,,,1.89007086589345,-1.60593740114032,0.957900686808488,-0.492533140741216,,,-1.22893536473755,1.22893536473724,0.423962209589202,7.27039999999988,102,1075.61862745098,381.081862745098,618.382352941176,1085.6862745098,1065.55098039216,426.236274509804,335.927450980392,606.656862745098,630.107843137255,0
1289.1136,-0.405074365167581,,,0.779967584845081,-1.74899922751448,-1.74899922751381,0.747502309299289,1.75159139565263,1.28826818700758,1.22108469397621,-0.199013022214376,1.22108469397691,,-1.20864484279331,,,,0.473293588820152,0.618350993979213,-0.707440817961743,,,2.06547151136685,0.463457902280032,0.373980169289291,,0.49150925854762,,0.232611030478616,0.555808744199476,0.119417637508122,-0.524285706562671,,-0.0974406861532444,,-0.020787975764368,1.32710918265509,,1.27679023240314,1.9910632052689,,,1.88022650594748,-1.57075868879934,0.98483723394816,-0.527792225037431,,,-1.23367288625656,1.23367288625626,0.38721864931098,7.37279999999987,103,1074.16747572816,377.197572815534,616.305825242718,1085.50582524272,1062.82912621359,419.844660194175,334.550485436893,603.980582524272,628.631067961165,0
1289.216,-0.367267288384398,,,0.789534904944254,-1.76920011773535,-1.76920011773469,0.744193364991216,1.77325176114382,1.29368940546369,1.24277107499061,-0.221301929205709,1.24277107499132,,-1.18074330928401,,,,0.499257897106163,0.642177013832174,-0.731751450542494,,,2.02526689662454,0.452801959802382,0.390760796143482,,0.495785057636476,,0.259872036743435,0.547434790717644,0.140199724449765,-0.526239813832705,,-0.102027048769501,,-0.0162525829011445,1.32182816639835,,1.26238997235293,1.97974944198096,,,1.86934562729587,-1.53529987659494,1.01053337724454,-0.563065249765065,,,-1.23708405776001,1.2370840577597,0.350160108111892,7.47519999999986,102,1043.02303921569,296.137254901961,623.132352941177,1049.41176470588,1036.63431372549,332.678431372549,259.596078431373,610.460784313726,635.803921568627,0
1289.3184,-0.330505973518344,,,0.798854901342996,-1.78619767623383,-1.78619767623319,0.739360569699773,1.79338776426873,1.29725829559894,1.26432102818677,-0.242689346616211,1.26432102818746,,-1.15250337525217,,,,0.524573474423024,0.665291368752648,-0.754869071673681,,,1.98346384572108,0.44062742980275,0.407704688568171,,0.499610598583774,,0.286996373491064,0.539124030479886,0.160916789377477,-0.528009781681975,,-0.106052291856207,,-0.0119121395219907,1.31645000503818,,1.24737338454114,1.96774807643604,,,1.85744137702389,-1.49958089758699,1.03498534702679,-0.598325580889951,,,-1.23918528157068,1.23918528157037,0.312836216488944,7.57760000000008,103,1037.74223300971,282.45145631068,624.320388349515,1043.95922330097,1031.52524271845,317.704854368932,247.198058252427,608.669902912622,639.970873786408,0
1289.4208,-0.294809424977576,,,0.807895065241428,-1.80003342174536,-1.80003342174473,0.733050763386646,1.81196241280845,1.29900008408454,1.28564639209939,-0.26317399522831,1.28564639210008,,-1.12392712010622,,,,0.549177594263889,0.687665007558084,-0.77678823773307,,,1.9401235673206,0.426926694374525,0.42474620363067,,0.502995245571154,,0.313921482604754,0.530923005312586,0.181521506704137,-0.529575222897011,,-0.10948515656025,,-0.00773657406461973,1.31099489947674,,1.23173448016975,1.95510773816575,,,1.84452899246241,-1.46362094862305,1.05819342410293,-0.633545243519266,,,-1.23999712609507,1.23999712609476,0.275297983687681,7.68000000000006,102,1039.64656862745,290.521078431373,616.666666666667,1046.40294117647,1032.89019607843,325.71568627451,255.326470588235,599.823529411765,633.509803921569,0
1289.5232,-0.260193848651617,,,0.816624520301231,-1.81075583645465,-1.81075583645403,0.725311902854256,1.82893921102184,1.29894112042224,1.30665914616138,-0.282757131042582,1.30665914616206,,-1.09501797103906,,,,0.573007774890625,0.709271705739895,-0.797506058989224,,,1.89531478901381,0.411700041822012,0.441820675725257,,0.50594971754606,,0.340581324156363,0.522877693754426,0.201966586402922,-0.530916681501377,,-0.112293870869189,,-0.00369294184564908,1.30548427858017,,1.21546645477352,1.94187875180061,,,1.83062562538468,-1.42743839488852,1.08016178645718,-0.668694797536728,,,-1.2395440932428,1.23954409324248,0.237597589061514,7.78240000000005,102,1044.86862745098,301.053921568627,603.519607843137,1053.28137254902,1036.45588235294,333.817647058824,268.290196078431,585.78431372549,621.254901960784,0
1289.6256,-0.226672761432292,,,0.825014106475253,-1.81841965227569,-1.81841965227509,0.716192952373716,1.8442822067756,1.29710880319687,1.32727161582205,-0.301442598051654,1.32727161582273,,-1.06578066723217,,,,0.596001907797077,0.730088122370201,-0.817022098598113,,,1.84911318010735,0.394955452273817,0.458864853923386,,0.508485904912145,,0.366906715391449,0.515033268570181,0.222204920132118,-0.532015684966212,,-0.114446527184038,,0.000254073864958793,1.29994069121069,,1.19856182582548,1.92811286912484,,,1.81575017280235,-1.39105069314366,1.10089834371872,-0.703743242401114,,,-1.23785437725728,1.23785437725696,0.199788157838382,7.88480000000004,103,1050.13932038835,264.676213592233,593.441747572816,1059.93689320388,1040.34174757282,302.738834951456,226.61359223301,575.747572815534,611.135922330097,0
1289.728,-0.194257095229445,,,0.833036428645554,-1.82308513312319,-1.8230851331226,0.705743798127096,1.85795603942752,1.29353152655217,1.3473966650867,-0.319236846244011,1.34739666508738,,-1.03622120562774,,,,0.618098402784104,0.750093848672281,-0.835338255763168,,,1.80160070841415,0.376708338799124,0.47581729901633,,0.510616685740741,,0.392825732700034,0.507433849859488,0.24218975767575,-0.532854816148157,,-0.115911471499304,,0.00414164747137059,1.29438767857991,,1.18101255033836,1.91386299671169,,,1.79992312288897,-1.35447433461806,1.12041457119615,-0.738657951887301,,,-1.23495961949199,1.23495961949167,0.161923523392334,7.98720000000003,102,1041.62794117647,237.683333333333,603.975490196079,1050.60980392157,1032.64607843137,276.833333333333,198.533333333333,587.519607843137,620.43137254902,0
1289.8304,-0.162955296759392,,,0.84066586914696,-1.82481737150882,-1.82481737150824,0.694015189519683,1.86992598389972,1.28823864772262,1.36694788430441,-0.336148919266715,1.3669478843051,,-1.00634676954445,,,,0.639236351596079,0.76927144850194,-0.852458634286252,,,1.75286493609577,0.356981247906042,0.492618742136242,,0.512355745492472,,0.41826417662493,0.50012226027631,0.261874909648164,-0.533417796494021,,-0.11665769227434,,0.00800829623699686,1.28884964845595,,1.16281012326307,1.89918292424113,,,1.78316642060229,-1.31772480759739,1.13872535037741,-0.773404643576089,,,-1.23089466258393,1.23089466258361,0.124057978348189,8.08960000000002,103,1037.68980582524,233.162621359223,612.839805825243,1045.90970873786,1029.46990291262,268.650485436893,197.674757281553,597.058252427185,628.621359223301,0
1289.9328,-0.13277342459923,,,0.847878564218602,-1.82368561559402,-1.82368561559345,0.681058711749238,1.88015798641554,1.28126047758227,1.38583978149669,-0.352190416915835,1.38583978149738,,-0.976165637578945,,,,0.659355711735278,0.78760649331913,-0.868389397838105,,,1.70299826412289,0.335803527875228,0.509212406895219,,0.51371740498893,,0.443146100713227,0.493139790045632,0.281214970544734,-0.533689571731339,,-0.116655199541237,,0.011893373665387,1.28335177042225,,1.14394565658079,1.8841270575797,,,1.76550335185867,-1.28081657720624,1.15584881712587,-0.807947391291048,,,-1.22569730375412,1.2256973037538,0.0862460175338833,8.19200000000001,102,1035.65392156863,237.513235294118,615.03431372549,1044.96666666667,1026.34117647059,273.243137254902,201.783333333333,599.980392156863,630.088235294118,0
1290.0352,-0.103715243541272,,,0.854652344599953,-1.81976263126494,-1.81976263126437,0.666926791776646,1.88861868898754,1.27262829490461,1.40398798113393,-0.367375432156958,1.40398798113462,,-0.945687067793182,,,,0.678397510084042,0.805087597193328,-0.883138612035062,,,1.65209713551314,0.313210973999874,0.525544294556266,,0.514716458825398,,0.467394407440207,0.48652597460331,0.300165557681138,-0.53365639474283,,-0.115875392225114,,0.0158365704231893,1.2779198975913,,1.12440993425511,1.86875015750236,,,1.74695843976797,-1.24376307719655,1.17180621389543,-0.84224869048701,,,-1.21940804477226,1.21940804477193,0.0485420720467799,8.2944,102,1032.35637254902,240.098039215686,614.627450980392,1042.48235294118,1022.23039215686,278.421568627451,201.774509803922,600.745098039216,628.509803921569,0
1290.1376,-0.07578231147462,,,0.860966643178218,-1.81312409024836,-1.81312409024781,0.651672735349873,1.8952754438944,1.26237438283569,1.42130942516003,-0.381720458511176,1.42130942516072,,-0.914921155881038,,,,0.696304057817929,0.821706457758485,-0.896716074286885,,,1.6002612053942,0.289245454603962,0.54156343055631,,0.515368025042877,,0.490931507946721,0.480318382483963,0.318683566961567,-0.53330590645958,,-0.11429142055667,,0.0198774124955446,1.27258050321385,,1.10419343722512,1.85310707967028,,,1.72755734302083,-1.20657670942259,1.18662173606229,-0.876269588532201,,,-1.21206983448696,1.21206983448664,0.0110002288257072,8.39679999999999,103,1027.6645631068,239.874757281553,616.349514563107,1038.06116504854,1017.26796116505,273.646601941748,206.102912621359,604.78640776699,627.912621359223,0
1290.24,-0.0489740495431115,,,0.866802378240338,-1.80384797703042,-1.80384797702987,0.635350787993785,1.90009632240428,1.25053208325665,1.43772256393335,-0.395244266906617,1.43772256393404,,-0.883878673468053,,,,0.713019159772493,0.83745790345458,-0.909133137833552,,,1.54759248922206,0.263954517648527,0.557222073985044,,0.515687409215246,,0.513680026043308,0.474552410820128,0.336727443954354,-0.532627214877771,,-0.111878554341398,,0.0240547457773176,1.26736061629635,,1.08328633971692,1.83725250844564,,,1.70732674664895,-1.16926885047335,1.20032235815351,-0.909969886624516,,,-1.20372780024095,1.20372780024062,-0.0263260680489586,8.49919999999997,102,1002.28235294118,254.144607843137,619.901960784314,1011.25980392157,993.304901960784,291.730392156863,216.558823529412,606.627450980392,633.176470588235,0
1290.3424,-0.0232877872825356,,,0.872141826181292,-1.79201402553392,-1.79201402553338,0.618016211004112,1.90305012213772,1.23713586319382,1.45314752709834,-0.407967757480653,1.45314752709905,,-0.852570898551571,,,,0.728488302820072,0.852339938497419,-0.920402543216496,,,1.49419451276087,0.237390981321487,0.572475898234329,,0.515689987917537,,0.535563514076796,0.4692610904945,0.35425745325112,-0.53161096283108,,-0.108614565424241,,0.0284062056784438,1.26228775124366,,1.06167848913035,1.82124068023887,,,1.68629423968211,-1.13184986782322,1.21293762884643,-0.943308403307782,,,-1.19442897129342,1.19442897129309,-0.0633843305881725,8.60159999999996,102,972.892156862745,276.975980392157,627.264705882353,983.235294117647,962.549019607843,317.046078431373,236.905882352941,611.578431372549,642.950980392157,0
1290.4448,0.00128121958088208,,,0.876968498650557,-1.77770320764516,-1.77770320764463,0.599725363902697,1.90410637946687,1.2222213885433,1.46750627174489,-0.419913794518327,1.46750627174561,,-0.821009452925624,,,,0.742658816047397,0.866353772155376,-0.930538271308806,,,1.44017149451914,0.209612516300272,0.587284152913721,,0.515391115130122,,0.55650714934325,0.464474905855094,0.371235916381535,-0.530249370608817,,-0.104480126999737,,0.0329676806014099,1.25738983521826,,1.03935938773436,1.80512509951229,,,1.66448817992955,-1.09432914726321,1.22449943298612,-0.976243274491497,,,-1.18422200340883,1.1842220034085,-0.10012334456353,8.70399999999995,103,972.494174757282,279.365533980583,643.834951456311,981.365048543689,963.623300970874,311.328155339806,247.402912621359,623.679611650486,663.990291262136,0
1290.5472,0.0247397940879944,,,0.881267035911428,-1.76099728621821,-1.76099728621768,0.580535785558161,1.90323539806832,1.20582560278709,1.4807227081191,-0.431107030526627,1.48072270811982,,-0.789206160526926,,,,0.755480002015735,0.879503822795649,-0.939555424835125,,,1.38562758059164,0.18068122398778,0.601609810081131,,0.514806052112015,,0.576438393402369,0.460221631523518,0.387627393757175,-0.528536246817383,,-0.0994592270409377,,0.0377727812595152,1.25269513179758,,1.01631819147569,1.78895825710188,,,1.64193754958488,-1.05671513019972,1.23504172792032,-1.00873226700699,,,-1.17315690813742,1.17315690813709,-0.136493479692334,8.80639999999994,102,972.091666666667,266.688725490196,661.93137254902,977.048039215686,967.135294117647,298.222549019608,235.154901960784,639.705882352941,684.156862745098,0
1290.6496,0.0470968568670989,,,0.885023123948762,-1.74197843003891,-1.7419784300384,0.560506267684588,1.90040830483658,1.18798680967521,1.49272280184854,-0.441573720933822,1.49272280184927,,-0.757172933819678,,,,0.766903240981246,0.891797696384313,-0.947470136889726,,,1.33066613467594,0.150663208808662,0.615419689673013,,0.513949918727034,,0.595287612378942,0.45652618709479,0.403398802670212,-0.526466969352229,,-0.0935395901075675,,0.0428523247574376,1.24823215028285,,0.992543734380593,1.77279136190944,,,1.61867180608461,-1.01901535747655,1.24460026486053,-1.04073309725095,,,-1.16128478083956,1.16128478083922,-0.1724469845164,8.90879999999993,103,986.439805825243,289.781553398058,649.834951456311,994.978640776699,977.900970873786,329.222330097087,250.340776699029,630.300970873786,669.368932038835,0
1290.752,0.0683634482608525,,,0.888223438888833,-1.72072888236233,-1.72072888236182,0.539696914535367,1.89559713640379,1.16874475592451,1.50343465305889,-0.451341526779809,1.50343465305964,,-0.724921685770892,,,,0.776882070547917,0.903246144997256,-0.954299500205241,,,1.27538907954511,0.119628142593078,0.628684557524796,,0.512837662764873,,0.612988664122941,0.453410512565301,0.418519476642083,-0.524038439891891,,-0.0867130983201963,,0.048233841660185,1.24402952972376,,0.968024581850115,1.75667409329125,,,1.59472073319138,-0.98123651723182,1.25321230578021,-1.07220375435878,,,-1.14865752494771,1.14865752494737,-0.207938266542631,9.01119999999992,102,994.683333333333,290.594607843137,639.450980392157,1004.97745098039,984.389215686275,332.951960784314,248.237254901961,623.245098039216,655.656862745098,0
1290.8544,0.0885527424510433,,,0.890855618439028,-1.6973306749449,-1.69733067494439,0.518169179174665,1.88877494889997,1.14814070309651,1.51278855838608,-0.460439301570187,1.51278855838684,,-0.692464260524913,,,,0.785372243854627,0.913863010840556,-0.960061507763997,,,1.21989628908704,0.0876488247440667,0.641379192714775,,0.511484042953305,,0.629479457326696,0.450893468237835,0.432961176362964,-0.521249013109081,,-0.0789761954059426,,0.0539411201216259,1.24011589592997,,0.942749111792174,1.74065437756857,,,1.57011429827007,-0.943384493762371,1.26091634851707,-1.10310282188922,,,-1.13532758390008,1.13532758389973,-0.24292416303323,9.11359999999991,102,999.311274509804,282.920098039216,633.205882352941,1011.00392156863,987.61862745098,323.175490196078,242.664705882353,618.166666666667,648.245098039216,0
1290.9568,0.107680043281157,,,0.892908257634832,-1.67186538076985,-1.67186538076935,0.495985864627246,1.87991593721362,1.12621747366253,1.52071706687979,-0.468896861063599,1.52071706688056,,-0.659812378932651,,,,0.792331771405509,0.923665159089566,-0.964774994728578,,,1.1642850336119,0.0548007465158171,0.653482425296289,,0.509903621175075,,0.644702482233478,0.448990761578017,0.446698062389761,-0.518098400421374,,-0.0703302527719292,,0.0599938066639875,1.23651969990332,,0.916705619065243,1.72477819071405,,,1.54488252110133,-0.905464412167827,1.26775187441899,-1.13338978480213,,,-1.12134770013843,1.12134770013807,-0.277364204442448,9.21599999999989,103,996.048058252427,264.047087378641,641.053398058253,1006.57184466019,985.52427184466,300.753398058252,227.340776699029,625.077669902913,657.029126213592,0
1291.0592,0.125762754699231,,,0.894370925038711,-1.64441390014099,-1.64441390014049,0.473211080750919,1.86899555074433,1.10301945867127,1.52715504210722,-0.476744738761013,1.527155042108,,-0.626977599668253,,,,0.797720954136079,0.932672400082506,-0.968459575905707,,,1.10864948416049,0.0211616687218219,0.664977149499014,,0.508110760445464,,0.658605306433163,0.447714904849816,0.459706641045693,-0.514587551078872,,-0.0607818795035429,,0.0664070805586398,1.23326905000468,,0.88988243943847,1.70908938728873,,,1.51905535807632,-0.86748067703526,1.27375912644113,-1.16302530978785,,,-1.10677071705806,1.1067707170577,-0.311220866492442,9.31839999999988,102,998.277450980392,272.21568627451,648.093137254902,1006.76274509804,989.792156862745,308.171568627451,236.259803921569,631.509803921569,664.676470588235,0
1291.1616,0.142820321437787,,,0.895234195636567,-1.61505627443329,-1.61505627443278,0.449910151059526,1.85599059751324,1.07859257910968,1.532039741488,-0.484013932520427,1.53203974148878,,-0.593971296951596,,,,0.801502416233378,0.940907399996435,-0.971135577023116,,,1.05308028321254,-0.0131887778392618,0.675850320756322,,0.506119626219889,,0.671141027894422,0.447075210506392,0.471965699615667,-0.510718520298273,,-0.0503431635489214,,0.0731914114323394,1.2303915498502,,0.862268091531866,1.69362955261482,,,1.49266260482198,-0.829437010920127,1.27897891547117,-1.19197149465998,,,-1.09164943209028,1.09164943208991,-0.344459803811742,9.42079999999987,103,999.615048543689,282.808737864078,657.78640776699,1003.86796116505,995.36213592233,319.596116504854,246.021359223301,639.68932038835,675.883495145631,0
1291.264,0.158874137043427,,,0.895489699429189,-1.58387152133157,-1.58387152133106,0.426149466755881,1.84087933164686,1.05298419677771,1.53531092203131,-0.490735649561428,1.53531092203211,,-0.560804653297545,,,,0.803641145908005,0.948395580274207,-0.972823957920598,,,0.997664187246145,-0.0481694596331459,0.686092947620932,,0.50394418809405,,0.682268679931534,0.44707782853631,0.483456247851751,-0.506494340323362,,-0.0390318287748746,,0.0803524092202653,1.22791415528894,,0.833851433451962,1.67843787557524,,,1.46573382065437,-0.791336500765409,1.28345245034793,-1.2201920856632,,,-1.07603650343893,1.07603650343855,-0.37705005607282,9.52319999999986,102,1000.98774509804,281.970098039216,653.156862745098,1001.6431372549,1000.33235294118,320.78137254902,243.158823529412,635.950980392157,670.362745098039,0
1291.3664,0.173947418308008,,,0.895130186690716,-1.5509374883185,-1.55093748831798,0.401996290604006,1.82364152024503,1.02624297536959,1.5369109793444,-0.496941059915812,1.5369109793452,,-0.527488665594647,,,,0.804104552454214,0.955165004844664,-0.973546225785877,,,0.942483783047033,-0.0836980667398078,0.69570008940519,,0.501598217435436,,0.691953581348963,0.447725820295709,0.494161476074863,-0.501918914139359,,-0.026871284052284,,0.0878907820108921,1.22586306387583,,0.804621826173144,1.66355104386054,,,1.43829828115555,-0.753181659442086,1.28722119258029,-1.24765265514129,,,-1.05998440607593,1.05998440607555,-0.408964215049047,9.62560000000008,103,1003.05631067961,266.594174757282,643.184466019418,1003.4572815534,1002.65533980583,304.51359223301,228.674757281553,626.320388349515,660.04854368932,0
1291.4688,0.188065048308929,,,0.894149606864312,-1.51633072495325,-1.51633072495273,0.377518519952817,1.80425848907161,0.99841869934594,1.53678512189341,-0.502661069914238,1.53678512189421,,-0.494034165619606,,,,0.802862547059664,0.961246249168055,-0.973324341482465,,,0.887617277818435,-0.11969139388041,0.704670863933046,,0.499095275133906,,0.700167620693617,0.449019257081046,0.50406673285102,-0.496996950734887,,-0.0138905425055426,,0.0958024129475557,1.22426364268647,,0.774569292213551,1.64900316577715,,,1.41038496645005,-0.714974509329561,1.29032673903263,-1.2743207291842,,,-1.0435454185377,1.04354541853731,-0.440178541669186,9.72800000000007,102,999.079901960784,234.758823529412,639.446078431373,1000.37647058824,997.783333333333,273.095098039216,196.422549019608,623.078431372549,655.813725490196,0
1291.5712,0.201253396903126,,,0.892543190219929,-1.48012637853428,-1.48012637853374,0.352784422459694,1.78271315250585,0.969562063996557,1.53488157455991,-0.507926123156112,1.53488157456072,,-0.460451857248199,,,,0.799887649170178,0.966672240975032,-0.972180628553603,,,0.833138361184379,-0.156065579625088,0.713008459398396,,0.496448685295431,,0.706889466502064,0.450955333925905,0.513159522695555,-0.491733951713563,,-0.000124012674154975,,0.104078543481814,1.22314038903793,,0.743684659579807,1.63482571726402,,,1.38202258590365,-0.676716692539148,1.29281072819368,-1.30016586511661,,,-1.02677160921383,1.02677160921343,-0.470673027023475,9.83040000000005,102,1000.30098039216,244.894607843137,628.867647058824,1002.14705882353,998.454901960784,286.816666666667,202.972549019608,617.225490196079,640.509803921569,0
1291.6736,0.213540136507301,,,0.890307517286477,-1.44239812319862,-1.44239812319807,0.327862359594838,1.75899003903131,0.939724453585152,1.53115179832978,-0.512766029065157,1.5311517983306,,-0.426752371800024,,,,0.795155112013104,0.971478061348772,-0.970137695959455,,,0.77911613098086,-0.192736316643374,0.720720137147927,,0.493671496985452,,0.712104703488301,0.45352849290652,0.52142952331797,-0.486136247074554,,0.0143888034247842,,0.112706024663939,1.22251691158186,,0.7119596904405,1.62104750299168,,,1.35323963024272,-0.638409609854811,1.29471475389051,-1.32515968923831,,,-1.00971479251825,1.00971479251785,-0.500431393351444,9.93280000000004,103,994.946116504854,234.115533980583,622.640776699029,997.069902912621,992.822330097087,281.720388349515,186.51067961165,613.116504854369,632.165048543689,0
1291.776,0.22495407242293,,,0.887440565331787,-1.40321813299009,-1.40321813298953,0.302820513532213,1.73307532878795,0.90895772689154,1.52555071115205,-0.517209816369866,1.52555071115287,,-0.39294634265757,,,,0.788643058230592,0.975700697486181,-0.96721838161886,,,0.725615067267866,-0.229619050596224,0.727817212923421,,0.490776441341625,,0.715805895447306,0.456730550328066,0.528868618311674,-0.480211070516617,,0.0296036552442895,,0.121667593859467,1.22241591640063,,0.679387206111383,1.60769461841629,,,1.3240644401722,-0.600054590879392,1.29608026690082,-1.3492759039025,,,-0.992426439035974,0.992426439035566,-0.529441028073894,10.0352,102,997.962254901961,241.459803921569,607.191176470588,1005.0568627451,990.867647058823,287.183333333333,195.736274509804,601.205882352941,613.176470588235,0
1291.8784,0.235524996997909,,,0.883941730263637,-1.36265710369128,-1.36265710369072,0.277726631117311,1.7049569211276,0.877314028398175,1.51803689931368,-0.521285610799313,1.5180368993145,,-0.359044498034801,,,,0.780332620459381,0.979378744927936,-0.963445719471112,,,0.672695037546763,-0.266629183251326,0.734315009232165,,0.487775890213706,,0.717992572021014,0.460550820554163,0.535470934973704,-0.473966661079804,,0.0454718966478929,,0.130942153162653,1.22285918174655,,0.64596122338753,1.5947904093432,,,1.29452528681166,-0.561653097639419,1.29694845467355,-1.37249026496876,,,-0.974957539860987,0.974957539860575,-0.557692846834564,10.1376,103,1002.28106796117,262.080582524272,595.470873786408,1011.59514563107,992.966990291262,313.120388349515,211.040776699029,591.805825242719,599.135922330097,0
1291.9808,0.245283566161302,,,0.879811828686448,-1.32078432581084,-1.32078432581027,0.252647793323392,1.67462454462017,0.844845636871017,1.50857281529017,-0.525020537158082,1.50857281529101,,-0.325057765283967,,,,0.770208085686005,0.982552063952442,-0.958842930964858,,,0.620411320720325,-0.303682291272452,0.740232775027778,,0.484681819453411,,0.718671140919674,0.464976231578569,0.541232873138901,-0.467412375280002,,0.0619408357481625,,0.140505046611477,1.22386750759668,,0.611677111218219,1.58235543473816,,,1.26465046471184,-0.523206960062943,1.29736010220369,-1.39478052758534,,,-0.957358437757488,0.957358437757071,-0.585181095195128,10.24,102,1004.10343137255,272.493137254902,594.470588235294,1014.4362745098,993.770588235294,321.374509803922,223.611764705882,592.186274509804,596.754901960784,0
1292.0832,0.254261192527216,,,0.875053085608317,-1.27766781324257,-1.277667813242,0.227650213398937,1.64206991478155,0.811604856009611,1.49712496314409,-0.528440645924672,1.49712496314494,,-0.290997376308851,,,,0.758257044192103,0.985261400153696,-0.95343344171246,,,0.56881464265757,-0.340694368829109,0.745593570299835,,0.481505780213044,,0.717854737770471,0.469991436145463,0.546153113717468,-0.460558790834492,,0.0789540796225596,,0.150328338652551,1.22546063271271,,0.576531769781882,1.57040743852407,,,1.23446839725111,-0.484718635148788,1.29735544349744,-1.41612636413592,,,-0.939678640725401,0.939678640724981,-0.611903111028836,10.3424,102,1003.49705882353,272.569607843137,592.911764705882,1013.64803921569,993.346078431373,320.139215686275,225,589.205882352941,596.617647058824,0
1292.1856,0.262489947818648,,,0.869669112015323,-1.23337449139143,-1.23337449139084,0.202799064588643,1.60728694055932,0.77764394829692,1.48366407452242,-0.531570865912573,1.48366407452328,,-0.256874964477119,,,,0.744470544865166,0.987547982649775,-0.947240923461791,,,0.517951220295819,-0.377582098213799,0.750424114767117,,0.478258881621631,,0.715563031855444,0.475578928405499,0.55023260058058,-0.453417781462406,,0.0964518722626267,,0.160381094100096,1.227657119685,,0.540523828464177,1.55896133370781,,,1.20400775217509,-0.446191475962023,1.29697401674008,-1.43650926491134,,,-0.921966627474004,0.921966627473584,-0.637859071269306,10.4448,103,1000.59174757282,273.982038834951,589.533980582524,1009.09611650485,992.087378640777,319.046601941748,228.917475728155,584.038834951456,595.029126213592,0
1292.288,0.270002466475085,,,0.863664878052773,-1.18797044323841,-1.18797044323782,0.178158337437239,1.5702719759314,0.743015110678344,1.46816527718405,-0.534434984482866,1.46816527718492,,-0.22270264780951,,,,0.728843258516113,0.989453115346476,-0.94028935952608,,,0.467862815356785,-0.414263146304959,0.754754603364405,,0.474951783223325,,0.711822004329538,0.481719172419066,0.55347449161148,-0.446002546304102,,0.114371430838538,,0.170629663208207,1.23047421571825,,0.503653852398435,1.54802920454655,,,1.1732975673349,-0.407629996394548,1.29625453999191,-1.45591243293029,,,-0.904269646475438,0.904269646475018,-0.66305173962294,10.5472,102,998.237745098039,270.171568627451,579.622549019608,1006.74509803922,989.730392156863,310.95,229.393137254902,571.539215686275,587.705882352941,0
1292.3904,0.276831842983626,,,0.85704669141466,-1.14152120337766,-1.14152120337705,0.153790724561591,1.53102410586037,0.707770486231142,1.45060825703598,-0.537055654113033,1.45060825703686,,-0.188493098985759,,,,0.711373651940668,0.991017779146501,-0.932603128616233,,,0.418586804188465,-0.450656475608657,0.758618497180913,,0.471594688349786,,0.706663709510788,0.488390744608106,0.555884078083644,-0.438327586083054,,0.132647294868874,,0.181037980664648,1.23392770269839,,0.465924542303613,1.5376203359538,,,1.1423673875553,-0.36904012011915,1.29523482260416,-1.47432068275193,,,-0.886633506680836,0.886633506680416,-0.687486220557769,10.6496,102,986.05931372549,259.969117647059,571.950980392157,993.671568627451,978.447058823529,301.147058823529,218.791176470588,564.029411764706,579.872549019608,0
1292.4928,0.28301151688237,,,0.849822191306863,-1.09409208087823,-1.09409208087761,0.129757526854897,1.48954544961626,0.671962200346347,1.4309774175265,-0.539454422707471,1.43097741752739,,-0.154259605973075,,,,0.692064179175901,0.99228226546594,-0.924207098329972,,,0.370156274900645,-0.486682649008914,0.762052303911546,,0.468197326412715,,0.700126023939521,0.495570496191978,0.557468678184302,-0.430408625069762,,0.151211706277964,,0.191567888247248,1.23803175404805,,0.427340913667658,1.52774127753419,,,1.11124740861219,-0.330429401703588,1.2939517205769,-1.49172035073185,,,-0.869102362685023,0.869102362684605,-0.711169716082318,10.752,103,905.466504854369,225.07427184466,569.330097087379,910.933009708738,900,268.563106796117,181.585436893204,560.233009708738,578.42718446602,0
1292.5952,0.288575140684803,,,0.842000362848791,-1.04574848694894,-1.04574848694832,0.106118571024273,1.44584146240738,0.635642405759594,1.40926204414914,-0.541651785581849,1.40926204415003,,-0.120016126380174,,,,0.670921498118551,0.993285859162255,-0.915126716526429,,,0.322600162525355,-0.522264103071634,0.76509536148257,,0.464768914833945,,0.692252382085972,0.503233745837586,0.558237515618064,-0.422262481816667,,0.169995034785483,,0.202179488345337,1.24279881666975,,0.387910446547552,1.51839594180357,,,1.07996861869719,-0.291807207869351,1.2924411355541,-1.50809921865275,,,-0.851718506836729,0.851718506836314,-0.734111280887016,10.8543999999999,102,899.720588235294,222.985294117647,567.651960784314,907.111764705882,892.329411764706,265.161764705882,180.808823529412,558.205882352941,577.098039215686,0
1292.6976,0.293556429721975,,,0.833591566912179,-0.996556244905704,-0.996556244905065,0.0829321278106272,1.39992122106041,0.598863322120892,1.38545647963803,-0.543667255794281,1.38545647963892,,-0.0857773376006496,,,,0.647956715563572,0.994066578532315,-0.905388088626973,,,0.27594342670558,-0.557325371511312,0.767789629785796,,0.461318097397735,,0.683091489293946,0.51135450775733,0.55820159561269,-0.413906895871653,,0.188926249963672,,0.212831525709618,1.24823952802527,,0.347643203626623,1.50958572665007,,,1.04856292471996,-0.25318485275939,1.29073804555371,-1.52344644731927,,,-0.834522182495145,0.834522182494736,-0.756321572797545,10.9567999999999,103,893.270388349515,218.630582524272,570.359223300971,901.405825242719,885.134951456311,259.881553398058,177.379611650485,561.368932038835,579.349514563107,0
1292.8,0.297989000406757,,,0.824607571962988,-0.946581866183912,-0.946581866183254,0.0602548266817373,1.35179769161417,0.561677265771627,1.35956030594473,-0.545519446888051,1.35956030594563,,-0.0515586855394738,,,,0.623185654373821,0.994660965368892,-0.895018034004937,,,0.230207268406963,-0.591793256626785,0.770179483058933,,0.457852861549401,,0.672696995524911,0.519905749147578,0.557373587356885,-0.405360322486549,,0.20793341998393,,0.223481778327053,1.25436266075629,,0.306551921927295,1.50130964748126,,,1.01706325116196,-0.21457569048408,1.28887654488406,-1.53775251535696,,,-0.817551421672338,0.817551421671935,-0.777812593734775,11.0591999999999,102,896.273529411765,230.691176470588,562.352941176471,905.097058823529,887.45,275.235294117647,186.147058823529,554.117647058824,570.588235294118,0
1292.9024,0.301906207779212,,,0.815061572749282,-0.895892784164774,-0.895892784164097,0.0381415717102048,1.30148798978436,0.524136677817496,1.33157852032876,-0.547226162686825,1.33157852032966,,-0.0173764347499382,,,,0.596629130050116,0.995103907938353,-0.884044122240509,,,0.185409376162878,-0.625596962303639,0.772311488232439,,0.454380439906707,,0.661127114198614,0.528859661320827,0.555767713038582,-0.39664171065239,,0.226944206225821,,0.234087432574071,1.26117507292289,,0.264652089526655,1.49356446894524,,,0.985503606797235,-0.175995176195667,1.28688987273914,-1.55100915718093,,,-0.80084189858672,0.800841898586322,-0.798597417633812,11.1615999999999,102,787.523039215686,288.296078431373,530.843137254902,789.623529411765,785.422549019608,378.730392156863,197.861764705882,504.049019607843,557.637254901961,0
1293.0048,0.305340988247115,,,0.804968184007198,-0.844557543513297,-0.844557543512602,0.0166454639503501,1.24901365129848,0.486294161375409,1.30152169228906,-0.548804491121629,1.30152169228997,,0.0167522803505107,,,,0.568313222594907,0.99542847836017,-0.872494692371493,,,0.141564188649193,-0.65866821001511,0.77423415412179,,0.450907202158216,,0.648444180304561,0.538187925186256,0.553399637118303,-0.387770281503284,,0.245886334524321,,0.244605431707848,1.26868164105833,,0.221962018607898,1.48634483529609,,,0.953919126227344,-0.137460909996547,1.2848104239887,-1.56320929145388,,,-0.784426789294146,0.784426789293754,-0.818689911125551,11.2639999999999,103,149.450970873786,326.084466019417,478.126213592233,157.478640776699,141.423300970874,453.763106796117,198.405825242718,430.242718446602,526.009708737864,0
1293.1072,0.30832570667563,,,0.794343401960629,-0.792645947833636,-0.792645947832927,-0.00418227280880988,1.19440092658484,0.448202530857361,1.26940609324955,-0.550270897427577,1.26940609325045,,0.0508094083638949,,,,0.538269529464334,0.995665770756505,-0.860398855630125,,,0.0986831579894714,-0.690941359654171,0.775997638085883,,0.447438545917666,,0.634714158654941,0.54786195416676,0.550286352901734,-0.378765322899766,,0.264688040936424,,0.254992803064633,1.27688516298259,,0.178502922230927,1.47964340344657,,,0.92234609699158,-0.0989926739314011,1.28266974629999,-1.57434693567567,,,-0.768336634202607,0.76833663420222,-0.838104462951006,11.3663999999999,102,207.957352941177,234.522549019608,502.583333333333,252.277450980392,163.637254901961,296.324509803922,172.720588235294,467.196078431373,537.970588235294,0
1293.2096,0.310892008107138,,,0.783204533433264,-0.740229177462552,-0.740229177461829,-0.0242923727099735,1.13768110535494,0.409914867184882,1.2352537955084,-0.551641308393464,1.23525379550932,,0.084775944328874,,,,0.506535385524701,0.995844733356486,-0.847786482952496,,,0.0567749994353739,-0.722353551488846,0.777653401976169,,0.443978797209038,,0.620006127992873,0.557853105400533,0.546446070657065,-0.369646010263013,,0.283278494327389,,0.265206972343961,1.28578623073034,,0.134298997785301,1.47345098107798,,,0.890821976048492,-0.0606124636299361,1.2804985274893,-1.58441711487994,,,-0.752599205402052,0.75259920540167,-0.85685573861715,11.4687999999999,103,214.847572815534,232.542718446602,501.383495145631,266.798058252427,162.897087378641,294.01359223301,171.071844660194,463.922330097087,538.844660194175,0
1293.312,0.313070679816236,,,0.771570100816651,-0.687379898195611,-0.687379898194875,-0.0436376239287979,1.07889086395555,0.37148456869191,1.19909273916846,-0.552931180002826,1.19909273916937,,0.118631905812642,,,,0.473154039504241,0.995991992924893,-0.834688183589904,,,0.0158459204546197,-0.752844874839816,0.779253819706415,,0.440531128542981,,0.604391767694982,0.568132859686704,0.54189811286315,-0.360431256462326,,0.301588195132078,,0.275206069138316,1.29538308466148,,0.0893775157171723,1.46775666891498,,,0.85938539174139,-0.0223445085580873,1.27832657439493,-1.59341577945169,,,-0.737239380734901,0.737239380734521,-0.874958468240017,11.5711999999999,102,204.662745098039,225.66568627451,505.622549019608,257.860784313726,151.464705882353,288.330392156863,163.000980392157,474.441176470588,536.803921568627,0
1293.4144,0.314891530961202,,,0.759459734573095,-0.634172380893432,-0.634172380892681,-0.0621729838855968,1.01807261941547,0.332965388559351,1.16095676739597,-0.554155544452907,1.16095676739688,,0.152356320670207,,,,0.438174783287287,0.996131672931728,-0.821135283336553,,,-0.0241001677870229,-0.782358558791029,0.78085174755345,,0.437097497518556,,0.58794486338552,0.578672976994361,0.536662818046194,-0.351139588441841,,0.319549351164183,,0.284949227489164,1.3056714626483,,0.04376890887457,1.46254800622761,,,0.82807612635668,0.0157847291795218,1.27618278781876,-1.60133974335642,,,-0.722279026511688,0.722279026511312,-0.89242726883001,11.6735999999999,103,214.105339805825,236.374757281553,496.033980582524,268.247572815534,159.963106796117,295.173786407767,177.57572815534,469.466019417476,522.601941747573,0
1293.5168,0.316383294944383,,,0.746894062581643,-0.580682640362028,-0.580682640361268,-0.0798557115800191,0.95527487365753,0.294411454194113,1.12088563290525,-0.555329034099715,1.12088563290616,,0.185927229768068,,,,0.401653035399758,0.996285210111639,-0.807159807891682,,,-0.0630614472464003,-0.810841174856308,0.782500070398801,,0.433678607655412,,0.570740840414681,0.589445636166001,0.530761452041519,-0.341789046327751,,0.337096238225661,,0.294396890206794,1.31664445483212,,-0.00249314378172694,1.45781112176387,,,0.796935078082585,0.0537465881456534,1.27409514441772,-1.60818664831554,,,-0.707736894309005,0.707736894308632,-0.909276503558322,11.7760000000001,102,210.018137254902,233.817156862745,494.593137254902,263.947058823529,156.089215686275,292.394117647059,175.240196078431,468.235294117647,520.950980392157,0
1293.6192,0.317573557933068,,,0.733894602639661,-0.526988588674986,-0.526988588674211,-0.0966455132665904,0.890552531162056,0.255877265398322,1.07892498028472,-0.556465878704062,1.07892498028564,,0.219321714656566,,,,0.363650380578476,0.996471177717693,-0.792794472239104,,,-0.101037987692105,-0.83824283785374,0.784251235950646,,0.430273894095996,,0.552856333175846,0.600423566096762,0.524216127238093,-0.33239710129139,,0.354165559202491,,0.303511130153942,1.32829237133963,,-0.0493716475463824,1.45353089365355,,,0.766004204136505,0.0915102812050005,1.27209069801688,-1.61395495586841,,,-0.69362854178904,0.693628541788669,-0.925520183935,11.8784000000001,102,227.388235294118,256.098039215686,489.18137254902,280.969607843137,173.806862745098,316.270588235294,195.925490196078,464.127450980392,514.235294117647,0
1293.7216,0.318488716218972,,,0.720483661639216,-0.473170190354422,-0.473170190353635,-0.112504701003855,0.823967166676841,0.217417662868528,1.03512630616045,-0.557579870393745,1.03512630616136,,0.252515959070685,,,,0.324234566681218,0.996705124836689,-0.778072673896212,,,-0.138031530064272,-0.864517386657239,0.786156786262757,,0.426881532381091,,0.534368794554578,0.611580171368847,0.517049731685055,-0.32298058930606,,0.370696813272567,,0.312255996585623,1.34060262903124,,-0.0968262478162232,1.44969111614334,,,0.735326444078748,0.129043013747625,1.27019560392532,-1.61864396447438,,,-0.679966290020072,0.679966290019702,-0.941171919639471,11.9808,103,223.740291262136,256.939805825243,492.101941747573,277.980582524272,169.5,320.654368932039,193.225242718447,467.883495145631,516.320388349515,0
1293.824,0.319153964194229,,,0.706684240797265,-0.419309603788913,-0.41930960378811,-0.127398367286132,0.755587216187247,0.179087754207978,0.989546893255169,-0.558684290657013,0.989546893256076,,0.28548534419894,,,,0.283479461554112,0.99699943869456,-0.763028486674862,,,-0.174045251319748,-0.889622524685625,0.788266890111852,,0.423498458873661,,0.515356140766694,0.622889649952482,0.509285866917898,-0.313555658142905,,0.386632673859207,,0.320597877134747,1.35355965932035,,-0.144813222915132,1.44627466064022,,,0.704945614548456,0.166310146401386,1.26843515282797,-1.62225384302917,,,-0.666759228505009,0.666759228504641,-0.956244915525057,12.0832,102,433.212745098039,246.63431372549,498.377450980392,462.301960784314,404.123529411765,307.355882352941,185.912745098039,476.156862745098,520.598039215686,0
1293.9264,0.319593314163517,,,0.692519942611878,-0.365491290146334,-0.365491290145521,-0.141294578105012,0.685488075865569,0.140942789707802,0.942249708886113,-0.559791798075792,0.942249708887017,,0.318204573176158,,,,0.241464972653281,0.997363234601858,-0.747696649347236,,,-0.209083509383138,-0.913519906462062,0.790629871768952,,0.420120388168617,,0.495896419363753,0.63432709718139,0.500948789243052,-0.304137726403947,,0.401919359057264,,0.328505849970714,1.36714483043394,,-0.193285521807652,1.44326361352042,,,0.674906261633791,0.203275398653794,1.26683378905498,-1.62478567063801,,,-0.654013271679943,0.654013271679579,-0.970752010494634,12.1856,103,897.555339805825,216.917475728155,503.742718446602,918.694174757282,876.416504854369,270.222330097087,163.612621359223,494.980582524272,512.504854368932,0
1294.0288,0.319829647937984,,,0.678014873709752,-0.311802068755732,-0.311802068754906,-0.154164582679175,0.613752114878248,0.103037991595105,0.893303254831419,-0.560914283573039,0.893303254832321,,0.350647827365675,,,,0.198276926533526,0.997802277986657,-0.732112540321854,,,-0.243151578146837,-0.936175172308032,0.793291725017274,,0.416741821831512,,0.47606748738785,0.645868588848443,0.49206334918285,-0.294741457065976,,0.416506975702778,,0.335952001795439,1.38133637069192,,-0.242192850581729,1.44063937934889,,,0.645253458653606,0.239901090412234,1.26541509113194,-1.626241478432,,,-0.641731258991711,0.64173125899135,-0.984705752554859,12.288,102,912.360294117647,236.979411764706,505.720588235294,935.55,889.170588235294,296.361764705882,177.597058823529,504.71568627451,506.725490196078,0
1294.1312,0.319884796359917,,,0.663193538845898,-0.258331105740153,-0.258331105739314,-0.165983035745683,0.540468622597839,0.0654283479568946,0.842781357320013,-0.562062706948454,0.842781357320917,,0.382788962906062,,,,0.154006898763995,0.998318940131074,-0.716312131047497,,,-0.276255390621106,-0.957557948499225,0.796295601962214,,0.413356052690177,,0.455946691301276,0.657491236399211,0.48265492735305,-0.285380749939333,,0.430349827106202,,0.342911700103227,1.39610928263824,,-0.291481807615037,1.43838274870852,,,0.616032542784965,0.276148421209813,1.26420170429257,-1.62662429594456,,,-0.629913083549808,0.62991308354945,-0.99811850654104,12.3904,102,921.971078431373,228.559803921569,511.313725490196,941.861764705882,902.080392156863,287.024509803922,170.095098039216,511.303921568628,511.323529411765,0
1294.2336,0.319779639057049,,,0.648080724133694,-0.205169841205743,-0.205169841204894,-0.17672822976926,0.465733711069257,0.0281683814380462,0.790762895708878,-0.563246928947742,0.790762895709778,,0.414601745782888,,,,0.108751985837319,0.998912179538655,-0.700331918619126,,,-0.308401304014412,-0.977641833462704,0.799681276000831,,0.409955169656384,,0.435610545466502,0.669173208446772,0.472749367763199,-0.276068753478199,,0.443406682395307,,0.349363817969314,1.41143524784764,,-0.341096061594334,1.43647393467305,,,0.58728879385904,0.311977783580742,1.26321522586029,-1.62593820207641,,,-0.618555837150037,0.618555837149682,-1.01100258876177,12.4928,103,931.964077669903,221.003398058252,516.888349514563,950.284466019417,913.643689320388,276.080582524272,165.926213592233,514.873786407767,518.902912621359,0
1294.336,0.31953421757736,,,0.632701368870814,-0.152411873328353,-0.152411873327494,-0.186382336038342,0.389650186573058,-0.00868810118812201,0.737331478063535,-0.564475545618496,0.737331478064434,,0.44606010777655,,,,0.0626145154398665,0.999577530370282,-0.684208844386233,,,-0.339595890702077,-0.996404385194167,0.803484588639085,,0.406530066082689,,0.415134408312385,0.680893714550624,0.462372910423479,-0.266817890981022,,0.455641007567547,,0.355290914413983,1.42728252771905,,-0.390976561155705,1.43489258022262,,,0.55906707005178,0.347349099319686,1.26247605242316,-1.62418837403747,,,-0.607653965638367,0.607653965638015,-1.02337041721465,12.5952,102,953.570098039216,234.974509803922,516.661764705882,971.009803921569,936.130392156863,285.845098039216,184.103921568627,512.754901960784,520.56862745098,0
1294.4384,0.319167859578932,,,0.617080424146557,-0.100152813370961,-0.100152813370087,-0.194931650890405,0.31232739971061,-0.0450882718664925,0.682575073057043,-0.565755722554367,0.682575073057937,,0.47713840531197,,,,0.0157016932003241,1.00030707958882,-0.667980205006862,,,-0.36984575611481,-1.01382712109948,0.807736892779944,,0.403070456125196,,0.394592157119712,0.692632950314013,0.451552126239523,-0.257639897089072,,0.46702115609346,,0.360679374872448,1.44361586294672,,-0.441061763688775,1.43361773618167,,,0.531411418810965,0.382222165261045,1.26200320074116,-1.62138112978452,,,-0.597199429364149,0.597199429363801,-1.03523466571228,12.6976,102,966.86568627451,236.099019607843,520.828431372549,979.554901960784,954.176470588235,289.71568627451,182.482352941176,515.911764705882,525.745098039216,0
1294.5408,0.318699313323228,,,0.601242695965828,-0.0484901124901188,-0.0484901124892324,-0.202366837979054,0.23388108350198,-0.0809805453261312,0.626585605252154,-0.567093024316719,0.626585605253045,,0.507811676460239,,,,-0.0318748139429251,1.00108942591369,-0.651683557452327,,,-0.399157387315477,-1.02989553939173,0.81246450329225,,0.399564904181204,,0.374055865779692,0.704372005987985,0.44031385733844,-0.248545864861845,,0.47752051335965,,0.365519513892737,1.46039636960376,,-0.491287873145961,1.43262780899383,,,0.504364676397254,0.416556999640319,1.26181411205762,-1.61752396751872,,,-0.587181860889539,0.587181860889195,-1.04660841480595,12.8,103,975.254854368932,226.802427184466,525.310679611651,985.766990291262,964.742718446602,279.152427184466,174.452427184466,521.834951456311,528.78640776699,0
1294.6432,0.318146888857359,,,0.58521267295217,0.00247714423882069,0.00247714423972569,-0.208683156102936,0.154433187439603,-0.116314832587443,0.569458520963729,-0.568491238440045,0.56945852096462,,0.538055898828614,,,,-0.0799993544417991,1.00190962339967,-0.635356616101847,,,-0.42753703534993,-1.04459916627596,0.817688163864585,,0.3960008700267,,0.353595492299684,0.716092741205454,0.428685163375525,-0.239546303397359,,0.48711759006934,,0.369805639523172,1.4775814293412,,-0.541589079590701,1.43190048014182,,,0.477968064741126,0.450314184071489,1.26192444711514,-1.61262560894588,,,-0.577588713285756,0.577588713285413,-1.05750529536395,12.9023999999999,102,982.341666666667,230.279901960784,527.450980392157,991.789215686275,972.894117647059,283.854901960784,176.704901960784,525.372549019608,529.529411764706,0
1294.7456,0.317528601118841,,,0.569014343011335,0.0526484755672829,0.0526484755682021,-0.213880667260471,0.0741117058161397,-0.151042780078921,0.511292331589413,-0.569952195642463,0.511292331590303,,0.5678482464229,,,,-0.128552826624056,1.00274911233097,-0.619037142981834,,,-0.4549906272196,-1.05793162430953,0.823422538612714,,0.392364768295398,,0.333278583758621,0.727777628250891,0.416693271937361,-0.230651202524039,,0.495796065100907,,0.373536077874835,1.49512457482986,,-0.591897796658607,1.43141260259852,,,0.452260792902855,0.483455199756186,1.26234788129327,-1.60669605145791,,,-0.568405397417709,0.568405397417368,-1.06793962266181,13.0047999999999,103,957.921359223301,270.279126213592,526.330097087379,966.290291262136,949.552427184466,317.573786407767,222.984466019417,523.805825242719,528.854368932039,0
1294.848,0.316862313537605,,,0.552671007742319,0.101922266888602,0.10192226688954,-0.217964424236431,-0.0069495131381701,-0.185117998874516,0.452188140344136,-0.571475586500312,0.452188140345023,,0.597167336795198,,,,-0.177413268211274,1.00358563930092,-0.602762837484625,,,-0.481523695246585,-1.06989070803485,0.829675738579195,,0.38864203615846,,0.313170007639728,0.739409568395711,0.404365531720847,-0.221870100548426,,0.503544782554387,,0.376713155849186,1.51297537485562,,-0.642144896996858,1.43114008151794,,,0.427279669624601,0.515942759997639,1.26309591218934,-1.59974663113481,,,-0.559615411026287,0.559615411025949,-1.07792652039777,13.1071999999999,102,544.197549019608,879.789215686274,541.029411764706,554.519607843137,533.875490196078,913.297058823529,846.28137254902,526.803921568627,555.254901960784,0
1294.9504,0.316165883225798,,,0.536205105680879,0.150196050921079,0.150196050922038,-0.220944632996055,-0.0886109911144034,-0.218496285317459,0.392249161320967,-0.573058777325254,0.392249161321848,,0.625993458108688,,,,-0.226456487163287,1.00439317667824,-0.58657123247977,,,-0.507141311056224,-1.08047844908955,0.836448895708349,,0.384817201721502,,0.293331715630621,0.750971689262548,0.391729368066978,-0.213212151441462,,0.5103577092902,,0.379343142658934,1.53107932719055,,-0.692259946799871,1.43105774645658,,,0.403058733355356,0.547741138348777,1.26417768853285,-1.59179009197751,,,-0.551200464344157,0.551200464343821,-1.08748203107056,13.2095999999999,102,509.178921568628,916.174019607843,542.480392156863,517.863725490196,500.494117647059,950.045098039216,882.302941176471,518.5,566.460784313726,0
1295.0528,0.315457305103914,,,0.519638054021746,0.197366800421082,0.197366800422061,-0.222836778636154,-0.170727879870388,-0.251135824855291,0.331580243496566,-0.574696634619267,0.331580243497441,,0.654308766716892,,,,-0.275556708898407,1.00514185994057,-0.570499600993296,,,-0.531848020283448,-1.08970115773736,0.843735795715778,,0.380873949002308,,0.27382253682099,0.762447131810436,0.378812238590831,-0.204686185802581,,0.516233858706252,,0.38143615477731,1.54937777218848,,-0.742171437642784,1.43113922309916,,,0.379628906667975,0.578816483573107,1.26559986043669,-1.58284065092703,,,-0.543140607140401,0.543140607140065,-1.09662320493608,13.3119999999999,103,533.16359223301,896.140291262136,522.155339805825,540.206796116505,526.120388349515,927.01359223301,865.266990291262,497.68932038835,546.621359223301,0
1295.1552,0.314754845091386,,,0.502990113224663,0.243331230608863,0.24333123060986,-0.223661705697806,-0.253150252174495,-0.282997369311828,0.270287410499663,-0.576381369491016,0.270287410500533,,0.68209744813474,,,,-0.324587217994765,1.00579795756336,-0.554584874981944,,,-0.555647786212719,-1.09756943869435,0.851522575265413,,0.376795178437331,,0.254697990270487,0.77381883126167,0.365641584310735,-0.196300758814629,,0.521177182378907,,0.383006027710504,1.56780783934581,,-0.791807010396266,1.43135681362241,,,0.357017681501464,0.609137108088994,1.26736644488377,-1.57291404922025,,,-0.535414360823294,0.53541436082296,-1.10536816255438,13.4143999999999,102,844.537254901961,369.451470588235,474.764705882353,852.567647058823,836.506862745098,418.237254901961,320.66568627451,456.970588235294,492.558823529412,0
1295.2576,0.314077150119511,,,0.486280272704076,0.287986113703689,0.287986113704701,-0.223445649558897,-0.335723417390437,-0.314044382519747,0.208477422342152,-0.57810240886235,0.208477422343017,,0.709345840017248,,,,-0.373420985475484,1.00632387911459,-0.538863573187745,,,-0.578543956893772,-1.10409818878372,0.859787483008707,,0.372563064996465,,0.23601010788204,0.785069292162861,0.352244772397379,-0.188064180764187,,0.525196427662705,,0.384070156045692,1.58630243278554,,-0.841093665520725,1.43168139508566,,,0.335248841318719,0.638673739306761,1.26947870308682,-1.56202758528929,,,-0.527998856876951,0.527998856876619,-1.11373613348305,13.5167999999999,103,870.996601941748,341.62427184466,449.655339805825,895.760194174757,846.233009708738,387.78932038835,295.459223300971,442,457.31067961165,0
1295.36,0.31344332770438,,,0.469526153904212,0.331228606062278,0.331228606063308,-0.222220216458971,-0.41828826279135,-0.344243152676247,0.14625736249275,-0.5798462960671,0.146257362493611,,0.736042521899,,,,-0.421931283430639,1.00667822312542,-0.523371731082687,,,-0.600539266440638,-1.10930658502602,0.868500705162569,,0.368159120563799,,0.21780726428472,0.796180359394268,0.338649029732307,-0.17998452882527,,0.528304963102968,,0.384649308266155,1.60479025999441,,-0.889957957919225,1.43208234482915,,,0.314342227503336,0.667399730461164,1.27193503679706,-1.55020012635787,,,-0.520869980799663,0.520869980799333,-1.12174747681464,13.6191999999999,102,867.088235294118,340.792647058824,444.93137254902,894.186274509804,839.990196078431,389.929411764706,291.655882352941,441.862745098039,448,0
1295.4624,0.312872994939326,,,0.452743932033631,0.372956578964678,0.372956578965725,-0.220022309223339,-0.500681631310069,-0.373562873015234,0.0837342521699129,-0.581596623365692,0.0837342521707683,,0.762178376950454,,,,-0.469992291764703,1.00681586554627,-0.508144828601854,,,-0.621635874176398,-1.11321806610081,0.877624263551112,,0.363564268073273,,0.200134018903205,0.807132992142117,0.324881370074654,-0.172069641877399,,0.53052058035545,,0.384767427975548,1.62319591195668,,-0.938326180994414,1.43252750105283,,,0.294313558177602,0.695291234992359,1.27473092081158,-1.53745209686737,,,-0.514002519561086,0.514002519560758,-1.12942368610804,13.7215999999999,103,862.879126213592,350.537378640777,444.31067961165,891.28932038835,834.468932038835,406.597087378641,294.477669902913,443.31067961165,445.310679611651,0
1295.5648,0.312386301516573,,,0.435948283728814,0.413068938871184,0.413068938872245,-0.21689399947447,-0.582736748552191,-0.401975696306628,0.0210146929911171,-0.583333999448549,0.0210146929919668,,0.787746626543234,,,,-0.517479698463102,1.00668808894735,-0.49321771667999,,,-0.641835443880976,-1.11586030587682,0.887111997075022,,0.358758931486132,,0.183030983644505,0.817907051188302,0.310968520580757,-0.16432710402553,,0.531865281571433,,0.384451430345577,1.64144000333038,,-0.986124547751046,1.43298316443549,,,0.275174305696215,0.722327351985224,1.27785889011788,-1.52380544548053,,,-0.507370309744928,0.507370309744598,-1.13678737612311,13.8240000000001,102,846.536274509804,364.543137254902,458.740196078431,875.790196078431,817.282352941177,417.878431372549,311.207843137255,458.852941176471,458.627450980392,0
1295.6672,0.312003933010611,,,0.419152366852742,0.451465930168204,0.451465930169272,-0.21288235243431,-0.664283706679248,-0.429456771170038,-0.0417954607039318,-0.585036051816762,-0.0417954607030903,,0.812742835252555,,,,-0.564271290876402,1.00624275301587,-0.478624543145646,,,-0.66113926553783,-1.11726517649004,0.896909630734049,,0.353723144799805,,0.166534730510569,0.828481109434923,0.296936852590677,-0.156764223710888,,0.532365054909265,,0.383730997042471,1.65943937762678,,-1.03327937403791,1.43341414196424,,,0.256931633113575,0.748490249803937,1.28130859062535,-1.50928359564596,,,-0.500946382845855,0.500946382845524,-1.14386224546463,13.9264000000001,102,826.623529411765,398.631862745098,484.759803921569,857.538235294118,795.708823529412,443.013725490196,354.25,486.392156862745,483.127450980392,0
1295.7696,0.311747100337079,,,0.402367833396669,0.488049427166534,0.488049427167611,-0.208039212452229,-0.745150009725459,-0.455984268739393,-0.104591400413592,-0.586677459075903,-0.10459140041276,,0.837164884554307,,,,-0.610247536770137,1.00542450928595,-0.464398673806929,,,-0.679548417296415,-1.11746869704595,0.906954927765503,,0.34843668530326,,0.150677745239223,0.838832291740915,0.282812317744554,-0.149388011777132,,0.532049634566689,,0.382638369536185,1.67710737719992,,-1.07971726559357,1.43378382816796,,,0.239588381808757,0.773765274054661,1.28506688891768,-1.4939113843319,,,-0.494703104681969,0.494703104681636,-1.15067301063264,14.0288,103,738.466504854369,596.069417475728,522.898058252427,765.903883495146,711.029126213592,630.493203883495,561.645631067961,521.883495145631,523.912621359223,0
1295.872,0.311637519432962,,,0.385604875088225,0.522723231479371,0.522723231480454,-0.202420955623548,-0.82516118653011,-0.481539407345439,-0.167269640314915,-0.588230007994726,-0.167269640314095,,0.861012914841618,,,,-0.655292159602815,1.00417506499277,-0.450572603246446,,,-0.697063960206663,-1.11651096378093,0.917177920144668,,0.342879233941847,,0.135488421927011,0.848936143738661,0.268620387803368,-0.142205156681082,,0.530952239328121,,0.381208136360398,1.69435417113681,,-1.1253653111927,1.43405431499987,,,0.223143098537699,0.798141044257075,1.28911802842967,-1.47771499096341,,,-0.488612308062497,0.488612308062162,-1.15724531175474,14.1312,102,721.091666666667,664.055392156863,559.235294117647,741.979411764706,700.203921568628,690.4,637.710784313726,553.480392156863,564.990196078431,0
1295.9744,0.311697380306721,,,0.368872302160195,0.555393390887483,0.555393390888567,-0.19608821333991,-0.904141478336935,-0.50610648109903,-0.22972828711254,-0.589662675857913,-0.229728287111735,,0.884289235908535,,,,-0.699292717711013,1.00243349787406,-0.437177854040589,,,-0.713687157123949,-1.11443606039621,0.927501218266703,,0.337030558059842,,0.120991085818722,0.858766525032003,0.254385993992705,-0.135221990482617,,0.529109286132448,,0.379477005774928,1.71108713125354,,-1.17015128631507,1.4341865236761,,,0.207590094172307,0.821609539805747,1.29344382098731,-1.46072185526002,,,-0.482645419971638,0.482645419971302,-1.16360559241716,14.2336,103,743.668932038835,649.576699029126,571.849514563107,759.743689320388,727.594174757282,674.041747572816,625.111650485437,565.776699029126,577.922330097087,0
1296.0768,0.311949297366329,,,0.352177653037782,0.585968550014792,0.585968550015881,-0.189105568426544,-0.981914603995887,-0.52967289487087,-0.291867317161103,-0.590941743145791,-0.291867317160313,,0.906998207750489,,,,-0.742141198399724,1.00013661649205,-0.424244866501712,,,-0.72941970879886,-1.111291951655,0.937840401773986,,0.330870707476528,,0.107206030890791,0.868295523966013,0.240133458943976,-0.128444437128756,,0.52656008116411,,0.377483557687664,1.72721125136188,,-1.21400387092326,1.43414035955263,,,0.192919533543593,0.844166171736533,1.29802386867658,-1.44296057917683,,,-0.476773584531691,0.476773584531353,-1.16978095407154,14.336,102,761.916176470588,626.655392156863,549.950980392157,779.258823529412,744.573529411765,655.066666666667,598.244117647059,545.107843137255,554.794117647059,0
1296.1792,0.312416228344886,,,0.335527327247214,0.614360338951601,0.61436033895269,-0.181541224461461,-1.05830459921024,-0.552229204820822,-0.353588867290873,-0.592030938506869,-0.353588867290099,,0.929146096910516,,,,-0.783734636290635,0.997219355623714,-0.411802878382291,,,-0.744264003792059,-1.10713036771042,0.948104486767311,,0.324380217572911,,0.0941495642497382,0.877493393577946,0.225886414393977,-0.121877936221709,,0.523346496205463,,0.375267976206884,1.74262961139539,,-1.25685288196004,1.43387489754607,,,0.179117559398976,0.865809834895116,1.30283581417925,-1.42446080648461,,,-0.470967780869448,0.470967780869108,-1.17579898447215,14.4384,102,784.167156862745,601.275,525.328431372549,803.436274509804,764.898039215686,633.538235294118,569.011764705882,521.313725490196,529.343137254902,0
1296.2816,0.313121352513079,,,0.318926731060977,0.640483806214137,0.64048380621523,-0.173466652339904,-1.13313672422918,-0.573769165760875,-0.414797538786832,-0.592891611077787,-0.41479753878607,,0.950740915156396,,,,-0.823975761591372,0.993615197578429,-0.399879790480633,,,-0.758223384070187,-1.10200668949658,0.958196457219191,,0.317540318617095,,0.0818340544649238,0.886328506837958,0.211667699935583,-0.115527339757879,,0.51951263895801,,0.372871769760784,1.75724388981921,,-1.29862951994261,1.43334860523896,,,0.166166453695407,0.886542935175799,1.30785561811895,-1.40525307525107,,,-0.465198932295093,0.465198932294753,-1.18168756141792,14.5408,103,853.11213592233,567.968446601942,515.092233009709,870.908737864078,835.315533980583,596.577669902913,539.359223300971,512.640776699029,517.543689320388,0
1296.384,0.314087908760215,,,0.30238042978233,0.664257901667591,0.664257901668685,-0.164956223822106,-1.20623843780565,-0.594289792680471,-0.475400711507627,-0.593482923169976,-0.475400711506876,,0.971792244220512,,,,-0.862773677241638,0.989256616390266,-0.388502017208771,,,-0.771302432481286,-1.095979844745,0.968013848484337,,0.310333155750006,,0.0702679843827958,0.894767329538838,0.197499242264194,-0.109396785899968,,0.515104523561489,,0.370337488183885,1.77095492654531,,-1.33926662885088,1.43251960713641,,,0.154044839915723,0.906371388018141,1.31305786447775,-1.3853686422078,,,-0.459438002740125,0.459438002739783,-1.18747463448794,14.6432,102,911.769607843137,562.064215686275,505.53431372549,930.964705882353,892.574509803922,595.792156862745,528.336274509804,504.470588235294,506.598039215686,0
1296.4864,0.315339001013172,,,0.285892308755678,0.685606006197377,0.685606006198472,-0.156086841618641,-1.27744043929023,-0.613791445140969,-0.535308864114671,-0.593762059644902,-0.535308864113931,,0.992311045460986,,,,-0.900044558545198,0.984075545743272,-0.377694328046116,,,-0.783507287901625,-1.08911222003296,0.977449379535335,,0.30274202615733,,0.0594560134736056,0.902774414527865,0.183401920363484,-0.103489559739613,,0.510169745477885,,0.367708447990086,1.7836633408926,,-1.37869896681696,1.43134599173079,,,0.14272792935108,0.925304587950062,1.31841609830009,-1.36483928088769,,,-0.453656078545434,0.453656078545091,-1.19318798653168,14.7456,102,926.610784313726,551.942647058824,509.93137254902,946.104901960784,907.116666666667,584.5,519.385294117647,510.647058823529,509.21568627451,0
1296.5888,0.316897377382322,,,0.269465747781852,0.704456492977084,0.704456492978175,-0.146937570306746,-1.34657778261815,-0.632277939554664,-0.594435894790062,-0.593684451854076,-0.594435894789333,,1.01230945138796,,,,-0.935712371196929,0.978003868864682,-0.367479688224742,,,-0.794845988235728,-1.0814695896506,0.986391640984189,,0.294751635950677,,0.0493990576186254,0.910312425137265,0.169395423795705,-0.0978079502637253,,0.504757164307515,,0.365028475994379,1.79527021635682,,-1.4168634854705,1.4297861621624,,,0.132187810556878,0.943355352583345,1.32390319853555,-1.34369705654782,,,-0.447824434611671,0.447824434611327,-1.19885497579976,14.848,103,930.268446601942,545.578155339806,517.101941747573,951.302912621359,909.233980582524,574.173786407767,516.982524271845,518.902912621359,515.300970873786,0
1296.6912,0.318785185816672,,,0.253103810080489,0.720743306677843,0.720743306678929,-0.137589271561336,-1.4134910637026,-0.649756692837464,-0.652699436806615,-0.593204011784193,-0.6526994368059,,1.03180053671057,,,,-0.969709610148739,0.970973925292798,-0.357879103157293,,,-0.805328836839859,-1.07312105920955,0.994725849444658,,0.286348370842725,,0.0400943915189831,0.917342193192273,0.155498107147305,-0.0923531071784815,,0.498916596367417,,0.362341673884217,1.80567786275994,,-1.45369961994015,1.42779922674823,,,0.122393778386095,0.960539843985127,1.32949178404126,-1.32197408149049,,,-0.441914583659926,0.441914583659578,-1.20450226173471,14.9503999999999,102,929.099019607843,536.603431372549,522.696078431373,948.107843137255,910.090196078431,561.262745098039,511.944117647059,523.696078431373,521.696078431373,0
