time,S1-D1,S1-D8,S1-D9,S1-D15,S2-D1,S2-D2,S2-D3,S2-D9,S3-D1,S3-D2,S3-D16,S4-D2,S4-D3,S4-D5,S5-D3,S5-D4,S5-D5,S6-D2,S6-D5,S6-D17,S7-D6,S7-D7,S8-D6,S8-D7,S8-D18,S9-D3,S9-D4,S9-D9,S9-D11,S9-D19,S10-D8,S10-D9,S10-D10,S10-D11,S11-D8,S11-D10,S11-D20,S12-D10,S12-D11,S12-D12,S13-D4,S13-D11,S13-D12,S14-D10,S14-D12,S14-D21,S15-D13,S15-D14,S16-D13,S16-D14,S16-D22,t_rel_s,eye_n,xp,yp,ps,xpl_i,xpr_i,ypl_i,ypr_i,psl_i,psr_i,blink_prop
456.8064,0.925907107001056,1.43148269297235,2.04778555139869,0.502029652407692,0.550640023124264,,,,-1.62819805174677,-0.739353624659532,-0.558916845958713,-0.739353624658776,,,,-1.32130525214588,,-0.6216695090502,0.57777709022603,0.613325547454379,0.577777090225436,,-2.73852447307057,-3.85688415710453,,1.0952477280154,0.677946721817149,0.280839640671798,,-0.176456921701255,0.940318270304802,,,0.417453633930266,1.1247169907242,0.981730264968775,0.327582987742682,-0.537472438079054,,,,,0.022846040378663,0.902465676419606,,-0.822389020257249,0.172250571741793,,,,-0.913509087890746,0,103,1063.66262135922,535.577184466019,779.383495145631,1063.56796116505,1063.7572815534,528.246601941748,542.907766990291,847.174757281553,711.592233009709,0
456.9088,0.970333186755913,1.37886952720304,2.06102442033209,0.561592632031695,0.447940320753822,,,,-1.6684055244646,-0.776414551863207,-0.504892184995831,-0.776414551862448,,,,-1.38833046358401,,-0.667895665105414,0.555806333006872,0.626715404293271,0.555806333006295,,-2.79026755436449,-3.88909626287667,,1.06034083102102,0.6610508691382,0.298702052575991,,-0.107552040478898,0.938049794873438,,,0.402986055072745,1.09439335125459,0.95274790048169,0.281221857040896,-0.512220620471281,,,,,0.00476534114971044,0.885067206693964,,-0.846264505731411,0.155803352128316,,,,-0.946763618531303,0.102399999999989,102,1060.88284313726,525.583823529412,790.225490196078,1062.8931372549,1058.87254901961,521.205882352941,529.961764705882,860.71568627451,719.735294117647,0
457.0112,1.01544536626124,1.32591687107254,2.07479930028792,0.620456551983587,0.344448344476172,,,,-1.70724903754929,-0.813537415665972,-0.450093366272444,-0.813537415665209,,,,-1.45455003845151,,-0.713923632704857,0.533434052476155,0.639689048318592,0.533434052475594,,-2.84025624950295,-3.9183040479737,,1.02558630247679,0.644045172530722,0.314785442572539,,-0.0403376714367295,0.935623450201551,,,0.388557437358623,1.06418904087044,0.92386552436986,0.234036025554501,-0.486816168241103,,,,,-0.0139281085937232,0.868439333907681,,-0.868931914771625,0.139450696483231,,,,-0.978228815055854,0.204799999999977,103,1057.59757281553,532.67572815534,803.932038834951,1061.11165048544,1054.08349514563,530.766019417476,534.585436893204,874.728155339806,733.135922330097,0
457.1136,1.06116846157629,1.27273219000533,2.0891007013616,0.678563134655146,0.240403183496807,,,,-1.74463610416558,-0.850630698090666,-0.394645964363954,-0.850630698089897,,,,-1.51987787049333,,-0.759694753046466,0.510713588230707,0.652227695471489,0.51071358823016,,-2.88836604036143,-3.94453362811381,,0.99105765879455,0.626959718618387,0.329034928932308,,0.0250923934029622,0.932988805881195,,,0.374193722831593,1.03412332913028,0.895114659413213,0.186197936254127,-0.461332348997762,,,,,-0.0332287173466382,0.852611038153609,,-0.890318467037334,0.123188604859237,,,,-1.00789399147702,0.307200000000023,102,989.671078431373,483.175,801.446078431373,979.883333333333,999.458823529412,482.410784313726,483.939215686275,872.127450980392,730.764705882353,0
457.216,1.10742303285456,1.21941771887867,2.10391066671822,0.735854180577062,0.136041848152005,,,,-1.78048077256743,-0.887599928624861,-0.338677813438828,-0.887599928624083,,,,-1.58422769636062,,-0.805149058326173,0.487697181147565,0.664314135511759,0.487697181147036,,-2.93447651088862,-3.96782064176621,,0.956825067590194,0.609824340707164,0.341400989718483,,0.0886504949057824,0.930095476392586,,,0.359918600360043,1.00421395373589,0.866524173086788,0.137878829755561,-0.43583988704583,,,,,-0.0531293111056843,0.837607562073907,,-0.910354244734554,0.107011234668484,,,,-1.03575328339705,0.409600000000012,103,1008.4432038835,576.781553398058,821.78640776699,1007.46019417476,1009.42621359223,573.349514563107,580.21359223301,892.504854368932,751.067961165049,0
457.3184,1.15412567435212,1.16607013284882,2.11920286902233,0.792271561273918,0.0315983224807506,,,,-1.81470417822459,-0.924348133925937,-0.282318544020158,-0.924348133925154,,,,-1.6475133803372,,-0.850225459607377,0.464435545695511,0.675932753115156,0.464435545695,,-2.97847200103416,-3.98821017512632,,0.922955142939825,0.59266865469815,0.351839736405835,,0.150255035888889,0.926893542899166,,,0.345753171625328,0.974477202706479,0.83812006405954,0.089247699135478,-0.410406615329295,,,,,-0.0736211593970966,0.823450292572651,,-0.928972639041397,0.0909108408752334,,,,-1.0618057417693,0.512000000000001,102,1432.76176470588,769.583333333333,835.549019607843,1428.11960784314,1437.40392156863,764.18431372549,774.982352941177,908.382352941176,762.71568627451,0
457.4208,1.20118930821039,1.11278026056932,2.13494274083769,0.847757250876776,-0.0726973566130936,,,,-1.84723498601123,-0.960776332010552,-0.225699130476411,-0.960776332009767,,,,-1.70964922359117,,-0.894861964310246,0.440977482890005,0.687069542386407,0.440977482889507,,-3.0202421972071,-4.00575657497234,,0.88951075774614,0.575522116258442,0.360313184717312,,0.209830439837461,0.923333977483576,,,0.331715677722385,0.944927994234757,0.809925294771916,0.0404702932233876,-0.385097193804129,,,,,-0.0946940132716597,0.810156665201436,,-0.946110832273268,0.0748777772956875,,,,-1.08605541040259,0.614399999999989,102,1869.1068627451,1001.22843137255,855.897058823529,1855.18235294118,1883.03137254902,989.492156862745,1012.96470588235,945.843137254902,765.950980392157,0
457.5232,1.24852348650876,1.05963283758095,2.15108764251178,0.902253397682671,-0.176619987999653,,,,-1.87800970641576,-0.996784071844222,-0.168951458471935,-0.996784071843429,,,,-1.77055029420781,,-0.938995924011013,0.417369543994168,0.697712119986972,0.41736954399369,,-3.05968265240376,-4.02052313499478,,0.856550877428678,0.558414102339344,0.366789522375891,,0.267307143443803,0.919369069921703,,,0.317821307085009,0.915579957672244,0.781959688307132,-0.00829180408389059,-0.359972898984456,,,,,-0.116336150762381,0.797740099804713,,-0.961710327699058,0.0589005728744394,,,,-1.1085113782044,0.716799999999978,103,1868.47669902913,1071.34951456311,902.718446601942,1854.31844660194,1882.63495145631,1057.55339805825,1085.14563106796,1002.1067961165,803.330097087379,0
457.6256,1.29603470991051,1.00670629868786,2.16758707610356,0.955702435207851,-0.279950056116777,,,,-1.90697287473405,-1.03227001486575,-0.112207918383533,-1.03227001486496,,,,-1.83013276838053,,-0.982564305466567,0.393655754919492,0.707849740377993,0.393655754919033,,-3.09669523297643,-4.03258164506596,,0.82413041591449,0.541374015837481,0.37124337283934,,0.322621621555329,0.914952854691527,,,0.304082099805182,0.886445515767394,0.754239901420004,-0.0568819965239198,-0.335091486226551,,,,,-0.138534426315223,0.78620997305872,,-0.975717525743799,0.0429660903592171,,,,-1.12918780045085,0.819200000000024,102,1867.33725490196,1095.18137254902,940.637254901961,1852.03725490196,1882.63725490196,1079.59019607843,1110.77254901961,1044.49019607843,836.78431372549,0
457.728,1.34362677304526,0.954072606500975,2.18438295482078,1.00804722550667,-0.382474536617093,,,,-1.9340770984823,-1.06713254902145,-0.0556010235200577,-1.06713254902065,,,,-1.88831426930234,,-1.02550397298722,0.369877405503158,0.717473310639133,0.369877405502715,,-3.13118849731793,-4.04201180688,,0.792300112600426,0.52443140637894,0.373656050498324,,0.375716432012532,0.910041534221607,,,0.290506947031178,0.857535967576073,0.726779472355959,-0.105149393268511,-0.310507115829245,,,,,-0.16127432102646,0.775571630898627,,-0.988084323854488,0.0270597645211362,,,,-1.14810388992889,0.921600000000012,103,1895.67524271845,1116.55242718447,961.592233009709,1879.73495145631,1911.61553398058,1096.94854368932,1136.15631067961,1071.10679611651,852.077669902913,0
457.8304,1.39120114497073,0.901797111142795,2.2014099338692,1.05923121861013,-0.483987651893321,,,,-1.95928299960934,-1.10127042049334,0.000736956584083458,-1.10127042049254,,,,-1.94501419165875,,-1.06775197115757,0.346072898254568,0.726575395352451,0.346072898254146,,-3.16307802330402,-4.04890053760848,,0.761106429333536,0.507616095518468,0.374015798717908,,0.426540257329708,0.904593893030765,,,0.277101664196692,0.828861572184138,0.699588926915436,-0.152949433430077,-0.286270320244929,,,,,-0.184539988768038,0.765826443139812,,-0.998768700427396,0.0111659083023915,,,,-1.16528388602202,1.024,102,1889.29656862745,1117.7681372549,984.225490196078,1874.40490196078,1904.18823529412,1092.28039215686,1143.25588235294,1101.20588235294,867.245098039216,0
457.9328,1.43865738752525,0.849938437247592,2.21859580317587,1.10919861049275,-0.584291568762568,,,,-1.98255908931636,-1.13458336672145,0.0566743616568608,-1.13458336672065,,,,-2.00015400612472,,-1.10924580227542,0.322277644094296,0.735150200028324,0.322277644093896,,-3.1922867068359,-4.05334119453101,,0.730591469164799,0.490958294497537,0.372318000395326,,0.475047922050411,0.898571695284142,,,0.26386910864925,0.800431633799283,0.672675920057978,-0.200144439005485,-0.262427984472619,,,,,-0.208314292017097,0.756971901297396,,-1.00773524368298,-0.00473192867674724,,,,-1.18075701245865,1.12639999999999,102,1878.97794117647,1115.37941176471,1000.40196078431,1864.99901960784,1892.9568627451,1087.06470588235,1143.69411764706,1122.03921568627,878.764705882353,0
458.0352,1.48589360742466,0.798548398496112,2.23586193747637,1.15789448996484,-0.683197031663313,,,,-2.00388160828606,-1.16697273791694,0.112080516608107,-1.16697273791613,,,,-2.05365754677562,,-1.14992369960043,0.298523990634026,0.74319352560876,0.298523990633641,,-3.21874504938923,-4.05543275441934,,0.700792919070279,0.474488706373488,0.368565354406869,,0.521200377939802,0.891940057385089,,,0.250809319459842,0.772254587755072,0.646045395394288,-0.246604115697985,-0.239023321133431,,,,,-0.2325788226975,0.749001756931363,,-1.01495560209397,-0.0206505661893038,,,,-1.19455743153164,1.22879999999998,103,1873.15337834398,1120.97468856201,1011.66515940949,1860.48918467481,1885.81757201316,1091.48806764798,1150.46130947605,1137.98674183109,885.343576987884,0
458.1376,1.53280693164046,0.747671942931982,2.25312379423937,1.20526497429468,-0.780523929307891,,,,-2.02323435294699,-1.19834209988685,0.166826124780045,-1.19834209988604,,,,-2.1054512899288,,-1.18972490169777,0.274841170142527,0.750702692978603,0.274841170142163,,-3.24239144240176,-4.05527897671802,,0.671744015378998,0.458238607737892,0.362768017446479,,0.564964661421476,0.884667788996383,,,0.237919668356502,0.744338084686881,0.619699752317971,-0.292206012543778,-0.216095837614465,,,,,-0.257313904774133,0.741906194159561,,-1.02040885192288,-0.036606783358051,,,,-1.20672419719168,1.33120000000002,102,1815.01764936758,1135.67176975029,1028.88533798394,1806.74480286738,1823.29049586777,1105.58279569892,1165.76074380165,1160.85125448029,896.919421487603,0.392156862745098
458.24,1.57929399124769,0.697347132780917,2.27029144532795,1.25125733830501,-0.876101797488122,,,,-2.04060849862155,-1.22859781537038,0.220783681370928,-1.22859781536957,,,,-2.15546463433659,,-1.22858993411821,0.251255257217696,0.7576764419368,0.251255257217352,,-3.26317244504042,-4.05298757368182,,0.643473527799753,0.442239906598918,0.354943710996731,,0.60631383261898,0.876727697683669,,,0.225195016898812,0.716689068403473,0.593639014348882,-0.336835942511132,-0.193681303190264,,,,,-0.282498574925129,0.735672028798831,,-1.02408179142257,-0.0526169125128897,,,,-1.21730120354514,1.43360000000001,103,1739.43092064338,1155.67944548121,1048.2374922243,1740.02795698925,1738.83388429752,1123.65806451613,1187.70082644628,1184.7311827957,911.743801652893,0.368932038834951
458.3424,1.62525139886652,0.6476051617927,2.28727012773388,1.29582014233066,-0.969770261691772,,,,-2.05600242495926,-1.25764960270005,0.273827906271154,-1.25764960269923,,,,-2.20363019066164,,-1.26646090285855,0.227789130027011,0.764114811639301,0.22778913002669,,-3.28104304558067,-4.04866940455855,,0.61600575887787,0.426525173520311,0.345117787431362,,0.645226904465671,0.868096851892105,,,0.212627876349655,0.689313843701369,0.567860993729385,-0.380388360370409,-0.171811725004781,,,,,-0.308110539062702,0.730282927650598,,-1.02596917537509,-0.0686964521431172,,,,-1.2263371210931,1.536,102,1687.38006832165,1169.70346744136,1073.39678830743,1686.13102466793,1688.62911197537,1136.17061986085,1203.23631502188,1209.73750790639,937.056068708475,0
458.4448,1.67057620984734,0.59847041159995,2.30396080332004,1.33890336317526,-1.06137942099239,,,,-2.06942154572017,-1.28541106838526,0.325836192356726,-1.28541106838445,,,,-2.24988408186771,,-1.30328179856027,0.20446243452074,0.770019008841613,0.204462434520449,,-3.29596689961178,-4.0424377052624,,0.589360558868806,0.411127643736603,0.333323246434283,,0.68168876573538,0.858756795632935,,,0.20020856617243,0.662218133423129,0.542361448680301,-0.422766692345384,-0.150515337116775,,,,,-0.334126108238073,0.725719643270966,,-1.02607389522535,-0.0848597080024866,,,,-1.23388531212502,1.63839999999999,102,1726.28774509804,1160.46519607843,1101.43137254902,1716.77156862745,1735.80392156863,1123.82843137255,1197.10196078431,1234.09803921569,968.764705882353,0
458.5472,1.71516636339459,0.54996054662152,2.32026072294844,1.38045853094622,-1.15079017293777,,,,-2.08087814071097,-1.3118002070806,0.376689063625506,-1.3118002070798,,,,-2.29416624919654,,-1.33899880500026,0.181291555410325,0.775391269375167,0.181291555410074,,-3.30791654622351,-4.0344073601151,,0.563553358445223,0.396081188404588,0.319600696357865,,0.715690097090841,0.84869370862709,,,0.187925367483153,0.63540712677752,0.517134231619704,-0.463883611693917,-0.129816603124069,,,,,-0.360520123363027,0.72196026083873,,-1.02440709860386,-0.101119468811778,,,,-1.24000371722559,1.74079999999998,103,1864.38252427184,1132.87621359223,987.402912621359,1851.8572815534,1876.90776699029,1096.79029126214,1168.96213592233,1099.40776699029,875.398058252427,0
458.6496,1.75892110261697,0.502086645648997,2.33606399254678,1.42043887301714,-1.23787447833214,,,,-2.09039118205308,-1.33673986333833,0.426270636898601,-1.33673986333754,,,,-2.33642075795069,,-1.373560606464,0.158289597652704,0.780234718804781,0.158289597652485,,-3.31687360721418,-4.02469421672368,,0.538595222456105,0.381420253290394,0.30399825872024,,0.747227278034883,0.837898507799727,,,0.175764669687958,0.608885521665327,0.492171428558013,-0.503661252625199,-0.109736232062142,,,,,-0.387265878895417,0.71898045395567,,-1.02098824183757,-0.11748672040891,,,,-1.24475470522134,1.84320000000002,102,1774.19215686275,1101.63480392157,762.53431372549,1765.57058823529,1782.8137254902,1085.64509803922,1117.62450980392,833.441176470588,691.627450980392,0
458.752,1.80174137288991,0.4548533671447,2.35126213833833,1.45879946401362,-1.32251556438434,,,,-2.0979861424571,-1.36015815350919,0.474469079822296,-1.36015815350841,,,,-2.37659610191449,,-1.40691869370015,0.135466380086433,0.78455323814501,0.135466380086249,,-3.32282896775714,-4.01341443845246,,0.51449292813387,0.367179763429135,0.286571414041791,,0.77630228375657,0.826366887818406,,,0.163711110369666,0.58265756337757,0.467463491097662,-0.542031352758059,-0.0902912065793582,,,,,-0.414335052081514,0.716753746986402,,-1.01584507759731,-0.133970396811914,,,,-1.24820488085472,1.94560000000001,103,745.269902912621,888.215048543689,494.097087378641,742.490291262136,748.049514563107,992.206796116505,784.223300970874,471.029126213592,517.165048543689,0
458.8544,1.84353019842899,0.408259144818686,2.36574466871475,1.49549737985338,-1.40460806574129,,,,-2.10369477087847,-1.38198884831316,0.521177056899186,-1.38198884831238,,,,-2.41464550739392,,-1.43902766948762,0.112828442414287,0.78835133932783,0.112828442414134,,-3.32578292516328,-4.00068388390735,,0.491249070403253,0.353394992160058,0.267382786577326,,0.802922570293673,0.814099299110045,,,0.151747710049431,0.556727080708631,0.442999362916897,-0.57893531304419,-0.0714948215390969,,,,,-0.441697641370318,0.715251784249823,,-1.00901358378848,-0.150577162481856,,,,-1.25042484830693,2.048,102,668.123039215686,649.028431372549,605.480392156863,658.95,677.296078431373,632.625490196079,665.43137254902,663.852941176471,547.107843137255,0
458.9568,1.8841930383869,0.362296411988537,2.37939963318409,1.53049185562367,-1.48405810316423,,,,-2.10755481977391,-1.40217171566667,0.566292154725364,-1.40217171566589,,,,-2.45052723478348,,-1.46984554982718,0.0903790687254464,0.791634054557662,0.0903790687253262,,-3.32574528765355,-3.98661750069298,,0.468862194368828,0.340101391682232,0.246501864874057,,0.827100943719703,0.801100862687927,,,0.139856004934201,0.531097518232564,0.418766602442818,-0.614324163341451,-0.0533567319843566,,,,,-0.469321918005654,0.714444608218818,,-1.00053783617388,-0.167311220294328,,,,-1.25148892904326,2.15039999999999,102,579.020588235294,568.88431372549,551.867647058824,572.825490196079,585.21568627451,557.049019607843,580.719607843137,600.666666666667,503.06862745098,0
459.0592,1.92363812601415,0.316951856897244,2.392114183912,1.56374444910343,-1.56078329651099,,,,-2.10960970928941,-1.42065282111371,0.609717277650652,-1.42065282111294,,,,-2.48420486959647,,-1.49933404919063,0.0681183349981784,0.794406843810456,0.0681183349980944,,-3.32273540746003,-3.97132871963516,,0.44732695295549,0.327334381484425,0.224004651709442,,0.848855407014544,0.787381222752647,,,0.12801618099426,0.505771962921726,0.394751503269921,-0.648158422563492,-0.0358830109707336,,,,,-0.497174397243008,0.71430094719505,,-0.99046982273121,-0.184174142499487,,,,-1.25147482665084,2.25279999999998,103,358.281553398058,340.784466019418,501.567961165049,357.097087378641,359.466019417476,337.314563106796,344.254368932039,541.097087378641,462.038834951456,0
459.1616,1.96177679704516,0.272206712588488,2.40377514932958,1.59521921173785,-1.6347127073205,,,,-2.10990812106538,-1.43738478151938,0.651361007073229,-1.43738478151862,,,,-2.5156475903295,,-1.52745883505536,0.0460431929474531,0.79667552333918,0.0460431929473964,,-3.3167821343439,-3.95492883584613,,0.426634288772856,0.315129094364562,0.199973235540017,,0.868208979639097,0.772954341122465,,,0.116207211651636,0.480753166795303,0.370939215091829,-0.680407849296318,-0.019076217393644,,,,,-0.525219835956513,0.714788510497703,,-0.978869196122527,-0.201164724166438,,,,-1.25046322937911,2.35520000000003,102,316.524019607843,316.007843137255,462.142156862745,315.096078431373,317.951960784314,313.11568627451,318.9,494.852941176471,429.43137254902,0
459.264,1.99852381607059,0.228037080570214,2.41426962915153,1.62488286680941,-1.7057867122848,,,,-2.1085035291968,-1.45232696749277,0.691137921823168,-1.452326967492,,,,-2.54483040003596,,-1.55418974158568,0.0241476055001068,0.798446213507553,0.0241476055000813,,-3.30792367834187,-3.93752636713545,,0.406771640645249,0.30352008832323,0.174495287180761,,0.885189490399896,0.757838243495461,,,0.104407000776062,0.456043571702161,0.347313870029238,-0.711051095242416,-0.0029354713731634,,,,,-0.553421259594324,0.715874288557486,,-0.965802959652087,-0.218278859995622,,,,-1.2485373544345,2.45760000000001,103,87.6504854368932,100.450485436893,420.781553398058,75.421359223301,99.8796116504855,102.107766990291,98.7932038834951,446.058252427185,395.504854368932,0
459.3664,2.03379770964989,0.184414280044197,2.42348561491656,1.65270499177397,-1.77395681835213,,,,-2.1054536922273,-1.46544565118378,0.728968880559714,-1.46544565118301,,,,-2.57173431132774,,-1.5795009401549,0.00242274672394562,0.79972529803735,0.00242274672395093,,-3.29620738003421,-3.91922639026492,,0.387723172999886,0.292541040966028,0.147663504928639,,0.899829350704418,0.742054733094913,,,0.0925925338557951,0.431645342007182,0.323858719957934,-0.74007529177799,0.0125434659189181,,,,,-0.581740016995399,0.717524854392014,,-0.951345080008882,-0.235509447361995,,,,-1.24578245800135,2.56,102,89.5004901960784,96.7093137254902,398.176470588235,80.5137254901961,98.4872549019608,101.727450980392,91.6911764705882,419.049019607843,377.303921568628,0
459.4688,2.06752110855337,0.141305211772054,2.43131263108501,1.67865819975349,-1.83918543468523,,,,-2.10082013797875,-1.47671409826789,0.764781267531547,-1.47671409826712,,,,-2.59634648017423,,-1.60337106968587,-0.0191427315488859,0.80051938288815,-0.0191427315488513,,-3.28168940001197,-3.90012986969309,,0.369470023326707,0.282224443969001,0.119575036908382,,0.912165317823919,0.725629085194853,,,0.0807400419564234,0.407560405956719,0.30055628889835,-0.767475605079166,0.0273681077341363,,,,,-0.610135861176376,0.719706660917347,,-0.935576019061296,-0.252846320423969,,,,-1.24228534042772,2.66239999999999,102,276.580882352941,85.8068627450981,388.122549019608,265.43431372549,287.727450980392,94.1754901960784,77.4382352941177,407.627450980392,368.617647058824,0
459.5712,2.09962109153749,0.0986727294440578,2.43764238312455,1.70271831446967,-1.90144561307793,,,,-2.09466766842905,-1.48611260598567,0.79850920244748,-1.4861126059849,,,,-2.61866029184014,,-1.62578333268857,-0.0405623785399021,0.800835244361438,-0.0405623785398378,,-3.26443434510238,-3.88033300364524,,0.351990563195829,0.272601308901988,0.090330896114311,,0.922238256121396,0.708589726991437,,,0.0688251823294236,0.383790502182354,0.277388541426193,-0.793254786007319,0.0415491493099258,,,,,-0.638567057074151,0.722386327611602,,-0.918582180510155,-0.270276220712313,,,,-1.23813386424918,2.76479999999998,103,1140.20097087379,97.9601941747573,384.888349514563,1161.98155339806,1118.42038834951,84.1893203883495,111.731067961165,413.174757281553,356.601941747573,0
459.6736,2.13002951718725,0.0564760158554281,2.44236939550459,1.72486453331945,-1.96072076100087,,,,-2.08706390032869,-1.4936284927809,0.830093716443526,-1.49362849278013,,,,-2.6386754101611,,-1.6467255663238,-0.061851590311383,0.800679761142243,-0.0618515903112912,,-3.24451484285527,-3.85992661187475,,0.335260669857175,0.263700888940344,0.0600353676553603,,0.930092902934221,0.690967900601046,,,0.0568232353449944,0.360337226973504,0.254337064304541,-0.817422728632312,0.0551003650960045,,,,,-0.666990517407725,0.725530910418061,,-0.900455277478099,-0.287782808841058,,,,-1.23341649060565,2.86720000000003,102,1140.24901960784,100.806862745098,390.794117647059,1161.66568627451,1118.83235294118,92.3754901960784,109.238235294118,429,352.588235294118,0
459.776,2.15868333110997,0.0146709640593677,2.44539162537386,1.74507957507872,-2.01700432584792,,,,-2.07807884667789,-1.49925604804706,0.859482898574827,-1.49925604804629,,,,-2.65639780507392,,-1.66619030007339,-0.0830272453842025,0.80005982965799,-0.0830272453840815,,-3.22201106992016,-3.83899558272495,,0.319254004716123,0.255550417202707,0.0287954004115591,,0.935777646122141,0.672797307157266,,,0.044709312717744,0.337202078645117,0.231383255260604,-0.839996044157563,0.0680384952793741,,,,,-0.695361962810394,0.729108148527528,,-0.881291639303034,-0.305346718973553,,,,-1.22822183704144,2.96960000000001,103,1438.63349514563,85.7422330097088,395.116504854369,1463.59029126214,1413.67669902913,71.278640776699,100.205825242718,435.320388349515,354.912621359223,0
459.8784,2.18552483996007,-0.0267894325770702,2.4466110450614,1.76334981155604,-2.07029944623739,,,,-2.06778453807767,-1.50299645021013,0.886632018199349,-1.50299645020936,,,,-2.67183976873021,,-1.6841748067634,-0.104107347489642,0.798982264110638,-0.104107347489498,,-3.19701024316666,-3.81761839102196,,0.303942292660311,0.248174860676393,-0.00328002184378968,,0.939344318403269,0.654113733276843,,,0.0324585694865424,0.314386495728287,0.208508511102341,-0.860997655146222,0.0803831224986125,,,,,-0.723636097978418,0.733086680686656,,-0.861191479357075,-0.322945653003815,,,,-1.22263826070378,3.072,102,1702.14068627451,82.8328431372549,403.397058823529,1733.36274509804,1670.91862745098,63.7794117647059,101.886274509804,450.774509803922,356.019607843137,0
459.9808,2.21050194844413,-0.0679546741117468,2.44593419417579,1.77966538475408,-2.12061856537658,,,,-2.05625468095338,-1.5048576572069,0.911503627308431,-1.50485765720612,,,,-2.68501992006078,,-1.70068114332356,-0.125110682836207,0.797453682812236,-0.125110682836045,,-3.16960608611199,-3.79586669301246,,0.289295596219106,0.241596688745255,-0.0360805260354895,,0.940848009074242,0.634954663609023,,,0.0200464118870414,0.291891887460326,0.185694408136055,-0.880456414980511,0.0921565399583294,,,,,-0.751766797484606,0.737436223797793,,-0.84025813853177,-0.340554509896145,,,,-1.216753467798,3.17439999999999,102,1697.8,88.1946078431373,422.083333333333,1728.40392156863,1667.19607843137,69.4901960784314,106.899019607843,471.843137254902,372.323529411765,0
460.0832,2.23356835887839,-0.108876325950261,2.44327270475194,1.79402031129542,-2.16798300331514,,,,-2.04356434923283,-1.50485426882716,0.934067644794396,-1.50485426882637,,,,-2.69596319115439,,-1.71571617210833,-0.146056491418693,0.795480382557059,-0.146056491418516,,-3.1398982796513,-3.77380499857441,,0.275282581997418,0.235835656857485,-0.0694950020300122,,0.940346889916011,0.61535888423715,,,0.00744869459035675,0.269719658758835,0.162922871050349,-0.898406755786515,0.103383611241306,,,,,-0.779707300139136,0.742127708967946,,-0.818597310466796,-0.358145547380192,,,,-1.21065414489711,3.27679999999998,103,1693.86747572816,90.1101941747573,441.567961165049,1724.57475728155,1663.16019417476,66.668932038835,113.55145631068,490.194174757282,392.941747572816,0
460.1856,2.254683733881,-0.149607570412039,2.43854379907987,1.80641257427843,-2.21242248863565,,,,-2.02978970417107,-1.50300735897503,0.954301422387732,-1.50300735897423,,,,-2.70470079058808,,-1.72929155679051,-0.166964150606754,0.793068203672008,-0.166964150606564,,-3.10799189996148,-3.75149041558897,,0.261870780063312,0.230908606556586,-0.103412251606434,,0.937902049136765,0.595366081929831,,,-0.00535809675026108,0.247871233778146,0.140176329477983,-0.914888363213221,0.114091621222689,,,,,-0.807410412972663,0.747133374534793,,-0.796316252576019,-0.37568857357787,,,,-1.20442560711407,3.37920000000003,102,1413.18137254902,164.688235294118,482.995098039216,1429.21764705882,1397.14509803922,149.954901960784,179.421568627451,532.14705882353,433.843137254902,0
460.288,2.27381382136225,-0.19020274606918,2.43167075357358,1.81684420111344,-2.25397465277658,,,,-2.01500773295293,-1.49934427713234,0.97218978857907,-1.49934427713154,,,,-2.71127014243856,,-1.74142373139778,-0.187852870741107,0.790222390898886,-0.187852870740904,,-3.07399684308761,-3.72897245805597,,0.249026837356968,0.226829282100122,-0.137721629486764,,0.933577324329658,0.575016443376296,,,-0.0183966796449733,0.226348080225264,0.117437861938525,-0.929945870298462,0.124310117787101,,,,,-0.834828725003614,0.752426820906612,,-0.773522990764771,-0.393151167036409,,,,-1.19815146072561,3.48160000000001,103,233.651941747573,541.484466019418,544.985436893204,227.270873786408,240.033009708738,541.394174757282,541.574757281553,580.349514563107,509.621359223301,0
460.3904,2.29093053912096,-0.23071688452459,2.42258331886831,1.82532132637346,-2.2926844920401,,,,-1.9992959922311,-1.49389841948002,0.987725063229102,-1.4938984194792,,,,-2.71571479871827,,-1.75213384051087,-0.208741401177818,0.786947458495656,-0.208741401177598,,-3.0380272335499,-3.70629290766485,,0.23671676478425,0.223608162764349,-0.17231368046038,,0.927439125292675,0.554350256485846,,,-0.0316888259980852,0.205151733836573,0.0946913265055963,-0.943628558115962,0.134070743912722,,,,,-0.861914830835094,0.75798303587383,,-0.750325528705485,-0.410498926698211,,,,-1.19191327715908,3.584,102,143.281862745098,556.285294117647,561.56862745098,138.26568627451,148.298039215686,553.238235294118,559.332352941177,579.049019607843,544.088235294118,0
460.4928,2.3060120167187,-0.271205251601618,2.41121808863293,1.83185424113998,-2.32860380491179,,,,-1.98273234023668,-1.48670897040409,1.00090703481892,-1.48670897040327,,,,-2.71808431903412,,-1.761447645181,-0.229647741931568,0.783247069152678,-0.229647741931341,,-3.00020081136171,-3.68348571718624,,0.224906176166431,0.221252309553185,-0.207080781000712,,0.919556240719235,0.533407514729924,,,-0.0452552282621099,0.184283821550357,0.0719214790370554,-0.955990049235806,0.143407057560171,,,,,-0.888621565004871,0.763778398597901,,-0.726831070675496,-0.427695751467815,,,,-1.18579027168546,3.68639999999999,102,96.5049019607843,549.166666666667,584.583333333333,88.9107843137255,104.099019607843,540.707843137255,557.625490196079,601.107843137255,568.058823529412,0
460.5952,2.31904259471223,-0.311722896105173,2.39751881497343,1.83645743177721,-2.36179061255728,,,,-1.96539464226309,-1.47782061545783,1.01174289462514,-1.47782061545701,,,,-2.71843410896321,,-1.7693953876876,-0.250588854895617,0.779123934714631,-0.250588854895381,,-2.96063829145373,-3.66057694431799,,0.213560516611625,0.219765224947659,-0.241917783585684,,0.909999624795459,0.512227528187258,,,-0.0591153758531691,0.163746082843816,0.0491140823066822,-0.967087979934536,0.152354333269196,,,,,-0.91490224834774,0.769790666905215,,-0.703145264782207,-0.444704139796924,,,,-1.17985897693145,3.78879999999998,103,110.498058252427,551.294174757282,563.228155339806,103.845631067961,117.150485436893,545.07572815534,557.512621359223,583.233009708738,543.223300970874,0
460.6976,2.33001278404732,-0.352324205913691,2.38143667375811,1.83914961035915,-2.39230856627814,,,,-1.94736043738736,-1.46728322774435,1.02024712416497,-1.46728322774351,,,,-2.71682520855798,,-1.77601160937667,-0.27158036900551,0.774579744185591,-0.271580369005269,,-2.91946269354848,-3.63758470544418,,0.202645278352367,0.219146725224341,-0.276722642102322,,0.898842159724236,0.49084855046822,,,-0.0732874349403234,0.143540389857795,0.0262560117897401,-0.976983637150286,0.160949336390825,,,,,-0.940710947074902,0.775998950062599,,-0.67937147552329,-0.461485492098587,,,,-1.17419290029647,3.89120000000003,102,119.762745098039,535.842156862745,539.004901960784,111.892156862745,127.633333333333,534.126470588235,537.557843137255,561.823529411765,516.186274509804,0
460.8,2.33891919139154,-0.393062468205944,2.36293048862217,1.83995373816642,-2.4202263416979,,,,-1.92870655728904,-1.45515153080115,1.02644133233098,-1.45515153080031,,,,-2.71332402326198,,-1.78133491831398,-0.292636272033691,0.769615120987177,-0.292636272033451,,-2.87679864390088,-3.6145191362251,,0.192126203595482,0.219392829059492,-0.311396983359724,,0.886158393763228,0.469307435196606,,,-0.0877881198402504,0.123668766913855,0.00333536766333901,-0.985741549637059,0.169230061535992,,,,,-0.966002742043924,0.782383669180398,,-0.655610098703003,-0.478000399684446,,,,-1.16886215998124,3.99360000000002,103,139.102427184466,544.62427184466,517.087378640777,133.012621359223,145.192233009709,540.965048543689,548.283495145631,542.26213592233,491.912621359223,0
460.9024,2.34576441811451,-0.433989429058459,2.34196692568628,1.83889704248838,-2.44561701943477,,,,-1.90950869537676,-1.44148474193007,1.03035403916411,-1.44148474192923,,,,-2.70800199305503,,-1.78540770859052,-0.313768581273333,0.76422960545055,-0.31376858127309,,-2.83277165155153,-3.59138234417529,,0.181969476761568,0.220495672822166,-0.345846590336753,,0.87202426159954,0.447639336941241,,,-0.102632539234601,0.104133410094073,-0.0196583934555189,-0.993429035013011,0.177235432884679,,,,,-0.990733999767329,0.788926507781827,,-0.631957933018281,-0.494208911377813,,,,-1.16393310680552,4.096,102,135.540196078431,540.477941176471,507.553921568628,129.782352941176,141.298039215686,535.285294117647,545.670588235294,533.509803921569,481.598039215686,0
461.0048,2.35055693797182,-0.475154849602745,2.31852066666297,1.83601102319831,-2.46855745503405,,,,-1.88984093835955,-1.42634620024761,1.03202040725062,-1.42634620024676,,,,-2.70093520344711,,-1.78827584070192,-0.334986993935373,0.758421653112577,-0.33498699393513,,-2.78750736777702,-3.56816834765729,,0.172141911605792,0.222443465827744,-0.379981775946016,,0.856516796230898,0.425877468351028,,,-0.117834003495963,0.0849367097438371,-0.0427342946371653,-1.00011572165551,0.185004972888498,,,,,-1.01486263290289,0.795610354310858,,-0.608507619190138,-0.510070778913354,,,,-1.15946794839644,4.19839999999999,102,127.820588235294,538.642647058824,495.210784313726,121.621568627451,134.019607843137,534.091176470588,543.194117647059,520.235294117647,470.186274509804,0
461.1072,2.35331095226843,-0.516606059640213,2.29257455834072,1.8313314422485,-2.48912764360136,,,,-1.86977528412971,-1.40980298450227,1.0314819281428,-1.40980298450141,,,,-2.69220395059495,,-1.78998829806187,-0.356298532389263,0.752188639259009,-0.356298532389018,,-2.74113084859447,-3.54486301387377,,0.162611138690252,0.225220494072716,-0.413717645803492,,0.839713837520913,0.404052918575474,,,-0.133403790946688,0.0660812806494368,-0.0658996381615825,-1.00587307443896,0.192578451917644,,,,,-1.03834833878647,0.80241923569609,,-0.585347152995325,-0.525545689305843,,,,-1.15552439120125,4.30079999999998,103,137.493689320388,541.553883495146,484.441747572816,133.491262135922,141.496116504854,534.041747572816,549.066019417476,509.058252427185,459.825242718447,0
461.2096,2.35404621825594,-0.558387510081302,2.2641197326983,1.82489829087209,-2.50741008325503,,,,-1.84938117167884,-1.39192552750705,1.02878607533511,-1.39192552750618,,,,-2.68189227647966,,-1.7905968338038,-0.377707206217755,0.745526863835868,-0.37770720621751,,-2.69376584612861,-3.52144402183644,,0.153345793492093,0.228807172742744,-0.446974263041489,,0.821693740384764,0.382194532063956,,,-0.149350882924474,0.0475700025494752,-0.0891597746134321,-1.01077395051331,0.199995531123432,,,,,-1.06115280788992,0.809338237699217,,-0.562559476908808,-0.540593491231132,,,,-1.15215530842442,4.40320000000003,102,147.192156862745,541.288725490196,471.421568627451,142.337254901961,152.047058823529,536.870588235294,545.706862745098,495.774509803922,447.06862745098,0
461.312,2.3527878499756,-0.600540323013205,2.23315569759871,1.81675573374539,-2.52348913717243,,,,-1.82872504511123,-1.37278723399908,1.02398593518958,-1.37278723399821,,,,-2.67008748546799,,-1.79015561359106,-0.399213707055241,0.738431554240764,-0.399213707054997,,-2.64553415143671,-3.49788087938231,,0.144315698283262,0.233180141236199,-0.479676731508134,,0.802535087712918,0.360328843381543,,,-0.165681685125461,0.0294060688781245,-0.112517856444765,-1.01489220057779,0.207295406342767,,,,,-1.08323989930247,0.816353406840883,,-0.540222151659484,-0.555174417795667,,,,-1.14940843600994,4.50560000000002,103,145.477184466019,535.771359223301,461.26213592233,142.088349514563,148.866019417476,526.361165048544,545.181553398058,484.067961165049,438.456310679612,0
461.4144,2.34956609539317,-0.643101836874318,2.19969040416867,1.80695203302957,-2.53745039299373,,,,-1.80786997187816,-1.35246410436568,1.01713982519833,-1.35246410436481,,,,-2.65687964309582,,-1.78872084847893,-0.420815140396487,0.730896866465433,-0.420815140396242,,-2.596555005854,-3.47413502110846,,0.135492027153201,0.238312391147839,-0.511755208788422,,0.782316415215688,0.338480061270109,,,-0.182399754086942,0.0115930370869093,-0.135974594640075,-1.01830231918554,0.21451645638083,,,,,-1.10457578614574,0.823451630203707,,-0.518407100486517,-0.569249309581853,,,,-1.1473260968723,4.608,102,154.544117647059,536.48431372549,451.083333333333,150.977450980392,158.110784313726,533.494117647059,539.474509803922,473.039215686275,429.127450980392,0
461.5168,2.34441609446139,-0.686105146325987,2.16374029638011,1.79553945725352,-2.54938002226028,,,,-1.78687533429449,-1.33103436160364,1.00831090637157,-1.33103436160276,,,,-2.64236105010278,,-1.78635040608435,-0.442504790152758,0.722915887534241,-0.44250479015252,,-2.54694459298946,-3.45016000915654,,0.126847445276129,0.244173418289018,-0.543144850823129,,0.761115955221169,0.316670094785336,,,-0.199505542329095,-0.00586512904020762,-0.15952803464532,-1.02107913881762,0.221695896559446,,,,,-1.12512907520063,0.830620490761939,,-0.497180414026407,-0.582779847008775,,,,-1.14594495481066,4.71039999999999,102,159.036274509804,547.144607843137,441.656862745098,153.771568627451,164.300980392157,542.573529411765,551.71568627451,463.372549019608,419.941176470588,0
461.6192,2.33737762168471,-0.729578643080962,2.12533034247875,1.78257417877528,-2.55936414674956,,,,-1.76579660825405,-1.30857807820796,0.997566792505306,-1.30857807820707,,,,-2.62662568673748,,-1.78310339420522,-0.464271910415938,0.714480641959679,-0.464271910415703,,-2.49681561602278,-3.42590184967713,,0.118356219310773,0.250729393758482,-0.573785682437593,,0.739011404980615,0.294918616214021,,,-0.216996168261949,-0.0229640335957879,-0.183173361299779,-1.02329755777252,0.228869438792923,,,,,-1.14487090157872,0.8378480987397,,-0.47660220845837,-0.595728800232891,,,,-1.14529580246713,4.81279999999998,103,183.529126213592,542.893689320388,434.805825242719,180.027184466019,187.031067961165,540.193203883495,545.594174757282,456.116504854369,413.495145631068,0
461.7216,2.32849481637134,-0.773545573488121,2.08449404077908,1.76811615919195,-2.56748822174335,,,,-1.74468523359061,-1.2851768030211,0.984979155011521,-1.2851768030202,,,,-2.60976863219238,,-1.77903972376693,-0.486101542875971,0.705582103037262,-0.486101542875739,,-2.44627695723843,-3.40129942741041,,0.109994301929909,0.257943352848734,-0.603622389633781,,0.716079722964303,0.273243156386003,,,-0.234865213126376,-0.0396988426788915,-0.206902736524607,-1.02503228897869,0.236070962114869,,,,,-1.16377499649616,0.845122906041685,,-0.456726538013983,-0.608060298694323,,,,-1.14540339090423,4.91520000000003,102,203.817647058824,537.360784313726,435.764705882353,201.782352941176,205.852941176471,536.709803921569,538.011764705882,458.362745098039,413.166666666667,0
461.824,2.31781590244597,-0.81802363392842,2.04127338718171,1.75222901875025,-2.57383644822113,,,,-1.7235885710765,-1.26091319185883,0.97062332016575,-1.26091319185792,,,,-2.59188547424059,,-1.77421966790315,-0.50797436423925,0.696210210048468,-0.507974364239025,,-2.39543341458345,-3.37628505503577,,0.101739395830585,0.265775400942444,-0.632604035831789,,0.692396954025578,0.251659227139874,,,-0.253102547415108,-0.056064297059736,-0.230705170874586,-1.0263576138903,0.243332199436033,,,,,-1.18181772586992,0.85243351640479,,-0.43760136970802,-0.619740116340594,,,,-1.14628630852038,5.01760000000002,103,206.58786407767,541.530097087379,437.296116504854,204.042718446602,209.133009708738,538.016504854369,545.043689320388,462.368932038835,412.223300970874,0
461.9264,2.30539289782601,-0.863024620919429,1.9957187925729,1.73497988629465,-2.57849122300711,,,,-1.70254993432182,-1.23587064722289,0.954577855883424,-1.23587064722197,,,,-2.57307172829205,,-1.76870343527821,-0.529866572913265,0.686353895377375,-0.529866572913043,,-2.3443855118453,-3.35078513302194,,0.0935710008524156,0.274182932680311,-0.660683710969589,,0.668038081364512,0.230180464454961,,,-0.271694191533641,-0.0720547404338685,-0.254566430962309,-1.02734712415263,0.250682444710572,,,,,-1.198978098545,0.859768503009577,,-0.419268628905616,-0.630735961442071,,,,-1.1479569105614,5.12000000000001,102,205.841176470588,540.558333333333,439.107843137255,203.217647058824,208.464705882353,534.173529411765,546.943137254902,465.098039215686,413.117647058824,0
462.0288,2.29128131483277,-0.908554142676066,1.94788894703717,1.7164392294574,-2.58153262892414,,,,-1.68160868036675,-1.21013297048009,0.936924147063451,-1.21013297047917,,,,-2.5534222803011,,-1.76255076836024,-0.551749824722853,0.676001128177689,-0.551749824722629,,-2.29322937834833,-3.3247209141681,,0.0854704446247221,0.283120857463665,-0.68781813180663,,0.643076900160329,0.20881878442451,,,-0.290622217583664,-0.0876641611418302,-0.278468986903258,-1.02807343577685,0.258148281254491,,,,,-1.2152377468579,0.867116239817421,,-0.401764314459873,-0.641017752866611,,,,-1.15042129082487,5.22239999999999,102,205.928921568627,544.474509803922,442.651960784314,204.032352941176,207.825490196078,542.899019607843,546.05,468.127450980392,417.176470588235,0
462.1312,2.27553985825348,-0.954611390385988,1.89785063956621,1.69668066804085,-2.58303796301003,,,,-1.66080034003469,-1.18378402587528,0.917745962009959,-1.18378402587435,,,,-2.53303085731935,,-1.75582056680162,-0.573591222163253,0.665138981302633,-0.573591222163032,,-2.24205668912962,-3.29800936184727,,0.0774208948537634,0.292541823769182,-0.713967220914758,,0.617585904728884,0.187584544070366,,,-0.309864698185045,-0.1028862460024,-0.302392003623691,-1.0286078654228,0.265753330557827,,,,,-1.23058088869189,0.87446474917927,,-0.385118666396355,-0.650557864087332,,,,-1.15367928306051,5.32479999999998,103,209.670873786408,544.081553398058,451.47572815534,207.98640776699,211.355339805825,544.126213592233,544.036893203884,477.116504854369,425.834951456311,0
462.2336,2.25823013129809,-1.00118896620397,1.84567854691991,1.67578077449642,-2.58308130302195,,,,-1.64015676793041,-1.15690741269315,0.897129014307549,-1.15690741269222,,,,-2.51198952137688,,-1.74857053092408,-0.595353355162718,0.653753726327487,-0.595353355162497,,-2.19095465147121,-3.27056408475276,,0.0694073525247534,0.302396437246454,-0.739093694185549,,0.591636179705159,0.166486700762672,,,-0.329395703986516,-0.117714443573827,-0.326311375758357,-1.02902006209109,0.273518022503935,,,,,-1.24499428446494,0.881801568896617,,-0.369356360249562,-0.659331321713329,,,,-1.15772448395132,5.42720000000003,102,243.291176470588,533.959803921569,457.813725490196,241.702941176471,244.879411764706,533.616666666667,534.302941176471,484.313725490196,431.313725490196,0
462.336,2.23941635761495,-1.04827277052678,1.7914549990533,1.65381886349337,-2.58173311777603,,,,-1.61970629270762,-1.12958614170194,0.875160521650518,-1.12958614170101,,,,-2.4903881824268,,-1.74085682422837,-0.616994388428158,0.641830959588293,-0.616994388427939,,-2.14000602227629,-3.24229632679309,,0.0614166300405023,0.312633471532657,-0.763162681163926,,0.565297287764304,0.145532966525313,,,-0.349185346551962,-0.132142031461352,-0.350199800411071,-1.02937758801602,0.281459390482134,,,,,-1.25846720061525,0.889113644395588,,-0.354496707366471,-0.667315951122298,,,,-1.16254429678902,5.52960000000002,103,286.615048543689,535.088834951456,459.655339805825,288.383495145631,284.846601941748,535.530097087379,534.647572815534,485.834951456311,433.47572815534,0
462.4384,2.21916512195325,-1.09584195691177,1.73526971816733,1.63087676907247,-2.57905993174178,,,,-1.59947385415198,-1.10190231423124,0.851928759352543,-1.1019023142303,,,,-2.4683141321089,,-1.73273376274485,-0.638468191153053,0.629355760209083,-0.638468191152836,,-2.08928914322682,-3.21311598966322,,0.0534373228209633,0.323200075567566,-0.786141392010064,,0.5386371502771,0.124729956650123,,,-0.369199860226057,-0.146162179726532,-0.37402687814596,-1.0297454459969,0.289590897995598,,,,,-1.27099138433189,0.896387252700552,,-0.340553853448137,-0.674492466151145,,,,-1.1681200001694,5.63200000000001,102,284.285784313726,530.800980392157,468.955882352941,285.977450980392,282.594117647059,530.842156862745,530.759803921569,495.509803921569,442.401960784314,0
462.5408,2.1975451283897,-1.14386896247532,1.67721952466967,1.6070386043985,-2.57512405500083,,,,-1.57948112633848,-1.07393680598433,0.827522608140048,-1.07393680598339,,,,-2.44585160731806,,-1.72425354680371,-0.659724508989419,0.6163128769659,-0.6597245089892,,-2.03887798756232,-3.18293266969996,,0.0454597837320412,0.334041985847364,-0.80799883529694,,0.511721920197831,0.104083335641345,,,-0.389401716617036,-0.15976800109783,-0.397759231814026,-1.0301855634492,0.297922306322207,,,,,-1.28256104575933,0.903607962327102,,-0.327536976672022,-0.680844502479631,,,,-1.17442684967302,5.73439999999999,102,315.532352941176,530.073529411765,472.063725490196,317.474509803922,313.590196078431,531.313725490196,528.833333333333,498.225490196078,445.901960784314,0
462.6432,2.17462697498555,-1.19231961344237,1.61740800899731,1.58239049805931,-2.56998338290685,,,,-1.55974663913899,-1.04576896208613,0.80203110275049,-1.0457689620852,,,,-2.42308139630396,,-1.71546605147417,-0.680709184810778,0.602686935267324,-0.680709184810554,,-1.98884222333346,-3.15165670055059,,0.0374761054424009,0.345103752035586,-0.828705587561961,,0.484615848199475,0.0835979645919193,,,-0.409749767770197,-0.172952581846718,-0.421360636568944,-1.0307562593315,0.306459591165247,,,,,-1.29317283737556,0.910760626815883,,-0.315450488889686,-0.686358594968352,,,,-1.18143422239463,5.83679999999998,103,360.908252427185,537.034466019417,479.854368932039,366.741747572816,355.074757281553,535.555339805825,538.51359223301,508.669902912621,451.038834951456,0
462.7456,2.15048294430854,-1.24115329391991,1.55594517702234,1.55702030480917,-2.56369126005072,,,,-1.54028591573442,-1.01747631139283,0.775542993650166,-1.0174763113919,,,,-2.40008049508781,,-1.70641868076721,-0.701364436623677,0.588462653685647,-0.701364436623448,,-1.93924730527369,-3.11920020254461,,0.0294801077677685,0.356328977717026,-0.848233616459201,,0.457381144845085,0.0632780510169803,,,-0.430199418120135,-0.18570899557674,-0.444792162449976,-1.03151172675077,0.315204909269995,,,,,-1.3028258212815,0.917829403186164,,-0.304294241256409,-0.691024103421361,,,,-1.18910581165162,5.93920000000003,102,371.220098039216,539.327450980392,487.985294117647,375.810784313726,366.629411764706,534.453921568628,544.200980392157,519.529411764706,456.441176470588,0
462.848,2.12518680728864,-1.2903231580849,1.49294708007035,1.53101729652986,-2.55629639949571,,,,-1.52111164174921,-0.989134303573755,0.748146334941112,-0.989134303572811,,,,-2.37692181015408,,-1.69715627185212,-0.721629193121526,0.573625063771057,-0.721629193121291,,-1.89015460491534,-3.08547814177592,,0.0214673201620253,0.36766057036303,-0.866556158824,,0.430077843056678,0.0431272983865732,,,-0.450702830703542,-0.198030310222235,-0.468012339818648,-1.03250156135877,0.32415661073095,,,,,-1.31152142380474,0.924797784654804,,-0.294063730332036,-0.694833103833413,,,,-1.19739987315416,6.04160000000002,103,380.828155339806,540.429611650485,480.140776699029,383.78640776699,377.869902912621,540.967961165049,539.891262135922,511.776699029126,448.504854368932,0
462.9504,2.09881363411191,-1.3397763668489,1.42853543572244,1.50447184498597,-2.54784285186259,,,,-1.50223387642514,-0.960816065851494,0.719928108117941,-0.960816065850542,,,,-2.35367389579391,,-1.68772102361068,-0.741439478265372,0.55815973241847,-0.741439478265129,,-1.84162158142249,-3.05040939858742,,0.013434947628193,0.379040991670578,-0.883647652112819,,0.402763665237,0.0231490513537538,,,-0.471209177272842,-0.209909601474742,-0.490977362891276,-1.03377036069992,0.333309293410717,,,,,-1.31926338443614,0.931648638815309,,-0.284750295265549,-0.697780272856024,,,,-1.20626951985169,6.14400000000001,102,385.617156862745,530.544117647059,469.112745098039,387.510784313726,383.723529411765,530.104901960784,530.983333333333,500.490196078431,437.735294117647,0
463.0528,2.07143960341607,-1.38945433848918,1.36283723691277,1.47747510638101,-2.5383700239274,,,,-1.48366030965374,-0.932592174835075,0.69097388716333,-0.932592174834118,,,,-2.33040071882139,,-1.67815243004946,-0.760728837120969,0.542052987313746,-0.760728837120715,,-1.79370198982171,-3.0139178414807,,0.00538181215648389,0.390412501569083,-0.899483713331941,,0.375493898363125,0.00334643315166655,,,-0.491664941509967,-0.221339982942504,-0.513641344568033,-1.03535741419528,0.342653898461747,,,,,-1.3260577064297,0.938364244475166,,-0.276341296632348,-0.699862787424312,,,,-1.21566306367643,6.24639999999999,102,326.487745098039,522.749019607843,457.779411764706,326.953921568627,326.021568627451,525.546078431373,519.951960784314,488.892156862745,426.666666666667,0
463.1552,2.04314180097925,-1.43929301213717,1.29598434016205,1.45011871125208,-2.52791274899761,,,,-1.46539656230511,-0.904530442516051,0.661367547653537,-0.904530442515088,,,,-2.30716145383811,,-1.66848721602175,-0.779428802761453,0.525292143949314,-0.779428802761193,,-1.74644611739158,-2.97593339945613,,-0.00269173043292257,0.401717393311993,-0.914041154113694,,0.348321279570742,-0.0162775277397885,,,-0.512014280506119,-0.232314656375192,-0.535956628541502,-1.03729649563238,0.352177846503818,,,,,-1.33191261165802,0.944926321885053,,-0.268820274501075,-0.701080245781409,,,,-1.22552440523262,6.34879999999998,103,324.356310679612,520.797572815534,444.597087378641,323.826213592233,324.88640776699,527.666990291262,513.928155339806,473.087378640777,416.106796116505,0
463.2576,2.01399800042656,-1.48922312788613,1.22811302187808,1.42249445917989,-2.5165014118786,,,,-1.44744652296115,-0.876695717894068,0.631191020768529,-0.8766957178931,,,,-2.28401031686839,,-1.65875928203035,-0.797469406469321,0.50786573221946,-0.797469406469057,,-1.69990103206705,-2.93639312265415,,-0.0107838929866945,0.41289821953357,-0.92729802034827,,0.321295894699816,-0.0357197848934026,,,-0.532199445749852,-0.242826979604829,-0.557874158288724,-1.03961576065771,0.361865213848333,,,,,-1.33683849801733,0.951316053463265,,-0.262167091217004,-0.701434608344633,,,,-1.23579347275322,6.45120000000003,102,325.453921568627,520.626470588235,436.504901960784,325.139215686275,325.76862745098,521.989215686275,519.263725490196,464.088235294118,408.921568627451,0
463.36,1.98408642108266,-1.53917052831476,1.15936349386539,1.39469401833176,-2.50416213137269,,,,-1.42981270996574,-0.849149704754226,0.600524091117587,-0.849149704753255,,,,-2.2609964408417,,-1.6489996609776,-0.814779728434466,0.489763723546728,-0.814779728434197,,-1.65411082646069,-2.89524221828911,,-0.0188915763734435,0.423898008144729,-0.939233653322058,,0.29446509139688,-0.0549771799585123,,,-0.552161261874097,-0.252870550486578,-0.579343900578161,-1.04233774324439,0.371696948485898,,,,,-1.34084789700908,0.95751409551753,,-0.256358065248043,-0.700930157271082,,,,-1.24640670970893,6.55360000000002,103,404.55,526.500970873786,432.946601941748,406.670873786408,402.429126213592,527.74854368932,525.253398058252,460.203883495146,405.68932038835,0
463.4624,1.95348546255028,-1.58905648593826,1.08987937440827,1.36680863155791,-2.49091700151687,,,,-1.41249664166459,-0.821950794777834,0.569444234461352,-0.82195079477686,,,,-2.23816378970556,,-1.63923648240591,-0.83128848021443,0.470977761981878,-0.831288480214153,,-1.60911685255053,-2.85243504627174,,-0.0270105100192585,0.434660464949613,-0.949828776082717,,0.267873405931965,-0.0740463722647793,,,-0.571839657062933,-0.262439309420583,-0.600315320222417,-1.04547943836867,0.381651124187516,,,,,-1.34395543094394,0.963500585396446,,-0.251366097372874,-0.699573473878505,,,,-1.25729760893642,6.65600000000001,102,407.242156862745,520.119607843137,434.602941176471,408.527450980392,405.956862745098,522.283333333333,517.955882352941,462.950980392157,406.254901960784,0
463.5648,1.92227342126464,-1.6387980588735,1.01980711924672,1.33892883127748,-2.4767843870899,,,,-1.39549919362757,-0.79515391479286,0.538026489122384,-0.795153914791887,,,,-2.21555110380374,,-1.62949493618422,-0.846924606091013,0.451501399898365,-0.846924606090727,,-1.56495795325913,-2.80793605618098,,-0.0351354196491986,0.445130160638609,-0.959065604547723,,0.241562501316013,-0.0929237935130885,,,-0.591174232659105,-0.271527663935989,-0.620737898355089,-1.04905245349867,0.391703226734695,,,,,-1.34617777049753,0.96925515191942,,-0.247160787481187,-0.697373435760211,,,,-1.26839729030981,6.7584,102,415.21568627451,534.233823529412,434.102941176471,417.367647058824,413.063725490196,537.124509803922,531.343137254902,462.774509803922,405.43137254902,0
463.6672,1.89052819858793,-1.68830847326504,0.949295424252507,1.311144164625,-2.46177926243574,,,,-1.37882092327894,-0.768810386755582,0.506343354747108,-0.768810386754612,,,,-2.19319186704345,,-1.61979722687906,-0.861617887099529,0.431330332911188,-0.861617887099234,,-1.52167069406262,-2.76172064500396,,-0.0432602225680113,0.45525270341573,-0.96692797446455,,0.21557111548201,-0.11160562484127,,,-0.610104854492817,-0.280130633943989,-0.640561679742789,-1.05306320946872,0.401826461710939,,,,,-1.34753359355022,0.974756937968013,,-0.243708543046808,-0.694341239880776,,,,-1.27963511604285,6.86079999999998,103,412.821359223301,522.006796116505,440.917475728155,413.023300970874,412.619417475728,523.895145631068,520.118446601942,470.611650485437,411.223300970874,0
463.7696,1.85832701048887,-1.73749752900009,0.87849461357048,1.28354292866922,-2.44591358025342,,,,-1.36246234706386,-0.742967798959009,0.474464713152461,-0.742967798958042,,,,-2.17111428582418,,-1.61016251115502,-0.875299530284162,0.410462626686407,-0.87529953028386,,-1.47928958596622,-2.71377591453182,,-0.0513782425811692,0.464974902025082,-0.973401473055207,,0.18993502107458,-0.130087791758038,,,-0.628572247968135,-0.288244009142906,-0.65973783011526,-1.05751317098757,0.411992071632684,,,,,-1.3480435459533,0.979984641741954,,-0.240972687213091,-0.690490453708918,,,,-1.29093933025975,6.96320000000003,102,411.323039215686,519.937745098039,454.274509803922,411.936274509804,410.709803921569,519.935294117647,519.940196078431,485.401960784314,423.147058823529,0
463.872,1.8257461065401,-1.78627202571837,0.807556024046221,1.25621191407203,-2.42919665874964,,,,-1.34642415820749,-0.717669887359014,0.442457766557306,-0.717669887358052,,,,-2.14934127131469,,-1.60060681361536,-0.887902728211552,0.388898931874979,-0.88790272821124,,-1.437847284954,-2.66410130857925,,-0.059482431449342,0.474244925130956,-0.97847356781048,,0.164687000477951,-0.148365972778958,,,-0.646518581217768,-0.29586450591457,-0.678219183862746,-1.06239908648923,0.422169651396116,,,,,-1.34773020366361,0.984916579421394,,-0.238913580993807,-0.685837084359902,,,,-1.30223770093053,7.06560000000002,103,483.884951456311,527.884466019417,465.320388349515,486.346601941748,481.423300970874,529.920388349515,525.848543689321,497.417475728155,433.223300970874,0
463.9744,1.79286050466435,-1.83453620764422,0.7366313942269,1.2292361557179,-2.41163557893187,,,,-1.33070737177014,-0.692956425808447,0.410386988373954,-0.692956425807483,,,,-2.1278904184379,,-1.59114291857288,-0.89936317737278,0.366642687611816,-0.899363177372459,,-1.39737475510953,-2.61270911134853,,-0.0675655847902434,0.483012461531821,-0.982133727693898,,0.139856838875672,-0.16643561822528,,,-0.663888021751231,-0.302989912821383,-0.695960764352763,-1.06771321520909,0.432327452892574,,,,,-1.34661803503597,0.989530770020416,,-0.237488772970532,-0.680399648620534,,,,-1.31345813957056,7.16800000000001,102,499.600490196078,531.927941176471,469.995098039216,500.785294117647,498.41568627451,535.912745098039,527.943137254902,504.666666666667,435.323529411765,0
464.0768,1.75974374945551,-1.88219222766762,0.665872266464422,1.20269869058854,-2.39323558727678,,,,-1.31531338056974,-0.668863122178468,0.378314081156741,-0.668863122177506,,,,-2.10677397330026,,-1.58178023302505,-0.909619543977118,0.343700315166082,-0.909619543976791,,-1.35790138482851,-2.55962478721294,,-0.0756205458294963,0.491228883450545,-0.984373531419294,,0.115471334488401,-0.184291975239838,,,-0.680627251716954,-0.309619218390609,-0.712920261545908,-1.07344351864704,0.442432671408069,,,,,-1.34473336320659,0.993805043384391,,-0.236653179411669,-0.674199229488044,,,,-1.32452927916293,7.2704,102,507.271568627451,530.992647058824,475.46568627451,509.162745098039,505.380392156863,538.445098039216,523.540196078431,512.274509803922,438.656862745098,0
464.1792,1.72646770349587,-1.92914063143216,0.595429412217303,1.17668032415589,-2.37400050109239,,,,-1.30024390945726,-0.64542151569538,0.346297935996698,-0.64542151569442,,,,-2.08599877880019,,-1.57252461489599,-0.91861386311284,0.320081400476519,-0.9186138631125,,-1.31945504443989,-2.50488714203538,,-0.0836403939782535,0.498847415335954,-0.985186756226965,,0.0915543223146853,-0.201930113041769,,,-0.696685928732275,-0.315752716381398,-0.729058453904023,-1.07957380187756,0.452451709823221,,,,,-1.3421043292433,0.99771717289419,,-0.236359287519458,-0.667259512194599,,,,-1.3353810005842,7.37279999999998,103,523.206310679612,535.977184466019,490.76213592233,527.407766990291,519.004854368932,546.291262135922,525.663106796117,528.844660194175,452.679611650485,0
464.2816,1.69310237865232,-1.97528085900076,0.52545229013091,1.1512594043229,-2.3539331149557,,,,-1.28550087197573,-0.622658873387128,0.314394590351665,-0.622658873386167,,,,-2.06556619585878,,-1.56337817091081,-0.926291863401885,0.295798859475496,-0.926291863401537,,-1.28206207802005,-2.44854829542101,,-0.0916186145457053,0.50582331243143,-0.984569441642033,,0.0681267078324893,-0.219344940851576,,,-0.712017086392331,-0.321392082969122,-0.744339566741082,-1.08608381240949,0.462350422392259,,,,,-1.33876085666659,1.0012450332316,,-0.236557371853359,-0.659606798032049,,,,-1.34594490886965,7.47520000000003,102,528.45,533.212745098039,529.132352941176,532.590196078431,524.309803921569,538.386274509804,528.039215686275,568.970588235294,489.294117647059,0
464.384,1.65971580646869,-2.02051175712246,0.456088540789884,1.12651159756838,-2.33303560808513,,,,-1.27108615357795,-0.600598091076421,0.282657187812429,-0.600598091075463,,,,-2.04547201622947,,-1.55433904820188,-0.932603228749339,0.270869077660303,-0.932603228748982,,-1.24574723690612,-2.39067347332427,,-0.0995492458300495,0.512114051796796,-0.982519926301401,,0.0452065089676087,-0.236531213023929,,,-0.726577478566258,-0.326540422956514,-0.758731568548055,-1.09294932907167,0.472094344796276,,,,,-1.33473461797697,1.00436677883272,,-0.237195718333035,-0.651269995650366,,,,-1.35615476911999,7.57760000000002,103,532.945631067961,532.104368932039,557.839805825243,535.021359223301,530.869902912621,532.988349514563,531.220388349515,600.339805825243,515.339805825243,0
464.4864,1.62637393853994,-2.06473209236375,0.387483514685895,1.10250965976754,-2.31130995188184,,,,-1.25700135368355,-0.579257611638972,0.251135948312572,-0.579257611638017,,,,-2.02570639618087,,-1.5454012547904,-0.93750182525295,0.245312016490399,-0.937501825252585,,-1.21053357455231,-2.33134064713437,,-0.107427003420035,0.51767953280494,-0.979038859528086,,0.0228089075817293,-0.253483521214837,,,-0.740327877650058,-0.331202287978978,-0.772206414977521,-1.10014228195628,0.481648917601949,,,,,-1.3300590020331,1.007061033208,,-0.23822085872928,-0.642280590750899,,,,-1.3659469146129,7.68000000000001,102,545.605392156863,536.452450980392,552.401960784314,547.757843137255,543.452941176471,540.037254901961,532.867647058824,594.352941176471,510.450980392157,0
464.5888,1.59314056594229,-2.10784105499133,0.319779828163579,1.07932319629041,-2.28875831183915,,,,-1.2432475117298,-0.558651373535407,0.219878156791102,-0.558651373534455,,,,-2.00625383580811,,-1.53655453483984,-0.94094591890533,0.219151281691829,-0.940945918904953,,-1.17644232043041,-2.27064004675948,,-0.115247385878906,0.522482279130503,-0.974129192696104,,0.000946314292711227,-0.270196278382584,,,-0.75323333770562,-0.335383673468225,-0.784740252980004,-1.10763093444516,0.490979706707951,,,,,-1.32476907928715,1.0093070770359,,-0.239577822385951,-0.632672598296367,,,,-1.3752606351878,7.7824,102,555.057352941176,534.276960784314,530.151960784314,559.164705882353,550.95,538.393137254902,530.160784313726,569.147058823529,491.156862745098,0
464.6912,1.56007725069892,-2.1497387459391,0.253116944799492,1.05701841029977,-2.26538343380756,,,,-1.22982483079688,-0.538788795806942,0.188928175662151,-0.538788795805999,,,,-1.98709321399397,,-1.52778430550534,-0.942898396222927,0.192414150894628,-0.942898396222545,,-1.14349274177926,-2.20867356724781,,-0.123006767930272,0.526487632881444,-0.967796159433024,,-0.0203715506829244,-0.286663701289948,,,-0.765263432319012,-0.339092001415628,-0.796313596887536,-1.11538014316849,0.500052620042816,,,,,-1.31890156382283,1.01108502297381,,-0.241210404759137,-0.622482503485,,,,-1.38403854463409,7.88479999999998,103,558.578155339806,531.940291262136,503.631067961165,560.835922330097,556.320388349515,538.716504854369,525.164077669903,540.038834951456,467.223300970874,0
464.7936,1.52724326542568,-2.19032664480239,0.187630779306245,1.03565784186184,-2.24118900737131,,,,-1.21673240523235,-0.51967479807593,0.158327484494711,-0.519674798074991,,,,-1.96819787793707,,-1.51907164985848,-0.943326989791754,0.165131559480996,-0.94332698979136,,-1.11170199775645,-2.1455540821855,,-0.1307024867799,0.529663933404897,-0.960047253716657,,-0.0411375618838131,-0.302879796501073,,,-0.77639247404451,-0.342336094797752,-0.806911485231893,-1.12335170021149,0.508834116760439,,,,,-1.31249477328609,1.01237596624613,,-0.243061443557123,-0.61174919692136,,,,-1.39222691987445,7.98720000000003,102,559.734803921569,526.422058823529,489.740196078431,561.943137254902,557.526470588235,530.292156862745,522.551960784314,526.058823529412,453.421568627451,0
464.896,1.49469553685213,-2.22950806376399,0.123453315668644,1.01530010173047,-2.21618000659199,,,,-1.20396795629193,-0.501309849811829,0.128114747453967,-0.501309849810899,,,,-1.94953578335671,,-1.51039335893974,-0.942204506471892,0.137338044626336,-0.942204506471488,,-1.08108499040223,-2.08140467536844,,-0.138332924331392,0.531982676761007,-0.950892209087802,,-0.0613470817375088,-0.318838352206356,,,-0.786599717691086,-0.345126147364653,-0.81652362221879,-1.13150475323835,0.517291404704409,,,,,-1.30558858666546,1.01316210409589,,-0.245073093132062,-0.600513906241556,,,,-1.39977600673754,8.08960000000002,103,621.042718446602,533.150485436893,483.684466019418,624.8,617.285436893204,535.083495145631,531.217475728155,518.660194174757,448.708737864078,0
464.9984,1.46248858716179,-2.26718859805962,0.0607122252450629,0.995999602036105,-2.19036301425441,,,,-1.19152757987167,-0.483690042721279,0.098325905278108,-0.483690042720356,,,,-1.93106968582477,,-1.50172202160512,-0.93950905583446,0.109071649571208,-0.939509055834054,,-1.05165421502633,-2.01635780335799,,-0.145897583389797,0.53341865465394,-0.940342976445611,,-0.0809978454894316,-0.334532936561471,,,-0.795869546744493,-0.347473688987476,-0.825144503419303,-1.13979629148818,0.525392624880794,,,,,-1.29822439755084,1.01342682435529,,-0.24718709543283,-0.588820121355524,,,,-1.40664029178825,8.19200000000001,102,622.276470588235,524.574019607843,492.044117647059,623.76862745098,620.78431372549,522.570588235294,526.577450980392,528.509803921569,455.578431372549,0
465.1008,1.430674467618,-2.30327658604086,-0.000469530559965208,0.977806283969845,-2.16374653700302,,,,-1.17940550998947,-0.466807182840241,0.0689942861000394,-0.466807182839327,,,,-1.91275738976898,,-1.49302616742181,-0.935224278092917,0.080373792857412,-0.935224278092502,,-1.02341961051357,-1.95055440226864,,-0.153397154341995,0.533950072109722,-0.928413697208486,,-0.100089838467897,-0.34995690205287,,,-0.804191640705638,-0.349391544714358,-0.832773522863956,-1.14818167793276,0.533107025558513,,,,,-1.29044505775344,1.01315476979759,,-0.24934505499172,-0.576713505702116,,,,-1.41277874167198,8.2944,102,628.789705882353,531.379411764706,486.720588235294,629.882352941177,627.69705882353,534.03137254902,528.727450980392,522.470588235294,450.970588235294,0
465.2032,1.39930268396995,-2.33768358949028,-0.0599741210903259,0.960765343177773,-2.13634131611452,,,,-1.16759389791887,-0.450648901046538,0.0401507290394918,-0.450648901045633,,,,-1.89455206019797,,-1.48427046663763,-0.929339569120523,0.0512891094982916,-0.929339569120106,,-0.996388410961985,-1.88414294876128,,-0.16083357311349,0.533558641512956,-0.915120673962604,,-0.118625163764195,-0.365103395263748,,,-0.811561118738045,-0.350893788313946,-0.839415058388135,-1.1566152006214,0.540405128614337,,,,,-1.28229480536008,1.01233188683399,,-0.251488725899065,-0.564241785600661,,,,-1.41815501029158,8.39679999999999,103,670.37718446602,526.741747572816,484.781553398058,672.834951456311,667.919417475728,521.855339805825,531.628155339806,520.932038834951,448.631067961165,0
465.3056,1.36842011960362,-2.37032489714113,-0.117689286040549,0.944916957858974,-2.10816063406161,,,,-1.15608260138717,-0.435198779021208,0.0118237148084622,-0.435198779020313,,,,-1.87640259085804,,-1.47541597984754,-0.921850293287219,0.0218652722675749,-0.921850293286794,,-0.970565000618788,-1.81727847835453,,-0.168210075839151,0.532229648873093,-0.900482344838744,,-0.136607899374369,-0.379965372605104,,,-0.817978653160506,-0.351995695041094,-0.845078532928512,-1.16505061302027,0.547258885919578,,,,,-1.27381917590199,1.01094546546857,,-0.253560307658723,-0.551454614400379,,,,-1.42273761045983,8.49920000000003,102,700.45931372549,535.699509803922,478.382352941177,703.65,697.26862745098,540.441176470588,530.957843137255,515.519607843137,441.245098039216,0
465.408,1.33807096317668,-2.40112004476539,-0.17350878161254,0.930296030284189,-2.07922061135131,,,,-1.14485897534081,-0.420436485296138,-0.0159605039940241,-0.420436485295251,,,,-1.85825401203916,,-1.46642043946854,-0.912757968870639,-0.00784719881063778,-0.91275796887021,,-0.945950770994358,-1.75012155920598,,-0.1755312549354,0.529951988728773,-0.884519259436361,,-0.154043949349753,-0.394535622415583,,,-0.82345054689459,-0.352713697804296,-0.849778449595647,-1.1734416363685,0.553641818550403,,,,,-1.26506489985898,1.00898417608304,,-0.2555027391155,-0.538403413051855,,,,-1.42650004355679,8.60160000000002,103,703.806796116505,526.024757281553,487.723300970874,707.079611650485,700.533980582524,524.264077669903,527.785436893204,526.660194174757,448.78640776699,0
465.5104,1.30829664167066,-2.4299933391092,-0.2273328232579,0.916931956526972,-2.0495404821541,,,,-1.13390765689198,-0.406337917696549,-0.0431777837373098,-0.406337917695672,,,,-1.84004792218427,,-1.45723854717662,-0.90207041159582,-0.0377951320402521,-0.902070411595382,,-0.922543975915876,-1.6828372195514,,-0.182803116886224,0.526718166904958,-0.867254039078315,,-0.170940898810958,-0.408806790901433,,,-0.827988769823011,-0.353065347215479,-0.853534396855815,-1.18174240296373,0.559529131149246,,,,,-1.25607978671046,1.00643810924597,,-0.257259987616292,-0.525141188937298,,,,-1.4294208818962,8.70400000000001,102,714.375490196079,523.845588235294,496.073529411765,717.448039215686,711.302941176471,520.71862745098,526.972549019608,535.254901960784,456.892156862745,0
465.6128,1.27913575524804,-2.45687437035542,-0.279068518342995,0.904848440226913,-2.0191428333606,,,,-1.12321034168173,-0.392875352574569,-0.0698059937310893,-0.392875352573702,,,,-1.82172293605876,,-1.44782228279041,-0.889801826438642,-0.0679229002070997,-0.8898018264382,,-0.900339580987257,-1.6155938296003,,-0.190033138442179,0.522524273604589,-0.848711301292451,,-0.187307881377461,-0.422771406162232,,,-0.83161094857261,-0.353069273676552,-0.856371018454074,-1.18990782470897,0.564897797279309,,,,,-1.24691258950937,1.00329882506082,,-0.258777344810739,-0.511722329685555,,,,-1.43148380110786,8.8064,102,729.289705882353,532.489215686275,503.362745098039,732.460784313726,726.11862745098,530.908823529412,534.069607843137,542.627450980392,464.098039215686,0
465.7152,1.25062401235124,-2.48169849566626,-0.328630278271456,0.894063363483369,-1.98805379181192,,,,-1.11274555767205,-0.380017602887603,-0.0958249510094971,-0.380017602886743,,,,-1.80321514787774,,-1.43812122825741,-0.875972840929117,-0.0981726160858171,-0.87597284092867,,-0.879329108238036,-1.54856194246982,,-0.197230316533819,0.517369931478584,-0.828917540108075,,-0.203155460217041,-0.436421894504408,,,-0.834340306029038,-0.352745148223703,-0.858317943279184,-1.197893880468,0.569726616062377,,,,,-1.23761284366399,0.999559416288182,,-0.26000174186918,-0.498202364246704,,,,-1.43267756097469,8.90879999999999,103,739.749514563107,536.414563106796,510.771844660194,743.78932038835,735.709708737864,533.623300970874,539.205825242719,550.456310679612,471.087378640777,0
465.8176,1.22279416783727,-2.50440727532407,-0.375940193958685,0.884588721462758,-1.95630314764869,,,,-1.10248845425662,-0.367730186645527,-0.121216386481413,-0.367730186644674,,,,-1.78445860965242,,-1.42808291203588,-0.860610478112205,-0.128484331115242,-0.860610478111748,,-0.859500484054202,-1.48191310662335,,-0.204405206871306,0.511258224135105,-0.807900963598353,,-0.218495518426279,-0.449750586193769,,,-0.836205551921904,-0.352113636414014,-0.859409672889019,-1.20565783140295,0.573996244583346,,,,,-1.22823067809322,0.995214585890355,,-0.26088208203517,-0.484637686382201,,,,-1.43299593670392,9.01120000000003,102,755.048529411765,530.932352941177,511.210784313726,758.929411764706,751.167647058824,524.582352941177,537.282352941177,551.088235294118,471.333333333333,0
465.92,1.19567596721706,-2.52494884410525,-0.420928359025526,0.876430620153779,-1.92392440390491,,,,-1.09241063289989,-0.355975508102938,-0.145963937773205,-0.355975508102093,,,,-1.76538582835379,,-1.4176531800024,-0.843748077423479,-0.158796246493355,-0.843748077423014,,-0.84083790504537,-1.41581867267668,,-0.211569946249756,0.504195610596295,-0.785691287353179,,-0.233341154844298,-0.462749709448414,,,-0.837240728465068,-0.351196338166131,-0.85968542568603,-1.21315838655096,0.57768921272806,,,,,-1.21881659841881,0.990260736810241,,-0.261369575912002,-0.47108524417076,,,,-1.43243760829263,9.11360000000002,103,764.048058252427,533.830582524272,522.398058252427,767.519417475728,760.576699029126,528.919417475728,538.741747572816,563.52427184466,481.271844660194,0
466.0224,1.16929609663042,-2.54327820522789,-0.463533132254419,0.869589332226413,-1.89095474321645,,,,-1.08248004380199,-0.344713055961655,-0.170053162796159,-0.344713055960821,,,,-1.74592828883474,,-1.40677660002356,-0.825425180146282,-0.189044946888695,-0.825425180145816,,-0.823321736379207,-1.35044862256702,,-0.21873825453582,0.496191829814821,-0.762319478606341,,-0.24770658407771,-0.475411371556311,,,-0.837485014790518,-0.350015709360099,-0.8591889382248,-1.22035584210379,0.58078992685823,,,,,-1.20942124104577,0.984696069425451,,-0.261418066550578,-0.45760220579993,,,,-1.43100601725969,9.21600000000001,102,775.356862745098,536.95,526.240196078431,777.561764705882,773.151960784314,528.254901960784,545.645098039216,568.774509803922,483.705882352941,0
466.1248,1.14367813404325,-2.55935744488739,-0.503701343007612,0.864059404050024,-1.85743490981516,,,,-1.0726609643754,-0.333899622770858,-0.193471568729096,-0.333899622770031,,,,-1.72601700969241,,-1.39539690660572,-0.805687397534396,-0.219165660641369,-0.805687397533926,,-0.806928455388583,-1.28597044796942,,-0.225925413105651,0.487259796074871,-0.737817457504494,,-0.261607041081827,-0.487727529820246,,,-0.836982496998557,-0.348594967023278,-0.857968230054503,-1.22721221116828,0.583284669521451,,,,,-1.20009509979572,0.978520679601502,,-0.260984336160184,-0.44424561282268,,,,-1.42870919712689,9.3184,102,781.260294117647,532.335784313726,527.387254901961,781.816666666667,780.703921568628,525.528431372549,539.143137254902,571.705882352941,483.06862745098,0
466.2272,1.11884249312372,-2.57315587678847,-0.541388455838965,0.859829807258674,-1.82340901903343,,,,-1.06291406776776,-0.323489547272206,-0.216208651595484,-0.323489547271387,,,,-1.70558313710171,,-1.38345749000968,-0.784586276808278,-0.249092541591606,-0.784586276807808,,-0.791630657446168,-1.22254810247973,,-0.233148216435399,0.477415483528667,-0.712217781071213,,-0.275058690653245,-0.49968996121538,,,-0.835781915490247,-0.346957984320537,-0.856075344846511,-1.23369135517349,0.585161603551017,,,,,-1.19088823116574,0.971736648676887,,-0.260028385970861,-0.431072028313448,,,,-1.42555958023606,9.42079999999999,103,786.210194174757,528.125242718447,527.970873786408,786.573786407767,785.846601941748,518.831067961165,537.419417475728,572.932038834951,483.009708737864,0
466.3296,1.09480635021147,-2.58465012791177,-0.576558712989647,0.856884130731993,-1.78892431294825,,,,-1.05319658500407,-0.313434978560448,-0.238255942160701,-0.313434978559637,,,,-1.68455857603808,,-1.37090192864256,-0.762179173575478,-0.278758964100915,-0.76217917357501,,-0.777397141482804,-1.16034104666093,,-0.240424895244359,0.466677798465593,-0.685553338922585,,-0.288078540334933,-0.511290239910108,,,-0.833936399999476,-0.345129181724731,-0.853566079672291,-1.2397591252245,0.586410785089634,,,,,-1.18184994514437,0.964348117680141,,-0.2585136820634,-0.4181371830806,,,,-1.42157378052076,9.52320000000003,102,979.724509803922,497.68137254902,517.019607843137,979.659803921569,979.789215686274,490.602941176471,504.759803921569,560.127450980392,473.911764705882,0
466.432,1.07158355038753,-2.59382416843973,-0.609185261320962,0.855200810939179,-1.75403087446961,,,,-1.04346255863034,-0.303686159376717,-0.259607054243375,-0.303686159375911,,,,-1.66287665019665,,-1.35767455446284,-0.738529128817269,-0.308097825756189,-0.738529128816799,,-0.76419307838864,-1.09950339360009,,-0.247775013102114,0.45506843964731,-0.657857078261766,,-0.300684350973891,-0.522519726395327,,,-0.831503195737235,-0.343133418135134,-0.850499707296313,-1.24538351854766,0.587024182828074,,,,,-1.17302848784123,0.956361341629589,,-0.256407365148571,-0.405495622068671,,,,-1.41677235235148,9.62560000000002,103,1154.38932038835,482.445145631068,457.432038834951,1159.10776699029,1149.67087378641,470.933980582524,493.956310679612,502.825242718447,412.038834951456,0
466.5344,1.04918449842933,-2.60066928038681,-0.639250253336111,0.854753397712073,-1.71878130469717,,,,-1.03366317829788,-0.294191725890194,-0.280257730472799,-0.294191725889394,,,,-1.64047277775423,,-1.34372103564749,-0.713704740642655,-0.33704185662063,-0.713704740642183,,-0.751980246364551,-1.04018315109204,,-0.25521933962698,0.442611747891274,-0.629161767767242,,-0.312894533956371,-0.533369569322174,,,-0.828543378720815,-0.340995882751788,-0.846938690446547,-1.25053485066614,0.586995697234991,,,,,-1.16447072411932,0.94778472372873,,-0.253680424942653,-0.393200355749018,,,,-1.41117953087701,9.72800000000001,102,1077.40441176471,480.063725490196,423.264705882353,1078.97647058824,1075.83235294118,474.66568627451,485.461764705882,471.578431372549,374.950980392157,0
466.6368,1.02761604780577,-2.6051839594586,-0.666744903613503,0.855510849731651,-1.68323036769604,,,,-1.02374718285443,-0.284899021199783,-0.300205878861137,-0.284899021198989,,,,-1.61728515166627,,-1.32898896195564,-0.687780020499128,-0.365523934861605,-0.687780020498655,,-0.740717309179531,-0.982521551911924,,-0.26277970219299,0.429334545522834,-0.599499809830139,,-0.324728022949377,-0.543830723409824,,,-0.825121558562451,-0.338741986645897,-0.842948386094947,-1.25518593969555,0.586321175421011,,,,,-1.1562218321935,0.938628831026525,,-0.250307835879816,-0.381302526112691,,,,-1.40482296459146,9.8304,102,816.792156862745,524.316666666667,407.475490196078,819.425490196078,814.158823529412,524.219607843137,524.413725490196,453.137254901961,361.813725490196,0
466.7392,1.00688140160995,-2.60737375215116,-0.691669486384263,0.857437852820118,-1.64743461067086,,,,-1.01366131158055,-0.275754418218167,-0.319451594067213,-0.275754418217379,,,,-1.59325541519214,,-1.3134284212044,-0.660834227580688,-0.393477406186583,-0.66083422758021,,-0.730360118282919,-0.926652464816355,,-0.270478818281531,0.415265965116462,-0.568903107452546,,-0.336204114792155,-0.553893988514594,,,-0.821305570087004,-0.33639725332836,-0.838596740413259,-1.25931229683745,0.584998420575583,,,,,-1.14832502366821,0.928906392150023,,-0.246268644014101,-0.369851100620525,,,,-1.39773345009565,9.93279999999999,103,805.01213592233,526.822815533981,407.446601941748,805.922330097087,804.101941747573,528.44854368932,525.197087378641,450.932038834952,363.961165048544,0
466.8416,0.98698003399053,-2.60725103717615,-0.71403327096468,0.860495156379067,-1.61145197055791,,,,-1.00335078924803,-0.266703646487721,-0.337997161064466,-0.266703646486939,,,,-1.56832932237192,,-1.29699255617199,-0.632951677290098,-0.420836403190064,-0.632951677289619,,-0.720862026730954,-0.872701879886753,,-0.278340112476116,0.400437266846101,-0.537402981987995,,-0.347342284879053,-0.563550072067509,,,-0.817166155385518,-0.333987210279267,-0.833953976804615,-1.26289231665838,0.583027196249952,,,,,-1.14082129707012,0.91863227640772,,-0.241545995923166,-0.358892603870478,,,,-1.38994467238654,10.0352,102,331.931862745098,529.51568627451,415.196078431373,326.68137254902,337.182352941176,523.96568627451,535.06568627451,456.294117647059,374.098039215686,0
466.944,0.96790763364495,-2.60483476124647,-0.733854400313296,0.864639926648419,-1.5753413772609,,,,-0.992759833476788,-0.257692119070042,-0.355847043227368,-0.25769211906927,,,,-1.54245737058914,,-1.27963809071971,-0.60422151705526,-0.447536162165693,-0.604221517054774,,-0.712174204962138,-0.820787459032508,,-0.286387522673616,0.384881645586974,-0.505030128300988,,-0.358161988296895,-0.572789671137237,,,-0.812776633226835,-0.331537285999697,-0.829092277259253,-1.26590746017348,0.580409224167206,,,,,-1.13374922023851,0.907823454228632,,-0.23612711510453,-0.348470882751084,,,,-1.38149294757354,10.1376,103,338.296116504854,532.888349514563,426.009708737864,334.868932038835,341.723300970874,523.155339805825,542.621359223301,460.04854368932,391.970873786408,0
467.0464,0.949656066658132,-2.60015013652173,-0.751159720893137,0.869826115932266,-1.53916236169054,,,,-0.98183217471477,-0.248665258606834,-0.373007857621503,-0.248665258606069,,,,-1.51559539114191,,-1.26132581389779,-0.574737459720026,-0.473513334650034,-0.574737459719536,,-0.704245950471541,-0.771018138528491,,-0.294645298868493,0.368634030522731,-0.471814591421343,,-0.368682457441033,-0.581603566590177,,,-0.808212548875914,-0.329072716972816,-0.824085454150194,-1.26834242194585,0.577148171874219,,,,,-1.12714472650126,0.896498940962458,,-0.230003247656437,-0.338626885518491,,,,-1.37241696351475,10.24,102,364.790196078431,539.001470588235,447.578431372549,360.678431372549,368.901960784314,537.030392156863,540.972549019608,481.549019607843,413.607843137255,0
467.1488,0.932213356279675,-2.59322830504892,-0.765984570293491,0.876004843933913,-1.50297467553629,,,,-0.970511577117153,-0.239568822903497,-0.389488337959092,-0.239568822902737,,,,-1.4877050851035,,-1.24202101188742,-0.544597466098294,-0.498706287178815,-0.544597466097799,,-0.697024989336498,-0.7234937696971,,-0.303137796952587,0.351730878989964,-0.437785752669523,,-0.378922505079425,-0.589982722897431,,,-0.803551299909039,-0.326618466293218,-0.81900861004251,-1.27018527090922,0.573249626912716,,,,,-1.12104091254704,0.884679727335599,,-0.22316959988921,-0.329398434535727,,,,-1.36275751587179,10.3424,102,385.947058823529,538.855392156863,479.735294117647,382.880392156863,389.013725490196,533.58137254902,544.129411764706,516.588235294118,442.882352941176,0
467.2512,0.915563682097142,-2.58410597471953,-0.778372523008148,0.883124783754121,-1.46683792592342,,,,-0.958742344071136,-0.230349229031863,-0.405299284056082,-0.230349229031109,,,,-1.45875449366897,,-1.22169383878666,-0.513903372641739,-0.523055380242295,-0.513903372641244,,-0.690457771721291,-0.678304785434543,,-0.311889270496529,0.334209963490118,-0.402972320550392,,-0.388900341805109,-0.597918390306573,,,-0.798871739564882,-0.324199153675829,-0.813937786552476,-1.27142755503935,0.568721057539736,,,,,-1.11546783984004,0.872388698774117,,-0.215625275772094,-0.320819989218424,,,,-1.35255723794409,10.4448,103,553.108737864078,533.153398058253,519.781553398058,545.331067961165,560.88640776699,529.361165048544,536.945631067961,558.126213592233,481.436893203884,0
467.3536,0.899687407096595,-2.57282503055891,-0.788375087465847,0.891132544102021,-1.43081122312247,,,,-0.946469788407045,-0.220953872585408,-0.420453497214476,-0.220953872584665,,,,-1.42871839192409,,-1.20031961757536,-0.482760462348242,-0.546503218698791,-0.482760462347746,,-0.684489760537129,-0.635531880258116,,-0.320923663498813,0.316110149095111,-0.367402328806246,,-0.398633416968745,-0.60540220825415,,,-0.794253762066395,-0.321838996246644,-0.808949605378684,-1.27206436113022,0.563571763411028,,,,,-1.1104523527873,0.859650543384556,,-0.207373206267921,-0.312922411011873,,,,-1.34186032165009,10.5472,102,1165.44068627451,490.382843137255,557.558823529412,1173.50392156863,1157.37745098039,481.463725490196,499.301960784314,603.196078431373,511.921568627451,0
467.456,0.884561142837451,-2.55943212382008,-0.79605134450916,0.899973041933434,-1.39495283975475,,,,-0.933640647778259,-0.211331438589922,-0.434965702647602,-0.211331438589188,,,,-1.3975785954717,,-1.17787906557949,-0.451276977000598,-0.568994868876716,-0.451276977000095,,-0.679065706586507,-0.595245690429301,,-0.330264404056126,0.297471159717353,-0.331103146500848,,-0.408138289475185,-0.612426309449499,,,-0.789777871158531,-0.319561759115401,-0.804120901896961,-1.27209432031021,0.557812819947716,,,,,-1.10601792682356,0.846491648010242,,-0.198420059848392,-0.305732738248817,,,,-1.33071222691031,10.6496,103,1168.12718446602,499.48932038835,584.71359223301,1172.05631067961,1164.19805825243,489.492233009709,509.48640776699,642.640776699029,526.78640776699,0
467.5584,0.870157859153626,-2.54397823959438,-0.801467520587914,0.909589863181802,-1.35931988384049,,,,-0.920203432843481,-0.201432205852588,-0.448852461424508,-0.201432205851864,,,,-1.36532418105913,,-1.15435845289834,-0.419563575471808,-0.590478041203805,-0.419563575471305,,-0.674129902536524,-0.557506464857698,,-0.339934194506557,0.278333335439562,-0.294101503347154,,-0.417430529190872,-0.61898342285016,,,-0.785524726156712,-0.317390713561315,-0.799528345591722,-1.27151954849368,0.551457017592165,,,,,-1.10218455132921,0.832939983255471,,-0.188776136592265,-0.299273965538878,,,,-1.31915937845112,10.752,102,1133.45539215686,492.896568627451,580.519607843137,1135.06960784314,1131.84117647059,485.824509803922,499.96862745098,641.735294117647,519.303921568627,0
467.6608,0.856447038247445,-2.52651824515295,-0.804696497369787,0.919925608677557,-1.3239679895155,,,,-0.90610871221746,-0.191208354292975,-0.462132074439482,-0.191208354292257,,,,-1.33195164565944,,-1.12974972576133,-0.387732760812846,-0.610903241839281,-0.387732760812332,,-0.669626413999178,-0.522363731610312,,-0.349954792629743,0.258737386478118,-0.256423533248516,,-0.42652464684671,-0.625066971828641,,,-0.781574658149941,-0.315348599296724,-0.795248039508615,-1.27034551559744,0.544518796876783,,,,,-1.09896864509468,0.819024977083977,,-0.178455261986085,-0.293564821948129,,,,-1.30724885133425,10.8544,102,266.872549019608,561.867156862745,564.867647058824,259.46568627451,274.279411764706,551.059803921569,572.674509803922,618.911764705882,510.823529411765,0
467.7632,0.84339486578788,-2.50711042830568,-0.80581727261124,0.930922218511601,-1.28895102845023,,,,-0.891309360283905,-0.180614285387749,-0.474824480759638,-0.180614285387044,,,,-1.29746504059357,,-1.10405063645581,-0.355898312259377,-0.630223901919188,-0.355898312258856,,-0.665499295118179,-0.489855982581545,,-0.360346782690397,0.23872414970938,-0.218094841933051,,-0.435434053154535,-0.630671162948241,,,-0.778007157828082,-0.313457586258883,-0.791355097228399,-1.2685808522835,0.537014184107501,,,,,-1.09638299905967,0.804777372893726,,-0.167474693142399,-0.288619553685624,,,,-1.2950280486498,10.9568,103,224.051941747573,570.847572815534,552.199029126214,221.063106796117,227.040776699029,559.363106796117,582.332038834952,589.398058252427,515,0
467.8656,0.830964446642744,-2.48581604154799,-0.804914397296835,0.942521268107538,-1.25432084442965,,,,-0.875760806406303,-0.169606956231407,-0.486951154049698,-0.169606956230711,,,,-1.26187610220755,,-1.07726490233265,-0.324174748894398,-0.648396497002604,-0.324174748893871,,-0.661692801446383,-0.460010406317433,,-0.371129340536432,0.218334352009681,-0.179140605367331,,-0.44417104946667,-0.635791061574866,,,-0.774900345931484,-0.311739231801745,-0.78792320356369,-1.26623711857193,0.528960734522011,,,,,-1.09443673886701,0.790229067825999,,-0.155855034023008,-0.284447723094999,,,,-1.28254437711846,11.0592,102,250.956862745098,574.934803921569,558.754901960784,248.213725490196,253.7,569.829411764706,580.040196078431,594.71568627451,522.794117647059,0
467.968,0.819116033249815,-2.46269886616944,-0.802077412512093,0.954664235282074,-1.22012701345071,,,,-0.859421316047117,-0.158146217998775,-0.498535001853693,-0.158146217998089,,,,-1.22520437659052,,-1.0494023891455,-0.292676829549296,-0.665380669941821,-0.292676829548757,,-0.658151609609182,-0.432842692602549,,-0.382319998185064,0.19760838370796,-0.1395857009949,,-0.45274684743958,-0.640422653561523,,,-0.772330438267128,-0.310214430480551,-0.785024166689851,-1.26332856183216,0.520377486700861,,,,,-1.09313529858621,0.775412931331227,,-0.143620146279043,-0.281054032307767,,,,-1.26984492818495,11.1616,103,230.837378640777,589.219902912621,558.956310679612,227.463106796117,234.211650485437,579.755339805825,598.684466019418,595.194174757282,522.718446601942,0
468.0704,0.8078072569788,-2.43782480303114,-0.79740030163457,0.967292743361078,-1.18641663184946,,,,-0.842252316601582,-0.14619514857266,-0.509600271097328,-0.146195148571979,,,,-1.1874773266752,,-1.0204793037396,-0.261519081360722,-0.681139366441912,-0.261519081360176,,-0.654821045425816,-0.408356922424207,,-0.393934410407224,0.176586085682479,-0.0994548679092786,,-0.461171608410325,-0.644562895334301,,,-0.770371213835115,-0.308903354788831,-0.782727467440063,-1.25987188377443,0.511284927839039,,,,,-1.09248039741974,0.760362607417893,,-0.130797048054617,-0.278438172937112,,,,-1.2569761714951,11.264,102,145.320098039216,592.799509803922,579.514705882353,139.921568627451,150.71862745098,577.628431372549,607.970588235294,613.892156862745,545.137254901961,0
468.1728,0.796993352762908,-2.41126149112868,-0.790980969591753,0.980348787436303,-1.15323413555028,,,,-0.82421876766758,-0.13372037304991,-0.520172460416513,-0.133720373049237,,,,-1.14873041367785,,-0.990518383928369,-0.230815349433314,-0.695638985541535,-0.230815349432764,,-0.651647317678314,-0.386545549943586,,-0.405986124166727,0.155306553823224,-0.0587728907634347,,-0.469454489877329,-0.64820975392732,,,-0.769093491759034,-0.307825387100072,-0.781099810366636,-1.25588602676126,0.50170496678747,,,,,-1.09247000978992,0.745112303895845,,-0.117415807468921,-0.276594696057702,,,,-1.24398366395296,11.3664,102,171.630882352941,592.813235294118,620.200980392157,164.682352941176,178.579411764706,579.653921568627,605.972549019608,656.117647058824,584.28431372549,0
468.2752,0.786627368240791,-2.38307795443808,-0.782920759415336,0.99377495042786,-1.12062115414551,,,,-0.805289567425237,-0.120692367399417,-0.530278237162716,-0.120692367398752,,,,-1.10900714795406,,-0.959549075096229,-0.200678361840079,-0.708849540461986,-0.200678361839523,,-0.648577753963584,-0.367389477729986,,-0.418486353817048,0.133807963621323,-0.0175648058363562,,-0.477603687892195,-0.651362235820131,,,-0.768564620914518,-0.306999045279029,-0.780204681051611,-1.25139198326244,0.491660910382596,,,,,-1.09309831925833,0.72969657039063,,-0.103509443533553,-0.275512896166761,,,,-1.23091177462203,11.4688,103,196.016990291262,605.541262135922,665.849514563107,188.435922330097,203.598058252427,593.065048543689,618.017475728155,705.077669902913,626.621359223301,0
468.3776,0.776660354954935,-2.35334427896465,-0.773324010205822,1.00751461265007,-1.08861640265984,,,,-0.785437981071671,-0.107085738853346,-0.539945353957457,-0.107085738852692,,,,-1.06835910358316,,-0.927607682169474,-0.171219304946011,-0.720744821465784,-0.171219304945455,,-0.645561034599041,-0.350858222760745,,-0.43144376690433,0.112127415456701,0.0241438696854898,,-0.485626469188216,-0.654020403993186,,,-0.768847987156177,-0.306441904923802,-0.780101915225594,-1.246412628284,0.48117743921953,,,,,-1.09435565618618,0.714150066512171,,-0.0891138367255161,-0.275176714568487,,,,-1.21780342697861,11.5712,102,218.561274509804,602.425980392157,702.803921568627,211.287254901961,225.835294117647,587.942156862745,616.909803921569,746.921568627451,658.686274509804,0
468.48,0.767041546748507,-2.32213132179529,-0.762297651968767,1.02151215420809,-1.05725561104279,,,,-0.764642075501543,-0.0928794752127451,-0.549202557960902,-0.0928794752120994,,,,-1.02684588924355,,-0.894737485794585,-0.142547404502158,-0.731302552505728,-0.142547404501603,,-0.642547421694103,-0.336910169366536,,-0.444864284313179,0.0903007993122473,0.0663268859241785,,-0.493529191116818,-0.656185385032001,,,-0.770002545481708,-0.306170520236402,-0.780847286600994,-1.24097257189383,0.470280580704867,,,,,-1.09622843160273,0.69850732250928,,-0.0742676379357864,-0.275564680032101,,,,-1.20469986228986,11.6736,103,236.844660194175,603.795631067961,743.305825242719,227.740776699029,245.94854368932,591.069902912621,616.521359223301,792.601941747573,694.009708737864,0
468.5824,0.75771853217689,-2.28951045228684,-0.74995082972673,1.03571314787906,-1.02657148877479,,,,-0.742885146204012,-0.0780571564194342,-0.55807948852227,-0.0780571564187968,,,,-0.98453506701871,,-0.860988812830864,-0.114769507223259,-0.740504535780529,-0.114769507222711,,-0.639488984046516,-0.325492904478343,,-0.458750896792792,0.0683626772144145,0.108956990518472,,-0.501317308560269,-0.657859367618981,,,-0.772082383963771,-0.306200345227439,-0.782492119757939,-1.23509802592814,0.458997678824226,,,,,-1.09869908084417,0.682802495853982,,-0.0590121646408627,-0.276649900046958,,,,-1.19164042644253,11.776,102,148.369607843137,610.323039215686,775.926470588235,138.309803921569,158.429411764706,587.86568627451,632.780392156863,829.441176470588,722.411764705882,0
468.6848,0.748637423725542,-2.25555332415279,-0.736394552890157,1.05006454161738,-0.996593721334634,,,,-0.720156123666123,-0.0626071246417872,-0.566606564353611,-0.0626071246411577,,,,-0.941502011756474,,-0.826419052913895,-0.0879896573072584,-0.748336779533384,-0.0879896573067155,,-0.636339819454214,-0.316543628420646,,-0.473103499604942,0.0463461816531021,0.152005649586877,,-0.50899536834835,-0.659045591249846,,,-0.775136323552134,-0.306545657606448,-0.785082932662719,-1.22881667566174,0.447357362444585,,,,,-1.10174602195214,0.667069128103806,,-0.043391282657121,-0.278400100291846,,,,-1.17866237881327,11.8784,102,131.74068627451,613.735784313726,792.622549019608,121.706862745098,141.774509803922,590.678431372549,636.793137254902,849.509803921569,735.735294117647,0
468.7872,0.73974302386942,-2.22033167640176,-0.721741368413185,1.06451483040304,-0.967348995455406,,,,-0.69644994546513,-0.0465226115263908,-0.574814864228248,-0.0465226115257653,,,,-0.897829705922328,,-0.791092614495732,-0.0623086640536028,-0.754789603318195,-0.0623086640530666,,-0.633056271920019,-0.309989631146984,,-0.487918746367427,0.0242829277504531,0.195442770510595,,-0.516566995121728,-0.659748323638049,,,-0.779207556729013,-0.307219487386467,-0.788661112334389,-1.222157545213,0.435389515062969,,,,,-1.10534362968094,0.651339907113489,,-0.0274512771618455,-0.280777703580039,,,,-1.1658007196415,11.9808,103,154.265533980583,620.243203883495,787.907766990291,144.190291262136,164.340776699029,602.504854368932,637.981553398058,846.970873786408,728.844660194175,0
468.8896,0.7309789906153,-2.18391716053307,-0.706105052936051,1.07901421503191,-0.938861049005392,,,,-0.671767878205193,-0.0298018221283985,-0.582736003291033,-0.0298018221277765,,,,-0.853608465454082,,-0.755080814128798,-0.0378236577738012,-0.759857713448478,-0.0378236577732731,,-0.629597136601456,-0.305748820032952,,-0.503189921743026,0.00220293674509489,0.239236434250789,,-0.524034875459256,-0.659972827560716,,,-0.784333328091303,-0.308233550494136,-0.793262626234264,-1.21515084532402,0.423125246093114,,,,,-1.10946222957965,0.635646439610055,,-0.0112407147947139,-0.283739944346077,,,,-1.15308803233514,12.0832,102,175.893137254902,623,746.455882352941,170.570588235294,181.21568627451,601.489215686275,644.510784313726,807.294117647059,685.617647058824,0
468.992,0.722288010573689,-2.14638119097076,-0.689600312721378,1.09351474371941,-0.91115073998009,,,,-0.646117771963583,-0.0124479746755983,-0.590402004253881,-0.0124479746749791,,,,-0.808935589658371,,-0.718461691544516,-0.0146276292091243,-0.763540241963154,-0.0146276292085994,,-0.625923843665805,-0.303730281755509,,-0.518906831696646,-0.0198654309629044,0.283352640482358,,-0.531400748487873,-0.659725320062319,,,-0.790544658139414,-0.309598186079375,-0.798917769619198,-1.20782779311417,0.410596860279484,,,,,-1.11406812070064,0.620019038092634,,0.00518970628218711,-0.287239018413092,,,,-1.14055433758573,12.1856,103,135.317475728155,651.566504854369,727.417475728155,130.777669902913,139.857281553398,634.154368932039,668.978640776699,790.961165048544,663.873786407767,0
469.0944,0.713611989558141,-2.10779481444621,-0.67234247709951,1.10797043331309,-0.884236129953779,,,,-0.619514231033109,0.00553070386128206,-0.597845162974558,0.00553070386189755,,,,-0.763914929290949,,-0.681319745637193,0.00719105218214088,-0.76584074552612,0.00719105218265649,,-0.6220006130053,-0.303834860160039,,-0.535055709407116,-0.0418955337390602,0.327755070157279,,-0.538665412265837,-0.659012925892341,,,-0.797866108104798,-0.311322295568752,-0.805650946022927,-1.20022039477365,0.397837821859109,,,,,-1.11912363532833,0.604486524612344,,0.0217873229350817,-0.291222267576852,,,,-1.12822695632679,12.288,102,137.495098039216,656.789215686275,735.529411764706,130.753921568627,144.236274509804,640.335294117647,673.243137254902,801.656862745098,669.401960784314,0
469.1968,0.704892264786225,-2.06822859372383,-0.654447177599019,1.12233736703434,-0.858132579730277,,,,-0.591978694335799,0.0241210202907545,-0.605097910593856,0.0241210202913663,,,,-0.718656383100937,,-0.643745603468016,0.0275491314771289,-0.76676716484613,0.0275491314776399,,-0.61779457590619,-0.305955741077197,,-0.551619135280001,-0.0638624968377915,0.372404872223105,,-0.545828756060723,-0.657843622545368,,,-0.806315582961704,-0.313413282400607,-0.813480478013475,-1.19236118647826,0.384882714240053,,,,,-1.12458723932026,0.589076052283811,,0.0384976863710105,-0.295632398205376,,,,-1.1161303807722,12.3904,102,153.248039215686,656.711764705882,738.294117647059,144.344117647059,162.151960784314,634.552941176471,678.870588235294,804.362745098039,672.225490196079,0
469.2992,0.696069833589055,-2.02775250565449,-0.636030018496774,1.13657376306705,-0.832852856391903,,,,-0.563539437655563,0.0433048821441145,-0.612192676127001,0.0433048821447244,,,,-0.673275357556234,,-0.605835659138042,0.0463689391404575,-0.766331749892429,0.0463689391409687,,-0.613275867855068,-0.309979052915892,,-0.568575971871625,-0.0857432486008425,0.417260475737812,,-0.552889826710724,-0.656226171478462,,,-0.815904174285121,-0.315876993695723,-0.822418450257286,-1.18428294003421,0.371767201547773,,,,,-1.13041366991566,0.573812942969773,,0.0552647416760519,-0.300407735047271,,,,-1.10428615918616,12.4928,103,213.722815533981,663.153398058252,710.228155339806,202.877669902913,224.567961165049,647.335922330097,678.970873786408,768.893203883495,651.563106796117,0
469.4016,0.687085591325395,-1.98643585932698,-0.617206251071405,1.1506400092011,-0.80840725105301,,,,-0.534231523576316,0.0630593788720209,-0.619161752576724,0.0630593788726284,,,,-0.6278922270591,,-0.567691720431427,0.063578800082019,-0.764550960749017,0.0635788000825278,,-0.608417702616389,-0.315784502105418,,-0.585901316244514,-0.10751654138116,0.46227742044604,,-0.559846928358542,-0.654170033730382,,,-0.826636049865088,-0.318717664969298,-0.832470590941323,-1.17601835361439,0.358527998732931,,,,,-1.13655410464551,0.558720537531396,,0.0720310050603403,-0.305482517021272,,,,-1.09271280479394,12.5952,102,513.050490196078,609.129901960784,687.308823529412,506.705882352941,519.395098039216,598.204901960784,620.054901960784,747.745098039216,626.872549019608,0
469.504,0.677880576526275,-1.94434723875763,-0.598090456898863,1.16449866606466,-0.784803706222997,,,,-0.504096721532952,0.0833568803791475,-0.626037167570563,0.0833568803797545,,,,-0.582631806134279,,-0.52942067234568,0.0791133647637816,-0.761445356319879,0.0791133647642875,,-0.603196434328895,-0.323246055196546,,-0.603566471185272,-0.129162953298026,0.507408198911553,,-0.566697742596532,-0.651685274032768,,,-0.838508397371197,-0.321937864738984,-0.843636195428626,-1.16759975328199,0.345202849513592,,,,,-1.14295635663801,0.543820054907817,,0.0887377567366755,-0.310787246366519,,,,-1.08142573595599,12.6976,103,546.030582524272,610.470388349515,657.121359223301,541.677669902913,550.383495145631,597.408737864078,623.532038834951,720.165048543689,594.077669902913,0
469.6064,0.668396224179593,-1.9015544679141,-0.578796237619488,1.17811444837303,-0.762047951642894,,,,-0.473183407419677,0.104165162653875,-0.632850558130877,0.10416516265448,,,,-0.537622822818576,,-0.49113414232163,0.0929138700313255,-0.757039481708548,0.0929138700318323,,-0.597591606506897,-0.332232666593078,,-0.621538936077037,-0.150664867239535,0.552602111681298,,-0.57343945161788,-0.64878245800246,,,-0.851511424938377,-0.325538434140641,-0.855908091546737,-1.15905882522199,0.331830503890101,,,,,-1.14956509197451,0.529130458034099,,0.105325269919099,-0.316249098757124,,,,-1.07043724896255,12.8,102,572.65,606.708333333333,644.803921568627,568.392156862745,576.907843137255,596.842156862745,616.574509803922,706.843137254902,582.764705882353,0
469.7088,0.65857462387282,-1.85812459272018,-0.559435911126709,1.19145419584738,-0.740143649187041,,,,-0.441546442270736,0.125447566713523,-0.639633049480973,0.125447566714126,,,,-0.492997380343363,,-0.452948148507705,0.104928344062684,-0.751361760038974,0.104928344063195,,-0.591585984920122,-0.342609044579031,,-0.639782420722566,-0.172006424449435,0.597805146027327,,-0.580068852035769,-0.645472542334282,,,-0.865628415832807,-0.329518421400145,-0.869272644197543,-1.15042638900511,0.318450684598127,,,,,-1.15632205946421,0.514668327252827,,0.12173307893883,-0.321792390469266,,,,-1.05975652352127,12.9024,102,593.676960784314,599.723039215686,653.730392156863,588.576470588235,598.777450980392,589.394117647059,610.051960784314,715.735294117647,591.725490196079,0
469.8112,0.648358774183518,-1.81412387671254,-0.540120221556994,1.20448684464328,-0.719092550460502,,,,-0.409247024420916,0.147163192741979,-0.646415138566201,0.147163192742584,,,,-0.448890398493093,,-0.414982715749547,0.115111768290116,-0.744444387642347,0.115111768290632,,-0.585165573795514,-0.3542364467689,,-0.658256888487177,-0.193173451728718,0.642959892697529,,-0.58658245402113,-0.641766754497705,,,-0.880835831129133,-0.333875016249072,-0.883709797502963,-1.14173221396328,0.30510403189853,,,,,-1.16316631818289,0.500447744134971,,0.137900273746839,-0.32733908907603,,,,-1.04938966188066,13.0048,103,1079.00339805825,478.578640776699,668.490291262136,1076.87087378641,1081.1359223301,460.693203883495,496.464077669903,727.631067961165,609.349514563107,0
469.9136,0.63769282477615,-1.76961780943155,-0.520958072072854,1.21718340629722,-0.698894670492165,,,,-0.376352507181438,0.169267129647144,-0.653226582291465,0.169267129647745,,,,-0.405439028231288,,-0.377361447257974,0.123426205878034,-0.73632322604029,0.123426205878555,,-0.578319615351597,-0.36697349603863,,-0.676918636212709,-0.214153363832289,0.688005512231224,,-0.592976566219795,-0.63767645986871,,,-0.897103455735652,-0.33860349049765,-0.89919315445646,-1.13300487507159,0.291832018019625,,,,,-1.1700344519992,0.486480189328244,,0.153765805828853,-0.332809354413824,,,,-1.03933976194013,13.1072,102,1169.6637254902,466.512745098039,698.818627450981,1174.82549019608,1164.50196078431,453.438235294118,479.587254901961,771.205882352941,626.43137254902,0
470.016,0.626522302948264,-1.72467112693172,-0.502056283682409,1.22951695523491,-0.679548474808846,,,,-0.342936174089813,0.191710719646368,-0.660096289411324,0.191710719646969,,,,-0.362782035521713,,-0.340211044710439,0.129840901703211,-0.727037682404756,0.129840901703739,,-0.571040574180514,-0.380677009824391,,-0.695720417581578,-0.234935045265424,0.732877756890786,,-0.599247370836251,-0.633213018148977,,,-0.914394587036531,-0.343697150221548,-0.91569009668637,-1.12427164217236,0.278676828455,,,,,-1.17686077114629,0.472774457339305,,0.169268797654456,-0.338122103715135,,,,-1.02960702237774,13.2096,103,949.529126213592,515.559223300971,759.145631067961,949.266990291262,949.791262135922,499.766019417476,531.352427184466,841.932038834952,676.359223300971,0
470.1184,0.614794327121722,-1.67934784324886,-0.483519376464994,1.24146262169631,-0.661051071027888,,,,-0.309076965506805,0.214441856878744,-0.66705221509049,0.21444185687934,,,,-0.32105915353795,,-0.303660774734088,0.13433235534476,-0.716630572232562,0.134332355345294,,-0.563324111500754,-0.395202837946694,,-0.71461161333127,-0.255508717272803,0.777509050051565,,-0.60539099255039,-0.62838763396123,,,-0.93266626793555,-0.349147303544439,-0.933161948046781,-1.11555839558815,0.26568121526409,,,,,-1.18357750893963,0.459336590258664,,0.184348854520543,-0.343195598867865,,,,-1.02018887473658,13.312,102,604.365196078431,585.05637254902,759.147058823529,600.739215686275,607.991176470588,571.504901960784,598.607843137255,826.862745098039,691.43137254902,0
470.2208,0.602457811752539,-1.63371129182534,-0.465449367456672,1.25299758575102,-0.643398396403427,,,,-0.274859151915051,0.237405317499937,-0.6741212574041,0.237405317500529,,,,-0.280410406640699,,-0.267841885085762,0.136884366361924,-0.70514796037507,0.136884366362471,,-0.555169053453082,-0.410406704472947,,-0.733538446580177,-0.275865796209727,0.821828620491777,,-0.611403561509026,-0.623211207698166,,,-0.951869566460562,-0.354943245043438,-0.951564184323639,-1.10688955985232,0.252888332881815,,,,,-1.19011502290888,0.446169832398169,,0.198946377666963,-0.347948050320573,,,,-1.01108013492388,13.4144,102,677.159803921569,502.698529411765,693.990196078431,677.033333333333,677.286274509804,493.710784313726,511.686274509804,747.352941176471,640.627450980392,0
470.3232,0.589463666217167,-1.58782417566957,-0.447945581452325,1.26410106876066,-0.626585396685405,,,,-0.24037194827523,0.260543116924101,-0.681329155441937,0.260543116924689,,,,-0.240975412892701,,-0.232886977887645,0.137488048842738,-0.69263897573777,0.137488048843294,,-0.546577353355056,-0.426145047700107,,-0.752444239533368,-0.295998749525602,0.865762686068027,,-0.617281270929154,-0.617694191499279,,,-0.97194990310291,-0.361072255919099,-0.970846689475005,-1.0982880451445,0.240341566210677,,,,,-1.19640200723375,0.433274608447318,,0.213002874350909,-0.352298226887169,,,,-1.00227316534547,13.5168,103,721.316019417476,399.368932038835,661.31067961165,723.864077669903,718.767961165049,403.852427184466,394.885436893204,714.844660194175,607.776699029126,0
470.4256,0.575764989610939,-1.54174862144096,-0.431104469170335,1.27475432116387,-0.610606192785384,,,,-0.205709059507709,0.283794890623277,-0.688700389796101,0.283794890623862,,,,-0.202892669253796,,-0.198929344883785,0.136141813539684,-0.679155592872842,0.136141813540248,,-0.537554046619601,-0.442275849532959,,-0.77126971024285,-0.315900955559793,0.90923468453519,,-0.623020434322533,-0.611846452637156,,,-0.992847424354609,-0.367519619876211,-0.990954057171388,-1.08977518428508,0.228084354884038,,,,,-1.20236572232972,0.420648527749292,,0.226461263183539,-0.356166061377121,,,,-0.993758038825602,13.6192,102,710.856862745098,326.990196078431,642.794117647059,716.929411764706,704.78431372549,317.932352941177,336.048039215686,695.245098039216,590.343137254902,0
470.528,0.561317267404512,-1.49554622552416,-0.415019417706786,1.28494060847481,-0.595454228781258,,,,-0.170968143698641,0.307098298239056,-0.696258086552899,0.307098298239636,,,,-0.166298815765918,,-0.166102262676553,0.132851322175428,-0.664752374452274,0.132851322175999,,-0.528107195535419,-0.458659441780143,,-0.7899533087235,-0.335566572499636,0.952165555625434,,-0.62861754976156,-0.605677145202805,,,-1.01449741741272,-0.37426865483778,-1.01182593377093,-1.08137065227326,0.216160012207965,,,,,-1.20793224921517,0.408286415374574,,0.239266180099414,-0.359473248422525,,,,-0.985522695691862,13.7216,103,710.645145631068,330.705339805825,655.495145631068,717.711650485437,703.578640776699,327.860194174757,333.550485436893,709.553398058253,601.436893203884,0
470.6304,0.54607857845366,-1.44927807414691,-0.399780531117876,1.29464519822528,-0.581122391115893,,,,-0.136250183796487,0.330389451355013,-0.704023925627046,0.330389451355586,,,,-0.131327874884765,,-0.134538247418874,0.127629420199639,-0.649486172609643,0.127629420200217,,-0.518247815951736,-0.475159276301656,,-0.808431589014016,-0.354990419743625,0.99447408111255,,-0.634069376673435,-0.599194589619137,,,-1.03683075876856,-0.381300759458114,-1.03339739642887,-1.07309235569327,0.204611536598661,,,,,-1.21302677511586,0.396180366850853,,0.251364287074764,-0.362143834375555,,,,-0.977553085149228,13.824,102,709.838725490196,327.103431372549,680.833333333333,718.006862745098,701.670588235294,316.242156862745,337.964705882353,739,622.666666666667,0
470.7328,0.530009815273709,-1.40300472235367,-0.38547436720155,1.30385534825805,-0.567603089955296,,,,-0.101658773517943,0.353603359844612,-0.71201805566909,0.353603359845178,,,,-0.0981104763369329,,-0.104368283220166,0.120496044210124,-0.633415792389808,0.120496044210708,,-0.507989779153643,-0.491642653214174,,-0.826639613988264,-0.374167872583479,1.03607728632455,,-0.639373028333528,-0.592406156524951,,,-1.05977438969629,-0.388595474802123,-1.05559936108887,-1.06495628491633,0.193481416188392,,,,,-1.21757390883845,0.384319819924942,,0.262704571136134,-0.364104793882494,,,,-0.96983328367649,13.9264,102,708.932843137255,331.558333333333,707.897058823529,716.596078431373,701.269607843137,320.874509803922,342.242156862745,767.303921568627,648.490196078431,0
470.8352,0.513074911191596,-1.35678613005023,-0.372183636432172,1.31256029276011,-0.554888301948351,,,,-0.0672993427340182,0.376674385821284,-0.720259019873377,0.376674385821845,,,,-0.0667730913233315,,-0.0757210500240938,0.111478088607578,-0.616601625059939,0.111478088608168,,-0.497349694553003,-0.507981413428875,,-0.844511393693971,-0.393094769642247,1.07689089805641,,-0.644526080725988,-0.585318150967914,,,-1.08325181386569,-0.396130564902652,-1.07835901878176,-1.05697633643015,0.182811430052424,,,,,-1.22149801730572,0.372691636403533,,0.273238617026357,-0.36528658023314,,,,-0.962345589418431,14.0288,103,703.930097087379,332.380582524272,744.296116504854,713.391262135922,694.468932038835,316.929126213592,347.832038834951,805.009708737864,683.582524271845,0
470.9376,0.495241064098932,-1.31068156452238,-0.359986881231483,1.32075122083443,-0.542969582218989,,,,-0.0332783588834281,0.399536694245102,-0.728763696018127,0.399536694245658,,,,-0.0374372967982914,,-0.0487221712265065,0.100609217099845,-0.599105261807604,0.100609217100434,,-0.486346789066002,-0.524052608927114,,-0.861980357779688,-0.411767331145884,1.11682984393847,,-0.649526692027352,-0.577935697264105,,,-1.10718361317604,-0.403882119813461,-1.10160029928437,-1.04916412797635,0.172642449990547,,,,,-1.22472357494848,0.361280189577676,,0.282920850121197,-0.365623635938223,,,,-0.955070599222081,14.1312,102,902.559803921569,364.380882352941,779.230392156863,908.192156862745,896.927450980392,345.919607843137,382.842156862745,843.450980392157,715.009803921569,0
471.04,0.476478949087526,-1.26474947609178,-0.348958148952787,1.32842124488655,-0.531838054178892,,,,0.000297460744467471,0.422124692802697,-0.737547249394349,0.422124692803246,,,,-0.010219078207797,,-0.023493489035081,0.0879296153782534,-0.580989100220599,0.0879296153788481,,-0.475002797018128,-0.539739161871993,,-0.878979854550412,-0.430182084546096,1.15580877358085,,-0.654373721105949,-0.570262629906776,,,-1.13148797768918,-0.411824680430204,-1.12524435848932,-1.04152883305866,0.163014246557584,,,,,-1.22717552155689,0.350067454567077,,0.291708756743269,-0.365054855201268,,,,-0.947987278771678,14.2336,103,1311.44077669903,429.86213592233,796.766990291262,1323.29029126214,1299.59126213592,405.402912621359,454.321359223301,873.466019417476,720.067961165049,0
471.1424,0.456762914543017,-1.21904734602442,-0.339166664077395,1.33556535838418,-0.521484381520056,,,,0.0333218980165973,0.444373455274442,-0.746623093400043,0.444373455274982,,,,0.0147718264553967,,-0.000152371910132572,0.0734856879415402,-0.562315956690615,0.0734856879421454,,-0.463341866129756,-0.554930517992813,,-0.895443661211169,-0.448335793830886,1.19374258559209,,-0.6590668354489,-0.562301396728809,,,-1.15608124777138,-0.419931380742604,-1.1492100854808,-1.03407705377309,0.153965304039862,,,,,-1.22877962559903,0.339033098872675,,0.299563084554569,-0.36352399558279,,,,-0.941073036212816,14.336,102,1311.41470588235,435.878921568628,808.450980392157,1322.70490196078,1300.12450980392,412.863725490196,458.894117647059,892.294117647059,724.607843137255,0
471.2448,0.436071154984312,-1.1736315069348,-0.330676507365484,1.34218038271014,-0.511898724949423,,,,0.0656899240906459,0.466219122535971,-0.756002853556263,0.466219122536504,,,,0.0374325350662106,,0.0211889381544721,0.0573297011019607,-0.543148694929034,0.0573297011025739,,-0.451390480587228,-0.569523297075848,,-0.911306490748376,-0.466225390543447,1.23054695393048,,-0.663606604044426,-0.554052977562806,,,-1.18087846864756,-0.428174103818186,-1.17341462732057,-1.02681274033309,0.145532648437209,,,,,-1.22946284803894,0.328154571197893,,0.30644801589217,-0.360980039506882,,,,-0.934303807760181,14.4384,102,1310.29411764706,428.237254901961,815.053921568627,1322.5862745098,1298.00196078431,404.106862745098,452.367647058824,892.176470588235,737.93137254902,0
471.3472,0.414385853361395,-1.12855694250107,-0.323546314958774,1.34826490396807,-0.503070686950978,,,,0.0972983203408724,0.487599277023786,-0.765696334759214,0.48759927702431,,,,0.0576675734716743,,0.0404239312306843,0.0395193737418113,-0.523549874712111,0.039519373742429,,-0.439177402852198,-0.583421941864731,,-0.926504488512986,-0.483847906689488,1.2661388538771,,-0.667994571143207,-0.545516819110012,,,-1.20579395526712,-0.436523651475802,-1.19777392987624,-1.01973715720909,0.137751688070884,,,,,-1.22915370045177,0.317407189728953,,0.31233130472821,-0.357377505451498,,,,-0.927654159727392,14.5408,103,1312.66699029126,436.634466019417,783.859223300971,1328.40097087379,1296.93300970874,416.140776699029,457.128155339806,845.116504854369,722.601941747573,0
471.4496,0.391693288742303,-1.08387707514247,-0.317829008088978,1.35381920331654,-0.494989247469469,,,,0.128046228976399,0.508453290159426,-0.775711494002216,0.508453290159944,,,,0.0753893673928741,,0.0574523884344278,0.0201174223630966,-0.503581420248232,0.0201174223637129,,-0.426733636143699,-0.596539362690431,,-0.940975717294024,-0.501200411147142,1.30043708740411,,-0.672233305008694,-0.536690787259864,,,-1.23074186149213,-0.444949930673132,-1.22220329176659,-1.01284889135824,0.130656062398434,,,,,-1.22778259423414,0.306764234201429,,0.317184375179086,-0.352676704722977,,,,-0.9210974060612,14.6432,102,1312.86078431373,429.170098039216,771.132352941177,1328.51078431373,1297.21078431373,406.3,452.040196078431,825.14705882353,717.117647058824,0
471.552,0.367983909367759,-1.03964354698567,-0.313571557149564,1.35884518546337,-0.487642692891934,,,,0.157835637208659,0.528722645648163,-0.786054420398468,0.528722645648675,,,,0.0905186792507999,,0.0721809027420367,-0.000808927225821662,-0.483304305579951,-0.000808927225208052,,-0.414092406323351,-0.608797570905828,,-0.954660629841207,-0.518279951525803,1.33336280491139,,-0.676326416300609,-0.527571139773243,,,-1.25563674667902,-0.453422158765348,-1.24661792725843,-1.00614389734797,0.124277495355233,,,,,-1.22528218283836,0.296197047087873,,0.320982388927688,-0.346843939517569,,,,-0.914605738447244,14.7456,103,1181.35825242718,337.74854368932,750.868932038835,1196.67184466019,1166.04466019418,316.999029126214,358.498058252427,802.233009708738,699.504854368932,0
471.6544,0.343252373507719,-0.995905998654196,-0.310814780562893,1.36334630710719,-0.481018542558752,,,,0.186571801446049,0.548351243259916,-0.796729323838647,0.548351243260423,,,,0.102984999678651,,0.0845233704714373,-0.0231884487652339,-0.462778253636454,-0.0231884487646207,,-0.401289157130201,-0.620128292237522,,-0.96750252442226,-0.535083502837997,1.36484002101854,,-0.68027854367413,-0.518152523088399,,,-1.28039413519588,-0.461909084714631,-1.27093353292611,-0.999615573802113,0.118645654506281,,,,,-1.22158770264898,0.285675148993953,,0.323704294528531,-0.339851645198048,,,,-0.90815036903547,14.848,102,1173.64117647059,329.900980392157,724.833333333333,1188.37941176471,1158.90294117647,311.032352941177,348.769607843137,772.147058823529,677.519607843137,0
471.7568,0.317497562537782,-0.952711854222731,-0.309593179305754,1.36732750235404,-0.475103478564464,,,,0.214163621144918,0.567285687418035,-0.807738534992084,0.567285687418538,,,,0.112726900393374,,0.0944014558564306,-0.0469464361674647,-0.44206144619973,-0.0469464361668545,,-0.388361548225165,-0.630473549271884,,-0.979447974421125,-0.55160792329731,1.39479612321044,,-0.684095308941979,-0.50842799766481,,,-1.30493106741939,-0.470379218202313,-1.29506685224662,-0.99325486313385,0.11378802252693,,,,,-1.21663731993517,0.275166373403553,,0.325332872521674,-0.331678486824621,,,,-0.901701687194707,14.9504,102,1171.96078431373,333.759803921569,704.71568627451,1185.88725490196,1158.03431372549,313.850980392157,353.66862745098,752.029411764706,657.401960784314,0
471.8592,0.290722572638895,-0.910106121755133,-0.309934806471406,1.37079510009912,-0.46988328212286,,,,0.240523974654245,0.585475563712508,-0.819082521127085,0.585475563713007,,,,0.119692351172193,,0.101745027066129,-0.072005229154929,-0.421210243987167,-0.0720052291543195,,-0.37534944312945,-0.639786198325468,,-0.990447219873419,-0.567849916376112,1.42316236863884,,-0.687783248155494,-0.498389095822249,,,-1.3291666401245,-0.478801057953114,-1.31893623143561,-0.987050364492549,0.109729788557364,,,,,-1.21037249057163,0.264637025980882,,0.325854787077886,-0.32230941913158,,,,-0.895229427094952,15.0528,103,1439.43495145631,462.467475728155,681.504854368932,1454.60485436893,1424.26504854369,446.116504854369,478.818446601942,724.184466019418,638.825242718447,0
471.9616,0.262934692923805,-0.868131213018491,-0.311861165583288,1.37375673070242,-0.465342775285988,,,,0.265570029911559,0.602873706198929,-0.830759922052192,0.602873706199426,,,,0.123839007576642,,0.106492567266424,-0.0982847325603051,-0.400278917083729,-0.0982847325596943,,-0.362294876456129,-0.648030402118846,,-1.0004545105167,-0.583805997125152,1.44987436031137,,-0.69134972525294,-0.488025912319124,,,-1.35302252923417,-0.487143313185736,-1.34246215747681,-0.98098845120107,0.106493762563784,,,,,-1.20273833472257,0.254052072488903,,0.325260649643775,-0.311735712857083,,,,-0.888702838031578,15.1552,102,1490.75294117647,485.841666666667,682.254901960784,1505.9068627451,1475.59901960784,472.041176470588,499.642156862745,730.421568627451,634.088235294118,0
472.064,0.234145379202173,-0.826826779312449,-0.3153871251236,1.37622122286144,-0.461465764773129,,,,0.289223542162198,0.619436459076457,-0.84276760888689,0.619436459076951,,,,0.125134483383382,,0.108591572271786,-0.125702911544001,-0.37931938600431,-0.125702911543383,,-0.349241994637623,-0.65518201891647,,-1.00942839528076,-0.59947246006021,1.47487249689019,,-0.694802833640168,-0.477327223094272,,,-1.37642348314176,-0.495375112987992,-1.36556776609165,-0.975053385984998,0.104100309806648,,,,,-1.19368402342164,0.243375357571833,,0.323545097371724,-0.299954944695,,,,-0.882090850100846,15.2576,103,1424.18737864078,467.772330097087,703.563106796117,1439.13980582524,1409.23495145631,453.054368932039,482.490291262136,757.029126213592,650.097087378641,0
472.1664,0.204370232594202,-0.786229557876461,-0.320520835006491,1.37819849324848,-0.458234985796042,,,,0.311411148619634,0.635123934704063,-0.85510076750882,0.635123934704551,,,,0.123556617590569,,0.107998942202296,-0.154176248038192,-0.35838097470127,-0.154176248037569,,-0.336236965859483,-0.661228892003796,,-1.01733195781026,-0.614845346428159,1.49810240132559,,-0.698151291009305,-0.466280625161923,,,-1.39929777382408,-0.503466198474692,-1.38817930665221,-0.969227425757518,0.102567299742414,,,,,-1.18316317104238,0.232569855519523,,0.320706886172018,-0.286970945982157,,,,-0.875362232779662,15.36,102,1420.33970588235,469.090196078431,710.102941176471,1436.73823529412,1403.94117647059,451.926470588235,486.253921568628,768.049019607843,652.156862745098,0
472.2688,0.173628986451308,-0.746373221948319,-0.327263636239594,1.37969943059509,-0.455632045145942,,,,0.332064662291934,0.649900263562228,-0.867753007996534,0.64990026356271,,,,0.119093727627632,,0.104681356822746,-0.183620159853349,-0.337510178314378,-0.183620159852717,,-0.323327854784104,-0.666171031982064,,-1.02413300150561,-0.629920411197959,1.51951534553444,,-0.701404334093958,-0.454872689716885,,,-1.42157759681667,-0.511387097028068,-1.41022655664349,-0.963490905883158,0.101910065225432,,,,,-1.17113422555381,0.221597952363447,,0.316748987594657,-0.272793706773147,,,,-0.86848574794913,15.4624,102,1414.97107843137,462.73137254902,724.142156862745,1433.11274509804,1396.82941176471,446.35,479.112745098039,788.441176470588,659.843137254902,0
472.3712,0.141945494664708,-0.707288227050028,-0.335609966375704,1.38073577281959,-0.45363736292997,,,,0.351121354936354,0.663733824123795,-0.880716498592534,0.663733824124271,,,,0.111744822313571,,0.098615607435076,-0.213949403598848,-0.316750448563776,-0.213949403598205,,-0.31056446378622,-0.670020698795632,,-1.02980419146336,-0.644693093939501,1.5390686870366,,-0.70457162194857,-0.443089121124968,,,-1.44319941992632,-0.519109284210254,-1.43164318883259,-0.957822298837692,0.102141371747816,,,,,-1.15756084637982,0.2104217541647,,0.311678666851344,-0.257439235486261,,,,-0.861430298735841,15.5648,103,1390.21504854369,456.238349514563,759.383495145631,1408.80097087379,1371.62912621359,432.014563106796,480.46213592233,831.242718446602,687.52427184466,0
472.4736,0.109347707623715,-0.669001650852718,-0.345547274395838,1.38131997322223,-0.452230112445107,,,,0.368524210599531,0.676597437090654,-0.893982118155758,0.676597437091126,,,,0.101519740472252,,0.089788851809081,-0.245078493386399,-0.296141999612597,-0.245078493385747,,-0.297998153153239,-0.672802404205119,,-1.03432316089877,-0.659158499128734,1.55672631318491,,-0.707663153800974,-0.430914919395763,,,-1.46410428784629,-0.526605339621792,-1.45236710040594,-0.952198252225263,0.103271399607916,,,,,-1.14241225868617,0.199003410717344,,0.305507517118147,-0.240929377416915,,,,-0.854165073645506,15.6672,102,1390.65098039216,459.532352941177,794.892156862745,1409.47450980392,1371.82745098039,440.788235294118,478.276470588235,871.421568627451,718.362745098039,0
472.576,0.0758676230213506,-0.63153703096416,-0.357055962509814,1.38146505341366,-0.451388157653754,,,,0.384222131822651,0.688468510731876,-0.907539618759867,0.688468510732345,,,,0.0884391841712062,,0.0781987627350564,-0.276922162952917,-0.275721638597773,-0.276922162952246,,-0.285681656009998,-0.674552858960544,,-1.03767258542535,-0.673311388273556,1.57245906867378,,-0.710689197960553,-0.418334550131138,,,-1.4842380878552,-0.533849098717703,-1.47234070930031,-0.946593616966703,0.105307741133956,,,,,-1.12566357308345,0.187305441005932,,0.298251430424857,-0.223291596417325,,,,-0.846659685013491,15.7696,103,1269.80873786408,422.168446601942,827.941747572816,1283.50194174757,1256.11553398058,398.841747572816,445.495145631068,907.776699029126,748.106796116505,0
472.6784,0.0415412035131398,-0.59491420751773,-0.370109368713529,1.38118444527645,-0.451087986724694,,,,0.398170087062931,0.699329130126857,-0.921377791081801,0.699329130127323,,,,0.0725346291741653,,0.0638535555995206,-0.309395881749436,-0.255522626210226,-0.309395881748753,,-0.273668895601514,-0.675320880499165,,-1.03984022556016,-0.687146182418599,1.58624514270029,,-0.713660220113972,-0.405332127303342,,,-1.50355177472792,-0.540815800286943,-1.49151121609154,-0.940981475714892,0.108255411094641,,,,,-1.10729606130426,0.175291048146265,,0.289930492907387,-0.204558723477598,,,,-0.838884301143534,15.872,102,1125.87794117647,364.292647058824,818.833333333333,1138.60784313725,1113.14803921569,344,384.585294117647,893.862745098039,743.803921568627,0
