time,S1-D1,S1-D8,S1-D9,S1-D15,S2-D1,S2-D2,S2-D3,S2-D9,S3-D1,S3-D2,S3-D16,S4-D2,S4-D3,S4-D5,S5-D3,S5-D4,S5-D5,S6-D2,S6-D5,S6-D17,S7-D6,S7-D7,S8-D6,S8-D7,S8-D18,S9-D3,S9-D4,S9-D9,S9-D11,S9-D19,S10-D8,S10-D9,S10-D10,S10-D11,S11-D8,S11-D10,S11-D20,S12-D10,S12-D11,S12-D12,S13-D4,S13-D11,S13-D12,S14-D10,S14-D12,S14-D21,S15-D13,S15-D14,S16-D13,S16-D14,S16-D22,t_rel_s,eye_n,xp,yp,ps,xpl_i,xpr_i,ypl_i,ypr_i,psl_i,psr_i,blink_prop
1132.7488,0.268418676397551,-0.639314381624667,-0.148644616677257,-0.121063225379627,0.532441849582927,0.532441849584332,,-0.387486833888247,-1.36492866792331,1.73107244312227,0.068486891290271,1.73107244312284,-0.844870653081002,0.572606208235858,-0.700072318569243,0.601784732816965,0.365485816729358,0.640423110587494,0.637902444547542,-0.112468215274887,0.637902444547928,0.830431994242413,0.222325360577038,0.611863689619553,,1.55398819331787,1.25124470867259,0.00748354530550493,-0.00748354530485891,-0.94234803876161,-0.786753346227795,0.11340651467288,-0.979285027297899,0.228281221049429,-0.815571812799173,-0.234357972837598,-0.230738550140643,1.20072062486451,1.20072062486462,-0.682482750155304,0.019612607260103,-0.602423392327287,-0.514575494402487,0.529134014573878,-0.300951907150619,0.0662140635047801,0.895238355063131,0.895238355060827,0.827295822710241,-0.827295822710949,0.585314991666194,0,103,964.83932038835,548.733980582524,669.922330097087,970.925242718447,958.753398058252,563.96213592233,533.505825242718,803.805825242718,536.038834951456,0
1132.8512,0.275136882297056,-0.581555120111959,-0.109287114274642,-0.104925878629036,0.598945748973526,0.5989457489749,,-0.421994365399575,-1.37605827371006,1.70251778692769,0.0812056373569097,1.70251778692825,-0.857750023540997,0.603757357539042,-0.700248051505488,0.586043059338641,0.372380275584468,0.627376853866135,0.671940006427977,-0.112705418347117,0.67194000642834,0.811865077971113,0.204032072022768,0.592278782929815,,1.63013642773129,1.28207562494545,-0.00253830717792268,0.0025383071785772,-0.952727007997681,-0.790749916332978,0.132391694053372,-0.96858967068696,0.247879970367474,-0.809171374842024,-0.210648633524911,-0.211467154992747,1.197731245612,1.19773124561212,-0.698345965974448,0.0444932642187876,-0.60426387066728,-0.541952842963071,0.58346262457396,-0.296473459918306,0.0704796190329771,0.893030517751765,0.89303051774948,0.830913123963782,-0.830913123964488,0.548335861678068,0.102399999999989,102,964.655882352941,537.328921568628,677.838235294118,971.327450980392,957.98431372549,549.470588235294,525.187254901961,812.539215686275,543.137254901961,0
1132.9536,0.281590862010095,-0.523846762949653,-0.0701805611708135,-0.0869694637532358,0.665309360414012,0.665309360415355,,-0.455278498863059,-1.38541276467388,1.67166453510039,0.0932066668556553,1.67166453510093,-0.870074584161541,0.635341336884329,-0.699585421970902,0.568571075208855,0.377282658033059,0.612277205115741,0.702378636798298,-0.113453051387928,0.70237863679864,0.78974205333023,0.18437659726727,0.569891950122839,,1.70554276551109,1.31143154757288,-0.0131429807960686,0.013142980796734,-0.962438146144281,-0.794185461311492,0.151504283439471,-0.957018708191166,0.267152582478575,-0.803290897863558,-0.187570965290538,-0.193644470921241,1.19362730231263,1.19362730231276,-0.715561652589823,0.0679761872859708,-0.608013495926322,-0.568719532871678,0.637190159139659,-0.291616840885013,0.0754503159130293,0.891500195458354,0.89150019545609,0.834651757701027,-0.834651757701732,0.511845086798467,0.204799999999977,103,964.271844660194,544.155339805825,661.747572815534,969.612621359223,958.931067961165,553.960194174757,534.350485436893,793.621359223301,529.873786407767,0
1133.056,0.287748941900671,-0.466291774211057,-0.0314113171440433,-0.0672319870836318,0.731376674115712,0.731376674117035,,-0.487261711516509,-1.39293640518351,1.63859798965836,0.104472068566823,1.63859798965889,-0.881802796540844,0.66728800911803,-0.698069664546381,0.549428174292312,0.380117902693251,0.595162341192552,0.729169031990057,-0.114692025063446,0.729169031990376,0.764124548401759,0.163415738796001,0.544766461993278,,1.78005072004449,1.33929664663463,-0.024310472585657,0.0243104725863355,-0.971473427754396,-0.797059871798754,0.170672571467955,-0.94463303149561,0.286048638260179,-0.797956958206234,-0.165191760937601,-0.177301102169403,1.18841106711049,1.18841106711062,-0.734095638744537,0.0900267768894021,-0.613658844615556,-0.594848353829624,0.690249141274789,-0.286397052764531,0.0810984137645204,0.890630055060402,0.890630055058159,0.838483862897608,-0.83848386289831,0.475858383294372,0.307199999999966,102,934.616666666667,775.934803921569,536.392156862745,944.940196078431,924.293137254902,781.328431372549,770.541176470588,648.450980392157,424.333333333333,0
1133.1584,0.293581345763179,-0.408993703344327,0.00693521274193773,-0.0457631926739927,0.796989373349678,0.796989373350982,,-0.517866827115088,-1.39858125308452,1.60341448133989,0.114987051214676,1.6034144813404,-0.892892512382456,0.699524315550484,-0.695686682576949,0.528682316915627,0.380818012187136,0.576079974649598,0.752277693460873,-0.116400671566178,0.752277693461171,0.735087841695328,0.141209677393609,0.516975524564707,,1.85350552110413,1.36566294335386,-0.0360190603587944,0.0360190603594843,-0.979825545585379,-0.79937459083595,0.189826396945624,-0.931494335550676,0.30452185915626,-0.793193744929551,-0.143572210612973,-0.162459853904258,1.18208675473129,1.18208675473144,-0.753905145957744,0.110615162004567,-0.621176418044392,-0.620312976733307,0.742573711778919,-0.280829056571149,0.0873947435069029,0.890399384805443,0.89039938480321,0.842380120133773,-0.842380120134475,0.440388054839731,0.409599999999955,102,957.931862745098,878.406862745098,405.240196078431,971.621568627451,944.242156862745,890.473529411765,866.340196078432,491.362745098039,319.117647058824,0
1133.2608,0.299060177588953,-0.352057103086216,0.0447746116497545,-0.0226245335709562,0.861987076310556,0.861987076311841,,-0.547017263302578,-1.40230750285719,1.56622127199666,0.124739996679927,1.56622127199716,-0.903301078073913,0.731974713507588,-0.692422963179607,0.506409805677151,0.379322386904644,0.555087220992343,0.771687189859325,-0.118554851876963,0.771687189859599,0.702720593808116,0.117821651523902,0.486601971112754,,1.92575454482673,1.39052995025398,-0.0482453651557512,0.0482453651564545,-0.987487863475555,-0.801132459213998,0.20889726010746,-0.917664812389495,0.322530608107226,-0.789023007262748,-0.122767359501112,-0.149135620744832,1.17466042610669,1.17466042610685,-0.774938748834904,0.129716257076475,-0.630532578375509,-0.645087885728098,0.794099644033937,-0.274927665615981,0.0943089334712643,0.890784109851256,0.890784109849037,0.846309904577529,-0.846309904578228,0.405442991705029,0.511999999999944,103,976.241747572815,935.881067961165,324.888349514563,998.816504854369,953.666990291262,959.281553398058,912.480582524272,386.456310679612,263.320388349515,0
1133.3632,0.304159389610779,-0.295587445724844,0.0820234731185937,0.00211092333626924,0.92620760435106,0.926207604352337,,-0.574637310259716,-1.40408380289448,1.5271363779355,0.133722509464516,1.52713637793598,-0.912985451081348,0.764561593592929,-0.688265515288743,0.482695013416431,0.375578133286112,0.532250415827208,0.787396328002573,-0.121128080999244,0.787396328002821,0.667124528753444,0.0933176401360257,0.453737924594886,,1.99664772720245,1.41390427339166,-0.0609644093772266,0.060964409377943,-0.994454386018994,-0.802337558084902,0.227818420232117,-0.903206852821482,0.340038338845031,-0.7854640073787,-0.102825621363001,-0.137335314899956,1.16613990748324,1.16613990748342,-0.797136360615575,0.147309837425845,-0.641683498114024,-0.669148320751901,0.844764353289733,-0.268707458387425,0.101809618635931,0.891756829733862,0.891756829731661,0.85024143627136,-0.850241436272059,0.371028718973754,0.614399999999932,102,1003.55343137255,693.522058823529,297.088235294118,1024.93823529412,982.16862745098,706.300980392157,680.743137254902,348.078431372549,246.098039215686,0
1133.4656,0.308854741030484,-0.239691029887452,0.118599420947557,0.0283586574077823,0.989487290567285,0.989487290568547,,-0.600652444617104,-1.40388754975856,1.48628830670837,0.141929459425017,1.48628830670884,-0.92190234347646,0.797205694455455,-0.6832018399597,0.457630068273122,0.369540350328824,0.507644887309533,0.799420223445042,-0.124091662742792,0.799420223445263,0.628414067115286,0.0677660603812857,0.418484436910445,,2.06603796285501,1.43579918978443,-0.0741496855737759,0.0741496855745048,-1.00071974617548,-0.802995062163641,0.246524995586714,-0.888182760624843,0.357013980287318,-0.782533479359973,-0.0837883619835814,-0.127057835834206,1.15653473586095,1.15653473586114,-0.820429242473755,0.163380634565029,-0.654575120989077,-0.692470245343477,0.894506901576148,-0.262182729967315,0.109864630573492,0.893286879292797,0.893286879290586,0.854141926302833,-0.854141926303527,0.337147489684422,0.716799999999921,103,1016.91165048544,512.169417475728,292.796116504854,1040.09417475728,993.729126213592,518.022330097088,506.316504854369,345.980582524272,239.611650485437,0
1133.568,0.313123755801488,-0.184474871880178,0.154421137309783,0.0560229220093436,1.05166134013734,1.0516613401386,,-0.624989682942261,-1.40170515733297,1.44381570451383,0.149359015779823,1.44381570451428,-0.9300084005779,0.829826525380572,-0.677219937246969,0.431314496338778,0.361172388739025,0.481354683101546,0.807790264737494,-0.127414821702623,0.80779026473769,0.586715905874767,0.0412374795348168,0.38095110149217,,2.13378149441248,1.45623420551482,-0.087773243442177,0.087773243442916,-1.00627920573684,-0.803111107240982,0.264954073258171,-0.872654477892516,0.373432252694335,-0.780245596256828,-0.0656895570283365,-0.118294080042181,1.14585613281655,1.14585613281675,-0.84474003956325,0.177918442025189,-0.669143141591904,-0.715030342841576,0.943267998814833,-0.255367485878307,0.118441170855837,0.895340410963093,0.895340410960862,0.857977719924762,-0.857977719925449,0.303798412219675,0.81919999999991,102,1016.14852941176,507.164215686275,290.176470588235,1037.08529411765,995.211764705882,508.541176470588,505.787254901961,345.71568627451,234.637254901961,0
1133.6704,0.316945686408779,-0.130046576995213,0.189408407587363,0.0849970455619334,1.1125642473057,1.11256424730696,,-0.647577978004494,-1.39753229579615,1.39986691632461,0.156012670650706,1.39986691632504,-0.937260415990727,0.862342797417495,-0.670308350794243,0.403854818588977,0.350446076262301,0.453472247311372,0.812553968686188,-0.131064823898355,0.812553968686357,0.542168537215702,0.0138043357552786,0.341255632095297,,2.19973830072087,1.47523459450587,-0.101805795861662,0.10180579586241,-1.01112866393317,-0.802692668922417,0.283044827733239,-0.856683318281929,0.38927391820908,-0.778611945727294,-0.0485555219109241,-0.111026985365308,1.13411700406928,1.13411700406949,-0.869982852906259,0.190918215390493,-0.68531302004989,-0.736806035764183,0.99099000465671,-0.248275467578155,0.127505975944079,0.897880494539226,0.897880494536979,0.861714441412846,-0.861714441413527,0.270977601296029,0.921599999999899,102,1019.83088235294,511.776960784314,282.71568627451,1040.61764705882,999.044117647059,513.938235294118,509.61568627451,335.362745098039,230.06862745098,0
1133.7728,0.32030148391731,-0.0765141854301633,0.223482185281469,0.115163813366371,1.17203026983225,1.17203026983351,,-0.668348661913582,-1.3913740962127,1.35459946017145,0.161895251346667,1.35459946017186,-0.943615580133877,0.894672856445688,-0.662456249889995,0.375364097095948,0.337341905497234,0.424098041944292,0.813774724946868,-0.135007083963881,0.813774724947014,0.49492169927202,-0.0144593370933648,0.299523401317455,,2.26377249162172,1.4928309170623,-0.116216839752147,0.116216839752905,-1.01526467433234,-0.80174744691154,0.300738642392115,-0.840329705366228,0.404525970457872,-0.777641512492379,-0.0324047078762865,-0.105231603579985,1.12133196190785,1.12133196190808,-0.896063358612353,0.202380149706237,-0.703000050422377,-0.757775519381958,1.03761693747773,-0.240920192077459,0.13702548257522,0.900867231142058,0.90086723113977,0.865317147036184,-0.865317147036858,0.238678349674702,1.02399999999989,103,992.382038834952,537.17572815534,279.864077669903,1011.04757281553,973.716504854369,539.880582524272,534.470873786408,329.009708737864,230.718446601942,0
1133.8752,0.323173766126699,-0.0239859863996738,0.256564673913492,0.146395938869215,1.22989396199021,1.22989396199146,,-0.687235937838308,-1.38324531818488,1.30817941407796,0.167014924547525,1.30817941407835,-0.949031754178245,0.926735105606778,-0.653653545618829,0.345961426156197,0.321849181262791,0.393340108157397,0.811531431323281,-0.139205260437845,0.811531431323399,0.445135752039139,-0.0434781870267934,0.255886931792491,,2.32575271027523,1.50905851799685,-0.13097478179676,0.130974781797527,-1.01868447332252,-0.800283747456781,0.317979225970476,-0.823652912756978,0.419181768750884,-0.777340665955362,-0.0172475576885181,-0.100875199667088,1.10751736687467,1.1075173668749,-0.922878982238446,0.212309722912916,-0.722109495474893,-0.777917798803926,1.0830944931518,-0.23331498878527,0.146965995475251,0.904257882161699,0.904257882159373,0.868750488272979,-0.86875048827364,0.206891322364868,1.12639999999988,102,1002.87549019608,540.115196078431,282.975490196078,1023.98333333333,981.767647058824,539.299019607843,540.93137254902,330.578431372549,235.372549019608,0
1133.9776,0.325546770804132,0.0274297069898967,0.288579419348384,0.178556632947358,1.28599076900509,1.28599076900633,,-0.70417741725614,-1.3731704781509,1.26078071291087,0.171383199954447,1.26078071291123,-0.953467758360379,0.95844840568,-0.643891033810674,0.315771365969351,0.303966125011549,0.361313564560904,0.805918025395808,-0.143621342412904,0.805918025395902,0.392980971830838,-0.0731758338946913,0.210485331551488,,2.3855525334064,1.52395700526105,-0.146047059101347,0.146047059102119,-1.02138602401925,-0.798310358093224,0.334712718446936,-0.806710802692227,0.433241121033702,-0.777713153991147,-0.00308641725624052,-0.0979173815731575,1.09269138154263,1.09269138154286,-0.950319129910648,0.22071770121798,-0.742536791321388,-0.797212720844063,1.12737007074605,-0.225473023682851,0.157293847485503,0.9080070190407,0.90800701903836,0.87197887981327,-0.871978879813923,0.175604770779163,1.22879999999986,103,1242.04514563107,519.203883495146,284.733009708738,1278.46116504854,1205.62912621359,514.734951456311,523.672815533981,335.68932038835,233.776699029126,0
1134.08,0.327406282524432,0.0776248327261586,0.319451409140597,0.211500278697706,1.34015768877602,1.34015768877725,,-0.719114697823102,-1.36118393358741,1.21258434974714,0.175014939334332,1.21258434974747,-0.956883669615759,0.989732454508101,-0.633160558475982,0.284923317125247,0.283699934821719,0.328140040619075,0.79704291632033,-0.148215733006736,0.797042916320396,0.33863675959653,-0.103475182738678,0.163463665764391,,2.44305085540738,1.53756971190956,-0.161400253959569,0.161400253960347,-1.02336807816582,-0.795836416331837,0.350887788826058,-0.789559563246706,0.446710315512101,-0.778760104919147,0.0100844955701649,-0.0963102641090871,1.07687402327066,1.0768740232709,-0.978265475311538,0.227620105795578,-0.764167821433982,-0.815640999236973,1.17039280023341,-0.217407312675134,0.167975537038833,0.912066700279271,0.912066700276917,0.874966662321869,-0.874966662322514,0.144804760165821,1.33119999999985,102,1242.77647058824,526.380882352941,295.392156862745,1279.79705882353,1205.75588235294,525.376470588235,527.385294117647,350.127450980392,240.656862745098,0
1134.1824,0.328739528929328,0.126491917868759,0.349107183065647,0.245073217412002,1.3922340093856,1.39223400938682,,-0.731993975127507,-1.34732991340246,1.16377747101794,0.177928369254195,1.16377747101823,-0.959241135664274,1.02050816221235,-0.621455196064425,0.253550832625734,0.261066798960809,0.293947041662777,0.785028313503376,-0.152947336004742,0.785028313503419,0.282290761485552,-0.134298770220255,0.114972259580606,,2.4981322497558,1.54994314510015,-0.177000211729258,0.177000211730042,-1.024630252515,-0.792871282851363,0.366455735022593,-0.772253449910478,0.459602096723292,-0.78048003744026,0.0222790608337312,-0.0959986668098426,1.06008719632475,1.06008719632499,-1.00659230413577,0.233038138743932,-0.786879262488885,-0.833184240310978,1.21211356930347,-0.209130736283673,0.178977834266746,0.9163866775809,0.91638667757852,0.877678252783147,-0.877678252783784,0.114475406437159,1.43359999999984,102,1382.1862745098,479.599509803922,299.470588235294,1402.6568627451,1361.71568627451,487.478431372549,471.720588235294,357.647058823529,241.294117647059,0
1134.2848,0.329535052487856,0.173924488759957,0.377474965325831,0.279114647818598,1.44206212935776,1.44206212935897,,-0.742766679453248,-1.33166248179488,1.11455235290948,0.180145091208695,1.11455235290973,-0.960503721484673,1.05069804670916,-0.608769467333856,0.22179086318969,0.236091859157521,0.25886724070058,0.770009444348993,-0.157773649448387,0.770009444349016,0.224137902743258,-0.165569151054551,0.0651659296649653,,2.55068731356789,1.56112642437725,-0.192812175044172,0.19281217504496,-1.02517310879819,-0.789424433540022,0.381370597932647,-0.754844540867053,0.471935580975195,-0.782868875862556,0.0335191612805459,-0.0969203444090501,1.04235468293786,1.0423546829381,-1.03516692086367,0.236998064821297,-0.810539008131037,-0.84982498053081,1.25248505050335,-0.200656070577332,0.190267858215932,0.920914628436964,0.920914628434559,0.880078284255872,-0.8800782842565,0.0845991224262967,1.53599999999983,103,1561.25194174757,417.348058252427,306.320388349515,1566.49902912621,1556.00485436893,427.918446601942,406.777669902913,374.087378640777,238.553398058252,0
1134.3872,0.329782573067245,0.219817555187758,0.404484832252168,0.313457635689299,1.4894884623823,1.48948846238351,,-0.75139013063452,-1.31424542693879,1.06510525438141,0.181690085139263,1.06510525438162,-0.960637302511073,1.08022666864467,-0.595099584304862,0.189782933356097,0.208809119055935,0.223037693704415,0.752133654347244,-0.162650865350458,0.752133654347246,0.164379338569856,-0.197209325739078,0.0142031461022512,,2.60061300706203,1.5711707094767,-0.208800945283704,0.208800945284497,-1.0249982262481,-0.785505381191616,0.395589297903069,-0.737382513755815,0.483736109140856,-0.785919966754465,0.043834522300366,-0.0990062496328966,1.02370208301302,1.02370208301326,-1.06385012242061,0.239531048901741,-0.835006674783998,-0.865546745054019,1.29146173456666,-0.191996042463228,0.201813134765895,0.925596410216049,0.925596410213641,0.882131744464263,-0.882131744464881,0.0551568716519635,1.63839999999982,102,1393.04705882353,379.931862745098,325.490196078431,1397.70392156863,1388.39019607843,387.317647058824,372.546078431373,396.774509803922,254.205882352941,0
1134.4896,0.329472861338757,0.264068165104006,0.430068930283531,0.347930225910274,1.53436442066567,1.53436442066687,,-0.757828207072012,-1.29515207323514,1.01563515900541,0.182591705446277,1.01563515900559,-0.959610506213078,1.10902110796799,-0.580443733165204,0.157668250365877,0.179261295141358,0.18659897959598,0.731559388742896,-0.167533971767138,0.73155938874287,0.10322133039856,-0.229143201088325,-0.0377548663399445,,2.64781299562866,1.58012861591046,-0.224931072323879,0.224931072324675,-1.02410826239918,-0.781123628447247,0.409071794495067,-0.719914445331932,0.495035039170664,-0.789624092847779,0.0532624918099291,-0.102180828305794,1.00415670819593,1.00415670819619,-1.09249673902513,0.240672956711511,-0.860134186012089,-0.880334129088787,1.32899997904024,-0.183163404691747,0.213581644258691,0.930376330748054,0.930376330745653,0.883804121270499,-0.883804121271106,0.026128420939912,1.74080000000004,103,972.833980582524,293.038834951456,323.417475728155,994.156310679612,951.511650485437,306.799029126214,279.278640776699,380.310679611651,266.52427184466,0
1134.592,0.328597641640817,0.306576020360684,0.454161754244584,0.382356641240965,1.57654745738933,1.57654745739052,,-0.762052020232136,-1.27446501859163,0.966342436969136,0.182881668151682,0.96634243696928,-0.957395187445907,1.13701146652384,-0.56480238369051,0.12558875551584,0.147499611596017,0.149694274252281,0.708455066452633,-0.172376855737558,0.70845506645258,0.0408740665660506,-0.261296063053897,-0.0905450667669474,,2.69219799265897,1.58805361639157,-0.241167060893191,0.24116706089399,-1.02250700555829,-0.776288644765523,0.421781264072883,-0.702484628810335,0.505869482033531,-0.79396948124816,0.0618477655608924,-0.106362347454214,0.983747448909171,0.983747448909437,-1.12095623683362,0.240464134337708,-0.885766422884302,-0.894172897787789,1.36505808108402,-0.174171017700532,0.225541862831071,0.935197431937818,0.935197431935393,0.885061554029662,-0.885061554030256,-0.00250742140504824,1.84320000000002,102,965.963235294118,287.296078431373,309.686274509804,978.729411764706,953.197058823529,293.022549019608,281.569607843137,360.43137254902,258.941176470588,0
1134.6944,0.327149536229048,0.347244132316111,0.476700483559326,0.416558537844545,1.61590213072071,1.61590213072188,,-0.764040571731893,-1.25227579737961,0.917427471350131,0.182595024339079,0.917427471350233,-0.953966913165394,1.16413137160314,-0.548178608947499,0.0936861404149067,0.113583547546855,0.112468381238219,0.682997871668466,-0.177132412075686,0.682997871668386,-0.0224495379461823,-0.293595030069647,-0.144003541018305,,2.73368609243712,1.59499943396914,-0.257473576413289,0.25747357641409,-1.02019942750843,-0.771009859026659,0.433684288690866,-0.685134402970413,0.516281981070582,-0.798941805267952,0.0696420582485884,-0.111463257811095,0.962504641423275,0.962504641423551,-1.14907337215535,0.238949186284437,-0.911741921320066,-0.907050101632112,1.39959637973886,-0.165031929919412,0.237662797235846,0.940001784864993,0.940001784862552,0.885870982557889,-0.885870982558469,-0.030772590687069,1.94560000000001,103,801.660194174757,289.135922330097,316.18932038835,821.08640776699,782.233980582524,298.285436893204,279.98640776699,367.95145631068,264.427184466019,0
1134.7968,0.325122054377007,0.385979485752586,0.497625360869403,0.450356273829455,1.65230114158982,1.65230114159098,,-0.763781357805309,-1.2286844719851,0.869089293124812,0.181770110240726,0.869089293124878,-0.94930543209685,1.19031845530377,-0.530578399079921,0.0621008644515881,0.0775805536416732,0.0750667567544913,0.655372499758378,-0.181752667367492,0.655372499758274,-0.0865350163939147,-0.325969449061251,-0.197966403430502,,2.7722030775655,1.60101944665687,-0.273815637251245,0.273815637252049,-1.01719174558563,-0.765296664976462,0.444751051568697,-0.667901993210248,0.526320130041923,-0.804524180329109,0.0767037153394303,-0.117390590848262,0.940459966646173,0.940459966646463,-1.17668888378241,0.236176769795798,-0.937893595524547,-0.918954208770617,1.43257738812388,-0.155759458211679,0.249914010501546,0.944730795233857,0.944730795231375,0.88620028620253,-0.886200286203098,-0.0586895693430391,2.048,102,747.787745098039,288.075980392157,325.602941176471,772.451960784314,723.123529411765,297.71568627451,278.436274509804,378.558823529412,272.647058823529,0
1134.8992,0.322509622071921,0.422693678180386,0.516880090265084,0.483570146483957,1.68562630196656,1.68562630196772,,-0.76127088741077,-1.20379915928491,0.821524257911875,0.18044846413616,0.821524257911903,-0.943395110192976,1.2155147931598,-0.512010954960078,0.0309712123327166,0.0395657564483384,0.0376345690054318,0.625769894757526,-0.186188926302557,0.625769894757399,-0.151167459417293,-0.358351202995269,-0.252270618758978,,2.80768268519563,1.60616612889492,-0.290158788200346,0.290158788201151,-1.01349149788698,-0.759158439736158,0.45495553304319,-0.650822370061649,0.536036127161403,-0.810697155672776,0.0830972618552364,-0.124046389380513,0.917646406083377,0.917646406083682,-1.2036402092579,0.232199414006458,-0.964049470534167,-0.929875253780149,1.46396595043666,-0.146367271721735,0.262265634359358,0.949325516428263,0.949325516425737,0.886018411331022,-0.886018411331579,-0.0862811934875948,2.15039999999999,102,913.820588235294,380.825980392157,336.274509803922,932.082352941176,895.558823529412,389.703921568628,371.948039215686,394.754901960784,277.794117647059,0
1135.0016,0.319307642407574,0.457303509375945,0.534412232152636,0.516021569561977,1.71576940603207,1.71576940603321,,-0.756515093138776,-1.17773549697298,0.774924781348104,0.178674707809564,0.774924781348097,-0.936225318350608,1.23966729797277,-0.492488948105484,0.00043241476331771,-0.000378342447365629,0.000315814931207942,0.594386004074859,-0.190391940614072,0.594386004074712,-0.216132543006279,-0.390674919963185,-0.306754730276757,,2.84006682071228,1.61049054486043,-0.306469257543542,0.306469257544348,-1.00910762525054,-0.752604572117385,0.464275696431319,-0.633927129700501,0.545486271383899,-0.817438708636938,0.0888928906416237,-0.13132817104913,0.894098260501663,0.894098260501983,-1.22976221493148,0.227073359064409,-0.990033417184554,-0.93980499429473,1.49372941381852,-0.136869475022861,0.274688365865967,0.95372696591189,0.953726965909339,0.885295490656073,-0.885295490656616,-0.113570451253055,2.25279999999998,103,995.678640776699,436.931067961165,343.276699029126,1013.90970873786,977.447572815534,438.679611650485,435.182524271845,407.932038834951,278.621359223301,0
1135.104,0.315512577529997,0.489731511897846,0.550173581696152,0.547534184099806,1.74263299907954,1.74263299908066,,-0.749529630419158,-1.15061605127163,0.729478137515153,0.176496398018341,0.729478137515111,-0.927790766629157,1.2627280727088,-0.472028738454983,-0.0293841687070757,-0.0421621810642222,-0.0367475084961996,0.561420556250987,-0.194312095659772,0.561420556250823,-0.281217485640603,-0.422878096058811,-0.361259505884623,,2.86930571688191,1.61404189096339,-0.322714104908835,0.32271410490964,-1.00405054627379,-0.74564449611175,0.472693652481714,-0.617244399758527,0.554730413176105,-0.82472425315553,0.0941658959421742,-0.139129422312872,0.869851214572,0.869851214572339,-1.25488793882333,0.220858400709519,-1.01566589585119,-0.948737064038181,1.5218378063439,-0.127280681472839,0.287153451100217,0.957876440242689,0.957876440240114,0.8840029593772,-0.884002959377735,-0.140580274848164,2.35519999999997,102,911.038725490196,410.85931372549,355.524509803922,921.728431372549,900.349019607843,416.376470588235,405.342156862745,420.323529411765,290.725490196078,0
1135.2064,0.311122051336721,0.519906434372498,0.564120537051399,0.577934915147362,1.76613106197407,1.76613106197519,,-0.740340081036731,-1.12256967039046,0.685365317160739,0.173963854656431,0.685365317160661,-0.918091791759195,1.28465472929378,-0.450650554584766,-0.0583518222780687,-0.0856894780971292,-0.0734161976083111,0.527075848790754,-0.197899610137487,0.527075848790572,-0.34621195382911,-0.454901154108434,-0.415628523893496,,2.89535804891512,1.61686707216209,-0.338861367403348,0.338861367404151,-0.99833221627143,-0.738287732179509,0.480195797015002,-0.600798778621582,0.563831368616027,-0.832526670188001,0.0989960569007006,-0.147340118403051,0.844942419978988,0.844942419979344,-1.27884935528548,0.213617726387361,-1.04076472395715,-0.956667116883394,1.5482640205615,-0.117616069753079,0.299632664018242,0.961715823163959,0.961715823161345,0.88211367058408,-0.882113670584603,-0.167333336264194,2.45759999999996,102,698.363235294118,355.324509803922,363.240196078431,712.413725490196,684.312745098039,378.880392156863,331.76862745098,420.509803921569,305.970588235294,0
1135.3088,0.306134979815626,0.54776370469981,0.576214479013386,0.607054997714264,1.78618964085499,1.7861896408561,,-0.728982101686573,-1.09373079924996,0.64275993490711,0.171129969872187,0.642759934906993,-0.907134615410138,1.30541067953163,-0.428378653467538,-0.086349222998551,-0.130857604545012,-0.109554620469329,0.491555525233472,-0.201104748608343,0.491555525233275,-0.410908928622666,-0.486687457634819,-0.469708714841842,,2.91819102435502,1.61901029667344,-0.354880207555076,0.354880207555878,-0.991966173687539,-0.730543947333421,0.486772922568928,-0.584611322555991,0.572854297193554,-0.840816357334469,0.103466972946511,-0.155847267106394,0.819410574532126,0.819410574532504,-1.30147817663037,0.205417735963421,-1.06514588430844,-0.963592964145921,1.57298400996933,-0.107891420880665,0.312098287429226,0.965187882015016,0.965187882012378,0.879602007664253,-0.879602007664765,-0.193851855632872,2.55999999999995,103,702.924757281553,386.006310679612,366.490291262136,717.855339805825,687.994174757282,409.603883495146,362.408737864078,423,309.980582524272,0
1135.4112,0.300551735548425,0.573245899618029,0.586422182981714,0.634730994953044,1.80274744517325,1.80274744517434,,-0.71550157067604,-1.06423878107367,0.601827169114715,0.168049998981132,0.601827169114572,-0.894931589886067,1.32496539781854,-0.40524147902871,-0.113261180825899,-0.177557978091024,-0.145031492045208,0.455063327238439,-0.203878050460985,0.455063327238228,-0.475105535689882,-0.51818329065129,-0.523350865644943,,2.9377804654899,1.62051268723622,-0.37074106115683,0.37074106115763,-0.98496758361533,-0.722423044882948,0.492420304831585,-0.568699594853437,0.581866037277263,-0.849561288776108,0.10766534997429,-0.164535477716008,0.793295990743682,0.793295990744079,-1.32260670816906,0.196327844480447,-1.08862439027949,-0.969514709695297,1.59597700675435,-0.0981231355425217,0.324523095643039,0.968236552677264,0.968236552674597,0.876443990942715,-0.876443990943216,-0.22015742640748,2.66239999999993,102,710.95931372549,429.074019607843,374.774509803922,724.432352941177,697.486274509804,449.789215686275,408.358823529412,434.098039215686,315.450980392157,0
1135.5136,0.294374345893144,0.596303230286826,0.594716268478277,0.660805818579002,1.81575641515366,1.81575641515473,,-0.699954765477463,-1.03423716628741,0.562722724173833,0.164781330165037,0.56272272417367,-0.881501435582159,1.34329464662683,-0.381271828689545,-0.138979371197311,-0.22567646862301,-0.179720644937332,0.417801823794581,-0.206170579278622,0.41780182379436,-0.538603834666705,-0.549337803787008,-0.576410083647045,,2.95411089254179,1.62141192477088,-0.386415779288481,0.386415779289279,-0.977353283038972,-0.713935287394972,0.497137760292373,-0.553077784896237,0.59093439345694,-0.858727078564887,0.111680235398988,-0.173287554440384,0.766640663211239,0.766640663211656,-1.34206876766873,0.18642026432897,-1.11101521903355,-0.974434884345384,1.61722576253464,-0.0883282324218522,0.336880332223375,0.970807218112231,0.970807218109532,0.872617381814512,-0.872617381815002,-0.246270856357223,2.76479999999992,103,715.069902912621,431.053883495146,382.936893203883,731.053398058253,699.08640776699,452.45145631068,409.656310679612,444.941747572816,320.932038834951,0
1135.616,0.287606715435197,0.616894027630465,0.601075668843408,0.685129736746357,1.82518223066676,1.82518223066781,,-0.682408549598116,-1.00387302555726,0.525591827450467,0.161383228298645,0.525591827450276,-0.866869457884015,1.36038065185761,-0.356507019821766,-0.163403043536584,-0.275093808851731,-0.213501778946592,0.379971141148699,-0.20793419064409,0.379971141148473,-0.601211555765602,-0.580102917235781,-0.628746208935837,,2.96717560100588,1.62174194767835,-0.401877757862004,0.401877757862798,-0.969141824805114,-0.705091448758667,0.50092966828355,-0.537756897331041,0.600127377522248,-0.868277047729271,0.115602203618135,-0.181985110247609,0.739488351396842,0.739488351397278,-1.3597006655456,0.175769766182308,-1.13213430979685,-0.978358576230691,1.63671680454094,-0.0785243288606852,0.349143677251824,0.972846984875505,0.972846984872773,0.868101789598484,-0.868101789598966,-0.272212018942232,2.86719999999991,102,712.48431372549,433.34068627451,393.098039215686,731.737254901961,693.23137254902,454.219607843137,412.461764705882,458.803921568627,327.392156862745,0
1135.7184,0.280254858812493,0.634985187518856,0.605486086161926,0.707561326180916,1.83100470979284,1.83100470979388,,-0.662940485350007,-0.973296236917399,0.490568304193441,0.15791655112834,0.490568304193234,-0.851067717670439,1.37621221903977,-0.330989030728254,-0.186439669365984,-0.325686007884932,-0.246261155291857,0.341767739021551,-0.209121809112313,0.341767739021318,-0.662742759702212,-0.610433161851308,-0.680224151841625,,2.97697671250498,1.62153272487969,-0.417102050172229,0.417102050173021,-0.960353515121113,-0.695902985986289,0.503804951041793,-0.522745003963363,0.609512415430965,-0.878172304929558,0.119522498929438,-0.190509200112228,0.711884694299287,0.71188469429974,-1.37534222493641,0.164453424109352,-1.15179960578249,-0.981293550704434,1.6544406938375,-0.0687296053638021,0.361287203900375,0.974304956920674,0.974304956917934,0.862878779438214,-0.862878779438687,-0.297999707573443,2.9695999999999,102,714.153431372549,456.728431372549,399.867647058824,732.425490196078,695.88137254902,473.432352941177,440.024509803922,466.647058823529,333.088235294118,0
1135.8208,0.272327134904873,0.650552532101322,0.607940398362659,0.727968313408989,1.8332180425204,1.83321804252141,,-0.641638765551508,-0.942658707672544,0.457773790764666,0.154443443303457,0.457773790764446,-0.834135127864967,1.39078479164159,-0.304764583982759,-0.208005486216807,-0.377324763081441,-0.277892193803147,0.303383284758625,-0.209687705042288,0.303383284758387,-0.723018392933556,-0.640285440573875,-0.7307141304136,,2.98352517834548,1.62081011165589,-0.432065461927214,0.432065461928001,-0.951010441270882,-0.68638221762214,0.505777008052004,-0.508047543603511,0.619155539913032,-0.88837185434893,0.123532148141244,-0.19874097809106,0.683877367521111,0.683877367521575,-1.38883781765685,0.152550349986417,-1.1698321156931,-0.983250351886576,1.67039227168749,-0.0589627538803936,0.373285329108639,0.975132500082452,0.97513250007969,0.856931977518071,-0.856931977518537,-0.323651485388445,3.07199999999989,103,713.606796116505,459.450485436893,409.310679611651,731.138834951456,696.074757281553,481.403883495146,437.497087378641,475.543689320388,343.077669902913,0
1135.9232,0.263834479435886,0.6635810680389,0.608439004775023,0.746228271997266,1.83183083044955,1.83183083045055,,-0.618601899343111,-0.912113505796271,0.427317125745327,0.151027020716062,0.4273171257451,-0.816117463631196,1.40410046037458,-0.277885153757176,-0.228025911498294,-0.429877864079506,-0.308295947749363,0.26500365348324,-0.209587766120653,0.265003653482998,-0.781866729146012,-0.669618712786796,-0.780091803423431,,2.98684072693498,1.61959578436931,-0.446746630583558,0.446746630584342,-0.941136487186327,-0.676542494187862,0.506863602182376,-0.493667652058503,0.629120588323962,-0.898832739974265,0.127721057679262,-0.206562381831235,0.655516274106071,0.655516274106547,-1.40003740678251,0.140141409947268,-1.18605699010778,-0.984242379109885,1.68457088278668,-0.0492429093065684,0.385112765889048,0.975283487540072,0.975283487537294,0.850247175644728,-0.850247175645182,-0.349183524778098,3.17439999999988,102,714.430476524003,455.074625141054,417.005125701733,734.371694735986,694.48925831202,483.387690179806,426.761560102302,484.853388658368,349.156862745098,0
1136.0256,0.254790625951587,0.67406515502032,0.606990109557978,0.762229188659741,1.82686594599918,1.82686594600017,,-0.593938166831725,-0.881813900079498,0.399293907697403,0.14773105736945,0.399293907697171,-0.797067296093968,1.41616792898074,-0.250406905889636,-0.246435834778032,-0.483209585965759,-0.337381463457028,0.226808045888533,-0.208779758130431,0.226808045888287,-0.839123721406735,-0.698393633731683,-0.828238328227393,,2.98695175099289,1.61790723100528,-0.461126091204361,0.461126091205143,-0.930757334403491,-0.666398349818826,0.507086695667907,-0.479606509093811,0.639468419940895,-0.909510228441025,0.132177108454191,-0.213856840903577,0.626853729016696,0.626853729017184,-1.4087976007285,0.127308904612046,-1.20030462621908,-0.98428593592075,1.69698056727864,-0.0395895672821378,0.396744483132022,0.974714519973981,0.974714519971179,0.842812435501505,-0.842812435501952,-0.37461043721841,3.27679999999987,103,736.064757351615,402.470824463287,412.066390041494,756.255601659751,715.873913043478,427.75643153527,377.185217391304,476.132780082988,348,0.330097087378641
1136.128,0.245212288799995,0.682008610636576,0.603609936146432,0.775869945828393,1.81836025833412,1.8183602583351,,-0.567764916560051,-0.851912328490643,0.373786167866534,0.144619680502469,0.373786167866307,-0.777043871716494,1.42700243335078,-0.222390597527504,-0.263179821731618,-0.537181071542144,-0.365066055554175,0.188968195819765,-0.207223567766121,0.18896819581952,-0.894633311054938,-0.72657219663846,-0.875040393090772,,2.98389512558679,1.61575776476796,-0.475186332964846,0.475186332965626,-0.919900447580116,-0.655965631775326,0.506472237466925,-0.465863696532423,0.650256163298826,-0.92035802798826,0.136985260732982,-0.220509998951728,0.597944576114112,0.597944576114611,-1.41498272418985,0.114136197589335,-1.21241181345055,-0.983400254747836,1.70763021565486,-0.030022497223808,0.408155672381958,0.973385121656523,0.973385121653698,0.834618184124233,-0.834618184124672,-0.399945103493986,3.37919999999986,102,764.866388184356,332.732326056889,405.845456024734,786.32510373444,743.407672634271,353.326970954357,312.13768115942,463.798755186722,347.892156862745,0.0686274509803922
1136.2304,0.235119276096652,0.687424770393211,0.59832285687878,0.787060768429456,1.80636427922421,1.80636427922519,,-0.540207789364399,-0.822559324533946,0.350862102549516,0.141757074346934,0.350862102549291,-0.756112956308779,1.43662560682326,-0.193901461435827,-0.278212263872317,-0.591650701768429,-0.391275529266457,0.151647642327909,-0.204881423385903,0.151647642327666,-0.948247734371332,-0.754117416253019,-0.920390266487086,,2.97771595023996,1.61315654134764,-0.488911850892318,0.488911850893095,-0.908595046331856,-0.64526160862133,0.505049907949452,-0.4524375635031,0.6615365057785,-0.931328536605503,0.142226685467073,-0.226410439656324,0.568846188420837,0.568846188421344,-1.41846590683667,0.100707286718279,-1.22222292351189,-0.981607503774406,1.71653368262408,-0.0205616627430678,0.419321714506439,0.97125791793037,0.971257917927524,0.825657292089556,-0.825657292089989,-0.425198515585633,3.48159999999984,102,776.030390122854,291.857804491091,409.788259702221,799.582348873159,752.478431372549,306.950903099829,276.764705882353,472.841225286795,346.735294117647,0
1136.3328,0.224534515028245,0.690336513058777,0.591161428986145,0.795723658393019,1.7909417671748,1.79094176717579,,-0.511399927064738,-0.793902432881014,0.330575831998984,0.139207191142596,0.330575831998762,-0.734346652962399,1.44506528670654,-0.165009087943364,-0.291497493325663,-0.646474449947979,-0.4159443666339,0.115001051104528,-0.201718094727583,0.11500105110429,-0.999827845087748,-0.780993069031222,-0.96418588130427,,2.96846722022258,1.61010858098453,-0.502289190880892,0.502289190881669,-0.896872065989674,-0.634305055717874,0.502852828156296,-0.439325590825979,0.673357039021885,-0.942373107220558,0.147977942927098,-0.23145041103647,0.539618337504919,0.539618337505435,-1.4191301911061,0.087106318874825,-1.22959114568529,-0.978932782563406,1.72370985970339,-0.0112271587442395,0.430218138480425,0.968298797820001,0.968298797817127,0.815925134392798,-0.815925134393224,-0.450379630566693,3.58399999999983,103,772.438349514563,290.948058252427,420.106796116505,794.432038834952,750.444660194175,307.709708737864,274.18640776699,491.893203883495,348.320388349515,0
1136.4352,0.213483994963832,0.690776257242277,0.582166344964126,0.801792815708155,1.77216931132646,1.77216931132745,,-0.481481194975717,-0.766085140187474,0.312967176788853,0.137033468155804,0.312967176788635,-0.711823197832285,1.45235526408582,-0.135787308053311,-0.303009867581202,-0.701506214752937,-0.43901588011804,0.0791735780143096,-0.197701074587209,0.0791735780140755,-1.04924344948531,-0.807163485669768,-1.00633095002903,,2.95620944116653,1.60661480163042,-0.515306979496437,0.515306979497212,-0.884764109381741,-0.623116315866457,0.499917241716746,-0.426524744691169,0.685759669272113,-0.953442315620703,0.154310226150949,-0.235526545236475,0.510322944767997,0.510322944768516,-1.41686966345535,0.073417050510581,-1.23437977017786,-0.975404111517262,1.72918271065579,-0.0020391690368079,0.440820571950394,0.964477061592904,0.964477061590024,0.805419639522623,-0.805419639523041,-0.475495225714976,3.68639999999982,102,830.284803921569,297.114215686275,421.808823529412,853.048039215686,807.521568627451,311.574509803922,282.653921568627,493.598039215686,350.019607843137,0
1136.5376,0.201996649032821,0.688785930575484,0.571386315427235,0.805215032025868,1.75013590634147,1.75013590634247,,-0.450597429847947,-0.739245837277069,0.298061458194535,0.135298551599649,0.298061458194321,-0.688626737579882,1.45853498846274,-0.106314076683929,-0.31273382291243,-0.75659813341596,-0.46044233268425,0.0443002707647418,-0.192800743679967,0.0443002707645122,-1.09637364258905,-0.832593386241878,-1.04673509949217,,2.94101020284818,1.60267206233018,-0.527955932334132,0.527955932334906,-0.872305390546203,-0.611717336985854,0.496282180345438,-0.414031812910048,0.698780095318672,-0.964486219778659,0.161288678443515,-0.238540570534784,0.481023733168003,0.481023733168525,-1.41159061332435,0.0597222549113477,-1.23646352285968,-0.971052418950079,1.73298127605265,0.00698205520261939,0.451104692903889,0.95976555046797,0.959765550465097,0.794141333072969,-0.794141333073376,-0.500549743074191,3.78880000000004,103,934.571844660194,302.568446601942,418.694174757282,962.429126213592,906.714563106796,310.72427184466,294.412621359223,495.854368932039,341.533980582524,0
1136.64,0.190104196305199,0.6844169070553,0.558877900382804,0.805950040365346,1.72494252151623,1.72494252151723,,-0.418899718017413,-0.713516819763085,0.28586933850037,0.134064031405683,0.285869338500163,-0.66484708879492,1.4636492434388,-0.0766713488138022,-0.320663894285388,-0.811600884890403,-0.480185024545756,0.0105055077535707,-0.186990517417043,0.0105055077533439,-1.14110713576636,-0.857247753080258,-1.08531401703051,,2.9229437259769,1.59827321169713,-0.540228839392926,0.540228839393698,-0.859531668463826,-0.600131688800015,0.491989122632867,-0.401843718174496,0.712447356811723,-0.975454605435399,0.168971790706497,-0.240400011753558,0.451785794799521,0.45178579480005,-1.40321271771552,0.0461030758694417,-1.23572994966271,-0.965911525874778,1.73513965204327,0.0158161999541419,0.461046194961044,0.954140755240183,0.954140755237332,0.782093382097508,-0.782093382097905,-0.525545120068426,3.89120000000003,102,931.353921568627,304.337254901961,434.96568627451,959.614705882353,903.093137254902,312.779411764706,295.895098039216,517.892156862745,352.039215686275,0
1136.7424,0.177840957990011,0.677729900663764,0.544705293217104,0.803970804770092,1.69670165334486,1.69670165334584,,-0.386543700622046,-0.689023329785335,0.276386722486482,0.133390190900521,0.276386722486284,-0.640579470307935,1.46774780443494,-0.0469449329724152,-0.326804698119768,-0.866363995179751,-0.498214345945083,-0.0220975191102894,-0.180246973761466,-0.0220975191105155,-1.18334256890469,-0.88109173978134,-1.1219896031262,,2.90209039128226,1.59340714058294,-0.55212052689201,0.55212052689278,-0.846480166997026,-0.588384554141738,0.487081648578464,-0.389957800229375,0.726783461203219,-0.986297218677934,0.177410886617882,-0.241018873518055,0.422675090563371,0.422675090563911,-1.39167023225726,0.0326383343833818,-1.23208083018484,-0.96001812358884,1.73569694485303,0.0244428838878678,0.47062077520742,0.947582901978241,0.947582901975434,0.769281644537776,-0.769281644538164,-0.550480612990756,3.99360000000002,103,977.844660194175,429.184951456311,471.854368932039,997.443689320388,958.245631067961,431.220388349515,427.149514563107,561.805825242718,381.902912621359,0
1136.8448,0.165243647454195,0.668794797297462,0.528940046734149,0.799263731786444,1.66553683198049,1.66553683198147,,-0.353688884073023,-0.665882640787909,0.269594741671728,0.133335771572625,0.269594741671542,-0.615924192163945,1.47088507890481,-0.0172243032645531,-0.331170870276837,-0.920736153403427,-0.51450979083015,-0.053407260637099,-0.172549964620994,-0.0534072606373164,-1.22298880047061,-0.904090611801392,-1.15669012437564,,2.87853625349527,1.58805884717946,-0.563627796914131,0.563627796914897,-0.833189477171489,-0.576502686468687,0.481605087542659,-0.378372057445099,0.741803100444891,-0.996963988470134,0.186649705344325,-0.240318296293953,0.393757904536114,0.39375790453667,-1.37691313497821,0.0194038209426014,-1.22543355605308,-0.953411738422048,1.73469719780533,0.0328416502315889,0.479804146430815,0.940076014975275,0.940076014972489,0.755714722192295,-0.755714722192677,-0.575352627035598,4.096,102,997.988725490196,486.317156862745,495.872549019608,1015.60980392157,980.367647058824,487.510784313726,485.123529411765,584.852941176471,406.892156862745,0
1136.9472,0.152351124015294,0.657690408829768,0.511660723388371,0.791828782662733,1.63158204498456,1.63158204498553,,-0.320497914444231,-0.644203188756071,0.265459841157884,0.133957748420834,0.265459841157713,-0.590986284385678,1.47311972216175,0.0123976461834791,-0.333786948166241,-0.974565545987555,-0.529059922787634,-0.083334182178424,-0.163882715906907,-0.083334182178631,-1.25996516820643,-0.926209712585355,-1.18935035962475,,2.85237253770174,1.58220952985308,-0.574749349562743,0.574749349563505,-0.819699435709725,-0.564514325998749,0.475606159820016,-0.367085337235487,0.757513467789104,-1.00740523975908,0.196724092007491,-0.238227170244262,0.365100283718377,0.365100283718953,-1.35890812646765,0.00647164299141029,-1.21572235298902,-0.946134680021723,1.7321892838211,0.0409919544945801,0.488572066588224,0.931607957237995,0.931607957235215,0.741404007231757,-0.741404007232132,-0.600154572113193,4.19839999999999,102,997.490196078431,492.358333333333,504.495098039216,1012.55980392157,982.420588235294,492.774509803922,491.942156862745,594.392156862745,414.598039215686,0
1137.0496,0.139204101666349,0.644504142024209,0.492952458055899,0.781679464470149,1.59498105713063,1.59498105713158,,-0.287135777386171,-0.624083759132683,0.263933988906195,0.135311109223203,0.263933988906036,-0.565875052926862,1.47451422247632,0.0418249158240991,-0.334687184799739,-1.02770021753605,-0.541862283871927,-0.111801028303719,-0.154231921600413,-0.111801028303915,-1.29420171316508,-0.947414452304399,-1.21991173346276,,2.8236951162624,1.57583672370254,-0.585485691850728,0.585485691851486,-0.806050973334871,-0.552449069900089,0.46913261735748,-0.356097464377078,0.77391418182238,-1.01757189281041,0.207661805687038,-0.234682690397993,0.336767498277807,0.3367674982784,-1.33763937694187,-0.00609028668975132,-1.2028992056811,-0.938231968937475,1.72822675774389,0.048873149512995,0.496900373932763,0.922170445382039,0.922170445379268,0.726363706665029,-0.726363706665398,-0.624876766409799,4.30079999999998,103,992.712621359223,691.568446601942,503.480582524272,1010.05436893204,975.370873786408,685.373786407767,697.763106796117,592.233009708738,414.728155339806,0
1137.152,0.125844813014217,0.629331583294437,0.472906434161286,0.768842681855666,1.55588663030494,1.55588663030589,,-0.253768911322824,-0.605612745208856,0.264955023060005,0.137448632189326,0.26495502305986,-0.540703560188299,1.47513445698935,0.0709587880689039,-0.333915283942122,-1.07998846221967,-0.552923237131883,-0.138742966576832,-0.143587835726558,-0.138742966577012,-1.32563936080551,-0.967670318474303,-1.24832243287112,,2.79260397029245,1.56891449271235,-0.595839035900014,0.595839035900769,-0.792285933536599,-0.540337698638272,0.462232892689678,-0.345409302382571,0.790997315899495,-1.02741564090402,0.219482447599977,-0.229630839830489,0.308823552726885,0.308823552727495,-1.31310895202695,-0.018218562229067,-1.1869343951897,-0.929751238795672,1.72286767033172,0.0564644758037492,0.504765023038746,0.911759032128927,0.911759032126156,0.710610831246658,-0.71061083124702,-0.64950640060179,4.40319999999997,102,990.86568627451,777.017156862745,488.598039215686,1009.03725490196,972.694117647059,768.280392156863,785.753921568627,569.970588235294,407.225490196078,0
1137.2544,0.11231663786548,0.612276003897984,0.451619283737351,0.753358440135521,1.51445966343209,1.51445966343304,,-0.220564245776621,-0.588867491877597,0.2684471393488,0.140420659474207,0.268447139348676,-0.515588040253721,1.47504922939034,0.0996982809364026,-0.331524050640183,-1.13127924120045,-0.562257736521657,-0.164107610703162,-0.131944363097034,-0.164107610703329,-1.35423005648973,-0.986942908202857,-1.27453750527261,,2.75920264448826,1.561413680627,-0.60581319041795,0.605813190418704,-0.778446868545852,-0.528211968286596,0.454955765837108,-0.335022753041774,0.808747519294402,-1.03688910039701,0.232197498902978,-0.223026794183724,0.281330763554565,0.281330763555201,-1.28533691928268,-0.0298543931019048,-1.16781664849442,-0.920742612362195,1.7161743518582,0.0637450644187204,0.51214212905755,0.900373050580385,0.900373050577607,0.69416514424752,-0.694165144247873,-0.674027557058137,4.50559999999996,102,961.672058823529,761.737745098039,492.446078431373,976.967647058824,946.376470588235,750.339215686275,773.136274509804,578.970588235294,405.921568627451,0
1137.3568,0.0986637105031647,0.593447790703619,0.429192426177392,0.735279404722129,1.47086827460895,1.4708682746099,,-0.187688185672921,-0.573913729430554,0.274321506453385,0.144274867930381,0.274321506453275,-0.490647266002682,1.47432980387702,0.127940655102124,-0.327574960466557,-1.18142261904168,-0.569889025702493,-0.187854935209805,-0.119299144911183,-0.187854935209959,-1.37993685726908,-1.00519798423049,-1.29851894010651,,2.72359770452035,1.55330220911183,-0.61541345075621,0.615413450756964,-0.76457681716326,-0.516104380626522,0.447350056823941,-0.324940703784791,0.827142211455441,-1.04594593335283,0.245810448973357,-0.214835249124539,0.254349401141732,0.254349401142386,-1.25436118895841,-0.0409435470987743,-1.14555296725361,-0.911258556147399,1.70821317178192,0.0706939508874012,0.519008033705436,0.888015519668187,0.888015519665386,0.677049075298839,-0.677049075299183,-0.698421267382659,4.60799999999995,103,904.297087378641,755.55,494.800970873786,921.22427184466,887.369902912621,751.756310679612,759.343689320388,584.446601941748,405.155339805825,0
1137.4592,0.0849305172876457,0.572963809283718,0.405731359362673,0.714670337020701,1.42528684471563,1.42528684471658,,-0.155305565422507,-0.560805097222614,0.282476990490094,0.149056041884788,0.282476990489996,-0.466001885298256,1.47304944598469,0.155581959601149,-0.322137660108254,-1.23027021540958,-0.575848276616552,-0.209957099724448,-0.105653632280287,-0.209957099724585,-1.40273398428362,-1.02240155931055,-1.32023573861773,,2.68589820554449,1.5445453994248,-0.62464649218272,0.624646492183475,-0.750719065865789,-0.504047940725138,0.439464348617451,-0.315166932026044,0.846151833828607,-1.05454094794843,0.260316995294796,-0.205030678926133,0.227937383853733,0.227937383854411,-1.22023715497769,-0.051436178426716,-1.12016822017252,-0.901353721119079,1.69905427661877,0.0772900914041274,0.525339403083462,0.874693015655745,0.874693015652915,0.659287609272929,-0.659287609273264,-0.722665595822575,4.71039999999994,102,905.729901960784,755.364705882353,492.475490196078,918.71568627451,892.744117647059,748.680392156863,762.049019607843,581.5,403.450980392157,0
1137.5616,0.0711614873306636,0.550946712058095,0.381344912899202,0.691607435877842,1.377895039371,1.37789503937195,,-0.123578601848873,-0.549582762161017,0.292800967598838,0.154805852348135,0.292800967598742,-0.441773741492358,1.47128297186261,0.182517599455021,-0.315289416044356,-1.27767566995913,-0.580174182887203,-0.23039820099009,-0.0910131433439835,-0.230398200990209,-1.42260683911655,-1.03852001129832,-1.33966397497564,,2.64621517879112,1.53510629464694,-0.633520269529129,0.633520269529884,-0.736916896142917,-0.492075910384101,0.43134674272731,-0.305705976062577,0.865740147273886,-1.06263018207436,0.275705299598526,-0.193597534146882,0.202150013476415,0.202150013477113,-1.18303718884066,-0.0612865820421008,-1.09170456670675,-0.891084777696845,1.68877130844094,0.0835123717980878,0.531113357369768,0.860415517988371,0.860415517985506,0.640908158872472,-0.640908158872797,-0.746735744493763,4.81279999999993,103,979.319417475728,778.122330097087,493.742718446602,984.779611650485,973.859223300971,764.01359223301,792.231067961165,585.611650485437,401.873786407767,0
1137.664,0.0574005706769268,0.527524211524973,0.356144470505483,0.666177613408868,1.32887682344676,1.32887682344771,,-0.0926658806950534,-0.540275146047512,0.305170204489252,0.161562642103506,0.305170204489153,-0.418085189021504,1.46910629754395,0.208642908921419,-0.307114524828895,-1.3234951143809,-0.582912519224272,-0.249173964769392,-0.0753869048906762,-0.249173964769495,-1.43955198321625,-1.05352022647324,-1.35678684707695,,2.60466113626335,1.52494596959538,-0.642043923066608,0.642043923067365,-0.723213324549341,-0.480221562207262,0.42304464368022,-0.296562982239455,0.885864566738819,-1.07017097350886,0.291956289797883,-0.180530379992163,0.177039747413198,0.177039747413922,-1.14285002004219,-0.0704528997558031,-1.06022075495568,-0.880510250780589,1.67744110968712,0.0893396057407341,0.536307622265879,0.845196237909999,0.845196237907114,0.621940425282936,-0.621940425283247,-0.770604180491163,4.91519999999991,102,1018.44766063348,794.030419306184,504.590693815988,1024.3404826546,1012.55483861237,782.636757164404,805.424081447964,596.070437405732,413.110950226244,0
1137.7664,0.0436907991599431,0.502828339845447,0.330243169924601,0.638477727477872,1.27841948041014,1.27841948041108,,-0.0627214106168145,-0.532897778742941,0.319451791481658,0.169361211752454,0.319451791481562,-0.395058408357044,1.46659597760277,0.233853720515394,-0.297703692603168,-1.36758764125941,-0.584115671573979,-0.26629138103882,-0.0587880805627739,-0.266291381038902,-1.45357707615142,-1.06736976684527,-1.3715947125317,,2.56134958530447,1.51402382202244,-0.650227686984401,0.650227686985159,-0.709650842167971,-0.468517931672294,0.414604560641603,-0.287743534790121,0.906476531881588,-1.0771220210288,0.309044003876988,-0.165833971959997,0.152656005688968,0.152656005689712,-1.09978002246452,-0.0788967923576885,-1.02579131829479,-0.869690354699552,1.66514341953273,0.0947505264571699,0.540900689570925,0.829051435184352,0.82905143518144,0.602416247478159,-0.602416247478459,-0.794240787045391,5.0175999999999,102,1016.786,722.267538461539,518.902307692308,1021.38184615385,1012.19015384615,717.827846153846,726.707230769231,608.916923076923,428.887692307692,0.382352941176471
1137.8688,0.0300738355131115,0.476994709503518,0.303755093631324,0.608613784045154,1.22671264974303,1.22671264974397,,-0.033893769335277,-0.527453287771231,0.33550411701104,0.17823260286138,0.335504117010951,-0.372814723485441,1.46382873394173,0.258046926511413,-0.287153387674109,-1.4098157601154,-0.583842139403271,-0.281768281949348,-0.0412337835586692,-0.281768281949411,-1.4647007693892,-1.08003705746146,-1.38408510602068,,2.51639454458517,1.50229783936919,-0.658082798403023,0.658082798403785,-0.696271156843371,-0.456997562797261,0.406071915615403,-0.27925347131902,0.927521916555934,-1.08344344366693,0.32693597457631,-0.149523265927656,0.129045008722964,0.129045008723727,-1.05394642021687,-0.0865830891409687,-0.988505688498293,-0.858686822929461,1.65196056227572,0.099723779458633,0.544871980430132,0.812000224644495,0.812000224641574,0.582369439490869,-0.582369439491161,-0.817613041001517,5.11999999999989,103,1014.89369230769,630.522153846154,532.621538461538,1017.02953846154,1012.75784615385,628.605538461539,632.438769230769,620.270769230769,444.972307692308,0.902912621359223
1137.9712,0.0165895274278501,0.45016178155371,0.276794468112389,0.576700115302842,1.17394739573395,1.17394739573489,,-0.00632535476675452,-0.523931524738754,0.353177873079394,0.188203879218721,0.353177873079318,-0.351473930770274,1.46088099092226,0.281121030372421,-0.275565168478992,-1.45004583515593,-0.582156011037211,-0.295632865934781,-0.0227450666968927,-0.295632865934823,-1.4729525552761,-1.09149158784026,-1.39426273522338,,2.46991006114267,1.48972483622418,-0.665621410531567,0.665621410532332,-0.68311494079727,-0.445692249853474,0.397490857983293,-0.271098687481761,0.948941476225218,-1.08909684436642,0.345593650336278,-0.131623362519629,0.106249639623493,0.106249639624273,-1.00548242676965,-0.0934794292294255,-0.948467244945207,-0.847562726421676,1.63797712421295,0.10423792209253,0.548202013211813,0.794064372003279,0.794064372000352,0.561835615699774,-0.561835615700056,-0.840686214250298,5.22239999999988,102,1012.43398340875,540.017416289593,546.452895927602,1012.18901960784,1012.67894720965,539.765098039216,540.26973453997,632.84705882353,460.058733031674,0
1138.0736,0.003275484732804,0.422470144852419,0.249474888919362,0.542858539041959,1.12031531384502,1.12031531384595,,0.0198482581360448,-0.522309819550004,0.372317080255108,0.199297912013364,0.372317080255038,-0.331153650133562,1.45782843655726,0.302976684803957,-0.263044991165383,-1.48814850416928,-0.579126415844404,-0.307923176989861,-0.00334688149983665,-0.307923176989883,-1.47837257457518,-1.10170412171575,-1.40213945481097,,2.42200973613676,1.47626065896707,-0.672856515854741,0.67285651585551,-0.670221588682687,-0.434632781814367,0.388904090154675,-0.263284935948907,0.970671328604617,-1.09404538074499,0.364972846136911,-0.112169387190015,0.0843093241018382,0.0843093241026353,-0.95453433197018,-0.09955591267652,-0.90579232194068,-0.836382273964271,1.62327961556376,0.108271436359303,0.550872581631272,0.775268077664208,0.77526807766129,0.540852004723805,-0.540852004724079,-0.863423593438824,5.32479999999987,103,1006.35339805825,528.927669902913,553.266990291262,1007.08932038835,1005.61747572816,525.333980582524,532.521359223301,641.815533980583,464.718446601942,0
1138.176,-0.00983331122841101,0.394061812176909,0.221908582542095,0.507217509511762,1.06600766917052,1.06600766917145,,0.0444988659863853,-0.522553346906578,0.392760122673429,0.211533176500139,0.392760122673371,-0.31196870245038,1.45474561726861,0.323517215483371,-0.249702505924571,-1.52399908224004,-0.574826962573332,-0.318686547188131,0.0169319972593781,-0.318686547188129,-1.48101138895654,-1.11064691460937,-1.4077342222447,,2.37280626854531,1.46186035429661,-0.679801880826062,0.679801880826835,-0.657628990964686,-0.423848692098315,0.380352704407101,-0.255817623083469,0.992643466055536,-1.0982538447674,0.385024221692745,-0.0912063082039201,0.0632599225218874,0.0632599225227004,-0.901260548286922,-0.104784779039107,-0.860609193145748,-0.82521058652171,1.60795611690225,0.111802765766903,0.552866945794103,0.755637748839601,0.755637748836692,0.519457250588376,-0.519457250588645,-0.885786718159348,5.42719999999986,102,1000.55147058824,328.232352941177,591.519607843137,997.060784313726,1004.04215686275,343.283333333333,313.18137254902,671.921568627451,511.117647058824,0
1138.2784,-0.0227048688554385,0.365079541551232,0.19420570758827,0.469911273203558,1.01121455447504,1.01121455447597,,0.0675061063860122,-0.5246155892621,0.414340785474709,0.224923563935919,0.414340785474664,-0.294030509830798,1.45170555760015,0.342649130245064,-0.235650353329153,-1.55747795498788,-0.569335175332929,-0.327979004467332,0.038059077575977,-0.32797900446731,-1.4809297234424,-1.11829394235136,-1.41107303985504,,2.32241102331096,1.44647830281329,-0.686471987961959,0.686471987962736,-0.645373324959198,-0.413368011758019,0.371876025300363,-0.248701605586881,1.0147863016505,-1.10168875310941,0.405693787941703,-0.068788693311677,0.0431336336759946,0.0431336336768216,-0.845830623031339,-0.109140126235032,-0.813057045547427,-0.814113439300741,1.59209591152637,0.114810386030185,0.554170034068235,0.735201763451855,0.735201763448943,0.497691197766714,-0.497691197766976,-0.9077356454122,5.52959999999985,102,996.762254901961,310.080882352941,598.029411764706,990.977450980392,1002.54705882353,325.114705882353,295.047058823529,703.009803921569,493.049019607843,0
1138.3808,-0.0353105272241697,0.335666188976086,0.166473691320634,0.431079042010092,0.956124057453979,0.956124057454891,,0.088757858823126,-0.528438885133955,0.43688928557489,0.239478206430819,0.43688928557485,-0.277446515132785,1.44877938948743,0.360282610703028,-0.221003469336047,-1.58847096592755,-0.562731936285559,-0.335864645322681,0.0599982787917333,-0.33586464532264,-1.47819818014085,-1.12462114188927,-1.41218888461907,,2.27093362990415,1.43006832884373,-0.692881978102864,0.692881978103645,-0.633488862208059,-0.403217024448971,0.363511450943567,-0.241940990554098,1.03702524825443,-1.10431844588186,0.426923442496236,-0.0449804015167533,0.0239589157950369,0.0239589157958802,-0.788424221682081,-0.112597676976645,-0.763284951197179,-0.803156969344214,1.57578910333825,0.117272912337076,0.554768650402956,0.713990231615705,0.713990231612808,0.475594660666818,-0.475594660667079,-0.929229246178858,5.63199999999983,103,997.845145631068,308.169902912621,568.621359223301,993.454368932039,1002.2359223301,327.635922330097,288.703883495146,681.126213592233,456.116504854369,0
1138.4832,-0.0476252813834675,0.305964093159596,0.138816597974779,0.390864191728026,0.900921436222141,0.900921436223044,,0.108150584435832,-0.533955053891941,0.460233286881732,0.255201310403331,0.460233286881699,-0.262319617924628,1.44603598013665,0.376331984373195,-0.205878404948332,-1.61686980511659,-0.555100942224859,-0.342414973727753,0.0827100740860844,-0.342414973727692,-1.47289692412839,-1.12960666347574,-1.41112162576526,,2.2184816199888,1.41258380346229,-0.699047580278578,0.699047580279363,-0.622007781618206,-0.393420022275464,0.355294290050237,-0.235538940313896,1.05928332615087,-1.1061131845155,0.448651534761136,-0.0198542036061183,0.00576043225852682,0.00576043225937867,-0.729230088931907,-0.115134596624135,-0.711450844570111,-0.792407347102496,1.55912621634124,0.119169242287652,0.554651677928859,0.692034760788836,0.69203476078595,0.45320918795098,-0.453209187951237,-0.950225532193642,5.73439999999982,102,952.000490196079,324.03431372549,540.56862745098,952.980392156863,951.020588235294,337.395098039216,310.673529411765,644.294117647059,436.843137254902,0
1138.5856,-0.0596280850065204,0.276114487391002,0.111334531888574,0.349413486459736,0.845788312685464,0.845788312686367,,0.125589612602264,-0.541086085707349,0.484198895589238,0.272091996945366,0.484198895589215,-0.248747623461229,1.44354155577433,0.390716179950357,-0.190392665745023,-1.64257240746438,-0.54652818175546,-0.34770820883293,0.106151638327704,-0.347708208832852,-1.46511534352025,-1.13323113183825,-1.4079179304036,,2.16516011465522,1.39397775337177,-0.704985010914785,0.704985010915572,-0.61095996712023,-0.383999062018795,0.347257597022645,-0.229497479469351,1.08148179281768,-1.10704523720729,0.470813460831717,0.00650867161633067,-0.0114409725361156,-0.0114409725352508,-0.668444997012045,-0.116729363964487,-0.657720514865392,-0.781930410727848,1.54219777231582,0.12047873355891,0.553810267766051,0.669368229581295,0.669368229578413,0.430576839025963,-0.43057683902622,-0.97068200486422,5.83680000000004,103,907.222815533981,336.03640776699,533.674757281553,913.493203883495,900.952427184466,345.891262135922,326.181553398058,629.941747572816,437.407766990291,0
1138.688,-0.0713021133302358,0.246256931701004,0.0841230857277995,0.306876322880541,0.790901898601862,0.790901898602767,,0.140989378683605,-0.549744884348284,0.508611632686376,0.29014415163839,0.508611632686362,-0.236822705876814,1.44135932537214,0.403359166283227,-0.174664075266033,-1.66548336331579,-0.537101437361024,-0.351828567115365,0.130276996855874,-0.351828567115269,-1.45495168457999,-1.1354779102777,-1.40263115502466,,2.11107156927711,1.37420297899325,-0.710710830503156,0.710710830503946,-0.600372771901442,-0.374973724586319,0.339432009662394,-0.223817304107049,1.10354078497037,-1.10708894634706,0.493342281269871,0.0340190610978965,-0.0276282655900475,-0.0276282655891751,-0.60627269269917,-0.117361694866066,-0.602266623453431,-0.771791268245669,1.52509384928673,0.121181411176989,0.552238007381996,0.646024572842118,0.64602457283924,0.407739987063866,-0.40773998706412,-0.990556012863232,5.93920000000003,102,963.254411764706,377.996078431373,532.563725490196,967.585294117647,958.923529411765,386.230392156863,369.761764705882,627.225490196079,437.901960784314,0
1138.7904,-0.0826349665872005,0.216528760815979,0.057272847757611,0.263403986868951,0.736434267488206,0.736434267489118,,0.154273608580786,-0.559836053647866,0.533297377722572,0.309346290691121,0.533297377722571,-0.226630896398042,1.4395491138578,0.414190367119685,-0.158810164187398,-1.68551433369526,-0.526909812440174,-0.354865530741643,0.155037178222113,-0.354865530741527,-1.44251265928589,-1.13633335692588,-1.3953212164976,,2.05631557840672,1.35321217698451,-0.71624176374633,0.716241763747122,-0.590270751897971,-0.366360885439435,0.331845592895996,-0.218497600899034,1.12537995849582,-1.10622078113312,0.516169345217691,0.0625804504950084,-0.0427881890695026,-0.0427881890686239,-0.542922852716875,-0.11701251712353,-0.545267754342239,-0.76205388153211,1.5079036306858,0.121258192791444,0.549931072537827,0.622038577013333,0.622038577010462,0.384741152279317,-0.384741152279568,-1.00980510050291,6.04160000000002,103,975.019902912621,386.535436893204,529.019417475728,979.000970873786,971.038834951456,391.492233009709,381.578640776699,622.922330097087,435.116504854369,0
1138.8928,-0.0936188007047989,0.18706454768483,0.0308689791034153,0.219148918967959,0.682551679622951,0.682551679623856,,0.165375440770462,-0.571256722015733,0.558083276788264,0.329681451726365,0.558083276788271,-0.218251611687807,1.43816701501778,0.423145039085161,-0.142947586605398,-1.7025844545071,-0.516043280996374,-0.356913116733796,0.180380375745497,-0.356913116733663,-1.42791301865148,-1.135787060209,-1.38605443268312,,2.00098873696332,1.3309580590349,-0.72159450024841,0.721594500249206,-0.580675393026374,-0.358174505151063,0.324523689447162,-0.213535887817018,1.14691911130725,-1.10441938195543,0.539224901771003,0.0920896034866499,-0.0569112006936452,-0.0569112006927643,-0.478610053673755,-0.115663990940813,-0.486907500407839,-0.752780648997594,1.4907149583455,0.120691118746422,0.546888371723565,0.597445682412018,0.597445682409156,0.361622859477498,-0.361622859477744,-1.02838733052341,6.14400000000001,102,994.510784313725,282.939705882353,523.446078431373,993.51862745098,995.502941176471,299.722549019608,266.156862745098,620.333333333333,426.558823529412,0
1138.9952,-0.104250386893388,0.15799558605459,0.00499086167338603,0.174263991731258,0.629413959690067,0.629413959690985,,0.174237479678795,-0.583897400860485,0.582798609861392,0.351127114292391,0.582798609861407,-0.211757232364334,1.43726506641636,0.430164602472472,-0.127191565604323,-1.71662071228091,-0.504592258077039,-0.358069157938787,0.206252117385427,-0.358069157938634,-1.4112750822854,-1.13383204212339,-1.37490332173002,,1.94518454768845,1.30739346235335,-0.726785487708424,0.726785487709223,-0.571604863355786,-0.350425446095201,0.317488776107025,-0.208927885814973,1.16807877783441,-1.10166560071831,0.562438684680403,0.122437227323965,-0.0699913930803628,-0.0699913930794842,-0.41355276011453,-0.113299564830284,-0.427373583506979,-0.744032000205075,1.47361390021852,0.11946357709236,0.543111687506865,0.572281790887219,0.572281790884373,0.33842751075658,-0.338427510756822,-1.04626157249205,6.24639999999999,102,1006.92794117647,226.514705882353,521.338235294118,1004.11862745098,1009.73725490196,248.710784313726,204.31862745098,625.450980392157,417.225490196079,0
1139.0976,-0.114531115016861,0.129449397882374,-0.0202881923465378,0.128901806713996,0.577173922999479,0.577173923000404,,0.180811780996847,-0.597642872584573,0.607275614457289,0.373655151524736,0.607275614457312,-0.207212733002437,1.43689093954743,0.435196920169938,-0.111655370529779,-1.72755828033484,-0.492647190701873,-0.3584346005218,0.232595439881265,-0.358434600521633,-1.39272821738584,-1.13046492311507,-1.36194635309705,,1.88899336011228,1.28247145488184,-0.731830718972648,0.731830718973451,-0.5630738115157,-0.343121317123143,0.310760323875692,-0.204667425485728,1.18878078973021,-1.09794253814172,0.585740464243775,0.153508668562579,-0.08202639048962,-0.0820263904887408,-0.347972331433007,-0.109904056191329,-0.366857003797639,-0.735866009351039,1.45668433813304,0.117560518066217,0.538605810038322,0.546583080518728,0.546583080515899,0.315197266411832,-0.315197266412069,-1.06338775650766,6.34879999999998,103,965.510194174757,209.071359223301,511.398058252427,962.799029126213,968.221359223301,231.391262135922,186.75145631068,614.728155339806,408.067961165049,0
1139.2,-0.124466955365082,0.101549270527505,-0.044901178777836,0.0832140183919839,0.525976850918628,0.525976850919551,,0.185059776275682,-0.612373100829128,0.631350262235323,0.397231815062887,0.631350262235352,-0.204675360472252,1.43708764083516,0.438196526279169,-0.0964498285478667,-1.73534081563321,-0.480298171735634,-0.358112818624982,0.259351065455609,-0.358112818624802,-1.37240826969695,-1.12568605002134,-1.3472676525091,,1.8325023292791,1.25614544223571,-0.736745512180992,0.736745512181798,-0.555093216830821,-0.336266346492824,0.304354663178481,-0.200746388031721,1.20894880448003,-1.09323557802678,0.60906056812253,0.185184634622525,-0.0930172231433637,-0.0930172231424912,-0.282092045195865,-0.10546375157889,-0.305551213584358,-0.728338029320562,1.44000757531568,0.114968655451981,0.533378654850404,0.520385827994781,0.520385827991953,0.291973930661808,-0.291973930662042,-1.07972709780005,6.45119999999997,102,940.409922545531,210.082902449236,497.842962807899,940.165982834415,940.653862256647,225.778860512176,194.386944386295,596.170609168935,399.515316446863,0
1139.3024,-0.134068382139035,0.0744138247161761,-0.0687875897071623,0.0373506885382542,0.475960022454829,0.475960022455759,,0.186952151143084,-0.627964149992874,0.654862982518912,0.42181775725715,0.654862982518945,-0.20419436201056,1.43789323185335,0.439124806741817,-0.0816828741787722,-1.73992072459035,-0.46763458198495,-0.357208947650132,0.28645758340732,-0.357208947649939,-1.35045695715747,-1.11949959405087,-1.33095667057218,,1.77579539264856,1.22836928032336,-0.741544290525162,0.741544290525971,-0.547670286708266,-0.329861285766807,0.298284859783431,-0.197154679473673,1.22850880678136,-1.08753241935375,0.632330375560315,0.217341936308396,-0.102968185564991,-0.102968185564121,-0.216136134931786,-0.0999665292306821,-0.24365131522234,-0.721500347252441,1.42366196101894,0.111676651435967,0.527441364318745,0.493726234924437,0.493726234921613,0.268798841604343,-0.268798841604578,-1.09524229804483,6.55359999999996,102,949.085765124555,249.404003558719,489.72153024911,956.417081850534,941.754448398576,260.472953736655,238.335053380783,582.503558718861,396.939501779359,0.568627450980392
1139.4048,-0.143350252578003,0.048156611702798,-0.0918935475544245,-0.00854032757372415,0.427252308123189,0.427252308124115,,0.186468693312051,-0.644289098355279,0.677659324984377,0.44736809305708,0.677659324984414,-0.20581077112011,1.43934058480205,0.437950130207039,-0.0674591400714844,-1.74125940532973,-0.454744765239708,-0.355829240770281,0.313851641266172,-0.355829240770077,-1.32702123649447,-1.11191362567844,-1.31310782443299,,1.71895326814794,1.1990973914354,-0.746240374462688,0.746240374463497,-0.540808396603332,-0.323903349929771,0.292560608310754,-0.193880239411947,1.2473895837183,-1.08082310893951,0.655482784487944,0.24985424710257,-0.11188669041547,-0.111886690414601,-0.150328842880835,-0.0934020083670853,-0.181353285771904,-0.715401863910931,1.40772253038812,0.10767528030549,0.520808399564557,0.466640252526502,0.46664025252369,0.245712766435047,-0.245712766435285,-1.10989772406225,6.65599999999995,103,959.007473309609,292.793238434164,481.514234875445,973.634163701068,944.380782918149,301.54590747331,284.040569395018,569.007117437722,394.021352313167,0.262135922330097
1139.5072,-0.152331634310741,0.02288573815851,-0.114171879598738,-0.0543139608447135,0.379973824902923,0.379973824903858,,0.183598118646655,-0.661218933154666,0.699590558586757,0.473832501242008,0.6995905585868,-0.209557255105371,1.44145718283227,0.434647929265245,-0.0538795901756059,-1.73932746893691,-0.441715737903148,-0.354080453311798,0.341468148923545,-0.35408045331158,-1.30225264765231,-1.10294017094357,-1.29382011749524,,1.66205347128149,1.16828487758337,-0.75084579683125,0.75084579683206,-0.534507073336787,-0.31838619432378,0.287188145115168,-0.190909083642683,1.26552317261908,-1.07310007778658,0.678452648581112,0.282592878198555,-0.119783130025589,-0.119783130024727,-0.0848934849546669,-0.0857617237196918,-0.118853225168254,-0.710087795512722,1.39226065782069,0.102957571501362,0.513497628263061,0.439163400738873,0.439163400736071,0.222755804480081,-0.22275580448032,-1.12365956273094,6.75839999999994,102,990.164903007466,404.154235573233,481.33779917661,1010.17263275417,970.157173260763,405.396926243807,402.911544902659,566.877468425093,395.798129928128,0
1139.6096,-0.161035578396882,-0.00129648358691188,-0.135582132227258,-0.0998284699340221,0.334235642680582,0.334235642681525,,0.178337875475776,-0.678623421247672,0.720514210473186,0.501155364571739,0.72051421047324,-0.215458015418617,1.44426496146089,0.429200740402702,-0.041041197355473,-1.73410493992604,-0.428632935156672,-0.352069257620856,0.369240492982815,-0.352069257620621,-1.27630663889181,-1.09259525303466,-1.27319674066574,,1.60517034809883,1.13588762696417,-0.755371142601729,0.755371142602537,-0.528762025911324,-0.313299919169935,0.282170174802322,-0.188225372890534,1.28284528549658,-1.06435818097268,0.701177188345145,0.315427571367225,-0.126670753351873,-0.126670753351016,-0.020051515960156,-0.0770393142301706,-0.0563466116833854,-0.705599390592962,1.37734371952534,0.0975189389709037,0.505530408980731,0.411330580292904,0.411330580290113,0.199967302008736,-0.199967302008979,-1.13649595617567,6.86079999999993,103,1012.67572815534,486.874757281553,497.461165048544,1032.38446601942,992.966990291262,483.456310679612,490.293203883495,589.320388349515,405.601941747573,0
1139.712,-0.169488843514637,-0.0242938642831816,-0.156090532005726,-0.144945940593859,0.290139529036842,0.290139529037805,,0.170693928181045,-0.69637195010147,0.740294547028942,0.529275949322967,0.740294547028996,-0.223528727831833,1.44778017900396,0.421598211904535,-0.029036670972339,-1.72558143735282,-0.415579999106978,-0.349901691787635,0.397100752187107,-0.349901691787381,-1.24934187695516,-1.08089892226868,-1.25134465922566,,1.54837512855545,1.10186241797028,-0.759825408431843,0.759825408432649,-0.523565225335237,-0.308631089215013,0.277505803377744,-0.185811496577853,1.29929571614233,-1.05459473645672,0.723596385085607,0.34822731157352,-0.132565557690589,-0.13256555768974,0.0439784227886437,-0.0672307076492696,0.00597246045118403,-0.70197365686933,1.36303475920555,0.0913572990716325,0.496931669815732,0.383175879843551,0.383175879840768,0.177385780847936,-0.17738578084818,-1.14837712443143,6.96319999999992,102,1008.49901960784,485.883823529412,516.607843137255,1025.12549019608,991.872549019608,477.201960784314,494.56568627451,611.862745098039,421.352941176471,0
1139.8144,-0.177721583359215,-0.0460166489314615,-0.175669905688595,-0.189532740273179,0.247777725023969,0.247777725024959,,0.160680524303204,-0.714334333734546,0.758802991233116,0.558128624108633,0.758802991233172,-0.233776519622198,1.45201330679035,0.411837078604254,-0.0179542396155273,-1.7137563385747,-0.402638614170851,-0.347682648368083,0.42497990520615,-0.347682648367812,-1.22151954681482,-1.06787527343691,-1.2283741876637,,1.49173600963357,1.06616703412999,-0.764215878405765,0.764215878406567,-0.518905030404204,-0.304362764415766,0.273190478447721,-0.183648165684262,1.31481872731844,-1.04380955674347,0.74565335862602,0.380861156658594,-0.13748618638039,-0.13748618637955,0.106981484434084,-0.0563342831110022,0.0679120800208872,-0.699243103586241,1.34939215328737,0.084473166604558,0.487729976434356,0.354732383588261,0.354732383585493,0.155048877795167,-0.155048877795411,-1.15927547748465,7.0655999999999,102,976.580392156863,461.308333333333,528.343137254902,991.087254901961,962.073529411765,459.576470588235,463.040196078431,628.617647058824,428.06862745098,0
1139.9168,-0.185767009990058,-0.0663818100392894,-0.194299569628662,-0.233459927366207,0.207232754832143,0.207232754833158,,0.148319947790534,-0.732381579269887,0.775918465973412,0.587643116582519,0.775918465973472,-0.24619999383596,1.45696894103753,0.399921092827459,-0.00787748991245822,-1.69863892606099,-0.389888390650821,-0.34551541093605,0.452808029460701,-0.345515410935759,-1.19300264467976,-1.05355244466069,-1.20439855214612,,1.43531827485272,1.02876040475873,-0.768548018374238,0.768548018375037,-0.514766354255043,-0.300474549219585,0.269215946015199,-0.181714516909384,1.3293634040666,-1.03200496918688,0.767294716898741,0.41319907536172,-0.141453821532033,-0.141453821531205,0.168747619118511,-0.0443510042564175,0.129283351826231,-0.697435511787192,1.33646927731814,0.0768697129503634,0.477957583534126,0.326031984319,0.326031984316257,0.132993289843492,-0.132993289843736,-1.16916571120927,7.16799999999989,103,909.262621359223,398.056310679612,512.543689320388,925.690291262136,892.834951456311,403.365048543689,392.747572815534,615.165048543689,409.922330097087,0
1140.0192,-0.193661040216226,-0.0853133208257031,-0.211965193276037,-0.276603614665152,0.16857727597159,0.168577275972628,,0.133642256831208,-0.750386609392631,0.791527654951908,0.617744806273038,0.791527654951974,-0.260789313414162,1.46264574599797,0.385860901379491,0.00111473957423281,-1.68024851775423,-0.377406795694709,-0.343501246111366,0.480514497566573,-0.343501246111056,-1.16395527050013,-1.03796259242727,-1.17953344211946,,1.37918445298089,0.989602778665198,-0.772825394656152,0.772825394656947,-0.511130865112244,-0.296942671761344,0.265570235534619,-0.179988233689108,1.34288395724905,-1.01918582356697,0.788470861950265,0.445112782305018,-0.144492066929634,-0.144492066928821,0.22907257701173,-0.0312845291283128,0.189901241681428,-0.696573742719207,1.32431417977453,0.0685527770105529,0.467650467725366,0.297105202968798,0.297105202966064,0.111254723031745,-0.111254723031992,-1.17802488128733,7.27039999999988,102,917.187745098039,411.966176470588,498.906862745098,931.911764705882,902.463725490196,424.911764705882,399.020588235294,600.401960784314,397.411764705882,0
1140.1216,-0.201441925482317,-0.102742408855399,-0.22865863743325,-0.318845285329833,0.131873971071918,0.131873971072985,,0.116685001704953,-0.768224934889049,0.805525178235809,0.648355051319006,0.805525178235872,-0.277526349919036,1.46903643413438,0.369673865842341,0.00894840889210799,-1.65861458391504,-0.36526913273589,-0.341739056402387,0.508028180095458,-0.341739056402055,-1.1345419295461,-1.02114184363785,-1.15389655733367,,1.32339451694498,0.948655929228989,-0.777049620526332,0.777049620527121,-0.507977213386925,-0.293740097530526,0.262237677348148,-0.178445686783785,1.35533997028801,-1.00535948749214,0.809136244853263,0.476476561673398,-0.146626825248566,-0.146626825247769,0.287758890227157,-0.0171413092002338,0.249585407886518,-0.696675587633355,1.31296927256289,0.0595308316840906,0.456848346303746,0.267981012113061,0.267981012110353,0.0898678468936594,-0.0898678468939028,-1.18583245509747,7.37279999999987,103,989.333495145631,730.571359223301,498.228155339806,1016.7213592233,961.945631067961,739.381553398058,721.761165048544,600.669902912622,395.78640776699,0
1140.224,-0.209149864037054,-0.118607792660771,-0.244377767741271,-0.360072058169327,0.0971754741884886,0.09717547418959,,0.0974929198419267,-0.785775273471645,0.817813686400134,0.679391544844477,0.817813686400194,-0.29638489067445,1.4761277793284,0.351383831399669,0.0155542707346998,-1.63377685291646,-0.353548570852494,-0.340325095201252,0.535277659144399,-0.340325095200894,-1.10492685049546,-1.00313023028949,-1.12760715737311,,1.26800612196389,0.905883384193611,-0.781220328481117,0.7812203284819,-0.505281279437433,-0.290836671312773,0.259198945567362,-0.17706209186986,1.36669659315551,-0.990535830753804,0.829249573021803,0.507168077779014,-0.147886178262129,-0.147886178261346,0.344616820219373,-0.00193068680171963,0.308161002534757,-0.697753655193234,1.3024710480386,0.0498149188357042,0.445594689570989,0.238686659417233,0.238686659414563,0.0688662591760138,-0.0688662591762565,-1.19257034670858,7.47519999999986,102,986.712254901961,744.583823529412,491.220588235294,1010.04705882353,963.377450980392,751.656862745098,737.510784313726,588.696078431373,393.745098039216,0
1140.3264,-0.216826595630367,-0.132855901370409,-0.259126243613112,-0.400176899618354,0.0645243220416751,0.0645243220428109,,0.076117610951462,-0.802920115977534,0.82830388508822,0.71076869677574,0.828303885088283,-0.317330891136549,1.48390065371551,0.331020854893327,0.0208678104587384,-1.60578540251211,-0.34231622095272,-0.339352740361861,0.562191451196637,-0.339352740361477,-1.07527332017675,-0.983971609837741,-1.10078561513642,,1.21307487821874,0.861250671318796,-0.785335162388082,0.785335162388858,-0.503016442690906,-0.288199275412739,0.256431115120408,-0.175811677337051,1.37692469319703,-0.974727199792946,0.848773979063111,0.537069172459534,-0.148300276551527,-0.148300276550764,0.399465266347348,0.0143350078101919,0.365459438161633,-0.699815287336752,1.29284982893414,0.039418570480661,0.433936729878259,0.209247487732035,0.209247487729411,0.0482824626057304,-0.0482824626059717,-1.19822294105506,7.57759999999985,102,938.422549019608,746.596568627451,500.686274509804,956.057843137255,920.787254901961,752.990196078431,740.202941176471,595.71568627451,405.656862745098,0
1140.4288,-0.224514977703126,-0.145441075476782,-0.272913280657215,-0.439058784887803,0.0339529284045715,0.0339529284057361,,0.0526171946974696,-0.819546245040095,0.836914506355779,0.742398041925154,0.836914506355841,-0.340322760698587,1.4923300810054,0.308620902285482,0.0248291410005078,-1.57470072500912,-0.331641247909913,-0.338912318542637,0.588698234086011,-0.338912318542231,-1.04574302769628,-0.963713565922021,-1.07355296741344,,1.15865464927122,0.814725571458112,-0.789389786692477,0.789389786693246,-0.501153880142868,-0.285791996346018,0.25390772724468,-0.174667856477378,1.38600096970951,-0.957948383538074,0.867677157519347,0.56606664180148,-0.14790123855188,-0.147901238551141,0.452132635252257,0.0316403664535443,0.42131912276685,-0.7028624954423,1.28412955233874,0.0283577284055418,0.421925461836389,0.17968675085798,0.179686750855424,0.0281478471817208,-0.0281478471819596,-1.20277710997204,7.67999999999984,103,914.482038834952,632.892718446602,497.970873786408,928.865048543689,900.099029126214,639.979611650485,625.805825242719,587.300970873786,408.640776699029,0
1140.5312,-0.232258540419945,-0.156325749887334,-0.285753385040596,-0.476622816081491,0.00548359137027568,0.0054835913714644,,0.0270559462657565,-0.835545210921414,0.843572238667034,0.774188678009907,0.843572238667101,-0.365311679333991,1.50138530548545,0.284225518125354,0.0273828659864143,-1.54059375040812,-0.321591002727905,-0.339090971613689,0.614727072905848,-0.339090971613256,-1.01649540800052,-0.942407278167855,-1.04603045140738,,1.10479786498467,0.766278375871673,-0.793377918540826,0.793377918541591,-0.499662903240613,-0.283576302610125,0.251598866352675,-0.173603405142892,1.39390803102274,-0.940216572586035,0.885931467089691,0.594052977447961,-0.146723052751953,-0.146723052751238,0.502457665789288,0.0499668288036424,0.475586162825286,-0.706891918290745,1.2763275868019,0.0166506594262065,0.409615623515228,0.150025427635925,0.150025427633431,0.0084926668912661,-0.00849266689150027,-1.20622221778515,7.78239999999983,102,956.472058823529,362.666176470588,498.401960784314,975.817647058824,937.126470588235,375.049019607843,350.283333333333,588.43137254902,408.372549019608,0
1140.6336,-0.240101022937738,-0.165480620745005,-0.297666062662801,-0.512780303085657,-0.0208714530629562,-0.0208714530617385,,-0.000496093022075231,-0.850813763660451,0.848211617519981,0.806047729819681,0.848211617520057,-0.392241951142297,1.51102988085677,0.257881462013739,0.0284779227487166,-1.50354581441073,-0.312231160925222,-0.339972558343085,0.640207643276172,-0.339972558342626,-0.987686978581348,-0.920107352512591,-1.01833901952157,,1.05155583618848,0.715882152095824,-0.797291390754548,0.797291390755306,-0.498511329600581,-0.281511243133873,0.249471257056591,-0.172590650520081,1.40063442587872,-0.921551314201216,0.903513988523284,0.620927061501639,-0.144801475285129,-0.14480147528444,0.5502901960917,0.0692926279279684,0.528115024225926,-0.711894812905104,1.26945458382896,0.00431785187433123,0.397065646716038,0.12028204250514,0.120282042502705,-0.0106539960188674,0.0106539960186365,-1.2085501132388,7.88479999999981,103,952.598058252427,363.379126213592,503.461165048544,970.388349514563,934.807766990291,373.710679611651,353.047572815534,592.533980582524,414.388349514563,0
1140.736,-0.248085901472864,-0.172884790292355,-0.30867550864029,-0.547448806200612,-0.0451099228405156,-0.0451099228392777,,-0.0299635177240202,-0.865254234911968,0.8507748738341,0.837880824586465,0.850774873834186,-0.421051401433163,1.52122178436706,0.229640307020015,0.0280674126343448,-1.46364856556946,-0.303625858996915,-0.341637585506971,0.665070456095183,-0.341637585506487,-0.959470669471964,-0.896871611373316,-0.990598832200436,,0.998979057246455,0.66351302643199,-0.801120244592196,0.801120244592949,-0.497665866995856,-0.27955367504979,0.247488392951683,-0.171601672967709,1.40617462042617,-0.901974465442866,0.920406527980867,0.646594813715394,-0.142173917076956,-0.1421739170763,0.595491857861623,0.0895927544223556,0.578769137195098,-0.717857089715683,1.26351436741435,-0.00861811974359601,0.384337560403234,0.0904725060274038,0.0904725060250195,-0.0292642789047478,0.0292642789045254,-1.20975510850883,7.98720000000003,102,955.240196078431,364.374509803922,507.43137254902,969.866666666667,940.613725490196,371.679411764706,357.069607843137,595.862745098039,419,0
1140.8384,-0.256255921521307,-0.178525877833005,-0.318810280467945,-0.580552136916232,-0.0672393266724906,-0.0672393266712269,,-0.0612659488038261,-0.878774862886876,0.851211741129266,0.869592562450741,0.851211741129355,-0.451671817018833,1.53191356062115,0.199558002480148,0.0261084242609975,-1.42100381149014,-0.29583782369013,-0.344163161478502,0.689247091992395,-0.344163161477997,-0.931995151390319,-0.872760847480394,-0.962928733521003,,0.947117484552869,0.609150488032985,-0.804852843539921,0.804852843540667,-0.497092481417416,-0.277658523685645,0.245610707559506,-0.170608516024733,1.41052891759014,-0.881510147739936,0.936595560648414,0.670969793602668,-0.138879318301623,-0.138879318300993,0.637936689482399,0.110838936465439,0.627421436328614,-0.724759396515869,1.25850386569817,-0.0221327649220077,0.371496830089317,0.0606099887042198,0.0606099887018777,-0.0473115951109887,0.0473115951107733,-1.20983394990301,8.08960000000002,103,1036.88689320388,432.990291262136,506.082524271845,1045.75145631068,1028.02233009709,432.103883495146,433.876699029126,595.106796116505,417.058252427185,0
1140.9408,-0.264652642191702,-0.182400086173577,-0.328102955321439,-0.61202031634662,-0.087276752670228,-0.0872767526689397,,-0.0943183928551272,-0.891290059477175,0.849479229383611,0.901086974135465,0.849479229383709,-0.484029420938563,1.5430524963772,0.167694411844816,0.0225618564591805,-1.37572330369421,-0.288928487755387,-0.347622964292612,0.712670452006807,-0.347622964292085,-0.905404167384872,-0.847838543921247,-0.93544571397344,,0.896020783330324,0.552777712147099,-0.808475999070637,0.808475999071377,-0.49675673394506,-0.275779071009168,0.243795791114897,-0.169583396302959,1.41370332163544,-0.860184706988527,0.952072115147648,0.693973756517172,-0.134958010832767,-0.134958010832167,0.677511666457116,0.132999634077729,0.673954833538189,-0.732577248016739,1.25441308975874,-0.0361998738074809,0.35861212182778,0.0307048342347391,0.0307048342324509,-0.0647706954427803,0.0647706954425725,-1.208785784092,8.19200000000001,102,1011.92696078431,451.084803921569,509.897058823529,1016.82450980392,1007.02941176471,454.586274509804,447.583333333333,601.009803921569,418.78431372549,0
1141.0432,-0.273315995667874,-0.184512218181709,-0.336589770893221,-0.641789495338174,-0.10524861886842,-0.105248618867112,,-0.129031565284659,-0.902720624963212,0.845541376480934,0.932267963628044,0.845541376481037,-0.518045368802014,1.55458082201181,0.134112838239004,0.0173922488832273,-1.32792845578907,-0.282958083564443,-0.352087216568173,0.735275024180837,-0.352087216567628,-0.879835869625696,-0.822170560320997,-0.908264361413199,,0.845738536920535,0.494381894217779,-0.811975099099947,0.811975099100682,-0.496624087329355,-0.273867263452184,0.241998647697658,-0.168498905537721,1.41570935281861,-0.83802668033554,0.966831603080493,0.715537157970889,-0.130451569677345,-0.130451569676782,0.714117148947036,0.156040047678681,0.718262623755629,-0.741281192683405,1.25122516559041,-0.0507917240311894,0.345754988715682,0.000764508680890921,0.000764508678656869,-0.0816177305753169,0.0816177305751107,-1.20661211760699,8.2944,102,884.349019607843,562.362745098039,524.176470588235,887.06568627451,881.632352941177,580.807843137255,543.917647058824,614.303921568627,434.049019607843,0
1141.1456,-0.282283859896047,-0.184875642769011,-0.34431024776365,-0.66980184483132,-0.121190390593434,-0.121190390592105,,-0.165312187267575,-0.912993919324808,0.839368986541636,0.963039733550959,0.839368986541748,-0.553636256356938,1.56643593225246,0.0988795461793855,0.0105676286886733,-1.27774998414893,-0.277985704375225,-0.357622661645071,0.756997159171406,-0.357622661644505,-0.855422158316348,-0.795824783962515,-0.881496297784728,,0.796320411063597,0.433954585592011,-0.815334229225065,0.815334229225791,-0.496660192187701,-0.271874029108015,0.240171982760321,-0.16732819958228,1.41656381584761,-0.815066766727188,0.980873599185638,0.735599598391026,-0.125402653935887,-0.125402653935359,0.747667243931934,0.179922142308353,0.760248821852517,-0.750837006445548,1.24891642326868,-0.0658792801259434,0.332999487015412,-0.0292064262529037,-0.0292064262550953,-0.097830308457524,0.0978303084573204,-1.20331676007395,8.39679999999999,103,913.760679611651,606.431553398058,532.844660194175,918.180582524272,909.340776699029,617.156310679612,595.706796116505,624.796116504854,440.893203883495,0
1141.248,-0.291591638328114,-0.183512211924365,-0.351306789091972,-0.696005427992202,-0.135146261190804,-0.135146261189456,,-0.203063272045338,-0.922043998939871,0.830939361815407,0.993307191122451,0.830939361815527,-0.590714635244195,1.57855062697805,0.0620632833042041,0.00205938137042163,-1.2253274581657,-0.274069322822104,-0.364292538239706,0.77777534639617,-0.364292538239125,-0.832288017813942,-0.768870744270252,-0.855249597881571,,0.74781626565136,0.371492022269234,-0.818536283162097,0.818536283162813,-0.49683116396219,-0.269749600317856,0.238266516509253,-0.166045172764682,1.41628852533724,-0.791337797860617,0.994201577294847,0.754110200207943,-0.11985483893538,-0.119854838934885,0.778090078517688,0.204604688200971,0.799828428000832,-0.761205905105722,1.24745654391822,-0.0814323736826639,0.320421733315085,-0.0592063304278533,-0.0592063304299978,-0.113387541711212,0.113387541711011,-1.19890573883701,8.49919999999997,102,986.968137254902,727.092647058824,546.691176470588,994.574509803922,979.361764705882,727.478431372549,726.706862745098,647.833333333333,445.549019607843,0
1141.3504,-0.30127184140044,-0.180452130772914,-0.357624254326252,-0.720354063026024,-0.147168791757856,-0.147168791756487,,-0.242184409243617,-0.92981172349051,0.820236032939754,1.02297633561275,0.820236032939876,-0.629189541385998,1.59085338743934,0.0237348042078535,-0.00815784794645449,-1.1708087516269,-0.271265758894866,-0.372156553666245,0.79755048688258,-0.372156553665646,-0.810550847386289,-0.74137919019214,-0.82962818834722,,0.700276210506857,0.306995436470773,-0.821563069817884,0.82156306981859,-0.497103854135441,-0.267443846944276,0.236231329042131,-0.164624619827045,1.4149099930301,-0.766874709595097,1.00682260693338,0.771027910631896,-0.113852443482243,-0.113852443481778,0.805327981054448,0.230043316073073,0.83692761766626,-0.772344774272753,1.24680876331125,-0.09741986353425,0.308099408364325,-0.0892365004312761,-0.0892365004333759,-0.128270085121021,0.128270085120823,-1.19338717709167,8.60159999999996,102,960.074509803922,747.329901960784,552.024509803922,970.664705882353,949.48431372549,745.840196078432,748.819607843137,658.813725490196,445.235294117647,0
1141.4528,-0.311353672358512,-0.175733782450722,-0.363309510163079,-0.742807178231235,-0.157318513665358,-0.157318513663972,,-0.282572045795625,-0.936244835143476,0.807248489200325,1.05195462875397,0.807248489200446,-0.668967042563985,1.60326870470916,-0.0160336032640488,-0.0201062197375186,-1.11434939429042,-0.269630594390667,-0.381270857569486,0.816266165090418,-0.381270857568865,-0.790319787909752,-0.71342163204926,-0.804731228418189,,0.653750604998311,0.240471340822954,-0.824395429356237,0.824395429356934,-0.497446109688874,-0.264906629800553,0.234014246614917,-0.16304239041651,1.41245908086029,-0.741714517653327,1.01874701253634,0.786321728841259,-0.10744035767861,-0.107440357678179,0.829337565897797,0.256190584572006,0.871483851223966,-0.784206423425925,1.24693013033815,-0.113809786523686,0.296111203991049,-0.119301177418119,-0.119301177420191,-0.142460168305192,0.142460168304994,-1.18677113451773,8.70399999999995,103,927.234466019418,766.916019417476,560.597087378641,939.258252427184,915.21067961165,771.496116504854,762.335922330097,668.796116504854,452.398058252427,0
1141.5552,-0.321862630840151,-0.169403507769927,-0.368410969971997,-0.763329655064211,-0.165663504043054,-0.165663504041648,,-0.324119762226414,-0.941298013765579,0.791971905881336,1.08015134472038,0.791971905881455,-0.709950807392465,1.61571746115684,-0.0571685914141377,-0.0338047318813678,-1.0561118274168,-0.269218034732486,-0.391688017677121,0.833868922014361,-0.391688017676481,-0.771695048113694,-0.685069851052794,-0.780652476056444,,0.60829000060723,0.171931781877208,-0.827013366132843,0.82701336613353,-0.497827014585507,-0.262088179338374,0.231562270065987,-0.16127554223035,1.40897061833728,-0.715896301451385,1.02998799152267,0.799970864033645,-0.10066387559735,-0.100663875596952,0.850089719176733,0.282996059239435,0.903445900510902,-0.796739873223711,1.24777181871644,-0.130569512801012,0.28453620906128,-0.14940753442738,-0.149407534429409,-0.1559416282518,0.155941628251602,-1.17906941118667,8.80639999999994,102,928.151470588235,763.581862745098,564.495098039216,939.914705882353,916.388235294118,767.948039215686,759.21568627451,673.450980392157,455.539215686275,0
1141.6576,-0.332820154008281,-0.161515337359696,-0.37297813690255,-0.781891654668114,-0.172278942225754,-0.172278942224325,,-0.366718546670103,-0.944932910162816,0.774406865554698,1.10747789403285,0.774406865554814,-0.752042688597766,1.62811735375716,-0.0995962229022972,-0.0492692208369826,-0.996264577056042,-0.270080723861169,-0.403456993365368,0.850308526435994,-0.403456993364712,-0.754767239374975,-0.65639538699258,-0.75747964969219,,0.56394502692478,0.101394568281153,-0.829396198177599,0.829396198178276,-0.498217110014125,-0.258939495454722,0.228822034207018,-0.15930249668062,1.40448298095521,-0.689461194773108,1.04056118859447,0.811964835898285,-0.0935685363819564,-0.093568536381585,0.867569492680143,0.310406402620918,0.932773798510075,-0.80989067944392,1.24927948777292,-0.147665913616603,0.27345323931577,-0.179565625867346,-0.179565625869334,-0.168699944736097,0.168699944735897,-1.17029531946567,8.90879999999993,103,992.17572815534,787.281553398058,562.300970873786,1002.87572815534,981.47572815534,787.087378640777,787.47572815534,666.718446601942,457.883495145631,0
1141.76,-0.344243314432369,-0.152130676521519,-0.377061166887478,-0.798468426446521,-0.177246651646221,-0.177246651644776,,-0.410257062528584,-0.947118148834253,0.754559076695366,1.13384812329497,0.754559076695477,-0.795143302117016,1.64038335368719,-0.143242419177093,-0.0665123374378446,-0.934981379047981,-0.272269524711314,-0.416623093816123,0.865538236921175,-0.416623093815451,-0.739616739201784,-0.627469029511068,-0.735293809289888,,0.520766228968579,0.0288834814730005,-0.831522715856064,0.831522715856734,-0.498588584592038,-0.255412756671839,0.225740280669481,-0.157103195922173,1.39903763399234,-0.662452376133816,1.05048423482834,0.822303528123983,-0.08619998106183,-0.0861999810614875,0.881775926376504,0.338365470712577,0.959438728174066,-0.823601286436025,1.25139367963062,-0.165065541633144,0.262940124222421,-0.209788271768307,-0.209788271770272,-0.18072228857799,0.180722288577786,-1.1604634432411,9.01119999999992,102,1002.83333333333,794.938235294118,553.926470588235,1015.05098039216,990.61568627451,796.478431372549,793.398039215686,652.43137254902,455.421568627451,0
1141.8624,-0.356144589057543,-0.141317948464015,-0.380710466855822,-0.813040100938107,-0.18065463335991,-0.180654633358449,,-0.454621896278371,-0.94782928339968,0.732439099311466,1.15917860273248,0.732439099311571,-0.839152577037689,1.65242820534796,-0.188033357038674,-0.0855435027274226,-0.872440301354113,-0.275833280576056,-0.431227903897336,0.87951504636261,-0.431227903896648,-0.726313110092285,-0.598360346250256,-0.714168787986546,,0.478803868750706,-0.0455715258494611,-0.833371338688796,0.833371338689459,-0.498915418632858,-0.251461725059507,0.222264327788571,-0.154659256580421,1.39267865396097,-0.634915051499643,1.0597762683001,0.830997198860717,-0.0786038359955874,-0.0786038359952749,0.8927218235606,0.366814407227947,0.983422867669407,-0.837811395554209,1.25405023232502,-0.182734819588388,0.253072965714159,-0.240090841466104,-0.240090841468039,-0.191997603672218,0.19199760367201,-1.14958941507553,9.11359999999991,102,1011.50637254902,791.2,549.338235294118,1023.28137254902,999.73137254902,790.569607843137,791.830392156863,646.225490196079,452.450980392157,0
1141.9648,-0.368531704482266,-0.12915220181327,-0.383976335970426,-0.82559147268987,-0.182596597278083,-0.182596597276611,,-0.499697775848974,-0.947048693176379,0.708062087621545,1.18338891456492,0.708062087621638,-0.883970255924441,1.66416296585042,-0.233895789409242,-0.1063688481216,-0.808822897600563,-0.280818568966089,-0.447309167771367,0.892199903361159,-0.447309167770668,-0.71491459519039,-0.569137270717043,-0.694170697669826,,0.438107698957959,-0.121934144195589,-0.834920261835317,0.834920261835973,-0.499173470206221,-0.247042134537489,0.218342526045366,-0.151954113045827,1.38545224226929,-0.606896426648547,1.06845745268748,0.838066444490719,-0.0708256305488266,-0.0708256305485429,0.900433492370918,0.395691730311958,1.00471920169456,-0.852458333973853,1.25718069051017,-0.200640231377333,0.243925381583552,-0.270490919249135,-0.27049091925103,-0.202516739790603,0.202516739790387,-1.13768973543385,9.21599999999989,103,1041.00922330097,806.838834951456,549.223300970874,1057.08252427184,1024.9359223301,805.633980582524,808.043689320388,645.669902912621,452.776699029126,0
1142.0672,-0.381407551288744,-0.115714684697398,-0.386908645157514,-0.836111780986107,-0.183171490042624,-0.18317149004114,,-0.545367767380019,-0.944765423887549,0.681447556846394,1.20640194742663,0.68144755684648,-0.929496337488983,1.67549757980344,-0.2807572835099,-0.128991144590674,-0.744313401721154,-0.287269454542146,-0.46490063254028,0.903557909384754,-0.464900632539568,-0.705467701731773,-0.539865753671282,-0.675357516977416,,0.39872670845903,-0.200161543411157,-0.836147591851589,0.836147591852238,-0.499340502926997,-0.242112050944574,0.213924693187537,-0.148973139459434,1.37740624612991,-0.578445668459753,1.07654850963209,0.843542110587161,-0.0629107488852376,-0.0629107488849809,0.904950453865823,0.424933414039405,1.02333130020405,-0.867477414490808,1.26071270584433,-0.218748508681129,0.235567745354224,-0.301007873109527,-0.301007873111383,-0.21227263101539,0.21227263101517,-1.12478164115508,9.31839999999988,102,846.89362745098,784.066176470588,553.289215686274,854.551960784314,839.235294117647,776.55,791.582352941177,644.607843137255,461.970588235294,0
1142.1696,-0.394770152562352,-0.101092387908239,-0.389556543945645,-0.844594495942087,-0.182483013597732,-0.182483013596238,,-0.591513471343934,-0.940974985175973,0.652619178292959,1.22814419445122,0.652619178293029,-0.975631463676479,1.68634148081295,-0.32854638284146,-0.153409726534037,-0.679097957576123,-0.295227245002991,-0.484031863253891,0.913558492700477,-0.484031863253171,-0.698006875937973,-0.510609470281116,-0.657778760541335,,0.36070883852786,-0.280204241842196,-0.837031476936948,0.837031476937593,-0.499396167032202,-0.236632193819742,0.208962526145285,-0.145703739095059,1.36858970026132,-0.549613852400147,1.08407028027747,0.847465147855094,-0.0549044115542204,-0.0549044115539909,0.90632511021139,0.454472971902556,1.03927306234305,-0.882802283200042,1.26457042846823,-0.237026807723507,0.228066437301969,-0.331662369612453,-0.331662369614267,-0.221260496352737,0.221260496352516,-1.11088301638246,9.42079999999987,103,748.502912621359,783.683009708738,544.572815533981,766.159223300971,730.846601941748,778.852427184466,788.51359223301,626.796116504854,462.349514563107,0
1142.272,-0.408612674524105,-0.0853775622697496,-0.391968187499358,-0.851037114786801,-0.180639133242882,-0.180639133241386,,-0.63801523513725,-0.935679115525759,0.621604603773747,1.24854605019641,0.621604603773809,-1.02227725479317,1.69660420653686,-0.377192703280967,-0.179620416065562,-0.613363876792852,-0.304730253710624,-0.504728043171687,0.922175557667641,-0.504728043170959,-0.692554270402332,-0.481429574538185,-0.64147522635181,,0.324100672979371,-0.36200601373355,-0.837550232963092,0.837550232963731,-0.499321951538505,-0.23056621279798,0.203409985231994,-0.14213539527244,1.35905239775485,-0.520453892753071,1.09104332652464,0.849886417683677,-0.046851684130987,-0.0468516841307763,0.904622367541797,0.48424154809131,1.05256842360333,-0.898365255775274,1.26867489387481,-0.255442873792577,0.221483126633529,-0.36247586923841,-0.362475869240187,-0.229478039530402,0.229478039530179,-1.09601233413903,9.52319999999986,102,749.069607843137,781.077450980392,533.519607843137,761.6,736.539215686275,775.260784313726,786.894117647059,612.029411764706,455.009803921569,0
1142.3744,-0.422923474987032,-0.0686672149026585,-0.39419048299533,-0.855440969562968,-0.177751580449728,-0.177751580448218,,-0.68475238984034,-0.92888551830678,0.588435316650147,1.26754210050353,0.588435316650194,-1.0693365928901,1.70619600697757,-0.426626973051468,-0.207615453067298,-0.547298922613263,-0.315813573522648,-0.527009770771003,0.929387604432238,-0.527009770770266,-0.689119603473815,-0.452384494257609,-0.626478817976845,,0.288947106962024,-0.445503832494934,-0.837682457240249,0.837682457240885,-0.499101126251215,-0.223880912950386,0.197223641832786,-0.13825968353537,1.34884449306795,-0.491020453941118,1.09748757597823,0.850866455990722,-0.0387975112163933,-0.0387975112162001,0.899919209757614,0.51416801843631,1.06325102378177,-0.914097644119938,1.27294440940831,-0.273965192671336,0.215874107392808,-0.393470121748518,-0.393470121750257,-0.236925633344071,0.236925633343853,-1.08018862010606,9.62559999999985,102,758.163235294118,775.778921568627,523.588235294118,769.855882352941,746.470588235294,765.76568627451,785.792156862745,600.186274509804,446.990196078431,0
1142.4768,-0.437686190310632,-0.0510625871179455,-0.396268857501334,-0.85781104542424,-0.173935353466494,-0.173935353464977,,-0.731603520226911,-0.920607569739734,0.55314650293692,1.28507139611224,0.553146502936946,-1.11671385336532,1.71502842304366,-0.476781027274001,-0.23738343485915,-0.481090616422329,-0.32850886465104,-0.550892858786096,0.935177810572081,-0.550892858785353,-0.687700105923898,-0.423529758707335,-0.61281243519699,,0.255290998769189,-0.530627844104847,-0.837407118298589,0.837407118299221,-0.498718688955182,-0.216546425034223,0.190362979310775,-0.134070248320438,1.33801613632696,-0.461369842064526,1.10342201025151,0.850475201689852,-0.0307867690981452,-0.0307867690979651,0.89230421634314,0.544179100798821,1.07136382942773,-0.929930076839041,1.27729494607211,-0.292563129324911,0.211289707053678,-0.42466667582323,-0.424666675824937,-0.243606476890922,0.243606476890707,-1.06343143504021,9.72799999999984,103,952.008252427185,644.266019417476,506.679611650485,960.017475728155,943.999029126214,641.584466019418,646.947572815534,588.73786407767,424.621359223301,0
1142.5792,-0.452879861577932,-0.0326686157924101,-0.398247049046975,-0.858155809869934,-0.169308208488943,-0.16930820848742,,-0.778446778830351,-0.910863999135576,0.515776933244687,1.30107769934091,0.515776933244696,-1.16431509016308,1.72301482142405,-0.527587769798256,-0.268909266154047,-0.414925561795273,-0.342844156005653,-0.57638813317122,0.939534064123203,-0.576388133170472,-0.688280545985223,-0.394917850536806,-0.600489923854986,,0.223172812652126,-0.617301364001812,-0.83670361720155,0.836703617202176,-0.498161323731175,-0.20853632387919,0.182790643480478,-0.129562751635262,1.32661713423046,-0.431559874328174,1.10886439315046,0.848791689506151,-0.0228643238440641,-0.0228643238438953,0.881877014065166,0.574199474580819,1.07695870152299,-0.945792819919103,1.28164054137427,-0.311207058237243,0.207773778536822,-0.456086413083169,-0.456086413084853,-0.249526714714366,0.249526714714155,-1.04576087189903,9.83039999999983,102,961.136764705882,639.693137254902,504.75,971.699019607843,950.574509803922,646.01568627451,633.370588235294,587.460784313726,422.039215686275,0
1142.6816,-0.468479097374075,-0.0135933790777742,-0.400166919189003,-0.856487056505253,-0.163990126025473,-0.163990126023944,,-0.825160238892416,-0.899678540488163,0.47636884847069,1.31550969763567,0.476368848470675,-1.21204818433891,1.73007088872541,-0.578981112124556,-0.302174116080706,-0.348988784543051,-0.358843656695493,-0.603501225286579,0.94244894230227,-0.603501225285825,-0.690833324211794,-0.366598078028734,-0.589516077872574,,0.19263026615952,-0.70544089075427,-0.835551827607659,0.83555182760828,-0.49741736316754,-0.199827707642846,0.174472650870374,-0.124734804158873,1.31469663061183,-0.401649724270729,1.11383103283662,0.845903700160385,-0.0150750811314922,-0.0150750811313359,0.868747657893425,0.604151910261523,1.08009590466589,-0.961616104075862,1.28589371369496,-0.329868493995374,0.205363276417609,-0.487749108922085,-0.487749108923741,-0.25469551407305,0.254695514072843,-1.02719756213102,9.93279999999982,103,989.324757281553,599.090291262136,493.742718446602,999.523300970874,979.126213592233,602.880582524272,595.3,572.349514563107,415.135922330097,0
1142.784,-0.484454266416461,0.00605247393440319,-0.402068281199253,-0.852819769402958,-0.158102738966307,-0.158102738964773,,-0.871622259661307,-0.887079556860167,0.434967850729847,1.32832118547053,0.434967850729808,-1.25982296264,1.73611510041553,-0.630895889760948,-0.337155374574604,-0.283463089513853,-0.376527570718101,-0.632232349427496,0.94391964227778,-0.632232349426737,-0.69531863245142,-0.338616467870762,-0.579886689992559,,0.163697993696693,-0.794956132083621,-0.833932128606435,0.833932128607054,-0.496476740090698,-0.190401252816253,0.165378569729109,-0.119585886383401,1.30230280325902,-0.371699746093805,1.11833657259865,0.841907357023833,-0.00746401901663731,-0.00746401901649253,0.853035949026314,0.633957412259744,1.08084356647403,-0.977330460634653,1.28996588176068,-0.34852022973477,0.20408790816086,-0.519673016848392,-0.519673016850014,-0.259125109508544,0.25912510950834,-1.00776269072312,10.0352,102,1032.0862745098,519.717156862745,480.274509803922,1045.1931372549,1018.97941176471,516.091176470588,523.343137254902,559.28431372549,401.264705882353,0
1142.8864,-0.500771712062754,0.0261563109356737,-0.403988736414637,-0.847172012828848,-0.15176871923494,-0.151768719233404,,-0.917711837267162,-0.873099647590183,0.391622810240401,1.33947122084476,0.391622810240337,-1.30755128605618,1.74106918241602,-0.683267747611048,-0.373826597511268,-0.218528431229691,-0.395911904324338,-0.662576060166502,0.943947879891934,-0.662576060165737,-0.70168467305506,-0.311015678873246,-0.5715886490396,,0.136407228054437,-0.885750044520663,-0.831825443935717,0.831825443936336,-0.495330917788952,-0.180241253484073,0.15548168590745,-0.114117261098959,1.28948258049195,-0.341771286979829,1.12239380871381,0.836906659755681,-7.62001635382238e-05,-7.62001634028458e-05,0.834870706927227,0.663535380456227,1.07927710502572,-0.992867061927218,1.29376778142179,-0.367136483972293,0.203969843597469,-0.551874472343483,-0.551874472345097,-0.262830830207494,0.262830830207292,-0.987478028473515,10.1376,103,1033.94347687612,526.394912449864,472.348108476071,1045.27506387328,1022.61188987897,514.027772100153,538.762052799575,547.137199795606,397.559017156537,0
1142.9888,-0.517393983818147,0.0466041242899658,-0.405963513041933,-0.839564845376769,-0.145111131023955,-0.145111131022422,,-0.963308935158784,-0.857775256293249,0.346385800914039,1.34892426032286,0.346385800913951,-1.35514710588696,1.74485857747528,-0.736032985901463,-0.412157432527059,-0.154361291077223,-0.41700825694876,-0.694520990706357,0.942539771998835,-0.69452099070559,-0.709867934911663,-0.283834936410967,-0.564600081492393,,0.110785495789736,-0.977718893974612,-0.829213294004887,0.829213294005507,-0.493972794162904,-0.169335644799342,0.144759157520714,-0.108331873843589,1.2762813833075,-0.311926493596706,1.12601353778463,0.831012950990651,0.00704323727901443,0.00704323727914233,0.814389010960893,0.692803796937041,1.07547864159102,-1.0081580590366,1.29720987843085,-0.385693046884065,0.20502346452368,-0.584367516308169,-0.584367516309762,-0.265831115423688,0.265831115423487,-0.966365991435174,10.24,102,1054.90298606104,556.137553572859,466.210501281743,1063.14912280702,1046.65684931507,545.341374269006,566.933732876712,536.62134502924,395.799657534247,0.892156862745098
1143.0912,-0.534280084298886,0.0672811616279987,-0.408025304642787,-0.83002225261627,-0.138252763973406,-0.138252763971875,,-1.00829480608174,-0.84114629747601,0.299312071633725,1.35665026971755,0.299312071633609,-1.40252648641492,1.74741291656752,-0.789128365491311,-0.452113523710517,-0.0911340526453899,-0.439823592126664,-0.728049580012437,0.939705710356571,-0.728049580011671,-0.719793521547755,-0.257109986459084,-0.558890533923826,,0.0868563274888248,-1.0707523443456,-0.826077854616744,0.826077854617368,-0.492396581031688,-0.157676004541481,0.133192152935702,-0.102234237578237,1.26274289472066,-0.282228110239077,1.12920443667876,0.824344317316748,0.0138491123335274,0.0138491123336409,0.791735419599883,0.721679444665554,1.06953640914123,-1.02313690959777,1.30020278288368,-0.404167411461638,0.207255145041756,-0.617163544400358,-0.617163544401935,-0.268147507266628,0.268147507266431,-0.944449727599331,10.3424,102,1076.21610790675,586.488845329648,460.117915364896,1081.04385964912,1071.38835616438,576.806286549708,596.171404109589,526.182748538012,394.053082191781,0.490196078431373
1143.1936,-0.551385728881545,0.088072576496955,-0.410204107526954,-0.818571093917516,-0.131315458433639,-0.131315458432112,,-1.05255231823526,-0.823255810491706,0.250460052017546,1.36262480567753,0.250460052017409,-1.44960759401434,1.74866648136013,-0.842490878901548,-0.493656398312465,-0.0290143712828435,-0.464359990433311,-0.763137797829587,0.935460225878078,-0.76313779782882,-0.731375525492246,-0.230873066195626,-0.554421191382231,,0.0646389922213785,-1.16473357399047,-0.8224020081276,0.822402008128226,-0.490597668996466,-0.145257525877661,0.120765960702094,-0.0958303018658565,1.24890885354763,-0.252739261905372,1.13197297609885,0.817024929719665,0.0202962611554678,0.0202962611555732,0.767061170139814,0.750078160789781,1.06154416062087,-1.03773868912709,1.30265766796999,-0.422538878403594,0.210663071146355,-0.650270991803242,-0.650270991804795,-0.269804607905763,0.269804607905565,-0.921753218473681,10.4448,103,1089.94295434023,620.738653685517,456.574236203956,1096.47557485948,1083.41033382099,612.019690001703,629.457617369331,519.352921137796,393.795551270116,0
1143.296,-0.568663611354666,0.108864089734098,-0.412527056907898,-0.805241064414384,-0.124419430077656,-0.124419430076134,,-1.09596628862897,-0.804149637304125,0.199891385931164,1.36682906966161,0.199891385931002,-1.49631065295546,1.74855863704272,-0.896057497055863,-0.536743341395968,0.0318354561106172,-0.490614391290951,-0.799754874718969,0.929821836205806,-0.799754874718198,-0.744517445441081,-0.205152888805049,-0.551145128523134,,0.044148267657136,-1.25953941398358,-0.818169377929858,0.818169377930486,-0.488572495674941,-0.132078959178991,0.107470061483627,-0.0891273120817331,1.23481886975457,-0.223523218836585,1.13432336683442,0.809184331715008,0.0263396249717241,0.0263396249718163,0.740523360557548,0.777915119408678,1.05160057587031,-1.0519003815998,1.30448668590161,-0.440788634376122,0.215237123054832,-0.683695060966668,-0.683695060968193,-0.270829998682698,0.270829998682499,-0.898301379883192,10.5472,102,1096.95049019608,653.388725490196,470.81862745098,1111.94509803922,1081.95588235294,668.011764705882,638.76568627451,537.941176470588,403.696078431373,0
1143.3984,-0.586063668216776,0.129542650252033,-0.415018262268701,-0.790064675066157,-0.117682595131375,-0.117682595129857,,-1.13842382064556,-0.7838761149958,0.147670985433199,1.36924994003516,0.147670985433019,-1.54255787170935,1.74703422156386,-0.949764902625142,-0.581327264655018,0.0912591096060585,-0.518578332000063,-0.837863042163351,0.922812869804397,-0.837863042162579,-0.759112645099135,-0.179974642687527,-0.549007592888391,,0.0253942534741177,-1.35504050384929,-0.813364349344417,0.813364349345049,-0.486318430273513,-0.118142525968907,0.0932981584895833,-0.0821336658417853,1.22051026148956,-0.194643143986513,1.1362575379728,0.800956682527024,0.0319343636197816,0.0319343636198667,0.712284112017188,0.805105133881509,1.03980866092056,-1.06556115063054,1.30560337140063,-0.458899813054021,0.220958841460514,-0.717437496453308,-0.71743749645481,-0.271254125387076,0.271254125386873,-0.874120154954573,10.6496,102,1092.39019607843,651.297058823529,507.764705882353,1103.10392156863,1081.67647058824,648.845098039216,653.749019607843,590.009803921569,425.519607843137,0
1143.5008,-0.603533337978373,0.149997086192812,-0.417698644169949,-0.773077251276476,-0.1112198931583,-0.111219893156792,,-1.1798146437496,-0.762485778715101,0.0938671005231669,1.36987998334471,0.0938671005229653,-1.5882733492376,1.7440438909386,-1.00354922100113,-0.627356572992212,0.149106847343674,-0.548237688616525,-0.877417285922345,0.914459264941753,-0.877417285921574,-0.775044851291628,-0.155360004306254,-0.547946318504093,,0.00838223066886376,-1.45110146518352,-0.80797208790013,0.807972087900764,-0.483833674900033,-0.103453810277669,0.0782481693568045,-0.0748587713493035,1.20601791653465,-0.166161828187389,1.13777514713514,0.792479958605974,0.0370359951475015,0.0370359951475799,0.682509706664548,0.831562971275304,1.02627513116573,-1.07866259863467,1.30592303064949,-0.476857550837627,0.227801483634075,-0.751496410259549,-0.751496410261022,-0.271110151981788,0.27111015198158,-0.849236605680435,10.752,103,1155.95436893204,579.111650485437,531.063106796117,1168.86601941748,1143.0427184466,570.745631067961,587.477669902913,619.650485436893,442.47572815534,0
1143.6032,-0.621017815978427,0.170118741216822,-0.420585775983824,-0.754316946705507,-0.105142604166508,-0.105142604165008,,-1.22003145481597,-0.740031078133654,0.0385514021292214,1.36871743854638,0.0385514021289994,-1.63338297272155,1.73954442824102,-1.05734575846067,-0.674775029466579,0.205236091603191,-0.579572418702006,-0.918365114179113,0.904790347090146,-0.918365114178345,-0.792188686812052,-0.131327160746526,-0.547891865254981,,-0.00688743478234744,-1.54758109678607,-0.80197856561733,0.801978565617968,-0.481117174796355,-0.0880216329750213,0.0623221858934509,-0.0673129098220646,1.19137418007208,-0.138141418947286,1.13887362126945,0.783895114757069,0.0416005652841001,0.0416005652841724,0.651369697383093,0.857203677174304,1.01110977454432,-1.09114902200474,1.30536312038802,-0.494649044744435,0.235730162272898,-0.785866160788212,-0.785866160789659,-0.270433784430142,0.27043378442993,-0.823679015875044,10.8543999999999,102,1176.15,566.926470588235,530.960784313726,1188.69509803922,1163.60490196078,570.746078431373,563.106862745098,620.372549019608,441.549019607843,0
1143.7056,-0.63846030713985,0.189802094916882,-0.423693733173877,-0.733824766152025,-0.0995576610852847,-0.0995576610838032,,-1.25897025905486,-0.716566113424879,-0.0182009241787324,1.36576616648275,-0.0182009241789771,-1.67781431319198,1.73349902046774,-1.11108875296422,-0.723521618230643,0.259512004056478,-0.612556304645954,-0.960646341216814,0.893838589862936,-0.960646341216049,-0.810410232894721,-0.107890838029442,-0.548767979121636,,-0.0204193483534872,-1.64433259659306,-0.795370598886857,0.795370598887497,-0.478168529903329,-0.0718579137894366,0.0455264065898104,-0.0595071042628349,1.17660876710174,-0.110643148036757,1.13954822334228,0.775345207243555,0.0455848487756584,0.0455848487757252,0.61903599330827,0.881942912816255,0.994424799113737,-1.10296766493097,1.30384362206903,-0.5122636122841,0.244702054909313,-0.82053728643989,-0.820537286441302,-0.269263071373854,0.269263071373642,-0.797477011777456,10.9567999999999,103,1261.25242718447,547.505825242718,518.839805825243,1277.55631067961,1244.94854368932,546.061165048544,548.950485436893,612.26213592233,425.417475728155,0
1143.808,-0.655802279194434,0.208945367495521,-0.427032952158548,-0.711644591083579,-0.094566965345826,-0.0945669653443634,,-1.29653070674917,-0.69214639579321,-0.0763110772199533,1.36103556109792,-0.076311077220222,-1.72149651846767,1.72587749785739,-1.16471113944594,-0.773530405952131,0.311808052466216,-0.647156697508849,-1.00419288797925,0.881639362302024,-1.00419288797849,-0.829567616169306,-0.08506233409361,-0.550491969620012,,-0.0322231073816737,-1.74120381424885,-0.788135893147659,0.788135893148303,-0.474987907615475,-0.0549775235994119,0.0278710410805939,-0.0514529988027973,1.16174869530086,-0.0837270612973792,1.13979213865697,0.766974482990853,0.0489465810105859,0.0489465810106551,0.585681930175537,0.905697307465226,0.976334174607293,-1.11406896790413,1.30128741265722,-0.529692746570895,0.254666675220061,-0.855496493648375,-0.85549649364977,-0.267638189932019,0.267638189931807,-0.770661694306371,11.0591999999999,102,1263.49607843137,544.992647058824,509.808823529412,1279.46764705882,1247.52450980392,551.132352941177,538.852941176471,604.098039215686,415.519607843137,0
1143.9104,-0.672983717688699,0.227451105760625,-0.430610101576219,-0.687823203005934,-0.0902667166066846,-0.0902667166052505,,-1.33261642368466,-0.6668286337622,-0.135696536786363,1.35454042350639,-0.135696536786657,-1.76436020090914,1.71665652583332,-1.21814433134055,-0.824730405595992,0.362006568334071,-0.683334265092876,-1.04892860275406,0.868230660680012,-1.0489286027533,-0.849511616812037,-0.062849559826316,-0.552975103911148,,-0.0423132834889857,-1.83803753423525,-0.780263086852938,0.780263086853587,-0.471575964159054,-0.03739812787907,0.00937018195730602,-0.0431627537411483,1.14681823352721,-0.0574517507201825,1.13959657586445,0.758927439318946,0.0516447161854734,0.0516447161855433,0.551481334594735,0.92838482765795,0.956952976944993,-1.12440680255989,1.2976206301624,-0.54693015657555,0.265566207485451,-0.89072670273714,-0.89072670273849,-0.265601218699381,0.265601218699167,-0.743265769081109,11.1615999999999,102,1262.90392156863,536.673039215686,499.151960784314,1279.23725490196,1246.57058823529,538.711764705882,534.63431372549,589.029411764706,409.274509803922,0
