time,S1-D1,S1-D8,S1-D9,S1-D15,S2-D1,S2-D2,S2-D3,S2-D9,S3-D1,S3-D2,S3-D16,S4-D2,S4-D3,S4-D5,S5-D3,S5-D4,S5-D5,S6-D2,S6-D5,S6-D17,S7-D6,S7-D7,S8-D6,S8-D7,S8-D18,S9-D3,S9-D4,S9-D9,S9-D11,S9-D19,S10-D8,S10-D9,S10-D10,S10-D11,S11-D8,S11-D10,S11-D20,S12-D10,S12-D11,S12-D12,S13-D4,S13-D11,S13-D12,S14-D10,S14-D12,S14-D21,S15-D13,S15-D14,S16-D13,S16-D14,S16-D22,t_rel_s,eye_n,xp,yp,ps,xpl_i,xpr_i,ypl_i,ypr_i,psl_i,psr_i,blink_prop
505.0368,-0.574464212176839,2.5797269932231,0.644862669990692,-0.420406327815787,1.54990763738766,1.54990763739042,,-1.1786321840085,-0.588938186446647,-1.5936557423921,-0.756655830999767,-1.59365574239257,-2.63187089763846,1.56311270662447,-1.92968468865247,0.596258277065121,-1.04347489232631,-0.193603408845547,0.672168045141839,0.00248682053194669,0.672168045142904,0.64068468703245,-1.32512471621617,-0.514959385169788,,0.676127086285892,-1.75043095977474,-0.865973170488378,0.865973170489166,-1.07947784420399,-0.14549862371608,2.12916092490145,1.01246609544291,0.0138191734459459,0.0888250204327036,0.0427371203872638,0.668571867327854,0.571664924384485,0.57166492438332,0.283716400645748,0.189255854062268,0.728578141418636,0.501533331084751,-0.752028937776799,-0.201818084469536,0.491653984080266,1.39348158126947,1.39348158126811,-0.259734311743951,0.259734311739346,1.79349645246035,0,103,966.44305849987,518.734785130065,477.22869386433,970.887147619605,961.998969380134,532.880354427419,504.589215832711,570.464557258159,383.9928304705,0
505.1392,-0.543146784071578,2.54992085928664,0.663233762852526,-0.432581004778951,1.52871310683028,1.52871310683299,,-1.19595224269048,-0.564795698255885,-1.61433916230301,-0.75577644085736,-1.61433916230347,-2.60115691446295,1.58297961651025,-1.8915941637403,0.545637513387881,-0.989182535695328,-0.211035145836009,0.675315982302989,0.000226627120450992,0.675315982304071,0.614153070755764,-1.300744349063,-0.529965801514233,,0.679913560354091,-1.71556844784738,-0.877200816146755,0.877200816147557,-1.0539374198746,-0.0785641268500933,2.14036514142764,1.08028944836169,-0.0208442070793383,0.1059468666594,0.0178097022351672,0.649856706218763,0.599529706209709,0.599529706208523,0.256075122607632,0.198130470684843,0.699551513754317,0.555880796825551,-0.7358611768904,-0.149554307650328,0.463734728321033,1.40012297804499,1.40012297804366,-0.268113352576782,0.268113352572193,1.74233069736175,0.102399999999989,102,956.41699652456,517.190154309546,472.818799814643,958.814608433735,954.019384615385,528.221385542169,506.158923076923,559.611445783133,386.026153846154,0.892156862745098
505.2416,-0.511153172414054,2.5190248548337,0.681785957986971,-0.446187633407944,1.50680820811214,1.50680820811481,,-1.21238293706866,-0.539573535954554,-1.63394979332055,-0.75497134073464,-1.63394979332101,-2.56800020949538,1.60222175942033,-1.85137513273293,0.49586870590373,-0.936029580241445,-0.228396340619621,0.6787783912786,-0.00101552309903938,0.678778391279708,0.587364740340356,-1.27582315336821,-0.544754123418881,,0.683609583885442,-1.68062565130168,-0.887897210075264,0.887897210076078,-1.02945652500902,-0.0126592546974841,2.14921986735122,1.14589688230092,-0.055149121486052,0.122420810624947,-0.00702138677564354,0.631327343314299,0.626325974418937,0.626325974417724,0.228074514291493,0.206311271523927,0.668904555804089,0.607849004246407,-0.720600070975192,-0.0997295167220394,0.437998646823798,1.40552201690552,1.40552201690423,-0.275487305647192,0.275487305642618,1.69221254039788,0.204799999999977,103,946.252349860982,515.614466172382,468.674151992586,946.49608433735,946.008615384615,523.713855421687,507.515076923077,549.114457831325,388.233846153846,0.388349514563107
505.344,-0.478560580562953,2.48698363182108,0.70041174959941,-0.461172983911081,1.48411106658736,1.48411106658998,,-1.22799593005131,-0.513284635512311,-1.65240294453348,-0.754261122317496,-1.65240294453392,-2.53241165453661,1.62076036416156,-1.80907039092686,0.447070129412522,-0.884109010340149,-0.245612817539569,0.682520247479306,-0.00125459437252778,0.682520247480432,0.560405308578215,-1.25045197448442,-0.559290432280005,,0.687233798967399,-1.64561649957643,-0.898016989975503,0.898016989976332,-1.00611820554087,0.0520540324101958,2.15570232611987,1.20912662055699,-0.088995420098072,0.138214017793198,-0.0316784222597453,0.612954982487114,0.651996371223129,0.651996371221881,0.199854350438229,0.213768058291744,0.636806595118362,0.657308895227175,-0.706268281549823,-0.0524558796854834,0.414468968865325,1.40966540879778,1.40966540879654,-0.281809709722515,0.281809709717953,1.64318089185043,0.307199999999966,102,937.452535823532,510.585853653114,474.227642103664,933.987509025454,940.917562621609,519.322842127806,501.848865178421,554.440477392201,394.014806815127,0
505.4464,-0.445448227753867,2.45374188258592,0.719001542261639,-0.477478346238864,1.46053969955569,1.46053969955826,,-1.24286677929231,-0.485946076444492,-1.66961664854414,-0.753663081179642,-1.66961664854457,-2.49440857674336,1.63851331588648,-1.76473039943569,0.399355853041189,-0.833507585057486,-0.262610155994582,0.686507126716142,-0.00050862125854105,0.68650712671728,0.53336116857253,-1.22472339606429,-0.573541584874277,,0.690805125522737,-1.61054894100905,-0.907515991554452,0.907515991555293,-0.983999518610936,0.11542277832,2.15979915246686,1.26983026735566,-0.122285493009792,0.15329457060654,-0.0560856219944671,0.594710771438831,0.676485534784568,0.676485534783295,0.171553142556761,0.220471496706687,0.603426336897065,0.704145546771772,-0.692880867675229,-0.00782939238340674,0.39315976823722,1.41254052454117,1.41254052453997,-0.287038406614247,0.287038406609703,1.59526555161087,0.409599999999955,103,936.617463042484,508.793231552619,517.697454884488,931.289910979229,941.94501510574,518.580118694362,499.006344410876,600.047477744807,435.347432024169,0.252427184466019
505.5488,-0.411897147196541,2.41924487539473,0.737444120803379,-0.495039630538246,1.43601253922641,1.43601253922892,,-1.25707437644326,-0.457579104965605,-1.6855120356838,-0.753191239812521,-1.68551203568422,-2.45401484920412,1.65539568724585,-1.71841315655233,0.352835339988642,-0.784305684822499,-0.279314100787138,0.69070520078458,0.00120147206855232,0.690705200785734,0.506319025687669,-1.19873121024083,-0.587475359283386,,0.694342504510117,-1.57542530066728,-0.916351539040294,0.916351539041152,-0.963171139236975,0.177303525496856,2.16150644156466,1.32787329075417,-0.154924774112156,0.167631652940259,-0.0801695304992699,0.576566146080737,0.699740366532542,0.699740366531241,0.143307463472399,0.226393263052983,0.568931046691678,0.748258623862625,-0.68044519569044,0.0340705232457473,0.374076112768776,1.41413550892321,1.41413550892204,-0.291135613482363,0.291135613477842,1.54848746482708,0.512000000000001,102,938.435956592289,511.885819206254,566.847319963782,932.232789317507,944.63912386707,520.739614243323,503.032024169184,643.845697329377,489.848942598187,1
505.6512,-0.377989966055397,2.38343900764091,0.755627147682151,-0.513787497151697,1.41044897389877,1.41044897390122,,-1.27070036467743,-0.428209163648893,-1.70001369969543,-0.752856362168864,-1.70001369969584,-2.41126096355195,1.67132031143953,-1.67018403446211,0.30761306988807,-0.736577189765206,-0.295650971998483,0.695081218242217,0.00385205157075902,0.695081218243382,0.479365429136063,-1.17256988845691,-0.601060602194916,,0.697864655776688,-1.54024269334621,-0.924482746321007,0.924482746321873,-0.943696981063184,0.237562715986791,2.16082973274423,1.38313538401028,-0.186822221157062,0.181195741366092,-0.103859379990223,0.558493176610632,0.721710293165303,0.721710293163999,0.115251308846014,0.231506188645523,0.533485786946628,0.789562734371649,-0.668960891987658,0.0731813161726429,0.357214246442305,1.41443938759397,1.41443938759284,-0.294067983840512,0.294067983836008,1.5028590322395,0.614399999999989,102,940.24557944185,514.963321066456,615.757429603665,933.171068249258,947.320090634441,522.888575667656,507.038066465257,687.430267062315,544.084592145015,0.0784313725490196
505.7536,-0.343810673765428,2.34627236663405,0.773437676223916,-0.533647521418353,1.38376990507421,1.38376990507662,,-1.28382853684982,-0.397865922428177,-1.713050053211,-0.752665965006323,-1.7130500532114,-2.3661840784877,1.68619839723428,-1.62011557529975,0.263788186061462,-0.69038938343191,-0.311548064987838,0.699602468724955,0.00741694908002538,0.699602468726123,0.452586298977513,-1.1463340466518,-0.614267377097474,,0.701389852730376,-1.50499348416527,-0.931870829425744,0.931870829426615,-0.925633836557881,0.296076996747792,2.15778392771069,1.43551070339024,-0.217890772555501,0.193958807147943,-0.127087426982098,0.540464906208027,0.742347530422115,0.742347530420818,0.0875154865593703,0.235784418113034,0.497252717773152,0.827987681416354,-0.65841983480585,0.10945749819937,0.342561800089437,1.41344216433746,1.41344216433636,-0.295806650941842,0.295806650937352,1.45838446965224,0.716799999999978,103,940.044857468473,517.806587790993,647.001564253635,931.905682653378,948.184032283568,525.214393852093,510.398781729893,740.548520742369,553.4546077649,0
505.856,-0.30944438663313,2.3076952865205,0.79076266588208,-0.554540396412084,1.35589831659071,1.35589831659309,,-1.29654421098186,-0.366583298396343,-1.72455366838278,-0.752624336467742,-1.7245536683832,-2.31882803680527,1.69994018532265,-1.56828723957649,0.221454170149458,-0.645802874974936,-0.32693403021399,0.704236734071351,0.0118676322390836,0.704236734072515,0.426066449564498,-1.1201179021379,-0.627067108476435,,0.704935717294368,-1.46966578680266,-0.938479430193164,0.938479430194041,-0.909031042238795,0.352733428380409,2.1523931461943,1.48490798310535,-0.2480477838213,0.205894534889445,-0.149789265095439,0.522455674008905,0.761607351323383,0.761607351322111,0.0602270195110763,0.239203596568869,0.460390462794269,0.863478611400797,-0.648806179307276,0.142870733857752,0.330098029479487,1.41113490615594,1.41113490615489,-0.29632724865074,0.296327248646272,1.41506021306687,0.819199999999967,102,936.100283179631,510.816702586207,674.864199077787,927.411773255814,944.788793103448,517.24375,504.389655172414,772.370639534884,577.35775862069,0.558823529411765
505.9584,-0.274977115228829,2.26766089190979,0.807489488155472,-0.576382173947216,1.32675984922556,1.32675984922789,,-1.30893358210119,-0.334399451968528,-1.73446159900859,-0.752732572222545,-1.734461599009,-2.26924334514581,1.7124556431374,-1.51478510252249,0.180698548843566,-0.60287153710577,-0.341739223567575,0.708952232803292,0.0171733682499992,0.708952232804451,0.399889113283232,-1.09401472439274,-0.639432718269506,,0.708519039429487,-1.43424398847684,-0.944274948137506,0.944274948138392,-0.893930172709714,0.407429596436984,2.14469052641781,1.53125053059443,-0.27721544553852,0.216978562578124,-0.17190411411026,0.504441416921168,0.779448355994703,0.779448355993426,0.0335085511560611,0.241741092682788,0.423053534371491,0.895996064377735,-0.640096412313005,0.173409835917975,0.319794081543954,1.4075098172,1.40750981719899,-0.295609914153833,0.295609914149401,1.37287537057831,0.921599999999955,102,931.272426323176,503.188685344828,702.847057939054,921.214680232558,941.330172413793,508.31875,498.058620689655,796.388081395349,609.306034482759,0.882352941176471
506.0608,-0.240495536680769,2.2261256231916,0.823506418535062,-0.599084542205019,1.29628337435233,1.29628337435461,,-1.32108305844996,-0.301356753611409,-1.74271568440221,-0.752988633726926,-1.74271568440263,-2.21748711324658,1.72365519369729,-1.45970149699609,0.141602634878759,-0.561642457845445,-0.355896022243604,0.713717563979764,0.0233013829666389,0.713717563980912,0.374135472823876,-1.06811629103774,-0.651338754339699,,0.712155622853422,-1.39870929289493,-0.949226878139016,0.949226878139901,-0.880364761715221,0.460073627147279,2.1347179772215,1.57447610753353,-0.305321180913331,0.22718874309397,-0.193375083520137,0.486399945773881,0.795832739006542,0.795832739005265,0.00747775121224593,0.243376253569633,0.385391807963679,0.925515934907605,-0.632259437057126,0.201080672250372,0.311613284780984,1.40256030908236,1.40256030908138,-0.29363929003932,0.293639290034925,1.33181222598185,1.02399999999994,103,926.442025067281,496.244718781386,729.908137458703,914.782264619553,938.101785515009,500.410194174757,492.079243388015,819.967374125085,639.848900792322,0
506.1632,-0.206086768520277,2.18304974339885,0.83870311791537,-0.622555138384107,1.26440156242791,1.26440156243014,,-1.33307859574967,-0.267501724080827,-1.7492628372649,-0.753387424632383,-1.74926283726534,-2.1636229529116,1.73345047247146,-1.40313460563823,0.104241297467185,-0.522155901065302,-0.369339107973745,0.718501654122509,0.0302170192313449,0.71850165412365,0.348884216600332,-1.04251236904495,-0.662761510567485,,0.7158601543792,-1.36304027592547,-0.95330815301686,0.953308153017744,-0.868360046378154,0.510584114439511,2.1225258838398,1.61453670399691,-0.33229801861955,0.236505422475929,-0.214149408388173,0.468311192442891,0.810726551815222,0.810726551813932,-0.0177532742345609,0.244090678394775,0.34755003202458,0.952029345983828,-0.625256693299168,0.225905981877796,0.305511455096318,1.39628107527819,1.39628107527724,-0.290404543117854,0.290404543113485,1.29184679843097,1.12639999999999,102,919.525490196078,498.435294117647,733.308823529412,907.291176470588,931.759803921569,501.807843137255,495.062745098039,855.313725490196,611.303921568627,0
506.2656,-0.171838136465887,2.13839782792233,0.85297111206531,-0.646697894456051,1.23105144144649,1.23105144144866,,-1.34500504036931,-0.232884955417654,-1.75405531424514,-0.753920878571955,-1.75405531424559,-2.10772084079472,1.74175510373713,-1.34518800974749,0.0686827566355975,-0.484445274053636,-0.382005723647649,0.723273710030311,0.0378838992222404,0.723273710031439,0.324211129408431,-1.01729023898401,-0.673679139711006,,0.719646092137808,-1.32721345053652,-0.956495485637594,0.95649548563848,-0.857932735663263,0.558889968610146,2.1081727640088,1.65139821353828,-0.3580849382829,0.244911726089898,-0.234178658182816,0.4501574272551,0.824099957829278,0.824099957827981,-0.0420785572749871,0.243868492414601,0.309667362259624,0.975542434294091,-0.619042316890988,0.247925095836004,0.301437212730101,1.38866816885993,1.388668168859,-0.285899398309401,0.28589939830507,1.25294945618251,1.22879999999998,103,917.721844660194,501.463106796117,740.708737864078,907.679611650485,927.764077669903,508.598058252427,494.328155339806,881.961165048544,599.456310679612,0
506.368,-0.137836926933207,2.09213923506488,0.866204277826217,-0.671413411539953,1.1961749370348,1.19617493703693,,-1.35694548645744,-0.197561017103089,-1.75705096201068,-0.75457805818922,-1.75705096201115,-2.04985694968002,1.74848548684453,-1.2859702033645,0.0349884030619497,-0.448537109081251,-0.393835907970183,0.728003180836593,0.0462640938213268,0.728003180837713,0.300188719363231,-0.992534268258009,-0.684071764393759,,0.723525569091171,-1.29120383699551,-0.958769699613337,0.958769699614223,-0.849090808647963,0.60493019518431,2.09172486800843,1.6850400136323,-0.382627188496289,0.252393841586613,-0.253418922308093,0.431923447316024,0.835927476448236,0.835927476446925,-0.0653988131059611,0.242696605585634,0.27187691788271,0.99607604412836,-0.613563335035972,0.267193563718895,0.299332316125157,1.37971907651363,1.37971907651271,-0.280122166641416,0.280122166637116,1.21508557649099,1.33119999999997,102,915.792156862745,503.41862745098,750.299019607843,906.390196078431,925.194117647059,512.466666666667,494.370588235294,897.813725490196,602.78431372549,0
506.4704,-0.104170116124847,2.04424855162123,0.878299341751627,-0.696599355988274,1.15971938489195,1.15971938489405,,-1.36898064975455,-0.161588346407609,-1.75821343020238,-0.755345272883999,-1.75821343020287,-1.99011344863897,1.75356158419188,-1.22559407628522,0.00321264964239028,-0.414451068029208,-0.404772708359163,0.732659731102167,0.0553182989113166,0.732659731103266,0.27688587466702,-0.968325528723674,-0.693921591440817,,0.727509311208681,-1.25498553259298,-0.96011603871318,0.96011603871407,-0.841833346675455,0.648653606482257,2.07325571820706,1.7154544514112,-0.405876577181123,0.258941289928557,-0.271830975154388,0.413596735336796,0.846188213641247,0.84618821363991,-0.0876219462517222,0.24056494945896,0.234305364256583,1.01366533139991,-0.608759893000086,0.283782690206635,0.299132023048719,1.36943278465597,1.36943278465507,-0.273075744176681,0.273075744172416,1.17821624325297,1.43359999999996,102,914.876470588235,502.558823529412,725.205882352941,907.462745098039,922.290196078431,518.309803921569,486.807843137255,876.490196078431,573.921568627451,0
506.5728,-0.0709240710412274,1.994706007652,0.889156393247283,-0.722150870965349,1.12163800998146,1.12163800998353,,-1.38118825905076,-0.125029118425884,-1.75751234592344,-0.756206224434337,-1.75751234592394,-1.92857826797246,1.75690770607997,-1.16417636398385,-0.0265971809069832,-0.382199973960324,-0.414762369875488,0.737213223232762,0.0650060157901549,0.737213223233835,0.254367541292701,-0.944741448173477,-0.703213031830129,,0.731606572137738,-1.21853227289315,-0.960524449468781,0.960524449469671,-0.836150399813318,0.690018465315859,2.05284559014955,1.74264623526408,-0.427791733249562,0.264547180213735,-0.289380421206057,0.395167587580199,0.854866077783048,0.854866077781707,-0.108663515612007,0.237466692321461,0.197072525660316,1.02835928806211,-0.60456551721916,0.297778985389671,0.300765486261568,1.35780983778301,1.35780983778211,-0.264767569169624,0.264767569165393,1.142298973709,1.53599999999994,103,920.963106796117,486.658252427185,584.368932038835,913.345631067961,928.580582524272,500.910679611651,472.405825242718,709.174757281553,459.563106796117,0
506.6752,-0.0381842229767505,1.94349785713217,0.89867941001738,-0.747961000573494,1.08189037114399,1.08189037114603,,-1.39364246090675,-0.087949088471945,-1.75492344733464,-0.757142189011235,-1.75492344733516,-1.86534482391566,1.75845329154817,-1.10183705991129,-0.0544009307767895,-0.351789871337667,-0.423754499570419,0.741633706918692,0.0752857318459563,0.741633706919735,0.232694412562179,-0.921855483867068,-0.711932827162917,,0.735825087076085,-1.18181797343996,-0.959989832957086,0.959989832957973,-0.83202288802046,0.728992067128029,2.03058094268331,1.76663174216321,-0.4483383393353,0.269208445093483,-0.3060378210977,0.376629210162958,0.861949975093265,0.861949975091918,-0.128447156049066,0.233398430158397,0.16029102798978,1.04022020289943,-0.600907425320864,0.309283532661716,0.304156189469896,1.34485238760044,1.34485238759953,-0.255209534557855,0.255209534553658,1.10728846053098,1.63839999999999,102,930.04068627451,465.90931372549,422.921568627451,924.458823529412,935.622549019608,480.696078431373,451.122549019608,512.774509803922,333.06862745098,0
506.7776,-0.00603471942134402,1.89061672154606,0.906776788209143,-0.773921125157028,1.0404427710505,1.04044277105251,,-1.40641322919485,-0.0504173973963615,-1.75042867361688,-0.758132244640524,-1.75042867361742,-1.80051170005969,1.75813368333409,-1.0386987879558,-0.0801656450513945,-0.323220118909459,-0.431702211527255,0.745891416078546,0.086115098640089,0.745891416079559,0.211922626653525,-0.899736811540783,-0.720070181409734,,0.74017104832288,-1.14481723654826,-0.958512259906996,0.958512259907887,-0.829422541039889,0.765550282289796,2.00655380686287,1.78743826600863,-0.467489335696412,0.272926049649941,-0.321778801157556,0.357977783997217,0.867433970558917,0.867433970557521,-0.14690494972465,0.228360345823688,0.124065970173017,1.04932307031808,-0.597706892499041,0.318411275571954,0.309222430284903,1.33056422994767,1.33056422994674,-0.244417857409706,0.244417857405534,1.07313730821964,1.74079999999998,103,935.56359223301,458.807766990291,324.912621359223,939.631067961165,931.496116504854,474.335922330097,443.279611650485,392.495145631068,257.330097087379,0
506.88,0.025441935165788,1.83606188807093,0.913361862268135,-0.799921401457601,0.997268629442775,0.997268629444756,,-1.41956577521853,-0.0125063311993229,-1.74401620403328,-0.75915355202352,-1.74401620403383,-1.73418228950466,1.75589088257074,-0.974886144861708,-0.103865581704597,-0.296483518797023,-0.438562268368273,0.749956775713124,0.0974511065377645,0.749956775714103,0.192103475375386,-0.878450028914687,-0.727616891220626,,0.744649102808747,-1.10750580382664,-0.956097139513459,0.956097139514343,-0.828311885359661,0.799677096526671,1.98086114568488,1.80510324853517,-0.485225093779638,0.275705159031712,-0.336584150136942,0.339212499872829,0.871317395713884,0.871317395712463,-0.163977734777938,0.222356326441891,0.0884946281272586,1.05575494114868,-0.594879681110187,0.325290214015646,0.315877852979365,1.31495083106551,1.31495083106456,-0.232412909693308,0.232412909689176,1.03979673507853,1.84319999999997,102,934.437745098039,460.790196078431,272.803921568627,945.046078431372,923.829411764706,466.894117647059,454.686274509804,328.009803921569,217.598039215686,0
506.9824,0.0561652376778157,1.77983954612667,0.918353394080483,-0.825851192564096,0.952348813520584,0.952348813522536,,-1.43315996371734,0.0257089694893925,-1.73568043172777,-0.76018169096384,-1.73568043172833,-1.66646441646762,1.7516742485424,-0.91052504504781,-0.125482210455191,-0.271566481672706,-0.444295242766174,0.753800420917841,0.109250256275047,0.753800420918785,0.173283129323205,-0.858054868631916,-0.734567460272622,,0.749262366408929,-1.06986093709383,-0.952755331296541,0.952755331297418,-0.828644291425461,0.831364193593444,1.95360419753453,1.81967354044668,-0.501533557707165,0.2775552464582,-0.350439907886686,0.320335568889501,0.873604890508212,0.873604890506773,-0.179615337627066,0.215394033045082,0.0536662032159826,1.05961418904285,-0.592336533578783,0.330060490258027,0.324032026419673,1.29801934928761,1.29801934928665,-0.219219015684745,0.219219015680654,1.0072172095279,1.94559999999996,102,936.197549019608,457.271078431373,246.019607843137,949.540196078431,922.854901960784,468.153921568627,446.388235294118,292.950980392157,199.088235294118,0
507.0848,0.0860570369422933,1.72196294562194,0.921676016199964,-0.851599471724924,0.905671917760824,0.905671917762742,,-1.44724974374916,0.0641508481665844,-1.72542185683219,-0.761191047494212,-1.72542185683275,-1.59746996781533,1.74544110032768,-0.845742115199605,-0.145004214431367,-0.248449226083778,-0.448865716617878,0.757393229874066,0.12146872712112,0.757393229874972,0.155502378778681,-0.838605904424985,-0.740919179407611,,0.754012444490964,-1.03186172282924,-0.948503196752399,0.948503196753268,-0.830364099249782,0.860610608408932,1.9248878108269,1.83120472285092,-0.516410355670427,0.278490132724475,-0.363337450784663,0.301352218594878,0.874306380181996,0.87430638018056,-0.193776723560168,0.207484925779713,0.019661628561135,1.0610096684656,-0.58998371539005,0.332873357169141,0.333591059802667,1.27977865585338,1.2797786558524,-0.20486421750018,0.204864217496131,0.975348999525049,2.04799999999995,103,938.027669902913,455.155825242718,231.111650485437,955.547572815534,920.507766990291,467.930097087379,442.381553398058,274.902912621359,187.320388349515,0
507.1872,0.115041877927438,1.66245247025404,0.923260627378859,-0.877055195924234,0.857234490146362,0.857234490148257,,-1.46188259915606,0.102739512417072,-1.71324689512569,-0.762155241748799,-1.71324689512626,-1.52731455779914,1.73715719318528,-0.78066417244281,-0.162427498058428,-0.227106007921543,-0.452242518722021,0.760706372344378,0.134062539291991,0.760706372345252,0.138796383577231,-0.820152231884733,-0.746672161621269,,0.758899449243176,-0.993489310292138,-0.943362599258427,0.943362599259283,-0.833406839903149,0.887422448092265,1.89481977023033,1.83976048684183,-0.529858886657649,0.278527965223414,-0.375273575987182,0.28227068491517,0.87343699940528,0.87343699940383,-0.206430070961856,0.198644252775505,-0.0134465626096303,1.06005976711476,-0.587723586043158,0.33389004754941,0.344458249179585,1.26023935299788,1.26023935299687,-0.189380007519455,0.189380007515453,0.944142631246013,2.15039999999999,102,937.94068627451,458.892156862745,222.049019607843,954.287254901961,921.594117647059,463.847058823529,453.937254901961,263.941176470588,180.156862745098,0
507.2896,0.143047341319692,1.60133563341444,0.923044745877609,-0.902107659915185,0.807041208488895,0.807041208490772,,-1.47709902310973,0.141393446027649,-1.69916761643845,-0.763047581521282,-1.69916761643903,-1.45611722914188,1.72679706851531,-0.715417789648531,-0.177755197737316,-0.207505370977374,-0.454398987197316,0.763711373236458,0.146987706473194,0.763711373237297,0.123194429033532,-0.802737120533269,-0.751829332804705,,0.763922013999442,-0.954727096594198,-0.937360866058615,0.937360866059459,-0.837699560327166,0.911812660571891,1.86351011597731,1.84541205327426,-0.541890384322961,0.277691154850539,-0.38625057981282,0.263102202552893,0.871016979122808,0.871016979121358,-0.217552775205831,0.18889100675242,-0.0455943096266544,1.05689137502454,-0.585455183337093,0.333280572027625,0.356534744165411,1.23941378536991,1.23941378536886,-0.172801032344449,0.172801032340483,0.913549264879952,2.25279999999998,103,939.700970873787,455.546116504854,216.257281553398,956.926213592233,922.47572815534,462.002912621359,449.08932038835,255.932038834952,176.582524271845,0
507.392,0.170004372199603,1.53864701500647,0.920972822831483,-0.926646848581805,0.755105013272205,0.755105013274056,,-1.49293202832757,0.180029843698993,-1.68320143801816,-0.763841521949646,-1.68320143801875,-1.38400018117467,1.71434429245483,-0.65012893263956,-0.190997689821282,-0.189610406053653,-0.455313236557011,0.766380186917111,0.160200373432128,0.766380186917918,0.108719696814682,-0.78639765383061,-0.756396383291143,,0.769077317105549,-0.915560863036483,-0.930530722557547,0.93053072255837,-0.843161245960945,0.933800835622848,1.83107046697207,1.84823762451865,-0.55252395103709,0.276006290615628,-0.396276317276939,0.24386098904203,0.867071509661346,0.867071509659868,-0.22713138303641,0.178247851126534,-0.0767260366179649,1.05163878994072,-0.583074822318353,0.331222458935504,0.369720218945755,1.21731604255131,1.21731604255024,-0.155164781462008,0.155164781458086,0.88352099766067,2.35519999999997,102,938.189705882353,453.028921568628,211.78431372549,956.277450980392,920.101960784314,455.496078431373,450.561764705882,249.509803921569,174.058823529412,0
507.4944,0.19584758572294,1.47442815854797,0.916996512377914,-0.950563803199274,0.70144720162888,0.701447201630716,,-1.50940670887857,0.218565059086627,-1.66537079734803,-0.764511114123463,-1.66537079734863,-1.31108851428187,1.6997916030527,-0.584922650665852,-0.202172588428818,-0.173379008446767,-0.454968408910786,0.768685275436222,0.17365693493001,0.768685275436988,0.095389066925514,-0.771164382626334,-0.760381683762342,,0.774361132236577,-0.875978859664821,-0.922910201136951,0.922910201137757,-0.849703328253957,0.953413032156274,1.7976133660331,1.84832187237191,-0.561786549735063,0.273504047843559,-0.405364226326852,0.224564214575804,0.861630590019841,0.861630590018338,-0.235161459632166,0.166741023698115,-0.106794595292882,1.044442571268,-0.58047671722406,0.327899438883864,0.383913530667077,1.19396195546523,1.19396195546412,-0.136511276669696,0.136511276665811,0.854011102944058,2.45759999999996,102,936.69068627451,453.013725490196,208.308823529412,954.169607843137,919.211764705882,450.063725490196,455.963725490196,243.960784313726,172.656862745098,0
507.5968,0.220515539071902,1.40872744083901,0.911074893243576,-0.973751008855421,0.646097483356192,0.646097483358003,,-1.52653986948296,0.256915057424317,-1.64570282341406,-0.765031432869896,-1.64570282341466,-1.23750997945562,1.68314098398326,-0.519922801882334,-0.211304721829963,-0.15876413135172,-0.453352891066552,0.770599684619764,0.187314135585295,0.770599684620489,0.0832129668721724,-0.757061019582927,-0.763796171633678,,0.779767915752406,-0.835971836575033,-0.914542518180438,0.914542518181217,-0.857230261958829,0.970681624692083,1.76325166645728,1.84575546593267,-0.569712940640421,0.270219097146976,-0.413533302834832,0.205231949522641,0.854728868605186,0.854728868603657,-0.24164739744556,0.154400233273428,-0.135761128722673,1.03544835573803,-0.577553632678659,0.323500078965279,0.399013349767391,1.16936909873725,1.16936909873612,-0.116882777846073,0.116882777842236,0.824974215660204,2.55999999999995,103,845.370388349515,437.43932038835,204.582524271845,863.500970873787,827.239805825243,437.846601941748,437.032038834952,238.893203883495,170.271844660194,0
507.6992,0.243950965030225,1.34159991961277,0.903174639546775,-0.996102800604568,0.589093997067446,0.589093997069243,,-1.54433973842015,0.294995863786217,-1.62422902069531,-0.76537897802211,-1.62422902069591,-1.16339472051993,1.66440367439346,-0.455251797768965,-0.218426073483921,-0.145714041121889,-0.450460483851927,0.77209711486804,0.201129154142129,0.772097114868733,0.0721952815264145,-0.744104202947097,-0.766653219272711,,0.7852909319843,-0.795533025659016,-0.905475909243525,0.905475909244282,-0.865640156399233,0.985645158485539,1.72809797309226,1.84063463682367,-0.576345551670489,0.266190010538326,-0.420808017647241,0.185887083475183,0.846405476614969,0.846405476613418,-0.246602179150595,0.141258562690965,-0.163594854457969,1.02480565057054,-0.574197569568263,0.318216374071398,0.414918747958425,1.14355681792975,1.14355681792862,-0.0963235191043336,0.096323519100535,0.796366479661934,2.66239999999999,102,787.021568627451,437.81862745098,204.348039215686,809.745098039216,764.298039215686,441.197058823529,434.440196078431,238.039215686275,170.656862745098,0
507.8016,0.266100970710388,1.2731071606421,0.89327014521772,-1.01751577823162,0.5304832838036,0.530483283805382,,-1.56280577706383,0.332723998790178,-1.60098497262072,-0.765532043010866,-1.60098497262133,-1.08887499967522,1.64360011451025,-0.391030357521938,-0.223575678852681,-0.134172582318308,-0.446290519034146,0.773151987043835,0.21505967811771,0.773151987044491,0.0623333317274483,-0.732303350315426,-0.768968495305067,,0.790922409754991,-0.754658079134724,-0.895763416714921,0.895763416715654,-0.874825446822204,0.998348206076791,1.69226413823947,1.83306077525975,-0.581734277116764,0.261459153202426,-0.42721817482283,0.166555214495516,0.836703853114861,0.836703853113281,-0.250047102559409,0.12735238010404,-0.190272776269904,1.01266661724453,-0.570300489981617,0.312242301645471,0.431529733520535,1.11654629458578,1.11654629458463,-0.0748794821879183,0.0748794821841514,0.768145673936249,2.76479999999998,103,785.720873786408,434.236893203884,201.728155339806,810.345631067961,761.096116504854,434.959223300971,433.514563106796,234.73786407767,168.718446601942,0
507.904,0.286917211629561,1.20331704352807,0.881343612331392,-1.03788921561738,0.470320215880037,0.470320215881803,,-1.5819285896929,0.370016896339242,-1.57601006047774,-0.765471044986552,-1.57601006047835,-1.01408490483285,1.6207598228676,-0.327377272614389,-0.226799480186258,-0.124079456866068,-0.44084793118376,0.773739506101736,0.22906397421331,0.773739506102359,0.0536179204856319,-0.721660606140177,-0.770759825355924,,0.796653720291335,-0.713344970630476,-0.885462629831185,0.885462629831892,-0.884673597404719,1.00884122528718,1.65586080054846,1.82314005060689,-0.585936207350077,0.25607254727717,-0.432798718184689,0.147264512579035,0.825671559625936,0.825671559624316,-0.252011464865773,0.112721247761762,-0.215779336963028,0.999184854250879,-0.56575507667186,0.305772349480597,0.448747732190426,1.08836064674263,1.08836064674146,-0.0525982009059947,0.0525982009022567,0.740271325961734,2.86719999999997,102,784.702941176471,429.775980392157,198.735294117647,810.493137254902,758.912745098039,430.774509803922,428.777450980392,230.607843137255,166.862745098039,0
508.0064,0.306356051732693,1.1323035458505,0.867385114287151,-1.05712545132686,0.408667879365299,0.40866787936707,,-1.60168992879753,0.406793300308907,-1.54934718868947,-0.765178813844367,-1.54934718869008,-0.939160043279871,1.59592120367692,-0.264409186560435,-0.228150145863471,-0.115370520599459,-0.4341432969634,0.773835724332947,0.243100956098795,0.773835724333546,0.0460334397251487,-0.712170875996581,-0.772047055640104,,0.802475569386298,-0.671593863225972,-0.874635375540541,0.874635375541215,-0.895067832093231,1.01718042059798,1.61899695569955,1.81098305218488,-0.589015295635748,0.25007969643518,-0.437589495435746,0.128045562865923,0.81336008017935,0.813360080177705,-0.252532195665555,0.0974078134746181,-0.240106018733543,0.9845141869026,-0.560455510167188,0.299000035314046,0.466476020137332,1.05902505231223,1.05902505231106,-0.029528581755012,0.0295285817513079,0.712704806835964,2.96959999999996,102,787.689705882353,421.986274509804,196.137254901961,813.556862745098,761.822549019608,423.58431372549,420.388235294118,227.960784313726,164.313725490196,0
508.1088,0.324378712929041,1.06014650782758,0.851392638603349,-1.07513025150594,0.345597409426953,0.345597409428701,,-1.62206278979435,0.442973637008873,-1.52104251249864,-0.76464084122465,-1.52104251249925,-0.864237226568612,1.56913128726635,-0.202240393463705,-0.227686854707515,-0.107978102729018,-0.426192847894219,0.773417603248388,0.257130247844093,0.773417603248949,0.039558032348364,-0.703821944494333,-0.772851924349596,,0.80837820167146,-0.629406949483162,-0.863347354992487,0.863347354993133,-0.905887890163201,1.02342760453032,1.58177955933781,1.79670444744204,-0.591041966050556,0.243533365096433,-0.441634985500189,0.108931191196675,0.799824602503328,0.799824602501668,-0.251653430937074,0.0814576759659374,-0.263250892524638,0.968807477658677,-0.554298244422927,0.292116442623358,0.484620118038026,1.02856688138879,1.02856688138761,-0.00572072863172843,0.00572072862805344,0.685409393546794,3.07199999999995,103,351.096601941748,482.222815533981,203.436893203884,359.33786407767,342.855339805825,495.183495145631,469.26213592233,234.019417475728,172.854368932039,0
508.2112,0.340951409329841,0.986931382368643,0.833372106650836,-1.091813142023,0.281187779591278,0.281187779593021,,-1.64301158962058,0.478480360261065,-1.49114517189933,-0.763845493600277,-1.49114517189994,-0.789454149539306,1.5404454106207,-0.140982655315363,-0.225475040371736,-0.101831352967622,-0.417018454394376,0.772463070307869,0.271112240406869,0.772463070308404,0.0341638071055207,-0.696594678671723,-0.773197947206947,,0.81435161837762,-0.586788269353577,-0.85166772162795,0.851667721628571,-0.917010802105141,1.02765005166477,1.54431317148394,1.7804226556749,-0.592092664343321,0.236489312482764,-0.444983990654985,0.0899562710722859,0.785123780082278,0.785123780080583,-0.249426028347608,0.0649192248737567,-0.285218115769661,0.952215476959875,-0.547182771350448,0.285308794676254,0.50308815395091,0.99701582507306,0.997015825071881,0.0187742333383179,-0.0187742333419592,0.658350282669569,3.17439999999999,102,44.8558823529412,528.793137254902,212.28431372549,63.8686274509804,25.843137254902,544.377450980392,513.208823529412,244.137254901961,180.43137254902,0
508.3136,0.356045459188971,0.912748976872306,0.813337366071243,-1.10708771080482,0.21552554859043,0.215525548592166,,-1.66449242022724,0.513238269245198,-1.45970703815653,-0.762784196327258,-1.45970703815715,-0.714949064259822,1.5099268476815,-0.0807450348597114,-0.221586092417457,-0.0968566182391387,-0.406647578247822,0.770951065728596,0.285008138589231,0.770951065729097,0.0298171015661722,-0.690463312160555,-0.773110319380737,,0.82038581241216,-0.543743508823449,-0.839668601657222,0.839668601657827,-0.928311680393478,1.02992034015438,1.50669965120353,1.76225953727259,-0.59224935325459,0.229005987691613,-0.447689292679772,0.0711575100332395,0.769319479301489,0.769319479299753,-0.245907028396618,0.0478434614962544,-0.306017376124675,0.934885735895497,-0.539012372786313,0.278759083612102,0.521791200856503,0.964404012696123,0.96440401269495,0.0439043357971579,-0.0439043358007668,0.631494546650674,3.27679999999998,103,55.4169902912621,534.039805825243,222.480582524272,75.9194174757282,34.9145631067961,548.093203883495,519.98640776699,255.47572815534,189.485436893204,0
508.416,0.369637370133256,0.837695190813816,0.791310153215641,-1.12087188292043,0.148704570547102,0.148704570548834,,-1.68645336455427,0.547174803828144,-1.42678247743256,-0.761451597118261,-1.4267824774332,-0.640860446492021,1.4776463986147,-0.0216337379325794,-0.216097013348804,-0.0929778509049779,-0.39511319438294,0.768861576182086,0.298779996106507,0.768861576182549,0.026478785619203,-0.685395795825779,-0.772615829305245,,0.826471025747349,-0.500279777098354,-0.827424562825722,0.827424562826314,-0.939664519773025,1.03031617953936,1.469037905554,1.74234009954999,-0.591598954341585,0.22114419602594,-0.449807271332824,0.0525732147394561,0.752476516532131,0.752476516530382,-0.241159066209701,0.0302838050572686,-0.325663281282599,0.916961593805282,-0.52969485889547,0.27264276496131,0.54064359235719,0.930766117955283,0.930766117954106,0.0696169445123663,-0.0696169445159329,0.6048110353789,3.37919999999997,102,51.6137254901961,548.63137254902,234.044117647059,72.55,30.6774509803922,569.889215686275,527.373529411765,268.56862745098,199.519607843137,0
508.5184,0.381708894260841,0.761870747727648,0.767320021350421,-1.13308817240509,0.0808256742297023,0.0808256742314138,,-1.708834864964,0.580220322345462,-1.39242813479756,-0.759845715685163,-1.39242813479822,-0.567326649932775,1.44368194293514,0.0362480413626321,-0.209090032329642,-0.090117049055249,-0.382453683518605,0.766175654433815,0.312390738353914,0.766175654434252,0.0241045987340465,-0.681354199457334,-0.771742777266566,,0.832598031948888,-0.456405357326928,-0.815012040415755,0.815012040416326,-0.950943004146038,1.02892022715355,1.43142369157858,1.72079222062135,-0.590232739281207,0.212966748190978,-0.451397483813025,0.0342430364451049,0.734662388692531,0.734662388690758,-0.235249739972619,0.0122958850843768,-0.344174703202265,0.89858124019171,-0.519143291365557,0.267127518390035,0.559563218607577,0.896139461233254,0.89613946123208,0.0958589292487864,-0.0958589292523103,0.57827023577908,3.48159999999996,102,62.4264705882353,553.513725490196,248.450980392157,83.6392156862745,41.2137254901961,572.883333333333,534.144117647059,285.127450980392,211.774509803922,0
508.6208,0.39224704976835,0.685380914824491,0.741404227871426,-1.14366391531205,0.0119963137094811,0.0119963137111754,,-1.73157014161399,0.612308361963897,-1.35670274194291,-0.757968078967373,-1.35670274194358,-0.494485544501313,1.4081179542678,0.0928002753724675,-0.200652178385255,-0.0881947230769461,-0.368712693895841,0.762875425430105,0.325804175821292,0.762875425430507,0.0226455172726592,-0.678295153927906,-0.770520892303404,,0.838758440803785,-0.412129425600358,-0.802508727505526,0.802508727506078,-0.962021323345657,1.02581989891978,1.39394946428676,1.6977463928627,-0.588245674742729,0.204538100914131,-0.452522205909328,0.0162077021028904,0.715946997882122,0.715946997880338,-0.228250943483143,-0.00606268240357585,-0.361574091830621,0.879876842412099,-0.507276691634803,0.262372068209077,0.578471803792885,0.860564114774125,0.860564114772957,0.122576818592597,-0.12257681859608,0.551844105921669,3.58399999999995,103,81.1092233009709,560.015533980583,254.116504854369,100.097087378641,62.121359223301,582.126213592233,537.904854368932,279.815533980583,228.417475728155,0
508.7232,0.401244109013131,0.608335200044691,0.71360757550309,-1.15253148518167,-0.0576698125368884,-0.0576698125352104,,-1.75458566495372,0.643375877651351,-1.31966694995679,-0.755823830251806,-1.31966694995747,-0.422474138684717,1.37104497080654,0.147926255066222,-0.190874816484344,-0.0871303791212853,-0.353938967599874,0.758944080684922,0.338985012102685,0.758944080685303,0.0220481493850146,-0.67617032635915,-0.768981242634424,,0.844945016477756,-0.367461734333452,-0.789992931920028,0.789992931920563,-0.972775011317822,1.02110718017409,1.35670425979269,1.67333548533714,-0.585735726288353,0.195923990843598,-0.453245939050988,-0.00149125954106295,0.69640236609806,0.696402366096265,-0.220238168086909,-0.0247325377641728,-0.377886770845912,0.860973734189368,-0.494020733684344,0.258525060352491,0.597295161817652,0.824083011804995,0.824083011803839,0.149716937314068,-0.14971693731752,0.525505895353985,3.68639999999999,102,99.5343137254902,567.700490196078,259.916666666667,117.166666666667,81.9019607843137,591.052941176471,544.348039215686,279.960784313725,239.872549019608,0
508.8256,0.408697556896389,0.530847016714353,0.683982206798903,-1.15962848811627,-0.12805317890252,-0.128053178900861,,-1.77780168585181,0.673363456881996,-1.28138318440121,-0.753421795273266,-1.2813831844019,-0.351428188262844,1.33255902032368,0.201532736930189,-0.179853148974255,-0.0868430126344555,-0.33818612819287,0.754365863796481,0.351898847661732,0.75436586379685,0.0222551534952375,-0.674926919012698,-0.767156135181342,,0.851152000392395,-0.322412258100988,-0.777542901318724,0.777542901319236,-0.98308182079778,1.01487843725258,1.31977360401422,1.64769452069141,-0.582803128010256,0.187191059482897,-0.453634889988334,-0.0188117864223385,0.676102335956145,0.676102335954314,-0.211289774883181,-0.0436528414931353,-0.393140219613596,0.841989669396137,-0.479308416963436,0.255724002467789,0.61596342005806,0.786742056445999,0.786742056444843,0.177225528523822,-0.17722552852724,0.499229953524086,3.78879999999998,103,111.667961165049,568.041747572816,266.281553398058,125.549514563107,97.7864077669903,590.61359223301,545.469902912621,285.844660194175,246.718446601942,0
508.928,0.414610024404106,0.453033309450806,0.652587353935394,-1.1648979342865,-0.199028887359491,-0.199028887357849,,-1.80113281784063,0.702215512563887,-1.24191551716348,-0.750774495755824,-1.24191551716418,-0.281481790618022,1.2927610062976,0.253530088042254,-0.167685687057929,-0.0872516055038116,-0.321512429870193,0.749126050506907,0.364512178381961,0.749126050507258,0.0232056761985295,-0.674508178783532,-0.765078995493899,,0.857375432421645,-0.276990800808143,-0.765236121489778,0.765236121490271,-0.992822643683984,1.00723422602898,1.28323943977413,1.62096045914889,-0.579549625675694,0.178406468916772,-0.453756430092963,-0.0357115405763266,0.655122259783442,0.655122259781568,-0.201486238649388,-0.0627615591953779,-0.407363344075431,0.82303415229616,-0.463080711502493,0.25409428137843,0.634411199734307,0.748590231329587,0.748590231328431,0.205048860440586,-0.205048860443974,0.472991523492439,3.89119999999997,102,126.257352941176,567.307352941177,267.06862745098,141.501960784314,111.012745098039,590.825490196079,543.789215686275,286.607843137255,247.529411764706,0
509.0304,0.418989201295703,0.375014137525204,0.619489046142723,-1.16828838327995,-0.270467156351448,-0.270467156349819,,-1.82448865699468,0.729880462393359,-1.20132954935343,-0.74789811399265,-1.20132954935413,-0.212766958449536,1.25175606483848,0.303832439312919,-0.154473701544402,-0.088275615779907,-0.303980470195227,0.743210928273277,0.376792389323099,0.74321092827361,0.0248358083745811,-0.674853905876279,-0.762784216454629,,0.863613463309864,-0.231206564366794,-0.753148596125608,0.753148596126086,-1.00188247526148,0.99827909269655,1.2471800649899,1.59327198131576,-0.576077702725678,0.169637511271696,-0.453678541571725,-0.0521481561781378,0.633538684891608,0.633538684889692,-0.190909371334845,-0.0819957660938008,-0.420585746119549,0.804207856379606,-0.44528716253746,0.253748276471823,0.652577746963419,0.709679700211836,0.709679700210679,0.233133312802088,-0.233133312805453,0.44676652171473,3.99359999999996,102,137.025490196078,566.910294117647,267.441176470588,152.841176470588,121.209803921569,591.586274509804,542.23431372549,287.06862745098,247.813725490196,0
509.1328,0.421847730696097,0.296912214524715,0.584759777095995,-1.16975406056776,-0.342233840449365,-0.342233840447753,,-1.84777442587074,0.756310903749241,-1.15969230166226,-0.744812420309499,-1.15969230166296,-0.145413166816979,1.20965290228621,0.352357856856614,-0.140320661840497,-0.0898354478296922,-0.285656867005837,0.736607781995626,0.388707746223397,0.736607781995935,0.0270790612384581,-0.675900960648837,-0.760306971695947,,0.86986664846305,-0.185067686735963,-0.741354117274099,0.74135411727456,-1.01015140992728,0.988121362873691,1.21167007545042,1.56476926267893,-0.572489800140531,0.160951214959744,-0.453469259334357,-0.0680794844053913,0.611429043340964,0.611429043339011,-0.179641538592161,-0.101291966413681,-0.432837005056011,0.785602140953424,-0.425886435602403,0.25478459020956,0.67040701614004,0.670065900627199,0.67006590062604,0.261425439265952,-0.261425439269286,0.42053130836995,4.09599999999995,103,147.133009708738,560.510194174757,266.883495145631,167.014563106796,127.25145631068,582.794174757282,538.226213592233,285.359223300971,248.407766990291,0
509.2352,0.423203088770783,0.218852412863639,0.548478139722941,-1.16925494586798,-0.414190977781885,-0.414190977780289,,-1.8708916353003,0.781463787536208,-1.11707211194366,-0.741540676241978,-1.11707211194435,-0.0795468758634179,1.1665631257437,0.399028534209856,-0.12533166959207,-0.0918528947102679,-0.266611900378413,0.729304892401727,0.400227387532405,0.729304892402016,0.0298668643887803,-0.677583777600523,-0.757683001004787,,0.876138210015372,-0.138580776762341,-0.729923542720041,0.729923542720482,-1.01752564017309,0.976872912004088,1.176780308957,1.53559373157146,-0.568887545414789,0.152413951002045,-0.45319612092756,-0.0834638423433455,0.58887135361887,0.588871353616875,-0.167764887230512,-0.120586419229292,-0.444145985874834,0.767298667982354,-0.404846781743606,0.257287413041451,0.687847713678351,0.629807621443564,0.62980762144241,0.289872007754567,-0.289872007757889,0.394262454215553,4.19839999999999,102,159.299019607843,564.342647058824,267.049019607843,181.254901960784,137.343137254902,591.516666666667,537.16862745098,285.382352941177,248.71568627451,0
509.3376,0.423077457812499,0.140961260175938,0.510728450197461,-1.1667568426278,-0.486197357231384,-0.486197357229809,,-1.89373875935846,0.80530058600986,-1.073538540518,-0.738109523134656,-1.07353854051868,-0.0152910456987039,1.12260058449401,0.443770996647204,-0.109612901780013,-0.0942515426054621,-0.246919130397816,0.721291551442908,0.411321319185573,0.721291551443169,0.033129085173525,-0.679834892632443,-0.754948376143929,,0.882434248013058,-0.0917505030569849,-0.718924116376745,0.718924116377166,-1.02390840075329,0.964648898697037,1.14257778974993,1.50588779308093,-0.565371017021686,0.144091047864601,-0.452925645082818,-0.0982602723729654,0.565943941647361,0.56594394164531,-0.15536060995887,-0.139815458107706,-0.45454019552564,0.749369110228555,-0.382146410155998,0.26132602577606,0.704853313579095,0.588967065207087,0.588967065205934,0.318420024903688,-0.318420024906982,0.367936515368546,4.30079999999998,103,169.908737864078,562.135922330097,264.73786407767,191.554368932039,148.263106796117,586.008737864078,538.263106796117,283.194174757282,246.281553398058,0
509.44,0.421497606512989,0.0633664687057797,0.471600395387356,-1.16223144466107,-0.55810909085939,-0.558109090857835,,-1.9162119146038,0.827787443313691,-1.02916228153508,-0.734548858920889,-1.02916228153576,0.0472353272043292,1.07788074340936,0.486516297575204,-0.0932710926461807,-0.0969571196824503,-0.226655014538931,0.712558095324778,0.42196041498514,0.712558095325021,0.0367945636494434,-0.682585476588865,-0.752139248264812,,0.888763875711793,-0.0445793162402213,-0.708418885147118,0.708418885147511,-1.02921077422422,0.951567430934414,1.1091256744503,1.47579449180183,-0.562038080429758,0.136046429990764,-0.452722865712963,-0.112428816263011,0.542725187628401,0.542725187626314,-0.142508280543032,-0.158915789425211,-0.464045215106335,0.731874932066558,-0.357773766667792,0.266954426898895,0.721382053817542,0.547609900294698,0.547609900293542,0.347016753839756,-0.347016753843023,0.341529833896117,4.40319999999997,102,176.221078431373,560.522058823529,268.235294117647,202.426470588235,150.01568627451,582.48431372549,538.559803921569,286.970588235294,249.5,0
509.5424,0.418494789785471,-0.0138034691765867,0.431188732693053,-1.15565641290274,-0.629780179184281,-0.629780179182739,,-1.93820553476339,0.84889529665019,-0.984015077393731,-0.730891694481863,-0.984015077394399,0.107917622089475,1.03252010106231,0.527200182910576,-0.0764130802950034,-0.0998977739947062,-0.2058985457527,0.703095952033138,0.432116426949832,0.703095952033361,0.0407916525118082,-0.68576586053379,-0.749291577220861,,0.89513925569497,0.00293262755606694,-0.698466256230277,0.698466256230649,-1.03335228863768,0.937749140616517,1.07648320357673,1.44545709297611,-0.55898382379926,0.12834229334241,-0.452650941784283,-0.125930804222489,0.519293301200207,0.519293301198083,-0.129285284738575,-0.177824758333715,-0.472684230170361,0.714867227702031,-0.331727722559818,0.27421107019527,0.737396914002964,0.505805306623451,0.505805306622302,0.375609737099519,-0.375609737102758,0.315018379819869,4.50559999999996,102,192.526470588235,562.313235294118,275.686274509804,224.328431372549,160.724509803922,587.817647058824,536.808823529412,296.696078431373,254.676470588235,0
509.6448,0.414104673293329,-0.0904196116906704,0.389593051362581,-1.14701546376299,-0.701063066425677,-0.701063066424151,,-1.95961303747476,0.868599960653958,-0.938169633520334,-0.727173973178748,-0.938169633520996,0.166645937850268,0.986635648756093,0.565763205675582,-0.0591454204237357,-0.103004278184218,-0.184730912480391,0.692897698380286,0.441762009524447,0.692897698380487,0.0450487477688205,-0.689306041895659,-0.74644085345476,,0.901575525047753,0.0507873191062065,-0.689119705049667,0.689119705050016,-1.03626129220337,0.923316665222809,1.04470565997309,1.41501858161185,-0.556300097463543,0.121038820665546,-0.452770845780401,-0.138729154624937,0.495726121605884,0.495726121603716,-0.115766351825705,-0.19648058166118,-0.48047766550076,0.698386617805061,-0.304017677467899,0.283118710576217,0.752865568485334,0.463626011223402,0.463626011222252,0.404146837184372,-0.404146837187591,0.288377641030663,4.60799999999995,103,206.971844660194,561.47427184466,279.898058252427,236.481553398058,177.46213592233,585.719417475728,537.229126213592,301.669902912621,258.126213592233,0
509.7472,0.408367279763003,-0.166352836227095,0.346917586606955,-1.13629846208802,-0.771809188668547,-0.771809188667054,,-1.98032748401141,0.886882173257396,-0.891699531592697,-0.723434342195003,-0.891699531593361,0.223315366314512,0.940344357430783,0.602150783039432,-0.041574050490493,-0.106210168742163,-0.163235164832671,0.681957120791239,0.450870758319767,0.681957120791423,0.0494947941684792,-0.693136165980681,-0.743621832460929,,0.908090615093887,0.0989885474164143,-0.680427614236801,0.680427614237133,-1.03787513755933,0.908394052829622,1.01384432981081,1.38462109223773,-0.554075139917,0.114193933339577,-0.453141116482968,-0.150788677927396,0.47210093688535,0.472100936883158,-0.102023172576933,-0.21482255751693,-0.487442917492827,0.682463222066988,-0.274663577725875,0.293684369960637,0.767760311731201,0.421148302143027,0.421148302141889,0.432576306884618,-0.432576306887822,0.261582561133051,4.71039999999999,102,223.835294117647,558.762254901961,279.333333333333,250.107843137255,197.562745098039,585.155882352941,532.36862745098,302.362745098039,256.303921568627,0
509.8496,0.401326949539661,-0.241474062459804,0.30327107057698,-1.12350151201714,-0.841869517846154,-0.841869517844684,,-2.00024223248508,0.903727606296011,-0.844679139906377,-0.719713877228153,-0.844679139907036,0.277826198429949,0.893762681921171,0.636313194969646,-0.0238039828221706,-0.10945183068417,-0.141495867481602,0.670269273327012,0.459417261206848,0.67026927332718,0.0540597522804747,-0.69718697803352,-0.740868297826298,,0.914704984977003,0.14754139362408,-0.672433214632173,0.672433214632489,-1.0381402202953,0.893106105674777,0.983946462088677,1.35440528111957,-0.552393266414279,0.107863079714161,-0.453817654870958,-0.162076380642921,0.448494319198842,0.448494319196623,-0.0881240817716642,-0.232791267202261,-0.493594174332566,0.667116731375973,-0.243695849781904,0.305899440928327,0.782057957357435,0.378452006995062,0.378452006993932,0.460846898343834,-0.460846898347017,0.234607522692474,4.81279999999998,103,241.161650485437,560.179126213592,282.126213592233,264.264077669903,218.059223300971,584.83786407767,535.520388349515,307.679611650485,256.572815533981,0
509.952,0.393032308942086,-0.315654447653656,0.258766604928588,-1.10862704348986,-0.911095104355125,-0.911095104353689,,-2.0192515807581,0.91912684875187,-0.797183519656175,-0.716055770694939,-0.797183519656834,0.330084070681353,0.847006077869178,0.668205529727502,-0.00593900644334379,-0.112668540044413,-0.119598723137612,0.657830527675023,0.467377159284427,0.657830527675175,0.0586750208442059,-0.701390239047514,-0.738212855358559,,0.921441291296522,0.196451612214039,-0.665174602245776,0.665174602246073,-1.03701190535579,0.877577670808026,0.95505522628668,1.32450964863636,-0.551334600733311,0.102099062317097,-0.45485354504218,-0.17256177007722,0.424981978793603,0.424981978791374,-0.0741337887236219,-0.250328781715707,-0.498942317331573,0.65235659717659,-0.211155246363518,0.319739942833654,0.79573971158744,0.335620428133384,0.335620428132278,0.488908010476043,-0.488908010479202,0.207426373714913,4.91519999999997,102,246.71568627451,559.260294117647,286.936274509804,269.690196078431,223.741176470588,584.799019607843,533.721568627451,313.872549019608,260,0
510.0544,0.383536242962725,-0.38876557219007,0.213521542658598,-1.09168389682167,-0.979337622050301,-0.979337622048888,,-2.03725139204285,0.933075372331459,-0.749288326378097,-0.712504994937906,-0.749288326378752,0.380000065431421,0.800188530533484,0.697787589260231,0.0119186189805996,-0.115802477058277,-0.0976301560128379,0.644638613270221,0.474727216197623,0.644638613270353,0.063273813219785,-0.705679097127278,-0.73568675046708,,0.928324012617315,0.245724943273838,-0.658684810158976,0.658684810159259,-1.03445436321412,0.861932887230507,0.927209668240073,1.29506982053181,-0.550974836393824,0.0969519048440029,-0.456298887664644,-0.182217162982922,0.40163864085717,0.401638640854945,-0.0601131522128839,-0.267378872934494,-0.503494897974928,0.638182340257706,-0.177092604331028,0.335166932836188,0.808791020533966,0.292740235527294,0.292740235526214,0.516709865226375,-0.516709865229507,0.180012499983709,5.01759999999996,102,256.953431372549,564.482843137255,291.328431372549,280.030392156863,233.876470588235,588.48137254902,540.48431372549,320.970588235294,261.686274509804,0
510.1568,0.372895868493919,-0.460679630934692,0.167657367669582,-1.07268741162219,-1.04644991902135,-1.04644991901997,,-2.05413969867672,0.945573485633801,-0.701069707209376,-0.709107950316786,-0.701069707210027,0.42749078420821,0.753422096800763,0.725023773586556,0.0296684856900204,-0.118798719213024,-0.0756768522600834,0.630692648393713,0.481445395298325,0.630692648393824,0.0677914906469809,-0.709988408254685,-0.7333196969792,,0.935379045268304,0.295366401456977,-0.652991919213214,0.652991919213475,-1.03044033393631,0.846294406398463,0.900444662276182,1.26621780256491,-0.551385016564664,0.0924687580194852,-0.458200636703809,-0.191017998876748,0.378537945151429,0.378537945149211,-0.0461190052634776,-0.283887219722214,-0.507256184102225,0.624583964562486,-0.141568522346512,0.35212705507836,0.821201391643231,0.249901323483834,0.249901323482781,0.544203702016662,-0.544203702019771,0.152338948821947,5.11999999999995,103,441.611650485437,555.652912621359,296.54854368932,455.92427184466,427.299029126214,574.385436893204,536.920388349515,327.126213592233,265.970873786408,0
510.2592,0.361172501202563,-0.531269644208461,0.121299558221662,-1.05165952546163,-1.11228657715327,-1.11228657715191,,-2.06981728643345,0.956626276414568,-0.652604194409685,-0.705912105321815,-0.652604194410339,0.472478411851462,0.706816460569737,0.749882961725908,0.0472123749847346,-0.121605216405393,-0.0538252622405345,0.615993163380087,0.487510944972071,0.615993163380182,0.0721658591993021,-0.71425500580653,-0.731139705180043,,0.942633284001402,0.345379584507969,-0.648119195033767,0.648119195034005,-1.02495084103977,0.830782609533315,0.874790856605963,1.23808122857935,-0.552631324255049,0.0886938403208439,-0.460602433332509,-0.198943152295726,0.355752360116903,0.355752360114699,-0.0322040330380029,-0.299801600502503,-0.510227267274833,0.611542451602582,-0.104652980991191,0.370553192862012,0.832964189301087,0.207196635847662,0.207196635846645,0.571341982940136,-0.571341982943228,0.124378600831509,5.22239999999999,102,597.662745098039,540.99068627451,298.504901960784,620.106862745098,575.21862745098,554.182352941176,527.799019607843,332.166666666667,264.843137254902,0
510.3616,0.34843160817009,-0.600409702020542,0.0745774194269889,-1.02862887981181,-1.17670448361321,-1.17670448361188,,-2.08418826591033,0.966243537138858,-0.603968591338849,-0.702965631269537,-0.603968591339497,0.514890780199475,0.660478496824939,0.772338395729756,0.0644546001384698,-0.124172745963076,-0.032161074821247,0.600542116690136,0.492904492018789,0.600542116690224,0.0763374377901284,-0.718417922658615,-0.729172901428958,,0.95011419574354,0.395766032721357,-0.644085240454318,0.644085240454537,-1.01797488259365,0.815514846393105,0.850274609730612,1.21078262354504,-0.554774878682359,0.085668403810841,-0.463544436718745,-0.205975230295163,0.333353098066237,0.333353098064077,-0.018416699002759,-0.315072069979754,-0.512406220287508,0.599030308503319,-0.0664249350124461,0.39036518144495,0.844076403072065,0.164721959420216,0.164721959419242,0.598078604291925,-0.598078604295003,0.0961043689518482,5.32479999999998,103,992.217475728155,477.177184466019,284.422330097087,997.801941747573,986.633009708738,486.908737864078,467.445631067961,320.941747572816,247.902912621359,0
510.464,0.334742742110839,-0.66797525302066,0.027623874872719,-1.0036309236395,-1.23956341427314,-1.23956341427185,,-2.09716063368912,0.974439671065386,-0.55523984320673,-0.700317030113391,-0.555239843207374,0.554661430561972,0.614511837430033,0.792367564230927,0.0813023456671357,-0.126454845039172,-0.0107686744453053,0.584342906259918,0.497608141469399,0.58434290626,0.0802497012134337,-0.722418570553058,-0.727443338312098,,0.95784938875997,0.446524655510891,-0.640904155289855,0.640904155290048,-1.00950912506349,0.800604716190572,0.826917916395957,1.18443869987655,-0.557871541099746,0.0834307118072841,-0.467063159159612,-0.212100837707684,0.311410022659949,0.31141002265784,-0.0048012140849316,-0.329651118238341,-0.513788293961521,0.587012147925404,-0.0269718946289837,0.411470552599346,0.854538387585558,0.122575682282495,0.12257568228157,0.624369112764663,-0.624369112767735,0.067489396039795,5.42719999999997,102,1659.22990196078,393.519607843137,281.279411764706,1687.1637254902,1631.29607843137,396.844117647059,390.195098039216,335.5,227.058823529412,0
510.5664,0.320179458623496,-0.733843443763816,-0.0194247838066599,-0.976708006516004,-1.30072662216092,-1.30072662215966,,-2.10864681654639,0.981233581469998,-0.506494887839473,-0.698014753848702,-0.506494887840106,0.591729675248463,0.569016438735196,0.809952085812362,0.0976659952299805,-0.128407717058031,0.010269411469113,0.567400381584287,0.501605580966747,0.567400381584356,0.0838493001100832,-0.726200880963725,-0.725972797236576,,0.965866174879043,0.497651227555847,-0.638585701528943,0.638585701529115,-0.999557613727494,0.78616140205654,0.804738321341638,1.15915969660643,-0.5619717413352,0.0820160183531996,-0.471191319000072,-0.217310797036943,0.289991548851526,0.289991548849483,0.00860244674565186,-0.343493807050967,-0.514366152119255,0.575445291441655,0.0136105105445978,0.433765309622776,0.864353575432308,0.0808585154433104,0.0808585154424248,0.650170925685504,-0.650170925688561,0.0385072309157378,5.52959999999996,102,1643.83137254902,392.369607843137,286.617647058824,1671.15490196078,1616.50784313725,394.148039215686,390.591176470588,349.627450980392,223.607843137255,0
510.6688,0.304819219450025,-0.79789350724241,-0.0664291857910089,-0.947909458127723,-1.36006141990923,-1.36006141990801,,-2.11856418485198,0.986648550279665,-0.457810488762307,-0.696106817304717,-0.457810488762933,0.626040665982799,0.524088162651677,0.825077604598653,0.113459439433032,-0.129990106360078,0.0308730683266013,0.549720862502285,0.504882188699046,0.549720862502344,0.0870862595117278,-0.729711412381922,-0.724780586587646,,0.974191121745748,0.549137949656288,-0.63713547613557,0.637135476135725,-0.988131500406379,0.772289060757327,0.783748821738876,1.13504876347255,-0.567120338464422,0.0814565463914392,-0.475957724324088,-0.221600318309745,0.269164537320929,0.269164537318946,0.0217584703450052,-0.356557878856574,-0.514130153393284,0.564280397924945,0.0552190008873507,0.457134746042171,0.87352816672326,0.0396731791026699,0.039673179101823,0.675443554480383,-0.675443554483425,0.00913197527483999,5.63199999999995,103,1638.94466019417,392.359708737864,288.470873786408,1665.74951456311,1612.13980582524,394.214563106796,390.504854368932,350.04854368932,226.893203883495,0
510.7712,0.288743279750338,-0.860007197846863,-0.113247209082999,-0.917291651335481,-1.41743974843548,-1.41743974843429,,-2.12683552109459,0.990712114209472,-0.409263056019076,-0.694640410218989,-0.409263056019691,0.657545480221737,0.479818387413268,0.837733715449582,0.128600353638541,-0.131163136668645,0.0509651437821737,0.531312167928084,0.507425143549662,0.531312167928131,0.0899141580713629,-0.732899429562032,-0.723883338546815,,0.982849596103446,0.60097307293399,-0.636555092633785,0.636555092633918,-0.975248782377384,0.759086270936014,0.763957765572159,1.11220139684523,-0.573356523465516,0.081781464744258,-0.481387194356568,-0.224969121165153,0.248994179870606,0.248994179868716,0.034635068565395,-0.368803836324562,-0.513068684615347,0.55346211330406,0.0977431546946334,0.481454309291495,0.88207080089226,-0.000875946041979391,-0.000875946042791037,0.700148830428683,-0.700148830431706,-0.0206616023705499,5.73439999999999,102,1632.10098039216,393.199509803922,295.75,1659.37058823529,1604.83137254902,396.790196078431,389.608823529412,357.598039215686,233.901960784314,0
510.8736,0.272036551059041,-0.920069272544841,-0.159734356281179,-0.884918042002925,-1.47273873029134,-1.47273873029019,,-2.13338943506277,0.993455947131561,-0.360928457595269,-0.693661518507944,-0.360928457595873,0.686201233636339,0.436293658732139,0.847913931190387,0.143010440501732,-0.131890118278723,0.0704719785512004,0.512183655004231,0.509223534622084,0.512183655004273,0.0922902917619326,-0.735716959368467,-0.723294803822064,,0.991865304427446,0.653140594492518,-0.636842368172994,0.636842368173102,-0.960934044316858,0.746645553158332,0.745368756162597,1.09070494524691,-0.580713762447147,0.0830168613446263,-0.487500518200463,-0.227421515735677,0.229543869124854,0.229543869123049,0.0472042826395823,-0.380194989953643,-0.511168535828244,0.54292972664653,0.141065945920624,0.506590491681261,0.88999221705293,-0.0406832019100783,-0.0406832019108605,0.72425112679533,-0.724251126798328,-0.0508979875323543,5.83679999999998,103,1623.93155339806,393.761650485437,311.281553398058,1648.83980582524,1599.02330097087,396.061165048544,391.46213592233,377.378640776699,245.184466019418,0
510.976,0.254787428485643,-0.977968013947025,-0.205744187993289,-0.850859175718047,-1.52584120683891,-1.52584120683778,,-2.13816072670608,0.994915752340902,-0.312881823039686,-0.693214567246264,-0.312881823040275,0.711971220057011,0.393595385179033,0.855615694713019,0.156615640274186,-0.132136340548849,0.0893239064928913,0.492346267531153,0.510268465542609,0.492346267531184,0.0941758265972516,-0.738118828033555,-0.723025642458469,,1.00125984175859,0.705620034138168,-0.637991506825493,0.637991506825579,-0.945218191956877,0.735052973112188,0.727980571544684,1.07063819963277,-0.58921977065125,0.085185708928225,-0.494314443502435,-0.228966449693094,0.210875049847544,0.210875049845834,0.0594417417186761,-0.390697472328741,-0.508415294836032,0.532617818820563,0.185064301348732,0.532401730655189,0.897304906941924,-0.0796420627121803,-0.0796420627129575,0.747717558946543,-0.747717558949522,-0.0816008674102839,5.93919999999997,102,1613.9637254902,394.813725490196,330.377450980392,1637.25,1590.67745098039,396.880392156863,392.747058823529,399.705882352941,261.049019607843,0
511.0784,0.237087570871323,-1.03359577894363,-0.251128817818934,-0.815192652296374,-1.57663625295984,-1.57663625295875,,-2.14109070716075,0.995131156914337,-0.26519734551447,-0.693342095940313,-0.265197345515049,0.734825071595289,0.35179958094473,0.860840430127259,0.169346316008696,-0.13186887011977,0.107455713812343,0.471812592768887,0.510553147760461,0.471812592768907,0.0955359432726988,-0.740062687557021,-0.723083215128498,,1.01105226104543,0.758386289933471,-0.639993267773961,0.639993267774025,-0.928138161714191,0.724387821227973,0.711787106849128,1.05207106660831,-0.598896505189424,0.088307823661992,-0.501841684185665,-0.229617525911839,0.193047056143619,0.193047056141989,0.0713263938886395,-0.400280223448501,-0.504793739789528,0.522456903674008,0.229609677079081,0.558739318204205,0.904022759711899,-0.117645554254018,-0.117645554254763,0.770518135803656,-0.770518135806608,-0.112793086006126,6.04159999999996,102,1655.90098039216,416.624019607843,343.901960784314,1679.05784313726,1632.74411764706,423.580392156863,409.667647058824,415.088235294118,272.71568627451,0
511.1808,0.219031628461735,-1.08684955307161,-0.295739465011929,-0.77800304174305,-1.62501966068558,-1.62501966068452,,-2.1421274908683,0.994145592923042,-0.217948091396557,-0.694084469285982,-0.217948091397124,0.754738928107077,0.310976659657659,0.863593623889406,0.181137418364284,-0.131056368577453,0.124807050429327,0.450596928808953,0.510072979069936,0.450596928808958,0.0963399744474473,-0.741509040096899,-0.723471384247359,,1.02125867014423,0.811409558177634,-0.642835112176226,0.642835112176271,-0.909736592645469,0.71472234931157,0.696777346346241,1.03506431025192,-0.609760170520954,0.0923998186223924,-0.510090941269742,-0.229392991103174,0.176116942144618,0.176116942143058,0.082840226884711,-0.408914958489435,-0.500288220691955,0.51237407065405,0.274568664940243,0.585448334056041,0.910160695390236,-0.154586665313019,-0.154586665313743,0.792625845668386,-0.792625845671305,-0.144496586082665,6.14399999999995,103,1798.37718446602,498.548058252427,354.597087378641,1822.86213592233,1773.89223300971,512.082524271845,485.01359223301,433.78640776699,275.407766990291,0
511.2832,0.200716924361975,-1.13763149919925,-0.339427052754174,-0.739381745970764,-1.67089438878673,-1.67089438878569,,-2.14122626636839,0.992006153815135,-0.171205820822863,-0.695479617530804,-0.171205820823422,0.771695607890775,0.271191278053148,0.863884927505342,0.191928629832068,-0.129668932544039,0.141322790315721,0.428715366377151,0.508825608944406,0.42871536637716,0.0965615324139875,-0.742421265259882,-0.724190334503711,,1.03189185589827,0.864655304065482,-0.646501328394375,0.646501328394404,-0.890061458382902,0.706121550992406,0.682935367583727,1.01966935167036,-0.621821238039002,0.0974750475868374,-0.519066939547373,-0.228315692537719,0.160139310481459,0.160139310479973,0.0939679942222704,-0.41657613516138,-0.49488303191753,0.502293637689393,0.319803640958481,0.612368618342179,0.915734289147404,-0.190358744616045,-0.190358744616733,0.81401668085469,-0.814016680857585,-0.17673232798359,6.24639999999999,102,1790.73284313726,499.664705882353,362.946078431373,1816.16960784314,1765.29607843137,515.922549019608,483.406862745098,447.049019607843,278.843137254902,0
511.3856,0.182243103851497,-1.1858494944728,-0.382042834387446,-0.699426800010867,-1.71417098101607,-1.71417098101505,,-2.13834954635538,0.988763422393363,-0.125040816119519,-0.697562796234442,-0.125040816120068,0.785684775634402,0.232502222768615,0.86172827517017,0.201664486739493,-0.127677952562567,0.15695334208528,0.406185885174766,0.506810995783528,0.406185885174778,0.0961786206544544,-0.742765650179881,-0.725236423466672,,1.04296093329349,0.918084278824901,-0.650973136350141,0.65097313635016,-0.869165667441222,0.698642986232537,0.670240378194863,1.00592812682432,-0.635084482551827,0.103543529455836,-0.528770485914371,-0.226412998742597,0.145166136178832,0.145166136177403,0.104696962546038,-0.423240938872087,-0.488562779340372,0.49213782261801,0.365173460748863,0.639335793529636,0.920759398207012,-0.224855891153599,-0.224855891154259,0.834669619256283,-0.834669619259161,-0.209520188448978,6.34879999999998,103,1787.59514563107,503.935922330097,371.398058252427,1814.20582524272,1760.98446601942,519.060194174757,488.811650485437,459.203883495146,283.592233009709,0
511.488,0.163711762576996,-1.23141764711804,-0.423439032015192,-0.658242608118927,-1.75476795386911,-1.75476795386811,,-2.13346739356609,0.984471271033136,-0.0795217168361855,-0.700366358432587,-0.0795217168367356,0.796703107090019,0.194962333454412,0.857142013052655,0.210294482134002,-0.125055989463356,0.171654915483767,0.383028459995031,0.504031459286938,0.383028459995054,0.0951737219276948,-0.742511421143554,-0.726602073004359,,1.05447102248895,0.971652585661465,-0.656228770194036,0.656228770194036,-0.847106642142192,0.692336654594028,0.658666786510512,0.993873007570913,-0.649549035255471,0.110611847136651,-0.539198551109636,-0.223716681899894,0.131246579441742,0.131246579440379,0.115016690056822,-0.428889296774927,-0.481312743868703,0.481827443200509,0.410534196378514,0.666182338868599,0.925251806178005,-0.257973348499591,-0.25797334850022,0.854566579124309,-0.854566579127161,-0.242878848376606,6.45119999999997,102,1781.05980392157,508.316666666667,382.450980392157,1808.95294117647,1753.16666666667,525.557843137255,491.075490196078,469.558823529412,295.343137254902,0
511.5904,0.145226055970188,-1.27425678262952,-0.463469479963434,-0.615939612465853,-1.7926121498075,-1.79261214980653,,-2.12655761970298,0.979186634137433,-0.0347153665732425,-0.703919538978864,-0.0347153665737803,0.804754451734425,0.158618458280516,0.850149039851421,0.217773156990573,-0.121776673486782,0.185389749018983,0.359265170405966,0.500491726919966,0.359265170405997,0.0935338596233778,-0.741630778353801,-0.728275708828502,,1.06642296089408,1.02531179614875,-0.662243536186022,0.662243536186006,-0.82394588330271,0.687244915988255,0.648184306806395,0.983526785192389,-0.665208449240424,0.118683022201687,-0.550344370898712,-0.220262762770759,0.118426781137589,0.118426781136315,0.124918836630264,-0.433503922642378,-0.473119243420174,0.471282656984278,0.455739901726878,0.692738715795699,0.929226895244537,-0.289607906547553,-0.289607906548155,0.873692355173013,-0.873692355175846,-0.276825677148811,6.55359999999996,102,1771.95882352941,509.307843137255,388.176470588235,1794.46666666667,1749.45098039216,528.755882352941,489.859803921569,472.872549019608,303.480392156863,0
511.6928,0.126890285100758,-1.31429489012296,-0.501990273657154,-0.572633893801423,-1.82763905115788,-1.82763905115695,,-2.11760595775786,0.972969251398323,0.00931331922487582,-0.70824825622957,0.00931331922434003,0.809849993918293,0.123511440201674,0.840776958443924,0.224060184231181,-0.117814632819946,0.198126298455155,0.334920308429774,0.496198971512902,0.334920308429811,0.0912506321364984,-0.740098937722315,-0.730241753210584,,1.07881305915494,1.07900911570639,-0.668989841546175,0.668989841546141,-0.799748525408169,0.683402450748322,0.63875810222642,0.974902710517507,-0.682050772093898,0.127756372055618,-0.562197559559713,-0.216091320783266,0.106749637653944,0.106749637652768,0.134397003737527,-0.43707039132308,-0.463969994347172,0.460423748341971,0.500643394114901,0.718834540399669,0.932699355966254,-0.319658312252358,-0.319658312252939,0.892034540900946,-0.892034540903758,-0.311376618470264,6.65599999999995,103,1708.55776699029,390.042233009709,383.684466019417,1734.81941747573,1682.29611650485,400.290291262136,379.794174757282,467.359223300971,300.009708737864,0
511.7952,0.108809451004497,-1.35146752234509,-0.538860429098262,-0.52844670744974,-1.85979305191281,-1.85979305191191,,-2.10660620803978,0.965881380770258,0.0525014552322365,-0.713374937715643,0.0525014552317032,0.812008412888515,0.0896761348480231,0.829058239357929,0.229120446327074,-0.113145455941542,0.209839382914244,0.310020479922951,0.491162837629385,0.310020479923001,0.0883202194671105,-0.737894181383821,-0.732480674206313,,1.09163291012415,1.13268759712874,-0.676437192888275,0.676437192888225,-0.774582884319473,0.680836249685553,0.630348974276598,0.968004586805057,-0.700058621418497,0.137827358592066,-0.574744228878733,-0.211246272454961,0.0962545546526426,0.0962545546515784,0.143446604441785,-0.439577242055061,-0.453854470771949,0.449171958407773,0.545097048976384,0.744299797353004,0.935682947281807,-0.348025694798401,-0.348025694798949,0.909583441970178,-0.909583441972975,-0.34654607879914,6.7584,102,1692.22107843137,375.918137254902,391.470588235294,1719.42745098039,1665.01470588235,383.698039215686,368.138235294118,481.127450980392,301.813725490196,0
511.8976,0.0910887710160355,-1.38571814503667,-0.573942557636438,-0.483503963880465,-1.88902768403224,-1.88902768403137,,-2.09356035396616,0.957987480135292,0.094788251090071,-0.719318372992317,0.0947882510895319,0.811256044326011,0.0571414640537375,0.815030400283567,0.232924108724177,-0.107745692087966,0.22051028746919,0.284594697774621,0.48539545458767,0.284594697774681,0.0847433604857199,-0.734997912459684,-0.734969088649712,,1.10486925848174,1.18628640481498,-0.684552167099285,0.684552167099217,-0.748519996060142,0.679565628872087,0.622913608986582,0.962826915974075,-0.719209261193354,0.148887437202996,-0.587967107772884,-0.205775120620442,0.0869771803452584,0.0869771803443352,0.152064764390398,-0.441016109983213,-0.442764259410658,0.437450341859032,0.5889536120159,0.768966086871491,0.9381903152095,-0.374614006351285,-0.374614006351797,0.926331980658738,-0.92633198066152,-0.382346812112188,6.86079999999998,103,1743.52912621359,298.417475728155,393.878640776699,1757.85048543689,1729.20776699029,311.681553398058,285.153398058252,486.718446601942,301.038834951456,0
512,0.0738331568028319,-1.41699843206156,-0.607103554617695,-0.437935666791166,-1.91530579288829,-1.91530579288746,,-2.07847863940891,0.949353857092825,0.136115038637715,-0.726093591599379,0.136115038637171,0.807627045160724,0.0259305098874307,0.798736205332443,0.235446689509138,-0.10159289203426,0.230126820648836,0.258674467975049,0.478911433918008,0.25867446797513,0.080525299376945,-0.731394702734008,-0.737679907879616,,1.11850393401285,1.23974113403746,-0.693298360760215,0.693298360760131,-0.721633143823013,0.679602271619263,0.616404880453185,0.959355100845424,-0.739474679331561,0.160923913693173,-0.601845660265518,-0.199728675031091,0.0789491210630488,0.0789491210622512,0.160250253823933,-0.441381883855292,-0.430693406741799,0.425184630515397,0.632067029935971,0.792667890786187,0.940232868426175,-0.399330469279671,-0.399330469280165,0.942275586199954,-0.94227558620272,-0.418789789152651,6.96319999999997,102,1760.64264705882,254.489705882353,394.352941176471,1767.80588235294,1753.47941176471,264.732352941176,244.247058823529,487.245098039216,301.460784313726,0
512.1024,0.0571466635490006,-1.44526850581174,-0.63821529178825,-0.391875321671768,-1.9385996589737,-1.93859965897291,,-2.06137959712852,0.940048292620546,0.176425272289862,-0.733711761147504,0.176425272289317,0.801163554039093,-0.00393935037113718,0.780223876784752,0.236669115900638,-0.0946656835751032,0.238683319184698,0.232293870685277,0.471727850716087,0.232293870685366,0.0756757008765997,-0.727072319874742,-0.740582510911711,,1.13251384266803,1.29298418257864,-0.702636329947794,0.702636329947698,-0.693997373343429,0.680950309262361,0.610772198550572,0.957565706994749,-0.760821672537811,0.173919814488564,-0.616356205389166,-0.193160742722725,0.0721976496829666,0.0721976496823119,0.168003446288745,-0.440672881556737,-0.417638752365172,0.412304083116903,0.674293288941528,0.815243834349128,0.941820700998976,-0.422086017699163,-0.422086017699623,0.957412068033534,-0.957412068036277,-0.455884043866624,7.06559999999996,102,1631.07941176471,268.56568627451,400.558823529412,1630.52450980392,1631.63431372549,272.955882352941,264.175490196078,492.921568627451,308.196078431373,0
512.2048,0.0411319286438395,-1.47049712969861,-0.66715529753892,-0.345459325190718,-1.95889106938718,-1.95889106938642,,-2.04229001987381,0.930139652567145,0.215664521618011,-0.742180097888271,0.215664521617467,0.791915827522573,-0.0324562765027891,0.759547296535196,0.236577750488656,-0.0869438678100966,0.246180589753793,0.205489636489163,0.463864211030458,0.205489636489249,0.0702085368646639,-0.722021727369206,-0.743642932663205,,1.14687100007862,1.34594515737668,-0.712523539548104,0.712523539547993,-0.665689005005317,0.683606455262889,0.605961880201713,0.957426786514309,-0.783211952467634,0.187853772449078,-0.63147205066424,-0.186127783869562,0.0667454257402891,0.0667454257397678,0.175326291365289,-0.43889102533776,-0.403600240257571,0.398742297861535,0.715491241944097,0.836537912058042,0.942962549724536,-0.442795725887366,-0.442795725887787,0.971741473214786,-0.971741473217507,-0.493636503401702,7.16799999999995,103,647.60145631068,529.940776699029,436.485436893204,643.165048543689,652.03786407767,543.933009708738,515.94854368932,506.184466019418,366.78640776699,0
512.3072,0.0258896197668589,-1.49266186423053,-0.693807409731918,-0.298826341152315,-1.9761713459097,-1.97617134590896,,-2.02124487411625,0.919697499230807,0.253780471311605,-0.751501777614259,0.253780471311058,0.779942329141564,-0.0596137802731771,0.736766168619996,0.235164373952921,-0.0784085208581258,0.252625784278042,0.17830121577737,0.455342409108402,0.178301215777457,0.0641419480745274,-0.716237059096422,-0.74682406327688,,1.16154258948128,1.39855128938334,-0.722914342381867,0.722914342381745,-0.636785161648041,0.687560197558053,0.60191752748442,0.958898259225178,-0.806602289750436,0.202699927687371,-0.64716365407423,-0.178688527270938,0.0626102439337131,0.0626102439333226,0.182222285401424,-0.436041996812346,-0.388581202034921,0.384437964411321,0.755523407969784,0.856400647839742,0.943665775704642,-0.461379220932549,-0.461379220932946,0.985265930271268,-0.98526593027397,-0.532051821363091,7.27039999999994,102,578.824019607843,555.977941176471,440.779411764706,585.969607843137,571.678431372549,575.359803921569,536.596078431373,502.186274509804,379.372549019608,0
512.4096,0.0115179054757447,-1.51174919618363,-0.718062391988834,-0.252116664548231,-1.99044133331246,-1.99044133331174,,-1.99828716461639,0.90879170671371,0.290722932429643,-0.7616758349834,0.2907229324291,0.765309756813885,-0.0854105381736317,0.711946122487653,0.232426123334017,-0.0690420940916652,0.258032214302871,0.150770839426517,0.446186678464043,0.150770839426598,0.0574980810113261,-0.709715572724447,-0.75008586338014,,1.17649103190133,1.45072783451654,-0.73376000199078,0.733760001990648,-0.607363334321192,0.69279404047917,0.598580406276798,0.961932339938143,-0.830944706842755,0.218427841537444,-0.66339882491771,-0.170903543962706,0.0598048174957834,0.0598048174955222,0.188696430534795,-0.432135360926951,-0.372588610622164,0.369335538976336,0.794256736075647,0.874690171689815,0.943936365005968,-0.477761078388125,-0.477761078388484,0.997989482450212,-0.997989482452895,-0.571132239648673,7.37279999999993,103,550.641262135922,561.796116504854,441.145631067961,562.973786407767,538.308737864078,582.231067961165,541.361165048544,505.912621359223,376.378640776699,0
512.512,-0.00188804818791961,-1.52775464558079,-0.739818512039501,-0.205471574710439,-2.00171134630791,-2.00171134630723,,-1.97346775753683,0.897492082062699,0.326443861976974,-0.772697049741263,0.326443861976432,0.748093004157405,-0.109850209426664,0.685158749607724,0.228365394977016,-0.0588285176802385,0.26241911252529,0.122943569783519,0.436423538727721,0.122943569783595,0.0503028962682994,-0.702457584106505,-0.753385604196855,,1.19167406495104,1.50239845006288,-0.745008765705503,0.74500876570537,-0.577500997140335,0.699283784406581,0.595889827043704,0.96647400170318,-0.856186722540383,0.23500242312302,-0.680142966238983,-0.162834787080635,0.0583365972378778,0.0583365972377468,0.19475517849494,-0.427184654907984,-0.355633303616478,0.353385834636867,0.831563333556544,0.891273206834357,0.943778945800807,-0.491871196544703,-0.491871196545031,1.00991791136805,-1.00991791137071,-0.610877499380808,7.47519999999992,102,559.687254901961,558.514705882353,397.799019607843,577.710784313726,541.663725490196,581.673529411765,535.355882352941,457.107843137255,338.490196078431,0
512.6144,-0.0142365586521876,-1.54068285157355,-0.758982086402864,-0.159032680583289,-2.01000107288133,-2.01000107288069,,-1.94684516377879,0.885867999454508,0.360897388120678,-0.784555832282461,0.360897388120143,0.728375057847707,-0.13294125833688,0.656481575892159,0.222989722445913,-0.0477533174738401,0.265811346019631,0.0948673404236688,0.426081737299647,0.094867340423733,0.0425859449156271,-0.694466384707402,-0.756678140454053,,1.20704483267186,1.55348554518588,-0.756605990185807,0.756605990185679,-0.547275265395043,0.706998837595674,0.593783530219311,0.972461471232231,-0.882271644632838,0.252383870984953,-0.697359354869646,-0.15454511368281,0.0582076284522854,0.0582076284522843,0.20040635562001,-0.421207436322314,-0.337730172835399,0.336546524478726,0.867321161870342,0.906025968231523,0.943196819844009,-0.503645140458689,-0.503645140458981,1.02105854492743,-1.02105854493008,-0.651284809310369,7.57760000000002,103,565.802427184466,545.960194174757,355.941747572816,585.796116504854,545.808737864078,567.280582524272,524.639805825243,409.21359223301,302.669902912621,0
512.7168,-0.0254398918928528,-1.5505476388187,-0.775467999037832,-0.11294126162666,-2.01533943739575,-2.01533943739514,,-1.91848528205253,0.87398805690121,0.394039841252136,-0.797238129029696,0.394039841251611,0.706246838681683,-0.154696777190153,0.625997978956805,0.216311637685687,-0.0358037551431296,0.268239082984399,0.0665929827039792,0.41519218423158,0.0665929827040363,0.0343801132708009,-0.685748146647274,-0.759916221035372,,1.2225519915137,1.60391061132577,-0.768494316493277,0.768494316493145,-0.516762582766572,0.715902559428958,0.592198076112811,0.979826755768283,-0.909138902144614,0.270527633696031,-0.715009450132355,-0.14609780611904,0.0594144476938946,0.059414447694026,0.205659064388067,-0.414225282295954,-0.318898315084047,0.318782556915412,0.901414701470613,0.918834972854628,0.942192010874905,-0.513024447828568,-0.513024447828833,1.03142003864035,-1.03142003864298,-0.692348869748838,7.68000000000001,102,578.629411764706,556.409803921569,328.93137254902,602.91862745098,554.340196078432,575.752941176471,537.066666666667,379.156862745098,278.705882352941,0
512.8192,-0.0354147173331459,-1.55737207098304,-0.789200203128155,-0.0673376063007099,-2.0177644341027,-2.01776443410214,,-1.88846110427488,0.861919761985287,0.425829793339312,-0.810725366752954,0.425829793338796,0.68180699785911,-0.175134308701735,0.59379706186567,0.208348525892939,-0.0229690011575617,0.269737418230672,0.0381742378192816,0.403787880468931,0.0381742378193432,0.0257213418375517,-0.676311824859443,-0.763050839086825,,1.23813983717082,1.65359454440904,-0.78061388454834,0.780613884548211,-0.486038426858881,0.725952635588016,0.59106923826861,0.988496201280964,-0.936724404984205,0.289384391107603,-0.733053219821693,-0.13755610848496,0.0619480146295813,0.0619480146298278,0.210523558404495,-0.406263734955356,-0.299161141280006,0.300066482376142,0.933735578805105,0.929597756035127,0.940765338836071,-0.519956894207254,-0.519956894207484,1.04101212236452,-1.04101212236713,-0.734061945868333,7.7824,102,591.055392156863,544.136274509804,314.911764705882,611.989215686275,570.121568627451,566.779411764706,521.493137254902,361.794117647059,268.029411764706,0
512.9216,-0.0440825526248296,-1.56118850075482,-0.800112210593552,-0.0223603485796342,-2.01732294389713,-2.01732294389661,,-1.8568523886782,0.849729249391406,0.456228109428948,-0.824994444549434,0.456228109428441,0.655161678354228,-0.194275672297246,0.559973491241344,0.199122486065537,-0.00924034719102059,0.270345967705309,0.0096677537788007,0.391903840683093,0.00966775377886398,0.0166483292866016,-0.666169070472852,-0.766031620332247,,1.25374845598704,1.70245797300674,-0.792902573938367,0.792902573938249,-0.455177030424534,0.737101485148101,0.590332399644865,0.998391081648637,-0.964960918424161,0.308900055006453,-0.751449472706674,-0.12898278841495,0.0657936659604202,0.0657936659607859,0.215011092834328,-0.397352193921414,-0.278546442141647,0.280378691206182,0.964183143518921,0.9382234846728,0.938916527604873,-0.52439671887499,-0.524396718875199,1.04984531004044,-1.04984531004302,-0.77641398186405,7.88479999999998,103,613.298058252427,540.547087378641,309.169902912621,634.398058252427,592.198058252427,558.282524271845,522.811650485437,353.52427184466,264.815533980583,0
513.024,-0.0513701900211589,-1.5620386187345,-0.808147561799806,0.0218541952675445,-2.01407054117951,-2.01407054117901,,-1.82374530541306,0.837481030469007,0.485198015600752,-0.840017767994682,0.485198015600259,0.62642424305633,-0.212146800241893,0.524627298922257,0.188660200863196,0.00538854520265103,0.270108440264712,-0.0188669339900832,0.379577010484659,-0.0188669339900126,0.00720223256100191,-0.655334167100883,-0.768807245114136,,1.26931390468222,1.75042160083996,-0.805296265136828,0.805296265136714,-0.424251121812976,0.749296697017083,0.589922950401855,1.00942821579591,-0.993778443730625,0.329015791009669,-0.770156189214392,-0.120439726197349,0.0709310808984699,0.0709310808989443,0.219133760077069,-0.387523762837081,-0.257086406042646,0.259707565007693,0.992664985650545,0.944633461200941,0.936644344993488,-0.526304814961538,-0.526304814961726,1.05793057794345,-1.057930577946,-0.819392744453093,7.98719999999997,102,630.472549019608,534.568137254902,304.960784313725,652.777450980392,608.167647058824,555.750980392157,513.385294117647,349.588235294118,260.333333333333,0
513.1264,-0.0572100940208772,-1.55997348968722,-0.813260259107089,0.0651726795565954,-2.00807128594588,-2.00807128594542,,-1.7892320554885,0.825237772841568,0.512705185371948,-0.855763313189513,0.512705185371468,0.595714961979243,-0.22877758156154,0.487863640492675,0.17699280400374,0.0209213751570359,0.269072185491668,-0.0473674429448648,0.36684617320411,-0.0473674429447702,-0.0025736292343578,-0.643823992262201,-0.771325894093549,,1.28476842187286,1.79740656035018,-0.817729127336518,0.817729127336398,-0.39333168812343,0.762481491813434,0.589776684761992,1.02152060781455,-1.02310460311196,0.349668073587173,-0.789130844591534,-0.111987525704258,0.0773342634657557,0.0773342634663693,0.22290432501211,-0.376815061296629,-0.23481758438252,0.238049546929027,1.01909738373813,0.948761515464876,0.933946766293947,-0.525648890575424,-0.525648890575587,1.06527903191948,-1.06527903192201,-0.862983981328204,8.08959999999996,102,642.706862745098,544.686764705882,301.25,659.512745098039,625.900980392157,555.354901960784,534.01862745098,343.107843137255,259.392156862745,0
513.2288,-0.0615407672819519,-1.55505355496794,-0.815415150882878,0.107465353434806,-1.9993974859042,-1.99939748590377,,-1.75341045858836,0.813060106067217,0.538717841795255,-0.872194714017758,0.538717841794786,0.563160648513048,-0.244201699867976,0.4497925065751,0.164155724547534,0.0373589323944692,0.267287708416681,-0.0757686133191396,0.353751836730142,-0.0757686133190278,-0.0126340622548187,-0.631657997332593,-0.773535701601592,,1.30004067369731,1.84333476602254,-0.830133944729073,0.830133944728971,-0.362487760557005,0.776595207025799,0.589830193658736,1.0345781063079,-1.05286503226303,0.370788793715681,-0.808330720766959,-0.103685139737092,0.0849715603013598,0.0849715603021028,0.226336072261073,-0.365266016127049,-0.211780806694073,0.21540914083138,1.04340567360485,0.950554284053435,0.930821153251554,-0.522403610412662,-0.522403610412812,1.07190159705596,-1.07190159705845,-0.907171579165418,8.19199999999995,103,656.01213592233,544.505339805825,299.165048543689,669.525242718447,642.499029126214,552.040776699029,536.969902912621,340.184466019418,258.145631067961,0
513.3312,-0.064307087401757,-1.54734858077351,-0.814588258870179,0.148606640333011,-1.9881294109275,-1.98812941092711,,-1.71638350307996,0.801006449265877,0.563206868664784,-0.889271374538839,0.563206868664338,0.528894240768679,-0.258456450043792,0.410528389178321,0.150188494432541,0.0546988404853292,0.264808145852439,-0.104002617702306,0.340336091793095,-0.104002617702171,-0.0229322750751567,-0.618858194603353,-0.775385200417162,,1.31505603467768,1.88812925770325,-0.842442486515059,0.842442486514961,-0.331786220203294,0.791573803175812,0.590021249115475,1.04850807866966,-1.08298378291149,0.392305433730374,-0.827713204058635,-0.095589506804211,0.0938057292402221,0.0938057292410813,0.229442675179384,-0.352919648238959,-0.188021055410304,0.19179885179861,1.06552453356108,0.949971383020688,0.927264445444637,-0.516550727223839,-0.516550727223972,1.07780875831911,-1.07780875832158,-0.951937710554957,8.29439999999994,102,664.421568627451,543.198529411765,299.450980392157,679.65,649.193137254902,548.228431372549,538.16862745098,339.549019607843,259.352941176471,0
513.4336,-0.0654606143814477,-1.53693753925158,-0.810767042456286,0.188475667412264,-1.97435494709987,-1.97435494709952,,-1.678258853425,0.789132859647183,0.586145923236609,-0.90694861093736,0.586145923236179,0.493054331949733,-0.271582527907823,0.370189909342575,0.135134520955018,0.0729353215050988,0.261688714659862,-0.131999119334557,0.326642438826434,-0.131999119334388,-0.0334201486953682,-0.605449138644633,-0.776823747881988,,1.32973690464116,1.93171453139447,-0.854585914664967,0.854585914664876,-0.301291624413246,0.807350384882038,0.590289176633181,1.06321609265964,-1.11338373230803,0.414141311002889,-0.847236065449238,-0.0877552031279752,0.103794060118511,0.103794060119495,0.232238094195365,-0.339821869008598,-0.163587309979818,0.167239076229855,1.08539819417125,0.946985486245859,0.923273363328709,-0.508079209180691,-0.508079209180819,1.08301036221417,-1.08301036221661,-0.997262968853466,8.39679999999993,103,643.184466019418,556.342718446602,300.543689320388,661.471844660194,624.897087378641,568.600970873786,544.084466019418,338.660194174757,262.427184466019,0
513.536,-0.0649598647425731,-1.52390841733381,-0.803950593144887,0.226956747501789,-1.95816918553117,-1.95816918553087,,-1.63914831262971,0.777492904939646,0.607511543921878,-0.925177826604408,0.607511543921471,0.455784657914391,-0.283623794163405,0.32889941351574,0.119040833766547,0.0920589923270359,0.257986155488557,-0.159685487917946,0.312715584249191,-0.159685487917761,-0.0440485057000141,-0.59145789003404,-0.777801929600229,,1.34400306352638,1.97401686138192,-0.866495217864861,0.866495217864772,-0.27106605453371,0.823855728187391,0.590575214507677,1.07860659672163,-1.14398699122371,0.436215883953843,-0.866857718160409,-0.0802341179802091,0.11488854015535,0.114888540156437,0.234736505840562,-0.326021288823306,-0.138532362300664,0.141757943105913,1.10298058608358,0.941582320848869,0.918844621156488,-0.496985362867823,-0.496985362867955,1.08751547538836,-1.08751547539078,-1.0431264957468,8.49919999999992,102,371.347058823529,565.782843137255,302.990196078431,384.676470588235,358.017647058824,582.090196078431,549.475490196079,334.882352941176,271.098039215686,0
513.6384,-0.0627705487075712,-1.50835795395723,-0.794149755797653,0.26393981693022,-1.93967394944612,-1.93967394944587,,-1.59916724044919,0.766137563776632,0.627283247986442,-0.9439067241075,0.62728324798606,0.417233550016124,-0.294627016559179,0.286782544948371,0.10195781469414,0.112056706896158,0.253758197816997,-0.186987082022359,0.298601206775764,-0.186987082022152,-0.0547673873874816,-0.576913947987068,-0.778271939320949,,1.35777206580055,2.01496461917548,-0.878101659309788,0.878101659309712,-0.241168985365969,0.841018806624002,0.590822858438937,1.09458359121405,-1.17471530002445,0.458445113285896,-0.886537445697947,-0.0730751604146701,0.127036055647657,0.127036055648856,0.23695225471259,-0.311569025797949,-0.112912597024818,0.115391106384071,1.11823543435089,0.9337605860257,0.913975147182304,-0.483272943905947,-0.483272943906076,1.09133229222106,-1.09133229222345,-1.08950610430946,8.60160000000002,103,368.103398058252,566.745631067961,300.893203883495,381.769902912621,354.436893203884,583.249514563107,550.241747572816,331.26213592233,270.52427184466,0
513.7408,-0.0588657676458791,-1.49039130954639,-0.781387175587993,0.299320831856434,-1.91897727027349,-1.91897727027328,,-1.55843393337818,0.75511515540425,0.645443616323612,-0.96307955631021,0.645443616323244,0.377553357526085,-0.304641596904066,0.243967791592924,0.0839389176151914,0.132911456770971,0.249063068575536,-0.213827604615095,0.284345693749219,-0.213827604614866,-0.0655263500312693,-0.561849133678156,-0.77818793184022,,1.3709596724621,2.05448859188481,-0.889337226515749,0.88933722651569,-0.211657178107615,0.85876731046192,0.590978182229139,1.11105128046967,-1.20549040434541,0.480741872350925,-0.906235594923,-0.0663240030551875,0.140178625828568,0.140178625829856,0.23889981647339,-0.296518495909742,-0.086787726288397,0.0881814883475958,1.13113630214891,0.923531797382192,0.908662307013499,-0.466953242390261,-0.466953242390384,1.09446808617674,-1.09446808617911,-1.13637839505524,8.70400000000001,102,366.052450980392,562.604411764706,296.269607843137,382.547058823529,349.557843137255,583.485294117647,541.723529411765,324.225490196078,268.313725490196,0
513.8432,-0.0532261658767448,-1.47012167345839,-0.765697267238582,0.333002124855486,-1.89619282642662,-1.89619282642645,,-1.51706897490723,0.744471297320012,0.661978367000665,-0.982637413961233,0.661978367000319,0.336899838569116,-0.313719292004201,0.200586005759736,0.0650403868292608,0.154602333552464,0.243959059775059,-0.240129533602356,0.269995847537732,-0.240129533602108,-0.0762747888983496,-0.54629740582225,-0.777506341286332,,1.3834803141911,2.09252230097313,-0.900135075269037,0.900135075268991,-0.18258460148681,0.877028155954781,0.590990117884694,1.12791469375604,-1.23623440512104,0.503016399955589,-0.925913731785709,-0.0600228666565976,0.154253671139066,0.154253671140462,0.240593764456998,-0.280925171457203,-0.0602204702138375,0.0601789713636803,1.14166658548046,0.910920056098191,0.90290412220705,-0.448045131376875,-0.448045131377004,1.09692920524901,-1.09692920525136,-1.18371885892623,8.8064,102,692.655329120466,520.360245806614,288.459731860873,714.9625,670.348158240932,536.83168938307,503.888802230157,321.482484457198,255.436979264549,0
513.9456,-0.0458400263878811,-1.44766981601932,-0.747126098820039,0.364892721778027,-1.87143935487675,-1.87143935487662,,-1.47519456056716,0.734248888757528,0.676876424615538,-1.0025185438179,0.676876424615213,0.295431517250393,-0.321913936731781,0.156769889908273,0.0453209830628105,0.177104546586552,0.238504161432643,-0.265814627265897,0.255598561964531,-0.265814627265627,-0.0869622902564419,-0.530294599347431,-0.77618615424852,,1.39524757886107,2.1290023256414,-0.910429964016929,0.910429964016908,-0.15400238773495,0.895727984786508,0.590810679129036,1.14508026671099,-1.26687007899383,0.52517678765104,-0.945534758915266,-0.0542103486129758,0.16919432280654,0.169194322808008,0.24204873942543,-0.264846305036134,-0.033276179584102,0.0314400363181531,1.1498194611531,0.895961743384631,0.89669947500268,-0.426575071334424,-0.426575071334557,1.09872111522325,-1.09872111522555,-1.2315019620234,8.90879999999999,103,796.265774760383,505.871535299618,284.012730850152,829.075,763.456549520767,516.907926829268,494.835143769968,316.335365853659,251.690095846645,0.349514563106796
514.048,-0.0367032994927584,-1.42316358987409,-0.725731180906291,0.394908617872137,-1.84484003819322,-1.84484003819311,,-1.43293379853188,0.724488118175843,0.690129992080709,-1.02265869346384,0.6901299920804,0.253309009872912,-0.329281173543734,0.11265344963964,0.0248417259577417,0.200389485918189,0.232755762319654,-0.290804506186662,0.241200469379053,-0.290804506186388,-0.0975390036643363,-0.513878091365516,-0.774189129966428,,1.4061747192835,2.16386863797551,-0.920158674369907,0.920158674369902,-0.125958828300122,0.914793654306244,0.590395119527892,1.16245637905641,-1.29732116488867,0.547129494204622,-0.965062993827082,-0.0489212993740603,0.184929780400128,0.184929780401671,0.243279423152398,-0.248340619419228,-0.00602240023379776,0.0020273511156569,1.15559779279049,0.878705146340212,0.890048293199204,-0.402577067136042,-0.402577067136201,1.09984849361311,-1.09984849361538,-1.27970121171196,9.01119999999997,102,855.207368210863,498.799750155848,280.381540754305,888.0125,822.402236421725,505.220426829268,492.379073482428,310.710365853659,250.052715654952,0.892156862745098
514.1504,-0.025819557061018,-1.3967373818818,-0.701581153975432,0.422973013109629,-1.81652186416617,-1.8165218641661,,-1.39040998748241,0.715226493741066,0.701734626201906,-1.04299148357486,0.701734626201617,0.210694328826248,-0.33587818876441,0.0683714221352619,0.00366565998498912,0.224424825490748,0.226770423330583,-0.315021314965692,0.226847559618873,-0.315021314965403,-0.107956024612753,-0.497086407436538,-0.771479966571768,,1.41617517856151,2.19706495365522,-0.92926041259182,0.929260412591844,-0.0984994090262933,0.934152714558614,0.589702022519669,1.17995384344623,-1.327512613559,0.568779882328383,-0.984464206598131,-0.0441867528532735,0.201385722074952,0.201385722076571,0.244300514210018,-0.231467960919615,0.0214716220520999,-0.0279906838867034,1.15901400189142,0.859210025585988,0.88295171070924,-0.37609257505762,-0.376092575057805,1.10031537408754,-1.10031537408978,-1.32828920923361,9.11359999999996,102,912.674314430245,490.681983097728,276.542930545942,945.624754901961,879.723873958529,493.176153754185,488.187812441271,305.213593974175,247.87226711771,0
514.2528,-0.0131998706252929,-1.368531515127,-0.674755372073374,0.449016508717745,-1.78661495453184,-1.7866149545318,,-1.34774587604066,0.706498896888836,0.711689315381595,-1.06344881147834,0.711689315381319,0.167750172911691,-0.341763454429439,0.0240586890869858,-0.0181423541431744,0.249174666334308,0.220603726129748,-0.338388465455189,0.212584770745209,-0.338388465454895,-0.118165780603408,-0.479958782298734,-0.768026418788918,,1.42516313151802,2.22853909526738,-0.937677188691992,0.937677188692053,-0.0716668795664538,0.953733862819901,0.588693323443626,1.19748633692314,-1.35737079914066,0.590032773781931,-1.0037056174852,-0.0400339174210397,0.218484770317437,0.218484770319127,0.245126706772476,-0.214288915534044,0.0491354984699566,-0.0585404250361298,1.16008990852621,0.837547134398777,0.875412198516303,-0.347170357427064,-0.347170357427279,1.10012533574405,-1.10012533574625,-1.37723769564151,9.21599999999995,103,930.903883495146,490.060679611651,291.407766990291,960.210679611651,901.597087378641,490.417475728155,489.703883495146,327.95145631068,254.864077669903,0
514.3552,0.00113738021153347,-1.33869160101497,-0.645343389446081,0.472977269099376,-1.75525186401689,-1.75525186401687,,-1.30506291337756,0.698337658854154,0.719996557318052,-1.08396128870617,0.719996557317785,0.124639209163336,-0.346996476744451,-0.0201503213745716,-0.0405158272993854,0.274599719106768,0.214310189798997,-0.360831457648312,0.198455550469436,-0.360831457648009,-0.128122418378402,-0.462534685921287,-0.763799376231036,,1.43305404372197,2.2582433596716,-0.945354168312506,0.945354168312603,-0.0455013493849612,0.973467363367217,0.58733426914647,1.21497076666056,-1.38682369206954,0.610793017435362,-1.02275585577064,-0.036486228822421,0.236147010743284,0.236147010745032,0.245772679067539,-0.196864395549545,0.0768983143899756,-0.0895434956107161,1.15885653977943,0.813797697856926,0.867433662787602,-0.315866283110969,-0.315866283111239,1.09928172264805,-1.09928172265021,-1.42651759194032,9.31839999999994,102,928.881862745098,496.679411764706,325.676470588235,952.744117647059,905.019607843137,494.193137254902,499.16568627451,373.039215686275,278.313725490196,0
514.4576,0.0171667565694821,-1.3073678435533,-0.613444364233115,0.49480115353046,-1.7225668578661,-1.72256685786612,,-1.26248050791265,0.690772658375334,0.72666243399302,-1.10445871080664,0.726662433992763,0.0815233497404643,-0.351637554766137,-0.0641222417382657,-0.0633868183020667,0.300657523734736,0.207943240214178,-0.382278770861683,0.184501390351588,-0.382278770861378,-0.137782192917026,-0.444853321897959,-0.75877291167765,,1.43976525036751,2.28613487693903,-0.952239988561286,0.952239988561415,-0.0200404015044091,0.993285421038871,0.585593329932717,1.23232756738029,-1.4158009910438,0.630966062084946,-1.04158488058914,-0.0335634592152751,0.254290554282498,0.254290554284293,0.246253098176096,-0.179255211488519,0.104689294300414,-0.120917297506017,1.15535389930104,0.788052861389122,0.859021511786156,-0.282243071962124,-0.282243071962439,1.09778787332244,-1.09778787332457,-1.47609902617815,9.42079999999993,103,936.674757281553,501.500485436893,345.446601941748,957.033980582524,916.315533980583,511.250485436893,491.750485436893,399.95145631068,290.941747572816,0
514.56,0.0348560541363669,-1.27471430040414,-0.579166394147291,0.514441817489412,-1.68869517918987,-1.6886951791899,,-1.22011531126883,0.683831436464995,0.731696681578227,-1.12487055556425,0.731696681577974,0.0385630311310953,-0.355747548177404,-0.107725373631099,-0.0866861070375855,0.327302703313144,0.201555217798704,-0.402662817655724,0.170761342243988,-0.402662817655426,-0.147103857303943,-0.426953106021345,-0.75292430718633,,1.44521655052447,2.31217594484908,-0.958287030692302,0.95828703069246,0.00468078724272379,1.01312250281504,0.583442083373481,1.24948093562935,-1.4442342134081,0.65045852539835,-1.06016386613942,-0.0312818749835043,0.272832129946418,0.272832129948236,0.246582639814475,-0.161521643724094,0.132438490381309,-0.152575507891289,1.14963069312427,0.76041311718528,0.850182697294574,-0.24636998086326,-0.246369980863627,1.09564734342349,-1.09564734342559,-1.52595133988768,9.52319999999992,102,951.676470588235,495.804411764706,321.808823529412,966.456862745098,936.896078431373,493.090196078431,498.51862745098,372.382352941176,271.235294117647,0
514.6624,0.0541666265408372,-1.24088810641175,-0.542625803137193,0.531860777284897,-1.65377231766396,-1.653772317664,,-1.1780805381101,0.677539322718516,0.73511275333048,-1.14512650631851,0.735112753330228,-0.00408349175812642,-0.35938764217973,-0.150830280631823,-0.110343367661414,0.354487245101847,0.195197411925166,-0.421920931845715,0.157271541936932,-0.42192093184542,-0.156049043691061,-0.408871145562667,-0.746234066256819,,1.4493308009008,2.33633431795072,-0.963451652513861,0.963451652514056,0.0286293353538186,1.03291560703741,0.580855087784075,1.26635901015673,-1.47205675171132,0.669178755426972,-1.07846505938975,-0.0296544363936852,0.291687695347881,0.291687695349733,0.246776014485721,-0.143723023942627,0.160077465781241,-0.184428558015141,1.14174401473098,0.730987712807301,0.84092573798411,-0.208322430424804,-0.208322430425224,1.09286410929306,-1.09286410929512,-1.57604306811899,9.62560000000002,103,762.345145631068,528.845145631068,306.888349514563,776.700970873786,747.98932038835,531.655339805825,526.034951456311,353.436893203883,260.339805825243,0
514.7648,0.0750537107156564,-1.20604866952983,-0.503946412637655,0.547027431269704,-1.61793329399275,-1.61793329399282,,-1.13648532952244,0.671919568772709,0.736927872079076,-1.16515699301371,0.736927872078823,-0.0462608215235337,-0.362619092196785,-0.193310343570492,-0.134287342290684,0.382160792324833,0.188920105295205,-0.439996311160921,0.144064784904009,-0.439996311160627,-0.16458261428787,-0.390642756568955,-0.738685921524258,,1.45203448407471,2.35858342525521,-0.967694393495895,0.967694393496119,0.0517745764072907,1.05260448043357,0.577809759977827,1.28289400641084,-1.49920391353698,0.687037385841274,-1.09646162507352,-0.0286910278031537,0.310773050036193,0.310773050038035,0.246847993337664,-0.125917337577617,0.187539945227279,-0.216384104671127,1.13175899890718,0.699894041509488,0.831260731529807,-0.168181578433567,-0.168181578434048,1.08944273944009,-1.08944273944212,-1.62634188414314,9.72800000000001,102,618.318137254902,544.025490196078,299.441176470588,633.312745098039,603.323529411765,557.860784313726,530.190196078431,338.656862745098,260.225490196078,0
514.8672,0.0974667255566223,-1.17035685791815,-0.463258836495094,0.559919036877606,-1.58131197645306,-1.58131197645316,,-1.0954341688949,0.666993484835333,0.737163067322355,-1.18489373380152,0.737163067322101,-0.087817050833456,-0.36550293671902,-0.235042260503874,-0.158446018138389,0.410270926820508,0.182772604454126,-0.45683880747311,0.131170197115805,-0.456838807472826,-0.172672963661263,-0.372301052014161,-0.730266846021933,,1.45325822553912,2.37890249381921,-0.970980165084288,0.970980165084543,0.0740880309182464,1.07213178300251,0.574286267465098,1.29902231068663,-1.52561296268582,0.70394788066926,-1.11412749548563,-0.0283987039923937,0.330004432608291,0.330004432610145,0.246813435479035,-0.108160862721428,0.214762411851442,-0.248347507776222,1.11974845169543,0.667257009916144,0.821199359006149,-0.126033856087026,-0.126033856087556,1.08538852448016,-1.08538852448217,-1.67681450383375,9.8304,102,637.810294117647,542.926470588235,298.647058823529,657.343137254902,618.277450980392,553.76862745098,532.08431372549,335.872549019608,261.421568627451,0
514.9696,0.121349534153736,-1.13397419965554,-0.420699820099032,0.570520647800714,-1.54404043999647,-1.5440404399966,,-1.05502635912442,0.662780570413746,0.735843191383874,-1.20427025443243,0.735843191383618,-0.128604343029601,-0.368099677159931,-0.275906482498043,-0.182746813754908,0.438763429040242,0.176803235154091,-0.47240549723801,0.118613013710371,-0.472405497237734,-0.180292271755249,-0.353876605750865,-0.720967072927987,,1.4529372448127,2.39727657057724,-0.973278426731043,0.973278426731338,0.0955434421617109,1.09144320230878,0.570267439760429,1.31468453786252,-1.55122317067855,0.719827053500514,-1.13143723820446,-0.0287819433742471,0.349299080924346,0.349299080926185,0.246687325175343,-0.0905078613766568,0.241684638865486,-0.280222319894414,1.10579245545298,0.63320837801225,0.810754880474305,-0.0819704846498204,-0.0819704846504059,1.08070756517142,-1.08070756517339,-1.72742655939123,9.93279999999999,103,658.969902912621,549.823786407767,297.781553398058,686.934951456311,631.004854368932,564.340776699029,535.306796116505,331.174757281553,264.388349514563,0
515.072,0.146640678248612,-1.09706210642777,-0.376411620151117,0.578825016183814,-1.50624836846144,-1.5062483684616,,-1.01535556810114,0.659298625787634,0.732996908625609,-1.22322236885695,0.732996908625356,-0.168479457180789,-0.370468932200963,-0.31578758477971,-0.207116774503595,0.467582507519593,0.171059294610587,-0.486661036324666,0.106414453906339,-0.486661036324384,-0.187416720049726,-0.335397176370736,-0.710780125483469,,1.45101174148905,2.41369645145307,-0.974563336451118,0.974563336451454,0.116116873325126,1.11048751804609,0.565738700243708,1.32982555430044,-1.57597587566078,0.734595544836093,-1.14836594474263,-0.0298429071119516,0.368575740092441,0.368575740094283,0.246484827587621,-0.073010333602927,0.268250153239067,-0.311910784987021,1.08997794274879,0.597886068690363,0.799942118943488,-0.0360869812540913,-0.0360869812547245,1.07540682363988,-1.07540682364182,-1.77814245992179,10.0352,102,659.75,535.575490196079,306.196078431373,681.007843137255,638.492156862745,543.98431372549,527.166666666667,337.254901960784,275.137254901961,0
515.1744,0.173273596579731,-1.05978111867994,-0.330541411658196,0.584832463335048,-1.46806249370873,-1.4680624937089,,-0.976509446423986,0.656563833957821,0.728656652521537,-1.24168861677803,0.728656652521285,-0.207304218729106,-0.372669078346455,-0.354574579158061,-0.23148276669368,0.496670990078563,0.165586967849785,-0.499577848426121,0.0945916759640465,-0.499577848425841,-0.194026681228278,-0.316887475024159,-0.69970285529763,,1.44742722624834,2.42815853338108,-0.974813864237345,0.974813864237726,0.135786853999299,1.129216616049,0.560688019132539,1.34439446545102,-1.59981453944885,0.748178250750646,-1.16488913424145,-0.0315817068576762,0.387755113066474,0.387755113068309,0.246221365274159,-0.0557178354498246,0.294406633439416,-0.343314340667125,1.07239823371749,0.561433446979363,0.788777433013196,0.0115173447952364,0.0115173447945408,1.06949414440732,-1.06949414440922,-1.82892525107027,10.1376,102,1176.48970588235,466.050490196079,314.348039215686,1186.95196078431,1166.02745098039,466.533333333333,465.567647058824,352.696078431373,276,0
515.2768,0.201176832710989,-1.02229016252258,-0.283240711605137,0.588550720850204,-1.42960606366558,-1.42960606366576,,-0.938569315418763,0.654590811384201,0.722858548505285,-1.25961066283289,0.722858548505033,-0.244945941350144,-0.374756887388427,-0.392161177575195,-0.25577165696096,0.525970473901527,0.160431224153341,-0.511136201823348,0.0831577941383697,-0.511136201823073,-0.200106887264688,-0.298368966675666,-0.687735484654989,,1.44213480690399,2.44066460298564,-0.974013865466082,0.974013865466498,0.15453456255783,1.14758545385725,0.555105887603396,1.35834457012669,-1.62268479568156,0.760504704443587,-1.18098266541754,-0.03399668158182,0.406760254375261,0.406760254377097,0.245912707679837,-0.0386773506893937,0.320106244573079,-0.374334117062624,1.05315253602736,0.523998573388922,0.777278683955466,0.0607399022509373,0.0607399022501793,1.06297825242361,-1.06297825242547,-1.87973647758634,10.24,103,1265.80873786408,455.803883495146,324.412621359223,1284.84854368932,1246.76893203884,445.177669902913,466.430097087379,370.349514563107,278.47572815534,0
515.3792,0.230274230232125,-0.984745811457804,-0.234664818167915,0.589994742519843,-1.39099833435002,-1.39099833435023,,-0.901609915980145,0.653392633955662,0.715642304738871,-1.27693366401525,0.715642304738623,-0.281277807253044,-0.37678716664676,-0.42844601623307,-0.27991047249108,0.55542144257545,0.155635707761335,-0.521324214073486,0.0721219385419078,-0.521324214073224,-0.205646578930877,-0.279859696013929,-0.674881647347983,,1.43509143459655,2.45122157254297,-0.972152120829382,0.972152120829834,0.172344033599845,1.1655519877013,0.548985311869135,1.3716332899106,-1.64453449002622,0.771509414313397,-1.19662265635806,-0.0370846779565809,0.425516906801459,0.425516906803286,0.245575058670653,-0.0219332010755498,0.34530591132945,-0.404871425496297,1.03234541309574,0.485733440643698,0.765465207204499,0.111475326514166,0.111475326513354,1.05586873260499,-1.05586873260681,-1.93053604650222,10.3423999999999,102,1250.69509803922,456.535784313726,322.985294117647,1273.18431372549,1228.20588235294,452.154901960784,460.916666666667,371.235294117647,274.735294117647,0
515.4816,0.260485108321403,-0.947301558560728,-0.184972275522368,0.589186488073808,-1.35235408881311,-1.35235408881336,,-0.865699205659581,0.652980849835211,0.707051076785518,-1.29360660466752,0.70705107678527,-0.31617921086996,-0.378812405182312,-0.463332846433765,-0.303826548671631,0.584963361864565,0.151242625220668,-0.53013780360144,0.0614893463721893,-0.530137803601185,-0.210639637096948,-0.261374133197189,-0.661148422909015,,1.42626010793567,2.45984117117395,-0.969222352772513,0.969222352772995,0.189202383313527,1.18307707658254,0.54232182337983,1.38422208610525,-1.66531372083493,0.78113216022854,-1.21178541905085,-0.0408413222371228,0.443953781710344,0.443953781712125,0.245225128698214,-0.00552698353665239,0.369967525831471,-0.434828236839091,1.010086231944,0.446793202560757,0.753357796507955,0.163615977008831,0.163615977007965,1.04817599166734,-1.04817599166914,-1.9812820859314,10.4447999999999,103,527.128640776699,555.715048543689,329.582524271845,537.266990291262,516.990291262136,567.605825242718,543.82427184466,368.485436893204,290.679611650485,0
515.584,0.291724414556401,-0.910107118814412,-0.134324377020296,0.586154682933016,-1.31378319340846,-1.31378319340874,,-0.830898197561206,0.653365489063639,0.697131313894583,-1.30958258551613,0.697131313894338,-0.349536067566592,-0.380882432862852,-0.496730696536395,-0.327447674616416,0.614534759604289,0.147292620037228,-0.537580589081532,0.0512614830441105,-0.537580589081295,-0.21508469083046,-0.242923043870024,-0.646546361236855,,1.41561002694981,2.46653959758447,-0.965223222643238,0.965223222643756,0.205100047739022,1.20012437740333,0.535113497100026,1.39607637276886,-1.6849748888701,0.78931824543325,-1.22644741718558,-0.0452612692782717,0.462002787458415,0.462002787460189,0.24488018697629,0.0105024700143267,0.394058089895834,-0.464107657954136,0.986488599667214,0.40733539568924,0.740978700774672,0.217052417048708,0.217052417047796,1.03991120431789,-1.03991120431966,-2.03193079933313,10.5471999999999,102,418.366666666667,575.43431372549,320.882352941177,437.088235294118,399.645098039216,593.974509803922,556.894117647059,348.764705882353,293,0
515.6864,0.323902863976468,-0.873307783354152,-0.0828847078200704,0.580934559607413,-1.27539020219691,-1.27539020219722,,-0.797260844486143,0.654555070009552,0.685932593365103,-1.32481904932164,0.68593259336486,-0.381241086512632,-0.383044104495742,-0.528554009180918,-0.350702244237002,0.644073290476083,0.143824624611913,-0.543663730871636,0.0414361935508833,-0.543663730871415,-0.218985193822025,-0.224513394920447,-0.631089497212909,,1.40311669013985,2.47133714397831,-0.960158301843162,0.960158301843727,0.220031025292374,1.21666023940077,0.527360964942595,1.40716542650053,-1.70347275724534,0.796018697452459,-1.24058525051989,-0.0503384206309887,0.479599210667066,0.479599210668775,0.244558096713879,0.0261191107014167,0.417549797091465,-0.492614413050127,0.961669786304457,0.367519147014456,0.728351626089805,0.271673874965018,0.271673874964058,1.0310862489502,-1.03108624895194,-2.08243632381371,10.6496,103,449.986893203884,579.045631067961,320.393203883495,463.936893203884,436.036893203884,587.040776699029,571.050485436893,347.009708737864,293.776699029126,0
515.7888,0.356927081472095,-0.837043837726047,-0.030818714952634,0.573567584000927,-1.23727401431345,-1.23727401431378,,-0.764833975686497,0.656556593307968,0.673507445413579,-1.33927793538494,0.67350744541334,-0.411194004620259,-0.385341020842977,-0.558722755589382,-0.373519416172397,0.67351578775176,0.140875686876079,-0.548405713560323,0.0320078784267163,-0.548405713560121,-0.222349461708348,-0.206148307112467,-0.614795356238958,,1.3887619355238,2.47425780665689,-0.954036005341132,0.95403600534172,0.233993108467907,1.23265360190398,0.519067410097879,1.41746228900339,-1.72076451587924,0.801190411544384,-1.25417566295617,-0.0560661161446291,0.496681851066037,0.496681851067686,0.244277338203077,0.0412896677415245,0.440420060776519,-0.52025532805458,0.935750127266996,0.327504363922058,0.715501732527066,0.327368688601155,0.327368688600146,1.02171363512247,-1.02171363512418,-2.13275060525622,10.752,102,465.082352941177,574.810294117647,317.867647058824,484.78431372549,445.380392156863,578.824509803922,570.796078431373,346.323529411765,289.411764705882,0
515.8912,0.390699759086395,-0.801450046693709,0.0217067060743663,0.56410116691677,-1.19952758237452,-1.19952758237488,,-0.733657291464319,0.659375511811764,0.659911165070215,-1.35292576567223,0.659911165069973,-0.439301777416311,-0.387813292499466,-0.587162525353837,-0.395829282952954,0.702798304546462,0.13848077360621,-0.551832071630684,0.0229676850362487,-0.551832071630499,-0.225190664816928,-0.187827064312988,-0.59768495318334,,1.37253393262678,2.47532889834384,-0.946869481523623,0.946869481524246,0.246988090435636,1.24807589537444,0.510238534430097,1.42694365817225,-1.73680984487736,0.804796235803107,-1.26719556967447,-0.0624373122823636,0.513193106178447,0.513193106180022,0.244057023604057,0.0559836177381035,0.462651489747991,-0.546939812513295,0.908852406774712,0.287450911566004,0.702455616252271,0.384024732416806,0.384024732415766,1.01180641927512,-1.0118064192768,-2.1828233031876,10.8544,102,792.778921568628,536.524509803922,321.127450980392,806.264705882353,779.293137254902,534.861764705882,538.187254901961,355.686274509804,286.56862745098,0
515.9936,0.425119829935184,-0.766655201831873,0.0745236117364214,0.552588361635568,-1.16223766622628,-1.16223766622664,,-0.703763416891409,0.66301567047546,0.64520160503872,-1.3657336720411,0.645201605038477,-0.465478725206659,-0.390497347532916,-0.613804590476011,-0.417563048023296,0.731856145845472,0.136672553597232,-0.553975060088301,0.014303705039508,-0.553975060088142,-0.227526772544797,-0.169545189394481,-0.579782790457723,,1.35442713527078,2.47458067100811,-0.93867646045389,0.938676460454541,0.259021939194806,1.26290094159555,0.500882501440489,1.43558976523605,-1.75157097522002,0.806805003388373,-1.2796221000022,-0.0694447596412769,0.529079001370298,0.529079001371801,0.243916905889081,0.0701731261088781,0.484231812071932,-0.572580331035672,0.881101229727414,0.247517789149952,0.689241273152777,0.441529820738986,0.4415298207379,1.0013781048857,-1.00137810488735,-2.23260173594713,10.9568,103,978.123786407767,506.466504854369,341.441747572816,1002.41941747573,953.828155339806,502.894174757282,510.038834951456,386.621359223301,296.26213592233,0
516.096,0.460082659047263,-0.732781722028443,0.127463403102298,0.539087552589107,-1.1254846270765,-1.12548462707687,,-0.675178010895174,0.667479221028046,0.629438947681488,-1.37767738256457,0.629438947681246,-0.489646637515204,-0.393425782798077,-0.638585946533678,-0.43865320630338,0.760623894854154,0.13548117026391,-0.554873279567846,0.00600116979689668,-0.554873279567716,-0.229380448619092,-0.151294593741203,-0.561116862229153,,1.33444220724776,2.47204595417749,-0.929479064611203,0.929479064611893,0.270104935480727,1.27710484846757,0.491009863478245,1.44338423843608,-1.76501274723921,0.807191519955428,-1.29143265368157,-0.0770811851423163,0.544289165867282,0.544289165868719,0.243877381846367,0.0838329637526608,0.505153751710865,-0.597092849614432,0.852622385935625,0.207862318897092,0.67588804901058,0.499772082718622,0.499772082717487,0.990442527951206,-0.990442527952839,-2.28203086885382,11.0592,102,995.125980392157,511.967647058824,358.588235294118,1018.30980392157,971.942156862745,507.478431372549,516.456862745098,410.06862745098,307.107843137255,0
516.1984,0.495480253248147,-0.699945294341401,0.180357218878894,0.523662143634401,-1.08934226098988,-1.08934226099025,,-0.647919923861524,0.672766525665939,0.612685459115803,-1.38873718995834,0.612685459115567,-0.511734841272764,-0.396627259447555,-0.661449336530161,-0.459033720788544,0.789035442159415,0.134934022578092,-0.554571274212117,-0.00195735825380658,-0.554571274212014,-0.230778898027004,-0.13306380153786,-0.541718667479613,,1.31258593233241,2.46775981208607,-0.919303584212747,0.919303584213469,0.280251772656736,1.29066589749812,0.480633483769362,1.45031395717036,-1.77710266729522,0.80593651473409,-1.30260496800247,-0.0853394757327795,0.558776762814213,0.558776762815584,0.243959486978915,0.0969404046711003,0.525414863387436,-0.62039724336861,0.823542207297736,0.168639358051704,0.662426586595699,0.55864031175107,0.558640311749898,0.979013733367181,-0.979013733368781,-2.33105333981377,11.1616,102,971.737254901961,520.230882352941,362.014705882353,989.355882352941,954.11862745098,515.296078431373,525.16568627451,414.578431372549,309.450980392157,0
