time,S1-D1,S1-D8,S1-D9,S1-D15,S2-D1,S2-D2,S2-D3,S2-D9,S3-D1,S3-D2,S3-D16,S4-D2,S4-D3,S4-D5,S5-D3,S5-D4,S5-D5,S6-D2,S6-D5,S6-D17,S7-D6,S7-D7,S8-D6,S8-D7,S8-D18,S9-D3,S9-D4,S9-D9,S9-D11,S9-D19,S10-D8,S10-D9,S10-D10,S10-D11,S11-D8,S11-D10,S11-D20,S12-D10,S12-D11,S12-D12,S13-D4,S13-D11,S13-D12,S14-D10,S14-D12,S14-D21,S15-D13,S15-D14,S16-D13,S16-D14,S16-D22
593.6128,1.70645847678082,-0.0251786995504227,2.06473428378709,0.276344440351263,1.27063459966632,1.27063459966673,NaN,1.14604075257178,0.258873409751979,-3.10214719611346,NaN,-3.39269133846751,0.164845360152279,-0.975716943771548,-0.374741803656539,0.993814363393875,-2.25480510389959,-1.49170237508147,-0.289110693775372,1.27924635389745,-0.289110693775289,0.7407272310388,0.521013082043063,NaN,NaN,-1.62244890813402,0.21342394441204,NaN,-2.28954951383681,1.55964161504908,-0.0522544077372792,0.77527775501514,0.94469269813135,NaN,0.511573532113677,-1.11869990755132,1.15563251740738,-2.43530943146002,-2.43530943145945,0.024868235003567,NaN,NaN,NaN,0.619618228475924,-1.61812966464883,-1.11210441392525,-0.124158311391223,-0.124158311392121,-0.283148000814464,0.283148000813659,-0.489621042736156
593.7152,1.71627334804342,-0.0902239489765163,2.00673075142191,0.2403198620731,1.27801738924551,1.27801738924592,NaN,1.16919115579366,0.256155726714432,-3.07912036871142,NaN,-3.40587957293417,0.211381732579737,-0.985968261441369,-0.341347605111153,1.02777285205328,-2.295830893171,-1.50124246834728,-0.303466249703272,1.33447276409943,-0.303466249703179,0.712355203508816,0.545970152567474,NaN,NaN,-1.65101943735373,0.216695381011281,NaN,-2.32066131352459,1.5712285301304,-0.0819854838182297,0.822269383911973,0.957435849848229,NaN,0.495973970836744,-1.14956405721049,1.1416835155412,-2.44991810160837,-2.44991810160781,0.0208909778803638,NaN,NaN,NaN,0.647356281569922,-1.63679338570912,-1.17065604707729,-0.128602811232808,-0.128602811233712,-0.290440276562474,0.290440276561674,-0.481064907450353
593.8176,1.72734511330838,-0.156513472166876,1.94892824527275,0.204618132449299,1.28531762126831,1.28531762126872,NaN,1.19121494741482,0.253621601958037,-3.05457331219857,NaN,-3.41712087107748,0.257699066104255,-0.994959518581843,-0.30747458524229,1.0614341855187,-2.33577110863487,-1.50986336695816,-0.317498345253957,1.39046745689751,-0.317498345253854,0.683331984265078,0.571183538829181,NaN,NaN,-1.67929808204975,0.219221319255786,NaN,-2.35070063169301,1.58239936355659,-0.112381781360638,0.869821425686567,0.96981036089657,NaN,0.481472487486789,-1.18007606100791,1.12746642900704,-2.46434685765424,-2.46434685765368,0.0171555519399855,NaN,NaN,NaN,0.675784206795554,-1.65475224743359,-1.22887833588519,-0.133733528206016,-0.133733528206926,-0.297057299559154,0.297057299558357,-0.472182880609526
593.92,1.73967663800143,-0.223954104892533,1.89143058892148,0.169302893525886,1.29255027409827,1.29255027409866,NaN,1.2121009843887,0.25129170400184,-3.02854853665831,NaN,-3.42637684636773,0.303786329002757,-1.00265586126533,-0.273113643140742,1.09472917741559,-2.3745307980019,-1.51753255954087,-0.331172118669748,1.44715731183103,-0.331172118669639,0.653722204701954,0.596622763360299,NaN,NaN,-1.7072814717138,0.221028275144712,NaN,-2.37961339298158,1.5931551008986,-0.143414465206325,0.917877981497251,0.9817901269536,NaN,0.468106029796824,-1.21018438294954,1.11302274906554,-2.47861344044603,-2.47861344044548,0.0137044803120042,NaN,NaN,NaN,0.70488655853513,-1.67194131399718,-1.28668931218354,-0.139508528874418,-0.139508528875339,-0.302963983824033,0.30296398382324,-0.463007031875321
594.0224,1.75326103873756,-0.292448153883402,1.83433453194336,0.134434268022496,1.29972826586146,1.29972826586186,NaN,1.23184240588654,0.24918407740361,-3.00108785624876,NaN,-3.43361010527772,0.349636689369151,-1.00902769883238,-0.238254940934349,1.12758769369592,-2.4120177162509,-1.52422169928367,-0.344454208914735,1.50446412047391,-0.344454208914616,0.623589337604894,0.622257458262077,NaN,NaN,-1.7349655332836,0.222145479183933,NaN,-2.40734854271766,1.60349622679504,-0.17505220923932,0.96638070484676,0.993349959194391,NaN,0.455905041062704,-1.23983860474787,1.09839200793671,-2.49273358519714,-2.49273358519659,0.0105809971921429,NaN,NaN,NaN,0.734647066642921,-1.68829418709743,-1.34400729936616,-0.145881518179337,-0.145881518180267,-0.308127739124765,0.308127739123976,-0.453570578607882
594.1248,1.76808166679311,-0.361893388905849,1.77772973817654,0.10006873601107,1.30686242732462,1.30686242732501,NaN,1.250436555816,0.247314104882408,-2.97223258777286,NaN,-3.43878469423882,0.395247187147113,-1.01405068504102,-0.202888167159281,1.15993900126947,-2.44814299084178,-1.5299069825595,-0.357312889537537,1.56230474627398,-0.357312889537409,0.59299554984149,0.64805732329739,NaN,NaN,-1.76234533683258,0.222604592928205,NaN,-2.43385833910372,1.6134226068912,-0.207260988067941,1.01526876027602,1.00446587840495,NaN,0.444893320402148,-1.26898975404261,1.08361175173676,-2.50672092491085,-2.5067209249103,0.00782880170185134,NaN,NaN,NaN,0.765048703823258,-1.70374346938334,-1.40075121965293,-0.152802020555001,-0.152802020555942,-0.312518598334551,0.312518598333768,-0.443907790407608
594.2272,1.78411214397786,-0.432183065168904,1.72169880557057,0.0662590159907418,1.31396147806164,1.31396147806202,NaN,1.26788490359225,0.24569451758601,-2.94202378712207,NaN,-3.44186657695787,0.440618389099439,-1.01770566538618,-0.16700279659357,1.1917121222506,-2.48282177267438,-1.53456950492811,-0.369718172919151,1.62059132367473,-0.369718172919012,0.562001621177143,0.673992036685301,NaN,NaN,-1.78941496858909,0.222439423865714,NaN,-2.45909862169993,1.62293337919135,-0.240003895875104,1.06447881695833,1.01511541003426,NaN,0.435087887409523,-1.29759063628918,1.06871754971083,-2.52058687451061,-2.52058687451006,0.00549179674444007,NaN,NaN,NaN,0.796073730506039,-1.71822127520606,-1.45684091296456,-0.160215550964145,-0.160215550965097,-0.316109358844472,0.316109358843695,-0.43405390372425
594.3296,1.80131644656221,-0.503205967173609,1.66631732185448,0.0330539786923752,1.32103201794983,1.32103201795022,NaN,1.28419295863137,0.244335450280237,-2.91050251130155,NaN,-3.44282412778044,0.485754015341674,-1.01997859074509,-0.130588356110099,1.22283617833945,-2.51597385535043,-1.53819559161793,-0.381641880340998,1.67923148471772,-0.381641880340853,0.530666911949504,0.700031144753863,NaN,NaN,-1.8161674232152,0.221685627350094,NaN,-2.48302904853581,1.63202686709714,-0.273240994324545,1.11394506215496,1.02527785699768,NaN,0.426498869034307,-1.32559615990922,1.05374302843434,-2.5343405033041,-2.53434050330355,0.00361382679691134,NaN,NaN,NaN,0.827703712917031,-1.73165976406065,-1.51219745086747,-0.168063783537976,-0.168063783538944,-0.318875729357435,0.318875729356664,-0.424045035692796
594.432,1.81964903825384,-0.574846469073321,1.61165396255423,0.000498617073985056,1.32807854615014,1.32807854615052,NaN,1.29937017015285,0.243244530563837,-2.87771009923121,NaN,-3.44162862995836,0.530660529671442,-1.02086040533556,-0.0936347072137854,1.25324071578207,-2.54752424535459,-1.54077709308552,-0.393057676450137,1.73812859747461,-0.393057676449984,0.499049361003767,0.726143953738355,NaN,NaN,-1.84259451151482,0.220380387926703,NaN,-2.50561329198082,1.64070051705615,-0.306929189428826,1.16359921858194,1.03493452915223,NaN,0.419129424720301,-1.3529636423958,1.03871991744774,-2.54798841103585,-2.54798841103529,0.00223842607694676,NaN,NaN,NaN,0.859919511291619,-1.74399167404558,-1.56674343398526,-0.176284726681158,-0.176284726682136,-0.32079647691584,0.320796476915076,-0.413918092330214
594.5344,1.83905505730022,-0.64698461302422,1.55777063598945,-0.031365924338631,1.33510351324857,1.33510351324895,NaN,1.31342980777618,0.242426992183614,-2.84368846801125,NaN,-3.43825476989265,0.575346696513315,-1.02034691748979,-0.0561323473759003,1.28285601362119,-2.57740367470129,-1.54231163292383,-0.403941073238132,1.79718201056291,-0.40394107323797,0.467205499546647,0.752299433283463,NaN,NaN,-1.8686867803803,0.218562081205275,NaN,-2.52681918906437,1.64895085199744,-0.341022138641629,1.21337056197775,1.04406892238766,NaN,0.41297571832372,-1.37965308888062,1.02367810009906,-2.56153461966587,-2.56153461966531,0.0014085817819993,NaN,NaN,NaN,0.892701240863379,-1.75515084361699,-1.62040327691225,-0.184812912022407,-0.184812912023397,-0.321853572314984,0.321853572314226,-0.403710674918678
594.6368,1.85947056039742,-0.719496208258624,1.50472267559314,-0.0625022765687933,1.34210740458078,1.34210740458116,NaN,1.32638882005585,0.241885805701094,-2.80848041721561,NaN,-3.43268112230293,0.619823116947253,-1.01843865974011,-0.0180727231866041,1.31161338751619,-2.60554906046467,-1.54280279958709,-0.414269410449279,1.85628731063423,-0.414269410449108,0.435190470919214,0.778466131576325,NaN,NaN,-1.89443343797527,0.216269921768399,NaN,-2.54661885403873,1.65677342506007,-0.375470186503577,1.26318594521518,1.05266685857933,NaN,0.408026933331529,-1.40562744137217,1.00864567135016,-2.57498048655019,-2.57498048654963,0.00116651227621266,NaN,NaN,NaN,0.926028210496713,-1.7650727222584,-1.67310349146309,-0.193579602397449,-0.193579602398446,-0.322032330325329,0.322032330324578,-0.393460990065214
594.7392,1.88082282005646,-0.792252948083926,1.45255907846095,-0.0928767504890253,1.34908884860655,1.34908884860693,NaN,1.33826766687164,0.241621821323559,-2.77212992493771,NaN,-3.42489062313888,0.664101760439619,-1.01514074467536,0.0205514551315487,1.33944550167097,-2.63190392176568,-1.54226028019356,-0.424021814490819,1.91533660726787,-0.424021814490637,0.403058045183759,0.804612104549061,NaN,NaN,-1.91982227588978,0.213543604172498,NaN,-2.56498876944761,1.66416276239208,-0.410220321502782,1.31296983596698,1.06071660803473,NaN,0.404265323217039,-1.4308528016644,0.993649006159351,-2.58832464273827,-2.5883246427377,0.00155345689536534,NaN,NaN,NaN,0.959878839633129,-1.77369487801821,-1.72477297348951,-0.202513024046154,-0.202513024047165,-0.321321536203871,0.321321536203127,-0.383207763016776
594.8416,1.90303066699382,-0.865122533986473,1.40132279144298,-0.122459230856626,1.35604474412101,1.35604474412139,NaN,1.34909012112419,0.241633918572881,-2.73468241466356,NaN,-3.41487102504179,0.708195507316286,-1.01046272023963,0.0597459084532183,1.36628669748633,-2.65641876213917,-1.54069993596674,-0.433179132269043,1.97421886098783,-0.433179132268847,0.370860616371619,0.830704867929749,NaN,NaN,-1.94483958608594,0.210422944249645,NaN,-2.58190986915185,1.67111229664746,-0.445216148060246,1.36264437193954,1.06820900998422,NaN,0.401666296408756,-1.45529863161017,0.978712839706024,-2.60156296223274,-2.60156296223217,0.00260947276310873,NaN,NaN,NaN,0.99423055211812,-1.78095750735681,-1.77534329155881,-0.211538630690836,-0.211538630691853,-0.319713546090634,0.319713546089898,-0.372990145916373
594.944,1.92600486864288,-0.937968794951859,1.35105104666453,-0.151223057546039,1.3629704024902,1.36297040249058,NaN,1.35888303373393,0.241919155463225,-2.69618497774908,NaN,-3.40261532935453,0.752117710034391,-1.00441842069512,0.0995145014186558,1.39207334519579,-2.6790514186484,-1.53814381394832,-0.441723837065602,2.03282026397879,-0.441723837065395,0.338649178550254,0.856711380549213,NaN,NaN,-1.96947007942535,0.206947523602811,NaN,-2.59736761476914,1.67761430246484,-0.480397875670894,1.41212943370829,1.07513758775786,NaN,0.40019854585438,-1.4789379314055,0.963860356970689,-2.61468856836929,-2.61468856836871,0.00437323799750085,NaN,NaN,NaN,1.02905964742616,-1.78680394165206,-1.82474897338348,-0.220579406395735,-0.220579406396763,-0.317204351434193,0.317204351433463,-0.362847607432784
595.0464,1.94964854276702,-1.01065180225458,1.30177574495405,-0.17914488282112,1.36985970438992,1.3698597043903,NaN,1.36767605548381,0.242472910417793,-2.6566865458939,NaN,-3.38812219018914,0.795881773513502,-0.997025804457873,0.139858977872169,1.41674422208794,-2.69976737279593,-1.53462008529384,-0.449639909193423,2.09102467444469,-0.449639909193203,0.306473286665728,0.882598062337739,NaN,NaN,-1.9936968196641,0.203156333993959,NaN,-2.61135205705773,1.68365984481838,-0.515702334484399,1.46134273316858,1.08149864044418,NaN,0.399824234988483,-1.50174739399719,0.949113287290826,-2.6276918776551,-2.62769187765452,0.00688186488354308,NaN,NaN,NaN,1.0643411500679,-1.79118113850381,-1.87292778940192,-0.229556208814846,-0.229556208815881,-0.313793609315372,0.313793609314649,-0.352819790492159
595.1488,1.97385761593008,-1.08302799712226,1.25352388039682,-0.206204501085246,1.37670527224773,1.37670527224811,NaN,1.37550131623153,0.243289016633923,-2.61623801582232,NaN,-3.37139628581438,0.839500751870391,-0.98830677352207,0.180778719631158,1.44024091629337,-2.71854001625667,-1.5301629032624,-0.456912696771112,2.14871410011218,-0.456912696770878,0.274381007990806,0.908330845647795,NaN,NaN,-2.01750118889163,0.199087418406027,NaN,-2.62385787173742,1.68923874447106,-0.551063030909415,1.51019992132388,1.08729129322296,NaN,0.400499243398173,-1.52370753389677,0.934492001867325,-2.64056067312523,-2.64056067312464,0.0101707231977574,NaN,NaN,NaN,1.10004864004654,-1.79404015274218,-1.9198210373791,-0.238388150850791,-0.238388150851838,-0.309484653440257,0.309484653439541,-0.342946333909384
595.2512,1.99852133583495,-1.15495035473735,1.20631799179741,-0.232384656886304,1.38349865759534,1.38349865759572,NaN,1.38239307641157,0.244359895970881,-2.57489234211847,NaN,-3.35244865140628,0.882986958138399,-0.978286976607104,0.222270524616949,1.46250824824327,-2.73535086472184,-1.52481218193121,-0.463528761382483,2.20576922056151,-0.463528761382235,0.242418867697905,0.933875252270087,NaN,NaN,-2.04086289178024,0.194777513829305,NaN,-2.63488435594358,1.69433955888926,-0.586410258719302,1.55861472696509,1.09251749581573,NaN,0.402173466858666,-1.54480278758482,0.920015614664923,-2.65328019662326,-2.65328019662267,0.0142732669383183,NaN,NaN,NaN,1.13615407541607,-1.79533658835635,-1.96537382300196,-0.246993019099466,-0.24699301910052,-0.30428450073986,0.304284500739151,-0.333266669564884
595.3536,2.02352283302051,-1.22626860063232,1.16017661823471,-0.257670833627549,1.39023053839099,1.39023053839136,NaN,1.38838737694653,0.24567670169694,-2.53270462827889,NaN,-3.33129696839704,0.926351582437597,-0.966995601667483,0.264328397609641,1.48349469471053,-2.75018971129004,-1.51861330251365,-0.469475716498775,2.26206993351808,-0.469475716498514,0.210631795069187,0.959196483692472,NaN,NaN,-2.06375999182161,0.190261708064448,NaN,-2.64443536521415,1.69894957673787,-0.621671279332993,1.60649913906807,1.09718196321869,NaN,0.404791166631288,-1.56502157899824,0.905702085504792,-2.66583325355378,-2.66583325355319,0.0192208557042404,NaN,NaN,NaN,1.17262762471522,-1.79503102699918,-2.00953531220852,-0.255287728278269,-0.255287728279332,-0.298203852986066,0.298203852985364,-0.323819817680978
595.456,2.04873971893326,-1.2968294897948,1.1151147316861,-0.282051022617282,1.39689091859242,1.39689091859279,NaN,1.39352171138369,0.247229476779659,-2.48973223729447,NaN,-3.30796580721079,0.969604319621835,-0.954465163264173,0.306943351596088,1.50315280069548,-2.76305471327158,-1.51161675656489,-0.474742072642766,2.31749591744523,-0.474742072642494,0.179063077780874,0.984259514313703,NaN,NaN,-2.08616896810742,0.185573121637713,NaN,-2.65251917660297,1.70305482821161,-0.656770579978984,1.65376364482582,1.10129205999044,NaN,0.408291367168057,-1.58435634189811,0.891568321801973,-2.67820032883327,-2.67820032883269,0.0250425647223892,NaN,NaN,NaN,1.2094375239294,-1.79308942255267,-2.05225892656262,-0.263188811035585,-0.263188811036656,-0.291257075090985,0.291257075090291,-0.314644200400139
595.5584,2.0740447121116,-1.36647715999597,1.07114412419608,-0.30551547930268,1.40346932252617,1.40346932252653,NaN,1.39783473199791,0.249007329296646,-2.44603491639363,NaN,-3.28248682036906,1.01275301892904,-0.940731288549985,0.350103228178565,1.5214395736229,-2.77395241679964,-1.50387773726293,-0.479317104244741,2.37192721530029,-0.479317104244457,0.14775433004845,1.00902918071694,NaN,NaN,-2.10806478739493,0.180742620620811,NaN,-2.65914828034473,1.70664011623113,-0.691630210500486,1.70031753304061,1.10485763977358,NaN,0.412608299932753,-1.60280349379621,0.877630276566829,-2.69035971489323,-2.69035971489265,0.0317649821272663,NaN,NaN,NaN,1.24654996200623,-1.78948345427791,-2.09350246903759,-0.270612940238813,-0.270612940239893,-0.283462127954976,0.28346212795429,-0.305777483052353
595.6608,2.09930629054037,-1.43505356544769,1.02827374063461,-0.328056475553309,1.40995498002277,1.40995498002313,NaN,1.40136598890272,0.250998619837406,-2.4016749186793,NaN,-3.25489888394152,1.05580337135751,-0.925832500341213,0.393792550946259,1.53831686094108,-2.78289772918641,-1.49545568898676,-0.483190745691199,2.42524484412881,-0.483190745690906,0.116745481929977,1.03347025972979,NaN,NaN,-2.12942099322295,0.175798562282837,NaN,-2.66433910992755,1.70968907258206,-0.726170188677747,1.74606926031058,1.10789085360067,NaN,0.417671885665767,-1.62036336015189,0.863903042648363,-2.70228765227079,-2.70228765227021,0.0394119993344189,NaN,NaN,NaN,1.2839289912912,-1.78419083321345,-2.13322818357826,-0.277477472283592,-0.277477472284687,-0.274840445935368,0.274840445934691,-0.297256439824808
595.7632,2.12438936890451,-1.5023989826154,0.986509964286746,-0.349668046674493,1.4163370035176,1.41633700351796,NaN,1.40415569079091,0.253191149708934,-2.35671711363188,NaN,-3.22524818535998,1.09875864294634,-0.90980998901002,0.437992422961733,1.55375171043192,-2.7899138415991,-1.4864138189196,-0.486353514617308,2.47733142578542,-0.486353514617005,0.0860747970664875,1.05754752997021,NaN,NaN,-2.1502098180292,0.170766574166821,NaN,-2.66811171493088,1.71218424134992,-0.760308956692125,1.7909268617756,1.11040593182318,NaN,0.423408247139152,-1.63704004893559,0.850400943299971,-2.71395848397028,-2.7139584839697,0.0480046073013069,NaN,NaN,NaN,1.32153645987842,-1.77719555228807,-2.17140275648095,-0.283700992775957,-0.283700992777066,-0.265416763420757,0.265416763420088,-0.289116830640695
595.8656,2.14915599874812,-1.56835257389663,0.945856868216047,-0.370345727315509,1.42260456081049,1.42260456081084,NaN,1.40624447168818,0.25557233697372,-2.31122908484303,NaN,-3.19358825191372,1.14161945726662,-0.892707365100819,0.482680475366956,1.56771670891703,-2.79503209671092,-1.47681856931305,-0.488796456685715,2.52807183051152,-0.488796456685404,0.0557789217542671,1.0812258166887,NaN,NaN,-2.17040232373414,0.165669370240744,NaN,-2.67048938006384,1.7141071908358,-0.793963872297524,1.83479838674827,1.1124189410101,NaN,0.429740248614233,-1.65284127614062,0.83713761820872,-2.7253448266704,-2.72534482666981,0.0575607106467684,NaN,NaN,NaN,1.35933196465282,-1.76848807315118,-2.20799726858658,-0.289203852306732,-0.289203852307857,-0.255218899840084,0.255218899839422,-0.281393276859632
595.968,2.17346608959623,-1.63275300290935,0.906316436755994,-0.390086283245871,1.42874704341241,1.42874704341276,NaN,1.40767315172358,0.258129368607663,-2.26528120654685,NaN,-3.15997991165893,1.18438363169835,-0.874570395542595,0.527830869413434,1.58019029376082,-2.79829179729818,-1.4667390519857,-0.490511107998368,2.57735382525704,-0.490511107998053,0.0258929644113375,1.10447002199496,NaN,NaN,-2.18996856873986,0.160526612307568,NaN,-2.67149820605393,1.7154386511379,-0.827051718418097,1.87759234870109,1.11394752908134,NaN,0.436588059625149,-1.6677781450634,0.824126103266309,-2.73641776040863,-2.73641776040804,0.0680949631769979,NaN,NaN,NaN,1.39727282124982,-1.75806545616829,-2.2429871128122,-0.29390869190671,-0.293908691907849,-0.244277513059817,0.244277513059162,-0.274119135153443
596.0704,2.19717814758363,-1.69543910302922,0.867888751128555,-0.408887459826556,1.43475422482809,1.43475422482844,NaN,1.40848248549902,0.260849318527688,-2.21894668392154,NaN,-3.12449118206302,1.22704607086493,-0.85544673698683,0.573414347625112,1.591157030417,-2.79973995617144,-1.45624645298963,-0.491489473775358,2.62506871475492,-0.491489473775034,-0.00354939738039843,1.12724514191343,NaN,NaN,-2.2088777903094,0.155354823956486,NaN,-2.6711666793205,1.71615866924,-0.859489209055511,1.919218182146,1.11501068580304,NaN,0.443869737950696,-1.68186488469217,0.811378901056998,-2.74714703347345,-2.74714703347286,0.0796186222656966,NaN,NaN,NaN,1.43531404532661,-1.74593144835348,-2.27635189657273,-0.297740957471519,-0.29774095747267,-0.23262583507203,0.232625835071383,-0.267326378419152
596.1728,2.22015002596659,-1.75625059887285,0.830572132621565,-0.426747764959868,1.44061640320556,1.44061640320591,NaN,1.40871289800827,0.263719226203029,-2.17230154765966,NaN,-3.08719708808423,1.2695987166251,-0.835385675905907,0.619398328537192,1.60060784911862,-2.79943099124956,-1.44541341947538,-0.491724020503853,2.67111196036529,-0.491724020503521,-0.0325157857083558,1.14951627059425,NaN,NaN,-2.22709859196526,0.150167357869757,NaN,-2.66952525217994,1.71624677591486,-0.891193469146339,1.95958669586329,1.11562854207787,NaN,0.451501820878598,-1.69511855329012,0.798908040058738,-2.75750127753551,-2.75750127753491,0.0921394209567607,NaN,NaN,NaN,1.47340834100106,-1.7320965395267,-2.30807534251915,-0.300629392592885,-0.300629392594051,-0.220299404259441,0.220299404258801,-0.261045489961604
596.2752,2.24223968327597,-1.81502887535289,0.794363243912274,-0.44366629049228,1.4463245276354,1.44632452763576,NaN,1.40840421568752,0.266726140651491,-2.12542460659656,NaN,-3.04817941636211,1.31203055298187,-0.814437872875628,0.665747044996281,1.6085402373599,-2.79742637546765,-1.434313443618,-0.491207676884701,2.71538376552463,-0.491207676884363,-0.0609749714529961,1.17124859241888,NaN,NaN,-2.2445991401403,0.144974408283741,NaN,-2.66660594231876,1.71568216865073,-0.922082476296512,1.99861051180465,1.11582221404955,NaN,0.459399907458407,-1.70755871228127,0.786725125205208,-2.76744823089008,-2.76744823088947,0.10566146035467,NaN,NaN,NaN,1.5115060940054,-1.71657799130188,-2.33814518567066,-0.302506495579934,-0.302506495581119,-0.207335799155619,0.207335799154988,-0.255305367305415
596.3776,2.2633059498226,-1.8716177887312,0.759257155409358,-0.459642566351849,1.45187031077856,1.45187031077891,NaN,1.40759540214619,0.269857141955401,-2.07839736906278,NaN,-3.00752641516812,1.35432766428443,-0.792655105473771,0.712421727590987,1.61495838777344,-2.7937942549021,-1.42302025943706,-0.489933845346585,2.75778962210996,-0.489933845346239,-0.0888967137712815,1.19240736828358,NaN,NaN,-2.26134739035863,0.13978305319849,NaN,-2.66244195660434,1.71444391838068,-0.952075462860473,2.03620448281886,1.11561368546689,NaN,0.467479214590217,-1.71920707475042,0.774841385024708,-2.77695496842432,-2.77695496842371,0.120185125370991,NaN,NaN,NaN,1.54955537064487,-1.69939984347377,-2.36655305356023,-0.303308934220856,-0.303308934222056,-0.193774368552256,0.193774368551632,-0.250133227718586
596.48,2.28320930780251,-1.92586451792624,0.725247384924194,-0.474676441583731,1.45724633074607,1.45724633074643,NaN,1.40632430364084,0.273099350425974,-2.03130393765688,NaN,-2.96533244803514,1.39647334346407,-0.770090011890881,0.759380829397441,1.61987329907116,-2.7886090422561,-1.41160726331203,-0.487896436204469,2.79824081346334,-0.487896436204117,-0.116251607946462,1.21295793045951,NaN,NaN,-2.27731136175613,0.134597314395632,NaN,-2.65706734739691,1.71251120069048,-0.981093283415365,2.0722860893355,1.11502572002384,NaN,0.475655100092579,-1.73008713434234,0.763267716119038,-2.7859881348898,-2.78598813488917,0.135707024239511,NaN,NaN,NaN,1.58750193069914,-1.68059290079406,-2.39329431853016,-0.30297792369194,-0.302977923693153,-0.179655951732676,0.179655951732059,-0.245554515565177
596.5824,2.30181269051961,-1.97762045749991,0.692325915900155,-0.488767991868844,1.46244612230589,1.46244612230625,NaN,1.4046274070365,0.276439926590917,-1.98423087182862,NaN,-2.92169760191398,1.43844824623827,-0.746795844994498,0.8065802835395,1.62330282718516,-2.78195098367157,-1.40014695902836,-0.485089936879231,2.83665487206413,-0.485089936878872,-0.143010957654013,1.23286569978427,NaN,NaN,-2.2924594607931,0.129418236834034,NaN,-2.65051670754976,1.70986354576248,-1.00905875885996,2.1067758255425,1.11408179888464,NaN,0.483843559506558,-1.74022378266037,0.752014717042972,-2.79451417970535,-2.79451417970472,0.152219948483397,NaN,NaN,NaN,1.62528926710999,-1.66019469614937,-2.41836792519467,-0.301459580868591,-0.301459580869817,-0.16502258613515,0.165022586134541,-0.241592824872518
596.6848,2.31898229998212,-2.02674215159989,0.660483194067987,-0.501917455410024,1.46746425225119,1.46746425225154,NaN,1.40253961435372,0.279866060535068,-1.93726700773038,NaN,-2.87672724517671,1.48023058673577,-0.722826248773957,0.853973783515134,1.62527168933309,-2.77390569528648,-1.38871042021479,-0.481509517626409,2.87295599734643,-0.481509517626044,-0.169146671759139,1.25209622522286,NaN,NaN,-2.30676084108538,0.124243997998026,NaN,-2.64282490293526,1.70648110178075,-1.03589701166011,2.13959759236818,1.11280608210598,NaN,0.491961711908115,-1.74964292153363,0.741092697739896,-2.80249959560587,-2.80249959560522,0.169712846588681,NaN,NaN,NaN,1.66285868294905,-1.63824942040283,-2.44177620707947,-0.298705269994792,-0.298705269996029,-0.14991720129339,0.149917201292789,-0.238269855445026
596.7872,2.33458843328189,-2.07309226005356,0.629708100249583,-0.514125196148383,1.47229637177571,1.47229637177606,NaN,1.40009403692988,0.283364947652232,-1.89050322648962,NaN,-2.83053153127734,1.52179636723588,-0.698235063958053,0.901513076635984,1.62581142719149,-2.76456366903229,-1.37736676273532,-0.477151162699236,2.90707544383735,-0.477151162698866,-0.194631170694412,1.27061523152382,NaN,NaN,-2.32018578479423,0.119070055365098,NaN,-2.63402683672835,1.70234490715671,-1.06153580088328,2.17067910805323,1.1112233938334,NaN,0.499928290007185,-1.75837107031452,0.730511653023347,-2.80991116332091,-2.80991116332024,0.188170804323681,NaN,NaN,NaN,1.7001494084011,-1.61480781027596,-2.46352470606143,-0.294671948445139,-0.29467194844639,-0.134383299199761,0.134383299199168,-0.235605411688597
596.8896,2.34850630227547,-2.11654053806023,0.599987900309273,-0.525391691562866,1.47693924302631,1.47693924302666,NaN,1.39732180935406,0.286923749107718,-1.84403216756731,NaN,-2.78322484764258,1.5631196318232,-0.673076158499124,0.949148264342693,1.62496033127427,-2.75401974940953,-1.36618262671005,-0.472011811585895,2.93895188329432,-0.472011811585523,-0.219437288160102,1.28838865984563,NaN,NaN,-2.33270609158326,0.11388933364917,NaN,-2.62415724268296,1.69743716348115,-1.08590585273503,2.19995232935846,1.10935922919686,NaN,0.507664138987361,-1.7664349664092,0.720281199217049,-2.8167161997637,-2.81671619976302,0.207575030831388,NaN,NaN,NaN,1.73709875082527,-1.58992699063792,-2.48362200133175,-0.289322506704105,-0.289322506705369,-0.118464624335222,0.118464624334636,-0.233617436315673
596.992,2.36061682704646,-2.15696480227918,0.571308177613109,-0.535717543863354,1.4813907436703,1.48139074367065,NaN,1.39425192506337,0.290529540984776,-1.79794788885207,NaN,-2.73492521487347,1.60417273385397,-0.647403271435869,0.996828107006474,1.62276332474668,-2.74237258616429,-1.3552216757888,-0.466089502364446,2.96853173130307,-0.466089502364071,-0.243538165655851,1.30538269672326,NaN,NaN,-2.34429545856849,0.108692449102631,NaN,-2.61325051095448,1.69174149960285,-1.10894117379444,2.22735386134582,1.1072397749862,NaN,0.515092708246984,-1.7738611654725,0.710410485975881,-2.82288280045053,-2.82288280044983,0.227902858203832,NaN,NaN,NaN,1.77364226419493,-1.563670270771,-2.5020795477573,-0.28262608432128,-0.282626084322553,-0.10220483251032,0.10220483250974,-0.232322058150318
597.0944,2.37080738304079,-2.19425185361532,0.543652755322533,-0.545103515196405,1.48564985718538,1.48564985718572,NaN,1.39091110028493,0.294169262560576,-1.75234547518043,NaN,-2.68575364693602,1.64492660981721,-0.621269862504361,1.04450033104207,1.6192718068772,-2.72972407125562,-1.34454412310357,-0.459383519770829,2.99576942051802,-0.459383519770449,-0.266907145894218,1.32156379510552,NaN,NaN,-2.35492983414971,0.103467966295957,NaN,-2.60134055179883,1.6852432206766,-1.13057933722018,2.25282533310772,1.10489193028475,NaN,0.522140505119193,-1.78067565838667,0.700908101622144,-2.82838006126232,-2.8283800612616,0.249127763517169,NaN,NaN,NaN,1.80971392509691,-1.53610689536489,-2.51891152172874,-0.274558345426582,-0.274558345427859,-0.08564717390203,0.0856471739014565,-0.231733634052369
597.1968,2.3789724897797,-2.2282983364884,0.517003615460824,-0.553550588723711,1.48971665431607,1.48971665431641,NaN,1.38732367344624,0.297829674088328,-1.70732059264975,NaN,-2.63583348289138,1.68535105576118,-0.594728968270077,1.09211193473561,1.61454346010081,-2.71617876727739,-1.33420628773406,-0.451894552581225,3.02062760706884,-0.45189455258084,-0.289517673278906,1.33689869247744,NaN,NaN,-2.36458773209524,0.0982026815792413,NaN,-2.5884607003448,1.67792953733197,-1.15076174167883,2.27631372971313,1.10234331452051,NaN,0.528737486166517,-1.78690352522922,0.691781985146048,-2.83317826646779,-2.83317826646705,0.271219415200897,NaN,NaN,NaN,1.84524630994416,-1.50731175213818,-2.53413467738303,-0.265101709802506,-0.265101709803787,-0.0688342027593734,0.0688342027588056,-0.231864778075204
597.2992,2.38501443830317,-2.25901152633196,0.491340820148702,-0.561060057092656,1.49359226521523,1.49359226521558,NaN,1.38351154260332,0.30149732749893,-1.66296898352663,NaN,-2.58528969571022,1.72541500505261,-0.567833068926013,1.13960948958508,1.60864202613624,-2.70184332873231,-1.3242601772601,-0.443624858717379,3.04307730683722,-0.443624858716991,-0.311343211381013,1.35135443244091,NaN,NaN,-2.37325049630887,0.0928819248956758,NaN,-2.57464366480473,1.66978976564633,-1.16943384793832,2.29777168179859,1.09962225655245,NaN,0.534817381267284,-1.79256864201924,0.683039347346796,-2.83724903945067,-2.83724903944991,0.294143740072284,NaN,NaN,NaN,1.88017077452972,-1.47736503793224,-2.54776821887856,-0.254245544642999,-0.254245544644283,-0.0518075151319664,0.0518075151314046,-0.232726381946572
597.4016,2.38884385401525,-2.2863100375175,0.466642439332024,-0.567633636907142,1.49727883889131,1.49727883889165,NaN,1.37949413864143,0.305158546169795,-1.61938590091693,NaN,-2.53424818271893,1.76508680659189,-0.540633967447452,1.18693943553536,1.60163705639486,-2.68682591382246,-1.31475308790755,-0.434578432566265,3.06309796147933,-0.434578432565876,-0.332357187302883,1.36489839816082,NaN,NaN,-2.38090251087969,0.0874898695794545,NaN,-2.55992151998195,1.66081548462719,-1.18654539436654,2.31715771216711,1.0967577618659,NaN,0.540317955579904,-1.79769344820451,0.674686599841512,-2.84056546126135,-2.84056546126056,0.317863009406189,NaN,NaN,NaN,1.91441763705593,-1.44635188445336,-2.55983368800131,-0.241986320018155,-0.241986320019449,-0.0346075095947985,0.0346075095942413,-0.234327630250079
597.504,2.3903801871397,-2.3101244378577,0.442884490358913,-0.573273605895725,1.50077948822746,1.5007794882278,NaN,1.3752884300606,0.308799408130769,-1.57666549103942,NaN,-2.48283504564555,1.80433450164717,-0.513182678921964,1.2340483697223,1.59360364117643,-2.67123558590796,-1.30572721632861,-0.424761173406743,3.08067743269551,-0.424761173406351,-0.352532965794677,1.37749836204652,NaN,NaN,-2.38753135661253,0.0820098430535131,NaN,-2.54432574594829,1.65100064049205,-1.20205058683813,2.33443643290336,1.09377945676979,NaN,0.545181211528035,-1.80229877405779,0.666729297564523,-2.84310216498305,-2.84310216498225,0.342335947241558,NaN,NaN,NaN,1.94791636467828,-1.41436194478576,-2.57035485839482,-0.228327722780538,-0.228327722781842,-0.0172731665484714,0.0172731665479189,-0.236676008314218
597.6064,2.38955212476968,-2.33039775570265,0.42004089709014,-0.577982962277132,1.50409822260723,1.50409822260756,NaN,1.37090895603608,0.312405730716179,-1.53490013641696,NaN,-2.43117586828568,1.84312609589794,-0.485529324647753,1.28088332872263,1.58462211691266,-2.65518170474798,-1.29721928396668,-0.414181061190267,3.09581192566567,-0.414181061189876,-0.371843847673517,1.38912254925251,NaN,NaN,-2.39312791868474,0.0764246402712702,NaN,-2.52788730850116,1.6403415957656,-1.21590826001136,2.34957869003253,1.09071751072926,NaN,0.549353529836977,-1.80640372090491,0.659172108475421,-2.84483541249325,-2.84483541249243,0.367517866076663,NaN,NaN,NaN,1.98059576763158,-1.38148893941488,-2.57935762719997,-0.213280721065046,-0.213280721066357,0.000158156538710257,-0.000158156539257537,-0.239777299636455
597.7088,2.3862979235857,-2.34708587367362,0.398083473820084,-0.581765609057882,1.50723987519356,1.5072398751939,NaN,1.36636788667991,0.315963059311899,-1.49417977339518,NaN,-2.37939499588013,1.88142982241138,-0.457723023723195,1.32739206456569,1.57477774063254,-2.6387733063255,-1.28926018463011,-0.402848346798281,3.10850584685166,-0.402848346797892,-0.390263086637871,1.39973971071456,NaN,NaN,-2.39768644502664,0.0707168473615071,NaN,-2.51063677211623,1.62883713316524,-1.22808201391058,2.36256166160076,1.08760253806454,NaN,0.552785750179358,-1.8100255835615,0.65201882184117,-2.84574315581521,-2.84574315581437,0.393360832054444,NaN,NaN,NaN,2.01238420798552,-1.34783015934769,-2.58686989932546,-0.196863577959414,-0.196863577960733,0.0176509148465702,-0.0176509148471141,-0.243635571500638
597.8112,2.38056566424353,-2.36015781592054,0.376981927822036,-0.584626562782971,1.51021003550271,1.51021003550304,NaN,1.36167511279856,0.319456665118639,-1.45459119531789,NaN,-2.32761481759863,1.91921439442583,-0.429811776149415,1.37352331670675,1.56416031866918,-2.62211847504013,-1.28187467401763,-0.390775755329761,3.11877160628594,-0.390775755329376,-0.407763925347275,1.40931920397036,NaN,NaN,-2.40120455376971,0.0648691757519968,NaN,-2.49260443163856,1.61648843638971,-1.23854033213684,2.37336891844483,1.08446548076007,NaN,0.555433194015349,-1.81317980059605,0.645272392321749,-2.84580508150993,-2.84580508150908,0.41981385360385,NaN,NaN,NaN,2.04320982546617,-1.31348593246068,-2.5929214655914,-0.179101817991215,-0.179101817992543,0.0351715503644942,-0.0351715503650345,-0.248253146510787
597.9136,2.37231342792396,-2.3695959448515,0.356703863948932,-0.586572180451299,1.51301499524886,1.51301499524918,NaN,1.35683836967519,0.322871555026392,-1.41621734990082,NaN,-2.27595505369429,1.95644925131541,-0.401842334993923,1.41922708405974,1.55286378711629,-2.60532372095689,-1.27508111855193,-0.377978690006515,3.1266293785519,-0.377978690006133,-0.424319658316454,1.41783108395963,NaN,NaN,-2.40368319904739,0.0588647928883033,NaN,-2.47382045227947,1.6032990732453,-1.24725668249654,2.38199045209061,1.08133747697127,NaN,0.557255631365512,-1.81587991952002,0.638935005479111,-2.84500263848054,-2.84500263847968,0.446823081314455,NaN,NaN,NaN,2.07300077712338,-1.27855906960189,-2.59754388205165,-0.160028146664197,-0.16002814666553,0.0526886499781438,-0.0526886499786805,-0.253630553052986
598.016,2.36150939624047,-2.37539607863134,0.337214780591934,-0.587610397469117,1.51566170832521,1.51566170832553,NaN,1.35186339597467,0.326192491632625,-1.37913663632233,NaN,-2.2245320505598,1.99310479993499,-0.373860067638316,1.46445489891025,1.54098575076542,-2.58849337336391,-1.26889130900255,-0.364475421100405,3.13210683156058,-0.364475421100027,-0.439903728091015,1.4252462078242,NaN,NaN,-2.4051266104923,0.0526876317296398,NaN,-2.45431501470382,1.58927499232366,-1.25420959560307,2.38842266685812,1.07824971878741,NaN,0.558217192015286,-1.81813757605067,0.633008154601585,-2.84331905292442,-2.84331905292354,0.474332011655201,NaN,NaN,NaN,2.10168548920573,-1.24315430270991,-2.60077035711954,-0.139682318022749,-0.139682318024084,0.070173090013003,-0.0701730900135355,-0.259766447345755
598.1184,2.34813187861708,-2.3775675288805,0.318478062650577,-0.58775097020305,1.51815776302407,1.51815776302439,NaN,1.34675412138148,0.329404018437614,-1.34342220627118,NaN,-2.17345808851172,2.02915264845527,-0.345908807606427,1.50916009951466,1.52862698851343,-2.57172899218275,-1.26331033181542,-0.350287249614407,3.13523882127639,-0.350287249614032,-0.4544898509367,1.43153635329162,NaN,NaN,-2.40554221444959,0.0463226715884943,NaN,-2.43411846452491,1.57442452477176,-1.25938271799472,2.39266833129791,1.07523329855217,NaN,0.558286225361038,-1.81996249719363,0.627492728574085,-2.84073933168875,-2.84073933168787,0.502281698284973,NaN,NaN,NaN,2.12919292350804,-1.20737771243451,-2.60263564553941,-0.118110945835664,-0.118110945837003,0.0875981730509294,-0.0875981730514574,-0.266657508837284
598.2208,2.33216927402308,-2.37613305418947,0.300454984677189,-0.587005714485332,1.52051136689792,1.52051136689825,NaN,1.34151287012279,0.332490486352751,-1.30914127491418,NaN,-2.12284070689157,2.06456582752177,-0.318030701310789,1.55329809480472,1.51589093222031,-2.55512879407783,-1.25833648678403,-0.335438641735791,3.13606704842985,-0.335438641735417,-0.468052158578378,1.43667434312005,NaN,NaN,-2.40494054070341,0.0397561944662809,NaN,-2.41326146243559,1.55875837775687,-1.26276484055082,2.39473649070634,1.07231904475847,NaN,0.557435122699439,-1.82136253401481,0.62238910896669,-2.83725025129019,-2.8372502512893,0.53061097857628,NaN,NaN,NaN,2.15545285653252,-1.17133613746837,-2.60317594396546,-0.0953672606889782,-0.0953672606903166,0.104939757468967,-0.10493975746949,-0.274298321772572
598.3232,2.31361997455664,-2.371128729588,0.283104733229896,-0.585388729685851,1.52273134364506,1.52273134364538,NaN,1.33614056480107,0.335436079176949,-1.27635445066153,NaN,-2.07278204799145,2.09931899498908,-0.290266059384701,1.59682661300012,1.50288312568534,-2.53878709110871,-1.25396124118923,-0.319957334249584,3.13463967965416,-0.319957334249211,-0.480565342046976,1.44063416523368,NaN,NaN,-2.40333512138222,0.0329760265742087,NaN,-2.39177512880224,1.54228961227063,-1.26434990762018,2.39464235306256,1.06953735487835,NaN,0.555640123737754,-1.82234371946251,0.617697265556172,-2.83284033113521,-2.83284033113432,0.559256717323829,NaN,NaN,NaN,2.18039616213499,-1.13513656623548,-2.60242878453041,-0.0715108237380115,-0.0715108237393494,0.122176368559577,-0.122176368560096,-0.282681262468383
598.4256,2.29249221640883,-2.3626037356871,0.266384451211701,-0.582916598037254,1.52482713667116,1.52482713667148,NaN,1.33063691959308,0.338224837772098,-1.24511509454904,NaN,-2.02337821887596,2.13338862300352,-0.262653226431303,1.63970592584769,1.48971067073327,-2.52279374231835,-1.25016921310849,-0.303874413144029,3.13101093954892,-0.303874413143658,-0.492004788513833,1.44339107954863,NaN,NaN,-2.40074238767016,0.0259717757536284,NaN,-2.36969117763501,1.52503360104898,-1.26413701461366,2.3924071650885,1.06691803437426,NaN,0.552881125458607,-1.82291034317295,0.61341683665161,-2.82749979296725,-2.82749979296634,0.588154062894887,NaN,NaN,NaN,2.20395508791468,-1.09888551924088,-2.6004329226086,-0.0466072103781584,-0.0466072103794909,0.139289275508906,-0.139289275509422,-0.291796413253316
598.528,2.26880387940912,-2.35062007080543,0.250249302102385,-0.579608551005354,1.52680881346366,1.52680881346399,NaN,1.32500062273355,0.340840687173992,-1.21546872189856,NaN,-1.97471867330181,2.16675316782844,-0.235228477987676,1.68189904419823,1.4764816672381,-2.50723362437065,-1.24693818335703,-0.287224364759216,3.12524068133392,-0.287224364758847,-0.502346705181262,1.44492170521533,NaN,NaN,-2.39718156693836,0.0187350691629204,NaN,-2.34704203502709,1.50700796449803,-1.26213039811425,2.38805808780776,1.06449014758287,NaN,0.549141498305156,-1.82306503874896,0.609547187688752,-2.82122050936308,-2.82122050936217,0.617236708106278,NaN,NaN,NaN,2.22606352021619,-1.06268843050363,-2.59722821058683,-0.0207276697723576,-0.0207276697736831,0.156262523186148,-0.156262523186661,-0.301631515988231
598.6304,2.24258223487288,-2.33525218837027,0.234652551274581,-0.575486600145187,1.52868707151323,1.52868707151355,NaN,1.31922951463074,0.343267473481575,-1.18745245925945,NaN,-1.9268856197867,2.19939322385396,-0.208025941223585,1.72337188794885,1.46330465150609,-2.49218613268389,-1.24423914432455,-0.270045093394057,3.11739394547154,-0.270045093393693,-0.511568224996991,1.4452040846617,NaN,NaN,-2.39267458352374,0.0112597840125246,NaN,-2.32386093552561,1.48823248731242,-1.25833941745114,2.3816280703662,1.06228188058949,NaN,0.544407906335217,-1.82280888305082,0.606087451155496,-2.81399594138627,-2.81399594138536,0.646437149029874,NaN,NaN,NaN,2.24665723730795,-1.02664903444096,-2.59285544850125,0.00605124460080461,0.00605124459948779,0.173082914241674,-0.173082914242183,-0.312171963277262
598.7328,2.21386364782344,-2.31658656313712,0.219545668022349,-0.570575634193846,1.53047325430669,1.53047325430702,NaN,1.31332076506033,0.345489015278057,-1.16109456410648,NaN,-1.87995345885702,2.23129166564802,-0.18107752992007,1.76409343852662,1.45028803284752,-2.47772472061438,-1.24203639458568,-0.252377899139496,3.10754051622388,-0.252377899139135,-0.519647488690874,1.44421772202366,NaN,NaN,-2.38724596880254,0.00354225893759589,NaN,-2.30018199033162,1.46872902042913,-1.25277852714735,2.37315571779328,1.0603204113293,NaN,0.538670132179124,-1.8221415089525,0.603036553708785,-2.8058210612944,-2.80582106129349,0.675686939863626,NaN,NaN,NaN,2.26567415749188,-0.990868761925014,-2.58735621012855,0.0336480850890073,0.0336480850876971,0.189739941622328,-0.189739941622834,-0.323400817782146
598.8352,2.18269324484973,-2.29472118999604,0.204878458048913,-0.564903483845951,1.53217938559856,1.53217938559889,NaN,1.30727104869788,0.347489170801518,-1.13641400760289,NaN,-1.8339882494038,2.26243378451352,-0.154412887553934,1.80403588254042,1.4375395254508,-2.46391647589238,-1.24028768156644,-0.234267414477755,3.09575448440618,-0.234267414477394,-0.526563698420617,1.44194359447921,NaN,NaN,-2.38092278779263,-0.0044185224885293,NaN,-2.27604022487927,1.44852137150727,-1.24546724029939,2.36268515043965,1.05863178380239,NaN,0.531920914186597,-1.8210612327111,0.600393234164797,-2.79669225739641,-2.7966922573955,0.704916948302217,NaN,NaN,NaN,2.28305459120978,-0.955446146899469,-2.58077265382076,0.0619769722436457,0.0619769722423488,0.206225675059076,-0.206225675059578,-0.335298853139417
598.9376,2.14912455143485,-2.2697650139276,0.190599232662953,-0.558500956934848,1.53381821966319,1.53381821966351,NaN,1.30107671738097,0.349251916950938,-1.11342012189844,NaN,-1.78904721016754,2.29280742641988,-0.128059336019491,1.84317475361932,1.42516557827693,-2.45082173593826,-1.23894439112563,-0.215761500759725,3.08211382089328,-0.215761500759367,-0.532297142166929,1.43836413897,NaN,NaN,-2.37373458280144,-0.0126207792203855,NaN,-2.25147159097505,1.42763518763777,-1.23643007668753,2.35026585228222,1.05724079305548,NaN,0.52415579814208,-1.8195651953519,0.598156055331851,-2.78660722943316,-2.78660722943226,0.734057617894363,NaN,NaN,NaN,2.29874149276713,-0.920476249447201,-2.57314733231106,0.0909481106379351,0.0909481106366498,0.222534610217419,-0.222534610217918,-0.347844613184267
599.04,2.1132190896779,-2.24183728366777,0.176655011566669,-0.551401851859743,1.53540329391814,1.53540329391846,NaN,1.29473396555148,0.350761428685434,-1.09211232092357,NaN,-1.74517827106847,2.32240313563856,-0.102041829244402,1.88148907643492,1.41327081567192,-2.43849375454793,-1.2379517843393,-0.196911105428338,3.06669995948992,-0.196911105427986,-0.53682919221821,1.43346322200778,NaN,NaN,-2.36571331751261,-0.021059809837327,NaN,-2.22651296749392,1.40609783405734,-1.22569648348427,2.33595250300557,1.05617089448366,NaN,0.515372994218342,-1.81764951545856,0.596323412118993,-2.7755648943979,-2.77556489439701,0.763039239714962,NaN,NaN,NaN,2.31268069124863,-0.886050111625034,-2.56452301274004,0.120468342830863,0.120468342829591,0.238663496063268,-0.238663496063763,-0.361014485605586
599.1424,2.07504592355667,-2.21106682501311,0.162991747861694,-0.543642959649995,1.53694896682156,1.53694896682187,NaN,1.28823898177221,0.352002144803713,-1.07247990689012,NaN,-1.70241969125145,2.35121430111423,-0.0763829125064435,1.918961510011,1.40195750038056,-2.42697843385528,-1.23724928453201,-0.177770081448207,3.04959738148371,-0.177770081447858,-0.54014228251768,1.42722610164622,NaN,NaN,-2.35689329445218,-0.0297278930986212,NaN,-2.20120216252078,1.38393826832347,-1.21330072056553,2.31980478907278,1.05544414447808,NaN,0.505573228634594,-1.81530944857676,0.594893537392028,-2.76356531963793,-2.76356531963703,0.791792228783942,NaN,NaN,NaN,2.32482108303965,-0.852254266646178,-2.55494251056303,0.15044171892965,0.150441718928386,0.254611159045327,-0.254611159045818,-0.374782786396085
599.2448,2.03468114617257,-2.17759124349352,0.149554557985271,-0.535264062109152,1.5384704275078,1.53847042750811,NaN,1.28158807861962,0.352958813285386,-1.05450197208073,NaN,-1.66079975890569,2.37923729173003,-0.051102687710333,1.95557847865163,1.39132501525121,-2.41631412490892,-1.23677082250707,-0.158394973049246,3.03089319149649,-0.158394973048902,-0.542219872653463,1.41963939035265,NaN,NaN,-2.34731102661299,-0.0386142042243981,NaN,-2.17557791582418,1.36118690897678,-1.19928171227111,2.30188719141484,1.05508116616779,NaN,0.494759591091836,-1.81253954628318,0.593864509084902,-2.75060968508803,-2.75060968508714,0.820247396461786,NaN,NaN,NaN,2.33511478557579,-0.819170313275973,-2.54444853362954,0.180770068614217,0.18077006861296,0.270378339244316,-0.270378339244803,-0.389121852253316
599.3472,1.99220731404672,-2.14155607637679,0.136287941294701,-0.526307928849475,1.53998367106689,1.5399836710672,NaN,1.27477779725058,0.353616520078384,-1.03814740143699,NaN,-1.62033658518717,2.40647156151512,-0.0262187826701694,1.99133027572258,1.38146934795256,-2.40653149196154,-1.23644525172018,-0.138844777263736,3.0106766783965,-0.138844777263395,-0.543046412050201,1.41069102973578,NaN,NaN,-2.3370050591432,-0.0477047428338765,NaN,-2.14967988826982,1.33787550529701,-1.18368287288139,2.28226875032187,1.05510112885455,NaN,0.482937389917994,-1.80933380785783,0.59323426470852,-2.73670026668698,-2.73670026668608,0.848336211077541,NaN,NaN,NaN,2.34351726397188,-0.786874554140724,-2.53308352996812,0.211353574404542,0.211353574403291,0.285967547388561,-0.285967547389044,-0.404002137801095
599.4496,1.9477128404126,-2.10311391114121,0.123135985492426,-0.516820312510283,1.54150544142802,1.54150544142832,NaN,1.26780498888953,0.353960712824726,-1.02337497726074,NaN,-1.58103799895335,2.43291971375982,-0.00174632336968911,2.02621113163145,1.37248256877177,-2.39765343686369,-1.23619684025626,-0.119180696078887,2.9890388648138,-0.119180696078551,-0.542607319123644,1.40037028879964,NaN,NaN,-2.32601574770828,-0.0569822729199679,NaN,-2.12354862468672,1.31403701669791,-1.16655191204101,2.26102281108678,1.05552173542569,NaN,0.470114027547443,-1.80568581978463,0.593000626864017,-2.72184043414927,-2.72184043414838,0.875991041306905,NaN,NaN,NaN,2.34998744110252,-0.755437693263695,-2.52088953645108,0.242091345746576,0.242091345745331,0.301382944490587,-0.301382944491067,-0.419392316450804
599.552,1.90129135964958,-2.06242348206278,0.110042560238696,-0.506849937722089,1.54305314693473,1.54305314693504,NaN,1.26066687838991,0.353977233444952,-1.01013358675678,NaN,-1.54290154385949,2.45858752566069,0.0223020871670384,2.06021924545151,1.36445230612987,-2.38969508531461,-1.23594583648534,-0.0994658908776814,2.9660720547883,-0.0994658908773475,-0.540888984998318,1.38866779154036,NaN,NaN,-2.31438500416003,-0.0664262772662206,NaN,-2.09722548228245,1.28970550023259,-1.14794062207515,2.23822675444182,1.05635921986476,NaN,0.456298900465339,-1.80158888035046,0.593161336449094,-2.70603465859308,-2.70603465859218,0.903145377254982,NaN,NaN,NaN,2.35448779248119,-0.724924595201936,-2.50790803332802,0.272881990578539,0.272881990577303,0.316630239059216,-0.316630239059692,-0.435259389721538
599.6544,1.85304106919452,-2.01964875623309,0.096951494536027,-0.496448475599097,1.5446447503567,1.544644750357,NaN,1.25336111191832,0.353652368274541,-0.99836254104956,NaN,-1.50591457922827,2.48348393878885,0.0459163774203418,2.09335678146448,1.35746123183438,-2.38266383951749,-1.23560910030234,-0.0797652367703662,2.94186938365146,-0.0797652367700342,-0.537878803895819,1.37557557034791,NaN,NaN,-2.30215601569356,-0.0760129294613633,NaN,-2.07075252050145,1.26491599582037,-1.12790464473002,2.21396171200172,1.05762835928078,NaN,0.441503317589984,-1.79703610718775,0.593714086082919,-2.68928852448095,-2.68928852448004,0.929734026047085,NaN,NaN,NaN,2.35698441924919,-0.695394112808188,-2.49417981438289,0.303624184276681,0.303624184275453,0.331716596492689,-0.33171659649316,-0.451568814902478
599.7568,1.80306404717453,-1.97495801755821,0.0838067265257131,-0.485670496726419,1.5462986290935,1.54629862909379,NaN,1.24588578447484,0.352972912168113,-0.987992023572043,NaN,-1.47005448658154,2.50762101718307,0.0690889999321132,2.12562983033709,1.35158656577844,-2.37655950110742,-1.23510079363549,-0.0601450619787051,2.91652436599686,-0.0601450619783809,-0.533565226915895,1.36108713810181,NaN,NaN,-2.28937293414152,-0.0857150879961278,NaN,-2.04417235072962,1.23970439999738,-1.10650321381951,2.18831226228061,1.05934250044979,NaN,0.425740428023284,-1.7920205246907,0.594656549548242,-2.67160874305366,-2.67160874305275,0.955693282631331,NaN,NaN,NaN,2.35744709042054,-0.666898988625671,-2.47974487858517,0.334217241552657,0.334217241551433,0.346650561938034,-0.346650561938502,-0.468284657864964
599.8592,1.75146554142222,-1.92852295169914,0.0705524171899106,-0.474573401804649,1.54803339788615,1.54803339788645,NaN,1.23823944121253,0.351926234446631,-0.978943681104848,NaN,-1.43528898077241,2.53101387313714,0.0918149075062793,2.15704833479562,1.34689960350482,-2.37137446631363,-1.23433312869033,-0.0406728597940564,2.89013043921163,-0.0406728597937391,-0.527937838482045,1.34519757861671,NaN,NaN,-2.27608052967262,-0.0955023192797274,NaN,-2.0175279471047,1.21410732511111,-1.08379887291873,2.1613661023495,1.06151359574037,NaN,0.40902515309185,-1.78653512653901,0.595986409741274,-2.65300317208614,-2.65300317208523,0.980961079136549,NaN,NaN,NaN,2.35584924685817,-0.639485832008377,-2.46464234076453,0.364561700277599,0.364561700276382,0.361442000526857,-0.361442000527322,-0.485369767547958
599.9616,1.69835323312671,-1.88051773550088,0.0571330281283371,-0.463217329801805,1.54986769019398,1.54986769019427,NaN,1.23042105552754,0.350500341180215,-0.971131349354546,NaN,-1.40157652253445,2.55368055883124,0.114091514062586,2.18762597878698,1.34346526474566,-2.36709399194897,-1.23321717440483,-0.0214169737199568,2.86278050865291,-0.0214169737196483,-0.520987460830782,1.3279036617084,NaN,NaN,-2.26232381321428,-0.105340957275157,NaN,-1.9908624233672,1.18816194569213,-1.0598571697712,2.13321369340928,1.06415224333284,NaN,0.39137412030262,-1.78057290955284,0.597701389830257,-2.6334808480717,-2.63348084807078,1.00547711726503,NaN,NaN,NaN,2.35216796388492,-0.613195169154631,-2.44891035188123,0.394559926352589,0.394559926351381,0.376102051920992,-0.376102051921453,-0.502785961387072
600.064,1.6438364876018,-1.83111813843607,0.0434933706065798,-0.451665035269838,1.55181990298882,1.55181990298911,NaN,1.222429997908,0.348683941636803,-0.964461882704128,NaN,-1.36886683032217,2.57564191893728,0.135918642443518,2.21738003727547,1.34134166193496,-2.36369652622618,-1.23166371532609,-0.00244626552899977,2.83456650583536,-0.00244626552870166,-0.512706289509652,1.30920398510452,NaN,NaN,-2.24814764460274,-0.115194203607939,NaN,-1.96421878424835,1.16190583452259,-1.0347463304397,2.10394788120596,1.06726772788833,NaN,0.372805595625652,-1.77412688041491,0.599799288741754,-2.61305202988146,-2.61305202988054,1.02918298884032,NaN,NaN,NaN,2.34638387846667,-0.588061554299618,-2.43258601465668,0.424116743655956,0.424116743654761,0.390643090194736,-0.390643090195193,-0.52049421156019
600.1664,1.58802560459455,-1.78050064241157,0.0295786342691208,-0.439981721201344,1.55390791480562,1.55390791480591,NaN,1.21426600692044,0.346466528041686,-0.958836052185972,NaN,-1.33710148970381,2.59692140151833,0.157298462569416,2.24633118622421,1.34057969412048,-2.3611540966058,-1.2295841479262,0.0161702255839416,2.80557896982071,0.0161702255842277,-0.503088053282312,1.28909913697636,NaN,NaN,-2.23359634800752,-0.125022264886084,NaN,-1.93763965994075,1.1353767891463,-1.00853691835995,2.07366349239554,1.07086805449606,NaN,0.353339409749482,-1.76719004297798,0.602278017865002,-2.59172824940586,-2.59172824940495,1.0520222889217,NaN,NaN,NaN,2.33848109609305,-0.564113724426699,-2.41570528049721,0.453140084811146,0.453140084809957,0.405078682789339,-0.405078682789793,-0.538454824267501
600.2688,1.53103107537989,-1.72884158314003,0.0153344009519798,-0.428234817628247,1.55614878781107,1.55614878781134,NaN,1.20592916320744,0.343838469222237,-0.954149486412749,NaN,-1.30621465598941,2.61754482859852,0.178235423888489,2.2745032759795,1.34122267338316,-2.35943274709425,-1.22689139775667,0.0343636298400026,2.77590665776167,0.0343636298402769,-0.492128185626812,1.26759186793048,NaN,NaN,-2.2187133514103,-0.134782519000749,NaN,-1.91116702801415,1.10861265134986,-0.981301483596388,2.04245690744997,1.07495996780546,NaN,0.332996876431305,-1.7597553767614,0.605135633491988,-2.56952236570314,-2.56952236570223,1.07394072329098,NaN,NaN,NaN,2.32844709441386,-0.541374781582181,-2.39830282271372,0.481541652036504,0.481541652035321,0.419423545053313,-0.419423545053764,-0.556627605607702
600.3712,1.47296285418425,-1.67631631611358,0.000706649570891918,-0.416493703306017,1.55855846675994,1.55855846676021,NaN,1.19741986637686,0.340791115258431,-0.950293642583702,NaN,-1.27613384111627,2.6375401269982,0.198736185160233,2.30192307014829,1.34330598513292,-2.35849301389269,-1.22350084315703,0.0520655974059514,2.74563618755246,0.0520655974062156,-0.479823994956287,1.2446872594982,NaN,NaN,-2.20354085785512,-0.144429702973776,NaN,-1.8848419242975,1.08165112691269,-0.953114203427976,2.01042561230608,1.07954895738485,NaN,0.311800707179283,-1.75181581581024,0.608370358666218,-2.54644861755911,-2.54644861755821,1.09488620919692,NaN,NaN,NaN,2.3162726339772,-0.51986239175433,-2.38041189484132,0.50923757179242,0.509237571791241,0.433693486330302,-0.43369348633075,-0.574972012981582
600.4736,1.41392965733319,-1.62309841037717,-0.0143582349375699,-0.404829374444292,1.56115149062353,1.56115149062379,NaN,1.18873881987158,0.337316911760626,-0.947156799358611,NaN,-1.24678077133209,2.65693701954592,0.218809541263714,2.32861994989994,1.34685677991168,-2.35829042178401,-1.21933122788629,0.0692086478813152,2.71485171420956,0.0692086478815645,-0.466174825635519,1.22039288039792,NaN,NaN,-2.1881195490139,-0.153916120129674,NaN,-1.85870414721658,1.05452961206597,-0.924050514130761,1.97766773540561,1.08463925838162,NaN,0.289774933184535,-1.74336423363316,0.611980589804968,-2.52252267008414,-2.52252267008324,1.11480896782344,NaN,NaN,NaN,2.30195167885729,-0.499588992479284,-2.36206419083546,0.536149021011816,0.536149021010641,0.447905348244431,-0.447905348244876,-0.593447298842357
600.576,1.35403830791117,-1.56935887382132,-0.0299134308215554,-0.393314067929717,1.56394073173526,1.56394073173552,NaN,1.17988702804584,0.33340952269867,-0.944625062475994,NaN,-1.21807230084091,2.67576667938817,0.23846634537935,2.35462558509244,1.35189369386208,-2.35877598108126,-1.21430554261966,0.085726514099274,2.68363464018546,0.085726514099511,-0.451182213011005,1.19471893496683,NaN,NaN,-2.17248831943449,-0.163191870581505,NaN,-1.83279196489342,1.02728502853425,-0.894186739181769,1.94428158019402,1.0902338521332,NaN,0.266944847003746,-1.73439343626361,0.615964886909028,-2.49776165767369,-2.49776165767281,1.13366160844977,NaN,NaN,NaN,2.2854813291695,-0.480562002899261,-2.34328972126198,0.562202802062984,0.562202802061811,0.462076942983753,-0.462076942984196,-0.612012654086653
600.6784,1.29339314270286,-1.51526541704499,-0.0460116139011954,-0.382020843927811,1.56693717173276,1.56693717173301,NaN,1.17086580510709,0.329063961018001,-0.942583373136793,NaN,-1.18992136697045,2.69406135093266,0.257719428818658,2.37997357636319,1.35842659429666,-2.35989667133059,-1.20835186338282,0.101554478233534,2.65206335967171,0.101554478233761,-0.43485004631845,1.16767841867451,NaN,NaN,-2.15668404074453,-0.172205112492015,NaN,-1.80714183484989,0.999953670664881,-0.863599722521019,1.910365161836,1.09633446391592,NaN,0.243336971902655,-1.72489616165839,0.620321948801483,-2.47218422766789,-2.47218422766701,1.15139920349767,NaN,NaN,NaN,2.26686176977147,-0.462784033421247,-2.32411671301642,0.587331849968274,0.587331849967104,0.476226996937374,-0.476226996937813,-0.630627350653372
600.7808,1.23209549277478,-1.46098176616362,-0.0627048543845373,-0.371023130127561,1.57014971745735,1.5701497174576,NaN,1.16167679212551,0.324276724573535,-0.940916510055644,NaN,-1.1622379711627,2.71185394242468,0.27658352322741,2.40469907482973,1.36645634946012,-2.36159590945196,-1.20140414526448,0.116629699165525,2.62021303840067,0.116629699165741,-0.41718475083765,1.13928728994142,NaN,NaN,-2.14074135540475,-0.180902357281945,NaN,-1.78178814324947,0.972571072963691,-0.832366472776291,1.87601575356502,1.10294155514912,NaN,0.218979059738291,-1.71486508218035,0.625050576391414,-2.44581058321806,-2.44581058321719,1.16797935213007,NaN,NaN,NaN,2.24609623850967,-0.446253098108346,-2.30457153806165,0.611475663313896,0.611475663312729,0.490375094413804,-0.490375094414241,-0.649250878011151
600.8832,1.17024324252422,-1.40666703400705,-0.0800444803642242,-0.360394232973615,1.57358505564469,1.57358505564493,NaN,1.1523219750274,0.319045930148101,-0.939510076623266,NaN,-1.13493016945218,2.72917760025046,0.295075185248485,2.42883838785629,1.37597462533729,-2.36381400452713,-1.19340297078645,0.130891528253346,2.58815542975435,0.130891528253553,-0.398195489681554,1.10956465485455,NaN,NaN,-2.12469249810409,-0.18922879212722,NaN,-1.75676296847556,0.945171905456457,-0.800563820525352,1.84132944607926,1.11005431112149,NaN,0.193900113111407,-1.70429280887804,0.630149627201867,-2.41866252302496,-2.4186625230241,1.18336223400905,NaN,NaN,NaN,2.22319101556777,-0.430962835661529,-2.28467867734496,0.634580658002323,0.634580658001157,0.504541611742335,-0.504541611742768,-0.667843070902343
600.9856,1.10793046632331,-1.35247515411065,-0.0980809138051042,-0.350206823932071,1.57724754079228,1.57724754079253,NaN,1.14280369687485,0.313371438782606,-0.938251463643708,NaN,-1.10790505944593,2.74606527684127,0.313212717774915,2.45242857769879,1.38696371182296,-2.36648859625919,-1.18429624694035,0.144281810646925,2.55595872442194,0.144281810647123,-0.377894382444221,1.07853296007299,NaN,NaN,-2.10856714181279,-0.197128619590762,NaN,-1.7320958719929,0.917789898567579,-0.768268088879291,1.80640072179976,1.11767062618164,NaN,0.168130426631447,-1.69317189624618,0.635617962414707,-2.39076348346511,-2.39076348346425,1.19751066159394,NaN,NaN,NaN,2.19815543621555,-0.416902740727872,-2.26446072262767,0.656600449729705,0.656600449728546,0.518747640480712,-0.518747640481142,-0.686364230128408
601.088,1.04524713722532,-1.2985543771531,-0.116863485432251,-0.340532407158075,1.58113910752327,1.58113910752352,NaN,1.13312466374085,0.307254972255848,-0.937030776652886,NaN,-1.08106975547013,2.76254929932281,0.331016082389179,2.4755070561451,1.3993963813561,-2.36955507307625,-1.17403984281932,0.156745172859467,2.52368742828098,0.156745172859656,-0.356296742099138,1.0462181950156,NaN,NaN,-2.09239226630898,-0.20454540905402,NaN,-1.7078137152347,0.890457792086749,-0.735554777707232,1.77132204412107,1.12578708602986,NaN,0.141701642506217,-1.68149484209835,0.641454385996717,-2.36213859050291,-2.36213859050206,1.21039014048839,NaN,NaN,NaN,2.17100193064098,-0.404058400888331,-2.24393841384451,0.677496073871151,0.677496073870001,0.533014906999586,-0.533014907000014,-0.704775239526311
601.1904,0.982278899152833,-1.24504682714126,-0.136440236130659,-0.331440773662598,1.58525920246345,1.5852592024637,NaN,1.12328794736562,0.300700222769743,-0.935741717836179,NaN,-1.05433234449465,2.77866094165095,0.348506804281578,2.49811117811285,1.41323578788855,-2.372946974748,-1.16259816471942,0.168229298598975,2.4914022635465,0.168229298599157,-0.333421330824985,1.01265010182757,NaN,NaN,-2.07619204734171,-0.211422455385215,NaN,-1.6839404972825,0.863207296971239,-0.702498262271192,1.73618346075294,1.13439894462248,NaN,0.114646813660419,-1.66925407497386,0.647657576876039,-2.33281471795239,-2.33281471795154,1.22196894268659,NaN,NaN,NaN,2.14174609170821,-0.392411730995503,-2.22313070917051,0.697236151135978,0.697236151134832,0.547365691956523,-0.547365691956949,-0.723037680260363
601.2928,0.919106892740093,-1.19208811098619,-0.156857710060557,-0.322999447096463,1.58960473873047,1.58960473873071,NaN,1.11329698559665,0.293712953758682,-0.934282417451421,NaN,-1.02760281295327,2.79443000330005,0.365707877504545,2.52027784088319,1.42843541541873,-2.37659638953691,-1.1499446700044,0.178685190382644,2.45916009015059,0.178685190382817,-0.309290627600645,0.97786238164702,NaN,NaN,-2.05998776422062,-0.217703135421477,NaN,-1.66049720802021,0.836069059048179,-0.669171506355985,1.70107221974502,1.14350009367157,NaN,0.0870004673471668,-1.65644192450291,0.654226017981809,-2.30282053905395,-2.30282053905312,1.23221819304101,NaN,NaN,NaN,2.11040676164956,-0.38194119652925,-2.20205488574059,0.715797004150187,0.715797004149046,0.561822746021256,-0.56182274602168,-0.741113939976352
601.3952,0.85580762434757,-1.13980696985175,-0.178160739827383,-0.31527312453434,1.59417007923531,1.59417007923556,NaN,1.10315557931241,0.286301087011365,-0.932556213473771,NaN,-1.00079393552155,2.80988439922173,0.382643679137095,2.5420430974016,1.44493908199878,-2.38043435070586,-1.13606231872954,0.188067410021406,2.42701384584838,0.188067410021572,-0.283931092717393,0.941892880159161,NaN,NaN,-2.043797725645,-0.223331255115407,NaN,-1.63750169305263,0.809072619254738,-0.635645789002439,1.66607239674156,1.15308302429998,NaN,0.0587986672692217,-1.64305057573104,0.661157927550881,-2.27218655959066,-2.27218655958983,1.24111196772575,NaN,NaN,NaN,2.07700612084622,-0.372622021497826,-2.18072666683004,0.733162722607249,0.733162722606113,0.5764091985366,-0.576409198537021,-0.758967312429475
601.4976,0.792452868687182,-1.08832496171456,-0.200392224056256,-0.308323113979611,1.59894705050526,1.59894705050552,NaN,1.09286788422688,0.278474771778725,-0.930472376538101,NaN,-0.97382212349373,2.82504976508727,0.399339896688715,2.56344178926168,1.46268100288182,-2.38439123339262,-1.12094396012177,0.196334293510515,2.39501250349546,0.196334293510673,-0.257373413059586,0.904783738638782,NaN,NaN,-2.02763721652962,-0.228251388911495,NaN,-1.61496852785551,0.78224637084058,-0.601990444397185,1.63126453284298,1.1631387807706,NaN,0.030079075150308,-1.62907201269358,0.668451197184224,-2.24094512527347,-2.24094512527265,1.24862740403503,NaN,NaN,NaN,2.04156976728029,-0.364426382702779,-2.15916037111822,0.749325167824181,0.749325167823052,0.591148456344603,-0.591148456345023,-0.776562084530247
601.6,0.729109600493043,-1.03775617424455,-0.223592902007715,-0.302206771434573,1.60392498153797,1.60392498153823,NaN,1.08243839430293,0.270246432541819,-0.927946774009049,NaN,-0.946608233762983,2.83994908025963,0.41582346916161,2.58450720162977,1.48158591705243,-2.38839715548896,-1.10459265339594,0.203448142926445,2.36320104287014,0.203448142926599,-0.229652718209953,0.866581504993844,NaN,NaN,-2.01151846802263,-0.232409215056951,NaN,-1.59290890057237,0.755617518985279,-0.568272615874695,1.5967252839102,1.17365690580125,NaN,0.000881008544733184,-1.61449795712312,0.676103337545245,-2.20913039841701,-2.2091303984162,1.25474482148373,NaN,NaN,NaN,2.00412678644396,-0.357323596422458,-2.1373690823822,0.764283908457558,0.764283908456433,0.606064085890148,-0.606064085890568,-0.79386361027178
601.7024,0.665839956720569,-0.98820697376608,-0.247801129619048,-0.296976942979751,1.60909075728136,1.60909075728162,NaN,1.07187191242716,0.261630794316523,-0.924902466706362,NaN,-0.919078334713596,2.85460231154576,0.432122540206045,2.60527074183079,1.50156928228797,-2.39238238583811,-1.08702192101214,0.209375401780338,2.33162043418966,0.209375401780485,-0.200808767294633,0.827337208468788,NaN,NaN,-1.99545064993512,-0.235751848294111,NaN,-1.57133050451287,0.729212050268218,-0.534557025248918,1.56252708259954,1.18462537713975,NaN,-0.0287545112963932,-1.59931980561573,0.684111429240757,-2.17677830313879,-2.17677830313798,1.25944785371551,NaN,NaN,NaN,1.96470981550705,-0.351280301816932,-2.11536483768738,0.778046085920522,0.778046085919404,0.621179674519013,-0.621179674519432,-0.810838371106806
601.8048,0.602701232086524,-0.939775791685854,-0.273052655015895,-0.292681420324425,1.61442887792786,1.61442887792813,NaN,1.06117350745195,0.252644886702177,-0.921270233647682,NaN,-0.891164418898124,2.86902608422913,0.44826641899645,2.62576164471636,1.52253754230508,-2.39627775649797,-1.06825592669192,0.214086817900862,2.3003076325621,0.214086817901004,-0.170886113951156,0.787106407979267,NaN,NaN,-1.97943988395204,-0.238228173219452,NaN,-1.55023744192852,0.703054714623533,-0.500905757096257,1.52873781360235,1.19603053666451,NaN,-0.0587847238052013,-1.58352856563225,0.692472076815479,-2.14392644559725,-2.14392644559644,1.26272358956273,NaN,NaN,NaN,1.92335510443927,-0.346260638828097,-2.0931588300233,0.790626212008763,0.790626212007647,0.636518681055261,-0.63651868105568,-0.827454020221556
601.9072,0.539745907255578,-0.892552942556198,-0.299380388066589,-0.289362420201906,1.61992152214807,1.61992152214834,NaN,1.05034846151461,0.243308027413851,-0.916989022244123,NaN,-0.862805049356178,2.88323339048309,0.464285540490658,2.64600670885505,1.54438846434872,-2.40001507083297,-1.04832957054069,0.217557593261827,2.26929558654553,0.217557593261962,-0.139934257949299,0.745949224508859,NaN,NaN,-1.96348927779545,-0.239789182410294,NaN,-1.52963014165672,0.67716901602657,-0.467378056332312,1.49542050294422,1.20785701592662,NaN,-0.0891651034149114,-1.56711478953533,0.701181366602291,-2.1106140211608,-2.11061402115999,1.26456272093729,NaN,NaN,NaN,1.88010257448555,-0.342226413912072,-2.0707616231257,0.802045900140395,0.802045900139284,0.65210429472862,-0.652104294729038,-0.843679408026687
602.0096,0.477021705571333,-0.846620467398642,-0.326814162143687,-0.287056095327547,1.62554861731776,1.62554861731803,NaN,1.03940221291313,0.233641786395172,-0.912006321675266,NaN,-0.833945927416115,2.89723334370021,0.480211416370219,2.6660300660894,1.56701154002914,-2.40352750109268,-1.02728850195746,0.219767517435502,2.23861326696017,0.219767517435633,-0.108007786823129,0.703930362678429,NaN,NaN,-1.94759898038921,-0.240388319798498,NaN,-1.50950529334304,0.651577207885276,-0.434030138752845,1.46263302452007,1.22008766291479,NaN,-0.119849340700467,-1.55006850721094,0.710234830637668,-2.07688171853911,-2.0768817185383,1.26495969583726,NaN,NaN,NaN,1.83499586961923,-0.339137249358988,-2.04818338042495,0.812333532249427,0.81233353224832,0.667959312199512,-0.66795931219993,-0.859484589251392
602.112,0.414571675384237,-0.802052000863074,-0.355380490171814,-0.285792079613329,1.63128791962707,1.63128791962733,NaN,1.02834029829946,0.223669935681063,-0.906278453452228,NaN,-0.804540373497658,2.91103098078361,0.496076573967531,2.68585298475019,1.59028844137015,-2.40674997326745,-1.00518905670083,0.220701081053471,2.20828572156992,0.220701081053595,-0.0751665027586034,0.661119118869215,NaN,NaN,-1.93176625361574,-0.239981826563487,NaN,-1.48985579930856,0.626300291239391,-0.400915015960828,1.43042782814955,1.23270347336528,NaN,-0.15078932847063,-1.53237916067475,0.719627416744839,-2.04277162181589,-2.04277162181509,1.26391287618335,NaN,NaN,NaN,1.78808239287379,-0.336950717272568,-2.02543411293909,0.821523866202555,0.821523866201452,0.684106027005382,-0.6841060270058,-0.874840815435729
602.2144,0.352434299262246,-0.75891266712686,-0.385102318666266,-0.285593070393045,1.63711510418813,1.63711510418839,NaN,1.01716829561131,0.21341839153598,-0.899770768306677,NaN,-0.774549714940078,2.92462711169405,0.511914485889518,2.70549370736183,1.61409352737586,-2.40961953530001,-0.982098118803217,0.220347568358175,2.17833415699921,0.220347568358289,-0.041475523300757,0.617589366920675,NaN,NaN,-1.91598555366637,-0.238529082467826,NaN,-1.47067074561935,0.601358012004971,-0.368082335003735,1.39885169197613,1.24568352983226,NaN,-0.181935154797393,-1.51403554619045,0.729353458326431,-2.00832710272652,-2.00832710272571,1.26142470117054,NaN,NaN,NaN,1.73941332011874,-0.335622463606579,-2.00252395094012,0.829657588337573,0.829657588336476,0.700566122587089,-0.700566122587507,-0.889720519144539
602.3168,0.29064363364404,-0.717259016343203,-0.415998788113747,-0.286474456917197,1.64300386320028,1.64300386320054,NaN,1.00589176820189,0.202915151932472,-0.892457739386705,NaN,-0.743943575857718,2.9380182196291,0.52775949069614,2.72496732584001,1.63829439908119,-2.41207569763069,-0.958092896911526,0.2187011324146,2.14877604433056,0.218701132414706,-0.00700534027370533,0.573419509387212,NaN,NaN,-1.90024861996294,-0.235992928222398,NaN,-1.45193539770527,0.576768851666666,-0.335578233322433,1.36794550352677,1.25900495325924,NaN,-0.213235111122667,-1.49502577106369,0.739406631048495,-1.97359269547047,-1.97359269546966,1.25750185457009,NaN,NaN,NaN,1.68904358695383,-0.33510633409897,-1.97946343622834,0.836780818213429,0.836780818212337,0.7173605656226,-0.717360565623018,-0.904097298733992
602.4192,0.22922948082605,-0.677139017046622,-0.448085013966737,-0.288444009445981,1.64892601116124,1.6489260111615,NaN,0.994516212046125,0.192190231108531,-0.884322950588684,NaN,-0.712700067913935,2.95119641717599,0.543646699955493,2.744285696177,1.66275250184048,-2.4140607319864,-0.933260600228918,0.215760856307849,2.11962524377791,0.215760856307947,0.0281681803526703,0.528692383435119,NaN,NaN,-1.88454457629021,-0.232339953110601,NaN,-1.43363122794878,0.552550009338706,-0.303445215437388,1.33774408044275,1.27264287094291,NaN,-0.244635725147113,-1.47533723447825,0.749779886805858,-1.93861395487384,-1.93861395487302,1.25215542651985,NaN,NaN,NaN,1.63703184860168,-0.335354521222847,-1.95626381570834,0.842944583382657,0.842944583381571,0.734509497754878,-0.734509497755296,-0.917945913348778
602.5216,0.168217589691469,-0.638592113011329,-0.481371901802,-0.291501640508883,1.65485159844795,1.6548515984482,NaN,0.983047007237014,0.181275593530526,-0.875358989471015,NaN,-0.680805886883348,2.96414945732316,0.559611886171234,2.76345738879675,1.68732377398104,-2.41551992092416,-0.907698006411409,0.211530798081371,2.09089214587786,0.211530798081461,0.0639638716464792,0.483495114649698,NaN,NaN,-1.86886004994072,-0.2275407420098,NaN,-1.41573597907421,0.528717377788523,-0.271722062153815,1.30827604444839,1.28657040088482,NaN,-0.276081823409835,-1.45495664064508,0.760465367566894,-1.90343730666877,-1.90343730666794,1.24540105005082,NaN,NaN,NaN,1.58344041749554,-0.336317749159285,-1.93293730642408,0.848204288713148,0.848204288712073,0.752032121670236,-0.752032121670654,-0.931242293408202
602.624,0.107629876423908,-0.601649338920041,-0.515866001303012,-0.295639243621471,1.66074903682459,1.66074903682484,NaN,0.971489370484601,0.170205086091592,-0.865567257768182,NaN,-0.648256321636048,2.97686079017843,0.575691348365602,2.78248766526591,1.71185933986888,-2.41640176036478,-0.881510926155817,0.206020014139689,2.06258382767792,0.20602001413977,0.100295419477471,0.437918915186875,NaN,NaN,-1.85317931337458,-0.221570085857701,NaN,-1.39822376154234,0.505285516487848,-0.240443779828736,1.27956375593871,1.30075864971767,NaN,-0.307516624806583,-1.43387004593176,0.7714543108087,-1.86810989766348,-1.86810989766266,1.23725898829989,NaN,NaN,NaN,1.52833518627347,-0.337945498322653,-1.9094973088363,0.85261919675386,0.852619196752798,0.769946577930356,-0.769946577930775,-0.943963564187772
602.7264,0.0474846582691705,-0.566333481183196,-0.551569392861451,-0.30084061112325,1.6665852424089,1.66658524240915,NaN,0.959848304061858,0.15901436240591,-0.854957708725271,NaN,-0.615055179947528,2.98930965655986,0.591921754656352,2.80137847365304,1.73620624392762,-2.41665812204321,-0.854813576280718,0.199242556574506,2.03470422351357,0.199242556574574,0.137071599924494,0.392058823335026,NaN,NaN,-1.83748445327471,-0.214407159031323,NaN,-1.38106518191808,0.482267623872714,-0.209641591331857,1.25162331027114,1.31517672291604,NaN,-0.338881864923548,-1.41206293644008,0.78273695825442,-1.83267944851908,-1.83267944851825,1.22775415556538,NaN,NaN,NaN,1.47178554157216,-0.34018625298192,-1.88595856414039,0.856251920282682,0.85625192028163,0.788269811278531,-0.78826981127895,-0.956088077126782
602.8288,-0.0122031003742599,-0.532659273304582,-0.588479596262217,-0.30708143085447,1.67232580020354,1.67232580020379,NaN,0.948128541806287,0.147740792313748,-0.843548516378502,NaN,-0.581214636504219,3.00147121798569,0.60833996100784,2.82012846171112,1.76020822347308,-2.41624438357253,-0.82772787252329,0.191217440328598,2.00725431192868,0.191217440328655,0.174196602113441,0.346013381075201,NaN,NaN,-1.82175557063848,-0.206035660859863,NaN,-1.36422750135961,0.459675512215218,-0.179342967273759,1.22446459582886,1.3297917497724,NaN,-0.370117947097608,-1.3895203335367,0.794302475227799,-1.79719410996282,-1.79719410996199,1.21691607080993,NaN,NaN,NaN,1.41386426659373,-0.342987749259715,-1.86233726943935,0.85916791809149,0.85916791809045,0.807017426244797,-0.807017426245215,-0.96759544875801
602.9312,-0.0714215284841952,-0.500633621774427,-0.626589495835321,-0.314329360687827,1.67793514969187,1.6779351496921,NaN,0.936334497643144,0.136423351772392,-0.831365680869621,NaN,-0.546755013708931,3.01331672944947,0.624982801551628,2.83873301078767,1.78370651932038,-2.41511953175999,-0.800382649693954,0.181968577215016,1.9802323187569,0.181968577215061,0.211570439072904,0.29988424420772,NaN,NaN,-1.80597101038258,-0.196443913393571,NaN,-1.34767482374082,0.437519587125514,-0.149571694746547,1.19809141344017,1.34456892720143,NaN,-0.401164112832716,-1.36622692714699,0.806138884308393,-1.76170232153991,-1.76170232153908,1.20477875567509,NaN,NaN,NaN,1.3546474248721,-0.346297208747141,-1.8386511705476,0.861434984236003,0.861434984234975,0.826203532681493,-0.826203532681911,-0.978466614015174
603.0336,-0.130161578841358,-0.47025586019703,-0.66588728362436,-0.32254418135945,1.68337678966864,1.68337678966887,NaN,0.924470221492521,0.12510249010733,-0.818442574454728,NaN,-0.511704507939594,3.02481375981745,0.641886845547626,2.8571842919058,1.80654072163267,-2.41324623964735,-0.772912812537744,0.171524675675927,1.95363393233783,0.171524675675961,0.249089447788288,0.253775719988284,NaN,NaN,-1.7901076148039,-0.185624906154326,NaN,-1.33136831185466,0.415808826415571,-0.120347978323235,1.1725016523819,1.35947158482379,NaN,-0.431958627079655,-1.34216723568306,0.818233015193928,-1.72625266873484,-1.726252668734,1.19138059103028,NaN,NaN,NaN,1.29421421855296,-0.350061554684547,-1.81491964292166,0.863122723428012,0.863122723426995,0.845840585965256,-0.845840585965674,-0.988683899173191
603.136,-0.188416756110411,-0.441518025685719,-0.706356423655197,-0.331678028103073,1.68861350484031,1.68861350484053,NaN,0.912539363525996,0.113819972598101,-0.804819433173772,NaN,-0.476098868056276,3.03592645907083,0.659088123753511,2.87547134482109,1.82854964845703,-2.41059091368208,-0.745458416001401,0.159919104969665,1.9274525264376,0.159919104969688,0.286646874686307,0.207794232108836,NaN,NaN,-1.77414099629993,-0.173576283458582,NaN,-1.31526643038473,0.394550746910757,-0.0916885655918049,1.14768751337902,1.37446127150731,NaN,-0.462438980494044,-1.317325788468,0.830570471901841,-1.69089373226102,-1.69089373226017,1.17676413661575,NaN,NaN,NaN,1.23264681715482,-0.354227612758745,-1.79116375518161,0.864302004669161,0.864302004668154,0.865939231595848,-0.865939231596265,-0.998231111641745
603.2384,-0.246182849653251,-0.414405149291394,-0.747975637115743,-0.341675698683687,1.69360762031152,1.69360762031173,NaN,0.900545144118364,0.102618695876588,-0.790542799448252,NaN,-0.439981023954974,3.04661587003306,0.676621834532285,2.89358018350967,1.84957225405816,-2.40712370439879,-0.718163670494072,0.147189721787135,1.90167938919157,0.147189721787146,0.324133544608611,0.162047711769622,NaN,NaN,-1.75804582858497,-0.16030027717322,NaN,-1.29932521394991,0.373751348305908,-0.0636068905818991,1.12363576971187,1.38949786266226,NaN,-0.492542116695809,-1.29168732292005,0.843135618471483,-1.65567392113173,-1.65567392113088,1.16097590776741,NaN,NaN,NaN,1.17003015218441,-0.358742296499465,-1.76740630151156,0.865044385817128,0.865044385816133,0.886508162412256,-0.886508162412672,-1.00709364173226
603.3408,-0.303457674768916,-0.388895554779699,-0.790718906854502,-0.352475032286757,1.69832128641185,1.69832128641206,NaN,0.888490325148935,0.0915424735276218,-0.775664923647189,NaN,-0.403400660606723,3.05684028328648,0.694522040636326,2.91149393274857,1.86944856067809,-2.40281847247016,-0.691175869842596,0.133378658244998,1.87630395837903,0.133378658245,0.361438621433516,0.116644905008974,NaN,NaN,-1.74179615830822,-0.145803590286618,NaN,-1.28349855508472,0.353415027402946,-0.0361132327997599,1.1003280625788,1.40453968698953,NaN,-0.522204694545966,-1.2652369856329,0.855911585412123,-1.62064127763977,-1.62064127763891,1.14406610006551,NaN,NaN,NaN,1.10645167064344,-0.363552773369407,-1.74367179481756,0.865421508869869,0.865421508868883,0.907553987652956,-0.907553987653372,-1.01525857707109
603.4432,-0.360240826335744,-0.364961163075029,-0.834555503183817,-0.364007352096308,1.70271678986285,1.70271678986304,NaN,0.876377178938084,0.0806357928106522,-0.760243136662693,NaN,-0.366413740361519,3.06655563244338,0.71282136483956,2.9291929977152,1.88802060682067,-2.39765270849585,-0.664644247715459,0.11853206968468,1.85131406467546,0.11853206968467,0.398450470555058,0.0716945858622311,NaN,NaN,-1.72536573786729,-0.13009723524699,NaN,-1.26773850356582,0.333544461715246,-0.0092148930136427,1.07774122984189,1.41954366960618,NaN,-0.551363390510064,-1.23796052682789,0.868880300167255,-1.58584324186898,-1.58584324186811,1.12608825590454,NaN,NaN,NaN,1.04200103992483,-0.368606606578691,-1.71998642482229,0.865504472019435,0.865504472018456,0.92908110375538,-0.929081103755798,-1.02271483294659
603.5456,-0.416533450002245,-0.3425678025826,-0.879450037524023,-0.376197964733003,1.70675688564553,1.70675688564572,NaN,0.864207453195657,0.0699435478562399,-0.744339205993407,NaN,-0.329081984739142,3.07571592448226,0.7315506888866,2.94665526454428,1.90513340733482,-2.39160741459025,-0.638718777026794,0.102699838547909,1.8266961850298,0.102699838547889,0.435057619589108,0.0273046785196082,NaN,NaN,-1.70872837373299,-0.113196330451459,NaN,-1.25199556993599,0.314140468239562,0.0170836139628454,1.05584766560298,1.4344654877348,NaN,-0.579955236722034,-1.20984448269331,0.882022543853245,-1.55132637075666,-1.55132637075578,1.1070988731846,NaN,NaN,NaN,0.976769800389301,-0.373851871099278,-1.69637799491075,0.865363183748185,0.865363183747216,0.951091556004079,-0.951091556004498,-1.02945329796129
603.648,-0.47233803060382,-0.321675532329813,-0.925362550966408,-0.388966710972253,1.71040514300647,1.71040514300665,NaN,0.851982333260231,0.0595107566136125,-0.728018684033794,NaN,-0.29147232828399,3.08427369826615,0.750738855506812,2.96385632597485,1.92063591609205,-2.38466695748868,-0.613548933704537,0.0859352329627411,1.80243570602393,0.0859352329627098,0.471149791905719,-0.0164186876724263,NaN,NaN,-1.6918582771322,-0.0951198599233542,NaN,-1.23621903146759,0.295201849723017,0.0427803534907538,1.03461570439149,1.44925973738209,NaN,-0.607917983657655,-1.18087634596585,0.895318032442028,-1.51713602069685,-1.51713602069596,1.08715696553946,NaN,NaN,NaN,0.910850972046685,-0.379237248729635,-1.67287585331919,0.86506570531799,0.865065705317033,0.973584889336537,-0.973584889336955,-1.03546698882762
603.7504,-0.52765818938757,-0.302238991010106,-0.972248641522981,-0.402228562850678,1.71362629232999,1.71362629233015,NaN,0.83970240679323,0.0493822707192906,-0.7113502526531,NaN,-0.253656353742575,3.09218050115286,0.7704123717288,2.9807697227542,1.93438197207229,-2.37681890011641,-0.589282454080719,0.0682945266920775,1.77851719251014,0.0682945266920358,0.506618967371704,-0.0593721465707459,NaN,NaN,-1.67473040186817,-0.0758904034916977,NaN,-1.22035724245761,0.27672524627422,0.0678757595452423,1.01401002193351,1.46388011240792,NaN,-0.635190474859298,-1.15104472718124,0.908745516389503,-1.48331601455828,-1.48331601455738,1.06632359433407,NaN,NaN,NaN,0.844338635510315,-0.384712113515222,-1.64951082777774,0.864677598156586,0.864677598155643,0.996557994812728,-0.996557994813147,-1.04075120423736
603.8528,-0.582498480563688,-0.284207781971518,-1.02005962925285,-0.415894263428133,1.71638655206113,1.71638655206128,NaN,0.827367639522745,0.0396024901392906,-0.694405065401906,NaN,-0.215709715409997,3.09938736923258,0.790595115628467,2.99736718986603,1.94623120469749,-2.36805381952202,-0.566064121777854,0.0498365943967687,1.75492465255182,0.0498365943967174,0.541360413053035,-0.101456032175531,NaN,NaN,-1.65732075555561,-0.0555338457193212,NaN,-1.20435794975734,0.258705013326675,0.0923724242755714,0.993992046018933,1.47827959891721,NaN,-0.661713020866991,-1.12033950701647,0.922282894352791,-1.44990831615491,-1.44990831615401,1.04466140049571,NaN,NaN,NaN,0.777327516313389,-0.390226622413038,-1.62631516346219,0.86426130370072,0.864261303699794,1.02000495545985,-1.02000495546027,-1.04530366609922
603.9552,-0.636864183415265,-0.267526893406317,-1.06874275384533,-0.429871006367447,1.7186539151034,1.71865391510354,NaN,0.814977370652273,0.0302150934962769,-0.677256087670502,NaN,-0.17771155608599,3.10584529533368,0.811308053376865,3.01361889797298,1.95604987879688,-2.35836512007502,-0.544034616075804,0.0306224988611194,1.73164178843358,0.0306224988610561,0.575273630025208,-0.142575235003292,NaN,NaN,-1.63960667368511,-0.0340790714325167,NaN,-1.18816861030515,0.241133142405304,0.116274892872879,0.974520374125579,1.49241068754403,NaN,-0.68742775882652,-1.08875197831809,0.93590734200962,-1.41695272849067,-1.41695272848975,1.02223416351053,NaN,NaN,NaN,0.709912601188023,-0.395731822642072,-1.60332245783722,0.863875583229501,0.863875583228588,1.04391688745305,-1.04391688745347,-1.04912463720202
604.0576,-0.690761090622915,-0.252137144552827,-1.11824139557069,-0.444063150231614,1.72039838371485,1.72039838371497,NaN,0.802530332091794,0.0212627884660822,-0.659977434265993,NaN,-0.139743920274204,3.11150567563897,0.83256897458143,3.0294936866379,1.96371167112993,-2.34774884652876,-0.523329436002144,0.0107150852165649,1.70865222728205,0.0107150852164885,0.608263182765873,-0.182639950249995,NaN,NaN,-1.62156705500878,-0.0115576558308064,NaN,-1.17173670444675,0.223999226239312,0.13958946289444,0.955551197717403,1.50622560209026,NaN,-0.712278987209674,-1.0562749792446,0.949595455941183,-1.38448662370159,-1.38448662370067,0.999106403862525,NaN,NaN,NaN,0.642188808468526,-0.401179776524645,-1.58056758439766,0.863575033302764,0.863575033301866,1.06828177234771,-1.06828177234812,-1.05221700760524
604.16,-0.744195292564432,-0.237975648967458,-1.16849530967656,-0.45837295957099,1.72159215383534,1.72159215383544,NaN,0.79002468976308,0.0127870792417868,-0.642643704130235,NaN,-0.101891163088521,3.11632073984787,0.854392252845579,3.04495929707133,1.96909838069893,-2.33620349707972,-0.504077897822759,-0.00982140885168197,1.68593973180162,-0.00982140885177312,0.640239402343016,-0.221566312554283,NaN,NaN,-1.60318256787006,0.0119964418166126,NaN,-1.15501004118844,0.207290455406276,0.162323980664395,0.937038736334889,1.51967653630296,NaN,-0.736213472531125,-1.02290302339754,0.963323405484129,-1.3525447081989,-1.35254470819797,0.975343031066664,NaN,NaN,NaN,0.574250725802322,-0.406523696831817,-1.55808659928652,0.863409680055964,0.863409680055082,1.09308428364971,-1.09308428365013,-1.05458634684372
604.2624,-0.797172955803915,-0.22497629081044,-1.21944086767362,-0.472701365080769,1.72220975461371,1.72220975461379,NaN,0.777458102336969,0.00482804621240346,-0.625329316143304,NaN,-0.0642393539473478,3.12024397757784,0.876788638731571,3.05998261875167,1.97210057423927,-2.3237298370316,-0.486402205093128,-0.0309217266046228,1.66348839577008,-0.0309217266047266,0.671118966441441,-0.259276920412415,NaN,NaN,-1.58443583866753,0.0365471725659993,NaN,-1.13793705642136,0.190991632982,0.18448762728368,0.918935683900337,1.5327158895021,NaN,-0.759180731043425,-0.988632431825413,0.977067084095925,-1.32115882486291,-1.32115882486197,0.951009032125369,NaN,NaN,NaN,0.506192418094923,-0.411718087856345,-1.53591662502124,0.863424651030957,0.863424651030089,1.11830561826992,-1.11830561827033,-1.05624092257251
604.3648,-0.849700096713467,-0.213070211825084,-1.27101130416848,-0.486948735209602,1.72222814656657,1.72222814656664,NaN,0.764827792638934,-0.00257586418574089,-0.608107855340984,NaN,-0.0268756761348879,3.12323056577446,0.899765091733749,3.07452995735998,1.97261816079687,-2.31033071409649,-0.47041659921055,-0.0525199535746425,1.64128282635924,-0.0525199535747589,0.700825361732146,-0.295701253093529,NaN,NaN,-1.56531162627801,0.0620566772574031,NaN,-1.12046710526798,0.175085200905217,0.206090696757387,0.90119366228266,1.54529649866409,NaN,-0.781133289249138,-0.953461467299434,0.990802257015193,-1.29035779219546,-1.29035779219451,0.926169196091228,NaN,NaN,NaN,0.438107302280299,-0.416718890442756,-1.51409570380835,0.863659921280015,0.863659921279165,1.14392334716704,-1.14392334716745,-1.05719168814723
604.4672,-0.90178235557331,-0.20218630358194,-1.32313696995169,-0.501015649652037,1.7216267795078,1.72162677950785,NaN,0.752130626605722,-0.00938804006320195,-0.591051439558501,NaN,0.010112174595209,3.12523778960224,0.923324651832488,3.08856731805629,1.9705608885652,-2.29601087294961,-0.456226595294434,-0.0745498676382289,1.61930830879911,-0.0745498676383569,0.729289239757673,-0.330775986892659,NaN,NaN,-1.54579698147914,0.0884855564252947,NaN,-1.10255074451234,0.159551273221462,0.22714437822223,0.883763669597962,1.55737187036724,NaN,-0.802026924843472,-0.917390469936595,1.00450470315888,-1.26016727888002,-1.26016727887906,0.900887873354311,NaN,NaN,NaN,0.370088084681881,-0.421483625775347,-1.49266261935077,0.864150126118135,0.864150126117303,1.16991129951346,-1.16991129951387,-1.05745224453882
604.5696,-0.953424777875757,-0.192251696423575,-1.37574559036418,-0.514803665288295,1.72038761100949,1.72038761100952,NaN,0.739363194896906,-0.0155738964613598,-0.574230114975791,NaN,0.046636587139986,3.12622544618112,0.947466343193775,3.10206069133389,1.96584876255823,-2.28077676485874,-0.44392830016707,-0.0969452743860425,1.59755094344396,-0.0969452743861807,0.75644868108473,-0.364445221751358,NaN,NaN,-1.52588139101907,0.115793140035694,NaN,-1.08413999750142,0.144367668191908,0.247660555407749,0.866596509433367,1.56889641621841,NaN,-0.821820889166495,-0.880421993547198,1.01815034444059,-1.23060971240434,-1.23060971240337,0.875228768481038,NaN,NaN,NaN,0.302226751408377,-0.425971532531918,-1.47165670025928,0.864924431631879,0.864924431631065,1.1962394915506,-1.19623949155101,-1.05703878476794
604.672,-1.00463160703086,-0.183192239095299,-1.42876252761166,-0.528216068581864,1.71849508647802,1.71849508647803,NaN,0.726521894963836,-0.0211010614219783,-0.557711288315215,NaN,0.0826106217605599,3.12615622596621,0.97218510026627,3.11497633200103,1.95841238694386,-2.26463635291222,-0.433607808796864,-0.119640322891861,1.57599774361859,-0.119640322892008,0.782249377837332,-0.396660628094963,NaN,NaN,-1.50555690564896,0.14393776117734,NaN,-1.06518859719538,0.129509933289954,0.267651632666664,0.84964319091948,1.57982569399136,NaN,-0.840478116016083,-0.842560940674373,1.03171535393881,-1.20170422130003,-1.20170422129905,0.849254764096644,NaN,NaN,NaN,0.234614591723518,-0.430143698981419,-1.45111762399019,0.866006459301034,0.866006459300238,1.22287410744903,-1.22287410744943,-1.0559700277329
604.7744,-1.05540608746079,-0.174932971308668,-1.48211104820462,-0.5411586112158,1.71593608533413,1.71593608533413,NaN,0.713603014820186,-0.0259395586935005,-0.541559197559197,NaN,0.117948582076985,3.12499607278071,0.997471709528859,3.12728102859007,1.94819324178997,-2.24759891987163,-0.4253406764742,-0.142569795675805,1.55463668625358,-0.142569795675961,0.806644740142844,-0.427381522622911,NaN,NaN,-1.48481824804038,0.1728770308328,NaN,-1.04565221078457,0.114951364053045,0.287130390632227,0.832855296053685,1.59011665481104,NaN,-0.857965424478645,-0.803814694662249,1.04517623881361,-1.17346661144765,-1.17346661144667,0.823027773823787,NaN,NaN,NaN,0.167342236197709,-0.433963192817321,-1.4310852327022,0.867414265918505,0.867414265917728,1.24977753483049,-1.24977753483089,-1.05426714399296
604.8768,-1.10575027188171,-0.167398597765264,-1.53571259710391,-0.553540227270285,1.7126998429589,1.71269984295887,NaN,0.700602819437381,-0.0300619913756064,-0.52583441306577,NaN,0.152566570757092,3.12271452598612,1.02331276315311,3.13894236413666,1.93514390744062,-2.22967488602945,-0.419191460554805,-0.165669367538432,1.53345671430682,-0.165669367538597,0.829595930967343,-0.456574879923985,NaN,NaN,-1.46366289338876,0.202568110489452,NaN,-1.0254886548387,0.10066302091476,0.306109865689764,0.816185317930682,1.59972789151083,NaN,-0.874253719342654,-0.764193250393966,1.05850989895271,-1.14590937890326,-1.14590937890227,0.796608623782921,NaN,NaN,NaN,0.100499707588924,-0.437395183798062,-1.41159936250103,0.869160379741107,0.869160379740348,1.27690845326003,-1.27690845326043,-1.05195367254645
604.9792,-1.1556648266993,-0.160513968980567,-1.58948707687548,-0.565273732784222,1.70877785853827,1.70877785853823,NaN,0.687517636092414,-0.0334437294305879,-0.510593358796951,NaN,0.186383028934945,3.11928504841073,1.04969062391717,3.14992897099794,1.91922824572941,-2.2108756400623,-0.41521332500343,-0.188875833723697,1.51244769527812,-0.188875833723872,0.85107183298533,-0.484215280554429,NaN,NaN,-1.44209111673144,0.232967981530483,NaN,-1.004658110356,0.0866137458747169,0.324603240093566,0.79958697751889,1.60861987626412,NaN,-0.889318186257567,-0.723709346158783,1.07169366600105,-1.11904176407558,-1.11904176407457,0.77005696152376,NaN,NaN,NaN,0.0341764898728732,-0.440407050687361,-1.39269968085918,0.871251891215072,0.871251891214332,1.30422197321978,-1.30422197322018,-1.04905542527294
605.0816,-1.20514883696932,-0.154204564088512,-1.64335312844481,-0.576276508826118,1.70416379333295,1.70416379333289,NaN,0.674343933518991,-0.0360630992329224,-0.495887852207459,NaN,0.219319258710856,3.11468534249753,1.07658340611348,3.16021078424901,1.9004215397247,-2.19121338406793,-0.41344770722543,-0.21212731293765,1.49160034350599,-0.212127312937835,0.871048951803434,-0.510284793717418,NaN,NaN,-1.42010600762693,0.264033708691864,NaN,-0.983123342753083,0.072770179053453,0.34262373079328,0.783015524302712,1.61675517457112,NaN,-0.903138474668613,-0.682378595942763,1.08470533244069,-1.09286985105221,-1.09286985105119,0.743431189515734,NaN,NaN,NaN,-0.0315383894472785,-0.442968469125334,-1.37442552146697,0.873690592924315,0.873690592923593,1.33166982266703,-1.33166982266742,-1.0456003729867
605.184,-1.25419961977781,-0.148396964050325,-1.69722841184046,-0.586471163757126,1.6988533576538,1.69885335765373,NaN,0.661078394589851,-0.0379015686036908,-0.481764672229193,NaN,0.251299924569082,3.10889765213795,1.10396498141072,3.16975929624979,1.87871058905166,-2.17070099489044,-0.413924052882928,-0.235363430709751,1.47090611597121,-0.235363430709946,0.889511261249422,-0.534772797735043,NaN,NaN,-1.39771345869386,0.295722691902847,NaN,-0.960849924364488,0.0590967768813662,0.360184476437036,0.766428018798652,1.62409863205542,NaN,-0.915698858636362,-0.640219619207878,1.09752318292306,-1.0673967107681,-1.06739671076708,0.716788419737947,NaN,NaN,NaN,-0.0965562789863404,-0.44505148334537,-1.35681570411176,0.876473159600473,0.876473159599766,1.35920057598425,-1.35920057598464,-1.04161850540134
605.2864,-1.30281255379474,-0.143019305813504,-1.75102988625252,-0.595786164104146,1.69284418377352,1.69284418377343,NaN,0.64771798678092,-0.0389439182776223,-0.468265168848644,NaN,0.282253527879272,3.10190903986678,1.13180501660667,3.17854780742004,1.85409375777037,-2.14935190311468,-0.416659623633135,-0.258525486660624,1.45035708809403,-0.258525486660828,0.906449995192446,-0.557675746448365,NaN,NaN,-1.37492213197701,0.32799290187216,NaN,-0.937806451521795,0.0455558363887043,0.37729843485162,0.749783588633731,1.63061754361763,NaN,-0.926988367508369,-0.597254166236071,1.11012603265099,-1.04262257942648,-1.04262257942545,0.690184445143635,NaN,NaN,NaN,-0.16078883818978,-0.446630566758262,-1.33990833541436,0.879591359275132,0.879591359274442,1.38675992086857,-1.38675992086895,-1.03714166139901
605.3888,-1.3509809266094,-0.13800171309052,-1.80467408671487,-0.604156423067847,1.68613568665632,1.68613568665621,NaN,0.634260035432076,-0.0391783902119203,-0.455424924501936,NaN,0.312112852090457,3.09371162488753,1.16006904501183,3.18655166202871,1.82658097411301,-2.12717998944479,-0.421659378233419,-0.281556608092919,1.42994580900975,-0.281556608093133,0.921863387748788,-0.578996889572618,NaN,NaN,-1.35174339744719,0.360803097677111,NaN,-0.913964748022352,0.0321075295900311,0.393978306690509,0.733043649152873,1.63628181921366,NaN,-0.937000885071792,-0.553507238294926,1.12249326632607,-1.01854505783395,-1.01854505783293,0.66367372330734,NaN,NaN,NaN,-0.224147995516624,-0.447682674269651,-1.32374060049823,0.883032291454164,0.883032291453493,1.41429096345315,-1.41429096345353,-1.0322033338248
605.4912,-1.39869580018767,-0.133276698156107,-1.8580773917972,-0.611523841889195,1.67872891944486,1.67872891944474,NaN,0.620702304226775,-0.0385968049282834,-0.443273473227258,NaN,0.340815378504612,3.08430276923954,1.18871857259725,3.19374845902013,1.79619368147869,-2.10419949755479,-0.4289159266309,-0.304401889380636,1.40966513225116,-0.304401889380861,0.935756361766093,-0.598745949356936,NaN,NaN,-1.32819122997937,0.394113022672027,NaN,-0.889300047299312,0.0187099486189511,0.410236494748963,0.716172081305768,1.64106415252469,NaN,-0.945735217628737,-0.509007200902018,1.1346048717405,-0.995159319840036,-0.995159319839006,0.637309371072838,NaN,NaN,NaN,-0.28654594092975,-0.448187285060009,-1.3083485630874,0.886778652918147,0.886778652917496,1.44173457591281,-1.44173457591319,-1.02683845429422
605.5936,-1.44594589964074,-0.128779522568038,-1.91115627564566,-0.617837806270561,1.6706264316715,1.67062643167137,NaN,0.607043084949295,-0.0371946434445846,-0.431834081514262,NaN,0.368303669852137,3.07368520442536,1.21771122315004,3.2001182337039,1.7629647376639,-2.08042496232361,-0.438409559136125,-0.327008511470169,1.38950802016201,-0.327008511470406,0.948140165413587,-0.616938748713938,NaN,NaN,-1.30428205327698,0.427883569785916,NaN,-0.863791143018076,0.00531916003493845,0.426085101801966,0.699135359799342,1.64494018796579,NaN,-0.953195127834351,-0.463785886543509,1.14644147370871,-0.972458327105007,-0.972458327103976,0.611143173365618,NaN,NaN,NaN,-0.347895165475558,-0.448126432153328,-1.29376698585297,0.890809033380598,0.890809033379966,1.46902979054429,-1.46902979054466,-1.02108315749797
605.696,-1.49271753334847,-0.124448505424626,-1.96382754197141,-0.623055638697204,1.66183213521733,1.66183213521718,NaN,0.593281294388476,-0.0349710922596048,-0.421123594258436,NaN,0.394525716604707,3.06186709792044,1.24700092530053,3.20564361133003,1.72693826080124,-2.05587115413796,-0.450108353159933,-0.349325833614414,1.36946732777658,-0.349325833614662,0.959031960876379,-0.633596786081139,NaN,NaN,-1.28003453308709,0.462076906269665,NaN,-0.837420498416814,-0.00811073207931236,0.441535967019029,0.681902625857467,1.64788867858977,NaN,-0.959389332308519,-0.417878682648279,1.1579843787793,-0.950433052675038,-0.950433052674003,0.58522560624806,NaN,NaN,NaN,-0.408108554008187,-0.447484717506471,-1.28002916956196,0.89509824058083,0.895098240580215,1.49611423781515,-1.49611423781552,-1.01497452102261
605.7984,-1.53899455073743,-0.12022527782118,-2.01600854626956,-0.627142995457288,1.65235117846775,1.65235117846758,NaN,0.579416574664688,-0.0319290516127366,-0.411152350134704,NaN,0.41943524138092,3.04886206406458,1.27653813847671,3.21030993475298,1.68816942554014,-2.03055304348149,-0.463968358448014,-0.371305452936992,1.3495355806495,-0.371305452937252,0.968454375687015,-0.648746760443191,NaN,NaN,-1.2554693371468,0.496656552742913,NaN,-0.810174315790891,-0.0216275087047772,0.456600738147408,0.664445704067709,1.64989162948709,NaN,-0.964331466944734,-0.371324603026374,1.16921563143956,-0.929072714478376,-0.929072714477335,0.55960586592813,NaN,NaN,NaN,-0.467099526554025,-0.446249315656163,-1.26716679953098,0.899617647096341,0.899617647095743,1.52292461549254,-1.52292461549289,-1.00855027838275
605.9008,-1.58475834285721,-0.116054987431506,-2.06761741680092,-0.630074185337217,1.64218982630814,1.64218982630796,NaN,0.565449395872195,-0.0280751077435095,-0.401924170659197,NaN,0.44299195760823,3.03468912043691,1.30627011124699,3.21410536367081,1.64672421184422,-2.00448578889225,-0.479933861725543,-0.392901234665917,1.32970476365681,-0.392901234666189,0.97643502944202,-0.662420056727117,NaN,NaN,-1.23060888037832,0.531587417967906,NaN,-0.782042581999335,-0.0352807314457671,0.471290971516399,0.646739069112264,1.6509344210819,NaN,-0.96804002505948,-0.324166345070205,1.18011806935712,-0.908365015689191,-0.908365015688146,0.534331893143028,NaN,NaN,NaN,-0.524782217275501,-0.444409967806105,-1.25520978852078,0.904335545910982,0.904335545910402,1.54939717033093,-1.54939717033128,-1.00184850660777
606.0032,-1.62998788954066,-0.111886454027853,-2.11857327985311,-0.631832388646435,1.63135534502811,1.63135534502791,NaN,0.551381162940613,-0.0234194696351514,-0.393436422825304,NaN,0.465161780441319,3.01937258574924,1.3361411636502,3.21702093772631,1.60267910266209,-1.97768474454996,-0.497937730601729,-0.414069324683295,1.3099661332258,-0.414069324683578,0.983006046152449,-0.674652204142945,NaN,NaN,-1.20547706094174,0.566835796408388,NaN,-0.753019110268209,-0.0491215981167964,0.485618248106823,0.628759772241231,1.65100590574902,NaN,-0.970538270454735,-0.276450336860626,1.19067536128082,-0.888296385341666,-0.888296385340616,0.509450388455134,NaN,NaN,NaN,-0.581071679588577,-0.441958961829017,-1.24418611359337,0.909217505911637,0.90921750591107,1.5754681761457,-1.57546817614604,-0.994907293568999
606.1056,-1.67465985208082,-0.107672277195327,-2.16879648932498,-0.632409768866999,1.61985589469921,1.61985589469901,NaN,0.537214329673291,-0.0179758714148226,-0.38568014964575,NaN,0.48591699147441,3.00294191900065,1.36609298389174,3.21905059820638,1.55612072825964,-1.95016548159866,-0.517901832406613,-0.434768162416298,1.29031006131473,-0.434768162416591,0.988203562500963,-0.685482323308541,NaN,NaN,-1.18009898167728,0.602369339916239,NaN,-0.723101591686379,-0.0632027518712925,0.499594295386241,0.610487337206622,1.6500984734311,NaN,-0.97185412810577,-0.228226776067466,1.20087201738645,-0.868852213795962,-0.868852213794909,0.485006819668651,NaN,NaN,NaN,-0.635884110696532,-0.438891090641638,-1.23412165090044,0.914226727087514,0.914226727086966,1.60107439598406,-1.60107439598439,-0.987764390462827
606.208,-1.71874870744653,-0.103368902365106,-2.21820886235214,-0.63180748040739,1.60770043191663,1.60770043191641,NaN,0.522952521464418,-0.0117614441102456,-0.378640262702224,NaN,0.50523636056923,2.98543150619328,1.39606493438628,3.22019117095453,1.50714546234678,-1.92194382410853,-0.53973752330917,-0.45495851193636,1.27072591901773,-0.454958511936664,0.992067243449057,-0.694952578346001,NaN,NaN,-1.15450065347276,0.638157014305899,NaN,-0.692291660080435,-0.0775780411112071,0.513231110054339,0.59190363167563,1.6482080861324,NaN,-0.97202005744887,-0.179549658149563,1.21069337020785,-0.850017084543447,-0.850017084542391,0.461045423383732,NaN,NaN,NaN,-0.689137095487464,-0.435203585356283,-1.22504001271348,0.919324399878357,0.919324399877825,1.626153519114,-1.62615351911433,-0.980456849919539
606.3104,-1.76222692036605,-0.0989366515935766,-2.26673392339424,-0.630035577682515,1.59489862236534,1.59489862236511,NaN,0.50860066269404,-0.00479656368459387,-0.372295794784564,NaN,0.523105225734863,2.96688040053862,1.42599436932163,3.22044231657795,1.45585897507127,-1.8930359043826,-0.563346207505345,-0.47460352299266,1.25120200607113,-0.474603522992972,0.994639812057367,-0.703107642110619,NaN,NaN,-1.12870868890986,0.674169042788955,NaN,-0.660594966223906,-0.0923022275053473,0.526541080357478,0.57299271730235,1.64533428327471,NaN,-0.971072909044115,-0.130476787825338,1.22012552943987,-0.831775008221514,-0.831775008220461,0.437609202083258,NaN,NaN,NaN,-0.740749870114197,-0.430896025321661,-1.21696239044089,0.924470072567372,0.924470072566856,1.65064456861291,-1.65064456861323,-0.973020647425132
606.4128,-1.80506514356879,-0.0943397247148631,-2.31429715094007,-0.627112831462439,1.58146076104577,1.58146076104553,NaN,0.494165097860038,0.00289531663765964,-0.366620209614949,NaN,0.539515528498785,2.94733201694483,1.45581696374942,3.21980644861087,1.4023757426722,-1.86345823482392,-0.588619963503526,-0.493668823879678,1.23172552444521,-0.493668823879999,0.995966596433753,-0.709994177798759,NaN,NaN,-1.10275000489922,0.710376829610477,NaN,-0.628021250416649,-0.107430644574349,0.539537103773584,0.553740684121427,1.64148015841974,NaN,-0.969053757238098,-0.0810697662429543,1.22915531733268,-0.814109657408722,-0.814109657407668,0.41473991640509,NaN,NaN,NaN,-0.790643595355733,-0.425970230431381,-1.20990740975558,0.929622025726604,0.929622025726101,1.67448827831023,-1.67448827831054,-0.965490291632709
606.5152,-1.8472324262949,-0.0895461801481491,-2.36082621244195,-0.623066464682151,1.56739770065727,1.56739770065701,NaN,0.479653694593965,0.0112878449897232,-0.361581758204453,NaN,0.554465801561347,2.92683377796504,1.48546704477754,3.21828861233796,1.34681851358347,-1.83322778484957,-0.615442224496445,-0.512122638109473,1.21228258374134,-0.512122638109804,0.996095099266988,-0.715660344797574,NaN,NaN,-1.0766515524059,0.74675285857983,NaN,-0.594584397002872,-0.123018816466547,0.552232690036534,0.534135481127616,1.63665230634407,NaN,-0.966007698641228,-0.0313939466009704,1.2377701955659,-0.797004587726533,-0.797004587725478,0.39247806700939,NaN,NaN,NaN,-0.838741621488744,-0.420430142831933,-1.20389100535854,0.934737646443166,0.934737646442677,1.6976274345022,-1.6976274345025,-0.957898442289615
606.6176,-1.88869641388997,-0.0845279027252224,-2.40625117434635,-0.617931823790361,1.5527207924439,1.55272079244363,NaN,0.465075925149828,0.0203519627303142,-0.357143869976226,NaN,0.567961108130905,2.90543670761833,1.5148779148669,3.21589631604084,1.28931773396237,-1.8023620525295,-0.643688497649141,-0.529935913402295,1.19285822465526,-0.529935913402635,0.99507459507161,-0.72015533728813,NaN,NaN,-1.05044007920378,0.783270567633815,NaN,-0.560302456687826,-0.139122043400434,0.56464203876197,0.514166756967625,1.6308607410141,NaN,-0.961983610632757,0.0184816455794084,1.24595819637833,-0.780443428360468,-0.780443428359418,0.370862856436835,NaN,NaN,NaN,-0.884969733080506,-0.414281704816765,-1.19892631954277,0.939773792250454,0.939773792249981,1.7200071760629,-1.72000717606318,-0.950275556297819
606.72,-1.92942353694514,-0.0792605548644551,-2.45050468137781,-0.611751995228929,1.53744184621276,1.53744184621248,NaN,0.450442934277592,0.0300561186409442,-0.353265574835556,NaN,0.580012936815434,2.88319497007855,1.54398216774049,3.21263931243077,1.23001093668116,-1.77087912739009,-0.673227113731291,-0.547082454676183,1.17343645522241,-0.547082454676529,0.992955754861769,-0.723528957870109,NaN,NaN,-1.02414191761338,0.819904205165638,NaN,-0.525197632734992,-0.155794952291235,0.576780086310787,0.493825718497629,1.62411878579534,NaN,-0.957033868780127,0.0684844259581146,1.25370786617763,-0.764410034857782,-0.764410034856733,0.349932125145302,NaN,NaN,NaN,-0.929256376125538,-0.407532734867262,-1.1950236228002,0.944687134994837,0.944687134994377,1.74157525243043,-1.74157525243071,-0.94264957095892
606.8224,-1.96937919601085,-0.0737235042652394,-2.4935221051161,-0.604577364759236,1.52157311563879,1.5215731156385,NaN,0.435767603158233,0.0403665133606563,-0.349901955752222,NaN,0.59063905920766,2.86016535177202,1.57271200218924,3.20852933182528,1.16904209806362,-1.73879774320311,-0.703920000990033,-0.563539055314591,1.15400030071485,-0.563539055314942,0.989790298391508,-0.725831228408713,NaN,NaN,-0.997782785231725,0.856628678800235,NaN,-0.489296233295076,-0.173091015802661,0.588662521126889,0.473105006345996,1.61644293347108,NaN,-0.951214021838655,0.118538396907519,1.2610082208423,-0.748888604124019,-0.748888604122972,0.329722264338835,NaN,NaN,NaN,-0.971532877157051,-0.400192798062714,-1.19219025040278,0.949434476858979,0.949434476858531,1.76228224411722,-1.76228224411749,-0.935045626675324
606.9248,-2.00852794113808,-0.0678997317377465,-2.53524166484421,-0.596465109335928,1.50512731029385,1.50512731029355,NaN,0.421064608039673,0.0512473712765571,-0.347004624182441,NaN,0.599863355044588,2.83640668711091,1.60099953145301,3.20357976603933,1.10656096630876,-1.70613731723687,-0.73562347484082,-0.579285623165651,1.13453186691563,-0.579285623166006,0.985630679794767,-0.727112045188076,NaN,NaN,-0.971387594718765,0.893419410393117,NaN,-0.452628589462771,-0.191062057170229,0.600305768471194,0.451998582086086,1.60785267043203,NaN,-0.94458242300305,0.168564329971196,1.26784870358145,-0.733863750223756,-0.733863750222717,0.310268113014892,NaN,NaN,NaN,-1.0117336644957,-0.392273066731119,-1.19043054748549,0.953973036675143,0.953973036674708,1.78208174708186,-1.78208174708212,-0.927485835166321
607.0272,-2.04683364045574,-0.061775730449531,-2.5756045257148,-0.587478611839847,1.48811762866268,1.48811762866237,NaN,0.40635046433865,0.0626612308512996,-0.344522205504186,NaN,0.607715603912224,2.81197922748918,1.6287770812617,3.19780529905074,1.04272236180655,-1.67291797053655,-0.768189036899594,-0.594305302681162,1.11501241594178,-0.594305302681521,0.980529810538273,-0.727420882054944,NaN,NaN,-0.94498027729112,0.930252203893642,NaN,-0.415228936667799,-0.209757759623897,0.611726948146806,0.43050162050606,1.59837026238953,NaN,-0.937199822679669,0.218479993715125,1.27421913338816,-0.719320537478985,-0.71932053747795,0.291602845377472,NaN,NaN,NaN,-1.04979650257291,-0.383786172391964,-1.18974581661178,0.958260711964598,0.958260711964179,1.80093051673676,-1.800930516737,-0.919989097876221
607.1296,-2.08425963662189,-0.0553414044734767,-2.61455488129976,-0.577686797385563,1.47055780033617,1.47055780033586,NaN,0.39164355420314,0.0745692520127487,-0.342400827683323,NaN,0.614231240819436,2.78694395063369,1.65597747839642,3.19122148299374,0.977685444205852,-1.63916052332511,-0.801464182258732,-0.60858459580798,1.0954224564616,-0.608584595808343,0.974540813991959,-0.726806535891622,NaN,NaN,-0.918583620865727,0.967103119329425,NaN,-0.377135259529115,-0.229225183188355,0.622943811382312,0.408610400705889,1.58802050359922,NaN,-0.929128935304255,0.268200430339158,1.28010963699267,-0.705244468578735,-0.705244468577708,0.273757851316497,NaN,NaN,NaN,-1.0856627503857,-0.374746055044301,-1.1901342658425,0.962256322820194,0.962256322819791,1.81878856755762,-1.81878856755786,-0.912570967713171
607.232,-2.12076889474498,-0.0485899673419424,-2.65204002568988,-0.567163398727643,1.4524621253453,1.45246212534498,NaN,0.376964144422657,0.0869315461513818,-0.340584616259291,NaN,0.619451077442606,2.76136180794502,1.68253434219416,3.18384426402985,0.911612943365383,-1.6048864622516,-0.835293214422831,-0.622113478977193,1.07574185035003,-0.622113478977561,0.967716803423629,-0.725316907612049,NaN,NaN,-0.892219111713306,1.0039483413442,NaN,-0.338389103079877,-0.24950827799078,0.633974660892816,0.386322192577146,1.57683043174519,NaN,-0.920433991799839,0.317638277041995,1.28551056352387,-0.69162142966153,-0.691621429660509,0.256762611214178,NaN,NaN,NaN,-1.1192776485676,-0.365167814707533,-1.19159095875435,0.965919835856461,0.965919835856072,1.8356192272855,-1.83561922728573,-0.905243540747106
607.3344,-2.15632414214259,-0.0415178379496171,-2.68801041273409,-0.555986161870418,1.43384550643931,1.43384550643899,NaN,0.362334398368461,0.099707528393346,-0.33901620100825,NaN,0.623420996711021,2.73529291615301,1.70838239005039,3.17568946916802,0.844670362429431,-1.57011788346091,-0.869518063337888,-0.634885510614341,1.05594993605744,-0.634885510614715,0.960110682324482,-0.722998819042304,NaN,NaN,-0.865906766390842,1.04076403860945,NaN,-0.299035355607183,-0.270647385288786,0.644838254451114,0.363635140495019,1.56482901147765,NaN,-0.91118028373315,0.366704124970248,1.29041238240102,-0.678437600933453,-0.678437600932443,0.240644566909038,NaN,NaN,NaN,-1.15059062934432,-0.355067563879119,-1.1941077684233,0.969212559683118,0.969212559682746,1.85138914599425,-1.85138914599447,-0.89801537097627
607.4368,-2.19088799168129,-0.0341245341884042,-2.72241969270978,-0.544236006349026,1.41472348217732,1.414723482177,NaN,0.347778376249239,0.112856282787193,-0.337637231761968,NaN,0.626191633835109,2.70879571630704,1.73345775648839,3.16677227298811,0.777025166876982,-1.53487741949015,-0.903979100368412,-0.646897925261368,1.0360256680499,-0.646897925261748,0.951774968858737,-0.719897869247819,NaN,NaN,-0.839664956130598,1.07752622170208,NaN,-0.259122009487671,-0.292678728581428,0.655553694714895,0.34054815032141,1.5520467993263,NaN,-0.901433704511382,0.415306910741965,1.29480556581224,-0.665679345802435,-0.665679345801435,0.225428991258665,NaN,NaN,NaN,-1.17955563895851,-0.344462277096986,-1.19767333700833,0.972097309005504,0.972097309005148,1.86606826297382,-1.86606826297403,-0.890891412991063
607.5392,-2.22442303534395,-0.0264125685405362,-2.75522471460512,-0.531996160896814,1.39511227726136,1.39511227726105,NaN,0.333322011920396,0.126336927477656,-0.336388890181229,NaN,0.627818059774285,2.68192613760762,1.7576983156104,3.15710667017317,0.708845967353346,-1.49918815339793,-0.938515945482697,-0.658151710064612,1.01594776917881,-0.658151710065,0.942761641143861,-0.716058329755217,NaN,NaN,-0.813510242820011,1.11421061188453,NaN,-0.218699904139326,-0.315633905490569,0.666140315179798,0.317060786132161,1.53851561506858,NaN,-0.891260297526536,0.463354341144421,1.29868046109734,-0.653333090611504,-0.653333090610513,0.211138859613916,NaN,NaN,NaN,-1.20613146352324,-0.333369638628993,-1.20227304204274,0.974538548785366,0.974538548785027,1.87962974184322,-1.87962974184342,-0.883873004219836
607.6416,-2.25689190038151,-0.018387346270184,-2.78638548533392,-0.519351295377723,1.37502888446441,1.3750288844641,NaN,0.31899305499307,0.140108967761771,-0.335212381320279,NaN,0.628359477694171,2.65473680243476,1.78104399557747,3.14670497818343,0.64030169802448,-1.46307351895361,-0.972968263368027,-0.668651656581275,0.995694890721248,-0.668651656581668,0.933121995877598,-0.711523072686693,NaN,NaN,-0.787457245970745,1.15079252881852,NaN,-0.17782245082753,-0.33953938995451,0.676617574216576,0.29317318064303,1.52426824488528,NaN,-0.880725821499116,0.510753356768026,1.3020271597388,-0.641385203938687,-0.641385203937704,0.197794728047104,NaN,NaN,NaN,-1.23028205125884,-0.321807894668532,-1.20788897081147,0.976502536557147,0.976502536556821,1.8920498925522,-1.8920498925524,-0.876957897062646
607.744,-2.28825727151798,-0.0100570607687326,-2.81586508427234,-0.506386661918382,1.35449118153276,1.35449118153245,NaN,0.304820971483145,0.154132629206422,-0.334049396512397,NaN,0.62787893078651,2.62727629499441,1.80343707520188,3.13557738354949,0.571560793728502,-1.4265571889534,-1.00717654722265,-0.678406381017153,0.975245777404948,-0.67840638101755,0.922906511422601,-0.706333522644723,NaN,NaN,-0.761518547659162,1.1872467983559,NaN,-0.136545336507227,-0.364416048761979,0.687004963720074,0.268885962683825,1.50933819170274,NaN,-0.869895335193764,0.557410641580065,1.30483536710656,-0.629821881752138,-0.62982188175116,0.185414623564187,NaN,NaN,NaN,-1.25197682382949,-0.309795718592801,-1.21449990885198,0.977957473630363,0.977957473630051,1.90330810136904,-1.90330810136922,-0.870140348372963
607.8464,-2.31848188635399,-0.00143258212404018,-2.84362953764562,-0.493187255155816,1.33351807838881,1.33351807838851,NaN,0.290836800253024,0.168369168342687,-0.332842548479337,NaN,0.626443012589041,2.59958850454462,1.82482245167548,3.123731535157,0.502790373180817,-1.38966295940792,-1.04098289108778,-0.687428310871805,0.954579438051257,-0.687428310872206,0.91216470576488,-0.700529623582742,NaN,NaN,-0.735704633910337,1.22354768079533,NaN,-0.0949262075870058,-0.390278678415785,0.69732193447177,0.24420020706191,1.49375948335554,NaN,-0.858832798132949,0.603233180778657,1.30709427708076,-0.618629041385665,-0.618629041384693,0.174013949525675,NaN,NaN,NaN,-1.27119096901222,-0.297352099109353,-1.22208135408649,0.978873665497856,0.978873665497557,1.91338678459781,-1.91338678459798,-0.863411274696153
607.9488,-2.34752850818309,0.00747265976902932,-2.86964765934894,-0.479837005341859,1.31212969000575,1.31212969000546,NaN,0.277072967022593,0.182781161265532,-0.331535781663385,NaN,0.624121573452851,2.57171204869914,1.84514787157766,3.11117218498012,0.434155436669882,-1.35241463723173,-1.07423175014258,-0.695733641909047,0.933675321758184,-0.69573364190945,0.900944985525665,-0.694149817440699,NaN,NaN,-0.710023872434953,1.25966882306863,NaN,-0.0530243424387207,-0.417135576025555,0.707587840189246,0.219117412036732,1.47756654882916,NaN,-0.847600688928282,0.648128859525966,1.30879245919444,-0.607792222630998,-0.607792222630031,0.16360540690812,NaN,NaN,NaN,-1.28790570929562,-0.284496260297969,-1.2306055636665,0.979223687564093,0.979223687563806,1.92227137204953,-1.92227137204969,-0.85675847932259
608.0512,-2.37535988236956,0.0166427957563133,-2.89389086767848,-0.466418012698022,1.29034753037209,1.29034753037181,NaN,0.263563064037617,0.197332771758416,-0.330074758554412,NaN,0.62098742067866,2.54367977498227,1.8643641276306,3.09790087603764,0.365818087145808,-1.31483593483341,-1.10677068300167,-0.703342273726582,0.912513496645072,-0.703342273726988,0.889294497148926,-0.687231040067946,NaN,NaN,-0.684482531623415,1.29558323946213,NaN,-0.0109003240231099,-0.444988157728041,0.717821899629135,0.193639504980966,1.46079416228758,NaN,-0.836259647054061,0.692007086496481,1.30991776735431,-0.597296489297888,-0.597296489296925,0.154198932601712,NaN,NaN,NaN,-1.30210854302492,-0.271247617447733,-1.24004162775031,0.978982550678877,0.978982550678601,1.92995031901818,-1.92995031901833,-0.850166947383894
608.1536,-2.4019386879541,0.0260596410286023,-2.91633299292153,-0.453009814024271,1.26819471850416,1.26819471850389,NaN,0.250341610127402,0.211990005286653,-0.328407222916343,NaN,0.617116010248988,2.51551832866807,1.88242523222983,3.08391567338845,0.297936783589306,-1.2769503714394,-1.13845106597023,-0.710277735130119,0.891074826345486,-0.710277735130527,0.877259004052029,-0.679808746150166,NaN,NaN,-0.659084845304699,1.33126332816564,NaN,0.0313842824420822,-0.473830628839082,0.728043169652907,0.167768870732578,1.44347743568549,NaN,-0.824868136220528,0.734779425403908,1.3104572774539,-0.587126320227781,-0.587126320226823,0.145801659575497,NaN,NaN,NaN,-1.31379345359457,-0.257625766361506,-1.25035555809665,0.978127857081991,0.978127857081727,1.93641514430389,-1.93641514430404,-0.843619197501699
608.256,-2.4272274931121,0.0357028169562332,-2.93695009157481,-0.439688664231224,1.24569618371536,1.2456961837151,NaN,0.237443812526075,0.226720964317419,-0.326483343275521,NaN,0.612585130915748,2.48724777123174,1.89928858051564,3.06921093180812,0.230665630195346,-1.23878117675394,-1.16912877028008,-0.716567108249957,0.869341140393519,-0.716567108250366,0.864882811528144,-0.671916974643014,NaN,NaN,-0.633833121702119,1.36668093582126,NaN,0.0737672502400595,-0.503649702634312,0.738270518945263,0.141508395214088,1.42565183280196,NaN,-0.813482117301677,0.776360223319087,1.31039726122253,-0.577265476905066,-0.577265476904116,0.138417904581633,NaN,NaN,NaN,-1.3229610823782,-0.243650501782772,-1.26151038564874,0.976639933017783,0.976639933017531,1.94166049334768,-1.94166049334782,-0.83709568031732
608.3584,-2.45118871247077,0.045549861460541,-2.95572027518379,-0.426526829935505,1.22287885794431,1.22287885794406,NaN,0.224905351877003,0.241496122202357,-0.324256042083984,NaN,0.607474587754214,2.45888124356839,1.91491511499181,3.05377710157817,0.164153700924515,-1.20035119084391,-1.19866479577324,-0.722240949406243,0.847295397274986,-0.722240949406653,0.852208747561225,-0.663588460512409,NaN,NaN,-0.608727893446936,1.40180747633901,NaN,0.116186015510916,-0.534424362597352,0.74852259555611,0.114861520656097,1.40735318837426,NaN,-0.802154722064907,0.816667227031689,1.30972320546167,-0.567696840845147,-0.567696840844203,0.132049184834948,NaN,NaN,NaN,-1.32961886358681,-0.229341862772795,-1.27346627010656,0.974501924072568,0.974501924072325,1.9456842263061,-1.94568422630622,-0.830575217470652
608.4608,-2.47378456141962,0.055576324112972,-2.97262355194038,-0.413591914768232,1.19977184569376,1.19977184569352,NaN,0.212762196138689,0.256288613626366,-0.3216813158217,NaN,0.601865891504637,2.43042468486895,1.92926949960474,3.03760058561445,0.0985444086132389,-1.16168276217073,-1.22692585305388,-0.727333193754596,0.824921838333396,-0.727333193755004,0.839278193828288,-0.654854789249786,NaN,NaN,-0.583768110328805,1.43661408718876,NaN,0.158578003537775,-0.566125664806686,0.75881778902747,0.0878323101826999,1.38861773062181,NaN,-0.790935936728828,0.855622174123943,1.30841988063749,-0.55840223024045,-0.558402230239516,0.126694260745579,NaN,NaN,NaN,-1.3337811198014,-0.214720203283794,-1.28618062468048,0.971699848104071,0.971699848103838,1.94848752676415,-1.94848752676427,-0.824035467224718
608.5632,-2.49497701191733,0.0657558546088189,-2.98764167724846,-0.400946244832218,1.17640656277622,1.17640656277599,NaN,0.201050425582918,0.271074510452214,-0.318718547490624,NaN,0.59584194869508,2.40187662533013,1.94232029883736,3.02066366074649,0.0339749388559527,-1.12279765472464,-1.25378488430055,-0.731881031068475,0.80220612618616,-0.731881031068883,0.826131151819032,-0.645746579741363,NaN,NaN,-0.558951375774101,1.47107178735982,NaN,0.200880948711952,-0.598716587018066,0.769174193809155,0.0604255135498694,1.36948210746511,NaN,-0.77987231941149,0.893151343798267,1.30647144859556,-0.549362221207276,-0.549362221206351,0.122349200016509,NaN,NaN,NaN,-1.33546911698969,-0.199806283066465,-1.29960825347781,0.968222615302019,0.968222615301796,1.95007501485865,-1.95007501485875,-0.817453390523465
608.6656,-2.51472776294682,0.076060296241587,-3.00075801686163,-0.38864633434999,1.152816833848,1.15281683384778,NaN,0.189806040993939,0.285833042314302,-0.315330806591572,NaN,0.589486741121631,2.37322806257907,1.95404014429521,3.00294446218416,-0.0294242382498996,-1.0837169708602,-1.27912151581527,-0.735924748342238,0.779135460015466,-0.735924748342646,0.81280632657303,-0.636293675780173,NaN,NaN,-0.534274217563009,1.50515161228138,NaN,0.24303320240095,-0.632151944703681,0.779609579361884,0.0326466228717585,1.34998341062104,NaN,-0.76900677031107,0.929186060585895,1.30386158953757,-0.540555998994591,-0.540555998993674,0.119007458047696,NaN,NaN,NaN,-1.33471108198459,-0.184621371589892,-1.31370149728967,0.964062030553747,0.964062030553533,1.9504548418949,-1.95045484189499,-0.810805693092573
608.768,-2.53299823758827,0.0864597883785955,-3.01195743295849,-0.376742436201684,1.12903894117864,1.12903894117843,NaN,0.179064736265821,0.300546736992101,-0.311485126352646,NaN,0.582884992268092,2.34446242065897,1.96440587015326,2.98441702043158,-0.0915297784074633,-1.04446108628271,-1.30282243812788,-0.739507539421098,0.755698665757919,-0.739507539421505,0.799341218874479,-0.626525332384681,NaN,NaN,-0.509732374392897,1.5388247315271,NaN,0.284974031027692,-0.666378396199494,0.790141366133522,0.00450191495009143,1.33015919170301,NaN,-0.758378354324413,0.963663152899978,1.30057363255617,-0.531961250439607,-0.5319612504387,0.116659971804676,NaN,NaN,NaN,-1.33154219091193,-0.169187356500086,-1.32841038578386,0.959212785451229,0.959212785451024,1.94963875531779,-1.94963875531787,-0.804069237933058
