time,S1-D1,S1-D8,S1-D9,S1-D15,S2-D1,S2-D2,S2-D3,S2-D9,S3-D1,S3-D2,S3-D16,S4-D2,S4-D3,S4-D5,S5-D3,S5-D4,S5-D5,S6-D2,S6-D5,S6-D17,S7-D6,S7-D7,S8-D6,S8-D7,S8-D18,S9-D3,S9-D4,S9-D9,S9-D11,S9-D19,S10-D8,S10-D9,S10-D10,S10-D11,S11-D8,S11-D10,S11-D20,S12-D10,S12-D11,S12-D12,S13-D4,S13-D11,S13-D12,S14-D10,S14-D12,S14-D21,S15-D13,S15-D14,S16-D13,S16-D14,S16-D22
1775.2064,-0.697559928057818,-0.989151385150073,-1.22982423473526,0.00560711306719046,1.80294807577787,1.80294807577896,-0.490316200832613,-0.368451751621443,-0.478543984676466,-0.481875810888206,0.375216754244141,-0.481875810887941,0.0374377813841138,-0.641326347916167,NaN,-0.806070681079659,0.944985726752653,-0.329608691534586,-0.392038590986154,-0.196799271585671,-0.392038590987362,0.993604126244981,-0.913039055076639,0.225761044420299,0.791209721427162,-0.267938973733294,NaN,NaN,0.530236774714709,0.153492191775764,-2.12985821493267,0.73202121974161,-2.74750124749149,1.19779777815852,-1.6335676027449,0.111630387471609,-0.0996352184716459,0.214914141501198,0.214914141499965,0.623627930123024,0.220051981048375,0.546903938342574,0.993986452679974,0.253966854312968,1.02645386278391,NaN,-0.635556148809372,0.700383527934664,0.569982522323661,-0.569982522323054,-0.022013011956341
1775.3088,-0.709168399923703,-1.02432854214494,-1.25947007796722,-3.11061400747425e-05,1.79624569927815,1.79624569927924,-0.472646318535209,-0.352984583510079,-0.460523089853375,-0.486911058778103,0.39369208738305,-0.486911058777861,0.0619159469477699,-0.635980608769208,NaN,-0.789660932516619,0.937001543595891,-0.316610245020277,-0.371551730893495,-0.202545556665647,-0.37155173089471,0.995837191748381,-0.92047654676932,0.22021165536541,0.80835177323735,-0.252698515843601,NaN,NaN,0.526080465380753,0.151736365117032,-2.13745174962918,0.739890126735875,-2.74709623650639,1.21818401339182,-1.62459725064643,0.141393111571573,-0.122488427121353,0.203882120092527,0.203882120091299,0.642571804556244,0.229050278465132,0.564314326290933,0.989174712242751,0.221558741611848,1.01173947749216,NaN,-0.630942361602363,0.679180538069275,0.583143164786813,-0.583143164786191,-0.0358876906965879
1775.4112,-0.720622754695617,-1.05882702822531,-1.28861852781844,-0.00596525008589986,1.78941346835863,1.78941346835972,-0.454675675412106,-0.33743260648837,-0.442258662638814,-0.492724774422352,0.412115369893563,-0.49272477442213,0.0857328176165784,-0.631457779418383,NaN,-0.772308843338726,0.928190867899112,-0.303070986243032,-0.35143035533835,-0.20828548179151,-0.351430355339575,0.997477591248693,-0.927110058054786,0.214819303600372,0.825042421271464,-0.238026753055078,NaN,NaN,0.521756605340301,0.149562258688234,-2.14434960878077,0.747298186668432,-2.74622391660314,1.23685009628688,-1.6150060375725,0.169688431480526,-0.14536727998447,0.194454339412824,0.194454339411601,0.661488006369368,0.238108226283717,0.581724360897369,0.983739128831697,0.188975913219676,0.996376083033736,NaN,-0.62600247845271,0.657095259391475,0.595464986617691,-0.59546498661705,-0.0498722672715126
1775.5136,-0.731891874146129,-1.09255474862604,-1.31719119462581,-0.012202774014877,1.78249481189961,1.78249481190068,-0.436440224714894,-0.321840810123249,-0.423792158102408,-0.499382262154904,0.430461577896149,-0.499382262154694,0.108831856110459,-0.627758325621432,NaN,-0.754062651468885,0.918530991510828,-0.289054929291098,-0.331698346627743,-0.214029439514082,-0.331698346628977,0.998500584606172,-0.93292993612617,0.209563655962373,0.841254460468546,-0.223951272244273,NaN,NaN,0.517244015685843,0.146961867899506,-2.15051200096577,0.754229896541793,-2.74483650064107,1.25375672318147,-1.60478208894472,0.196481067207223,-0.168182076830189,0.186631218256171,0.186631218254956,0.680330052231528,0.247181761883949,0.599083747994898,0.977658497921822,0.15621869750123,0.980343578340363,NaN,-0.620774442962292,0.634081650801079,0.606912579817009,-0.606912579816353,-0.063963288044575
1775.616,-0.742943777517752,-1.12542091570409,-1.34510940903733,-0.018751193624934,1.77553494501184,1.77553494501291,-0.417979540773902,-0.306256959600699,-0.405168584765667,-0.50694786533155,0.448705679128562,-0.506947865331366,0.131158337844553,-0.624880523803003,NaN,-0.734974433724607,0.908000473442114,-0.274629464748214,-0.312378351258569,-0.219788830488873,-0.31237835125981,0.998882085009344,-0.937929732903503,0.204421598735535,0.856961423371341,-0.210498086832139,NaN,NaN,0.512521648207071,0.143928294895272,-2.15590027622749,0.760670917218478,-2.74288617744922,1.26886888048277,-1.59391381301575,0.221740357408493,-0.190841943425824,0.180409174959153,0.180409174957947,0.699050967122407,0.256224622188163,0.616341063892165,0.970912153564517,0.123285196797242,0.963621679715475,NaN,-0.615298164082623,0.610093930885681,0.617452798648657,-0.617452798647996,-0.0781578712770776
1775.7184,-0.753745630232268,-1.1573365631759,-1.37229448352662,-0.0256181217948032,1.76858040133693,1.76858040133801,-0.399336641190541,-0.290731342182449,-0.386436288589607,-0.515484557476842,0.466822779044034,-0.515484557476683,0.152659501409973,-0.622820655946871,NaN,-0.71509984583161,0.896579244169043,-0.259865024785716,-0.293491703695787,-0.225576027383792,-0.293491703697032,0.998598789549357,-0.942106269335354,0.199367329945499,0.872137578857925,-0.197691445461076,NaN,NaN,0.507568700869717,0.1404557349838,-2.16047714021746,0.766608164486117,-2.7403253541936,1.28215592629276,-1.58238993914061,0.245440322345827,-0.213255355819582,0.17578075732392,0.175780757322724,0.717603354107445,0.265188264900673,0.633443780947445,0.96348014900495,0.0901713066609321,0.946190098939429,NaN,-0.609615369485102,0.585086939525991,0.627054815854279,-0.627054815853614,-0.0924537072565309
1775.8208,-0.764263770015384,-1.18821506222905,-1.39866799341844,-0.0328112891024439,1.76167853878316,1.76167853878425,-0.38055775610192,-0.275316470335956,-0.3676466840468,-0.525053518473935,0.484788255580623,-0.525053518473802,0.173284676649545,-0.621573181399848,NaN,-0.694497833525673,0.884248711668396,-0.244834716524097,-0.275058332553864,-0.231404331500001,-0.275058332555115,0.997628307496678,-0.945459691660065,0.194372457800052,0.886757923272699,-0.185553606495958,NaN,NaN,0.502364725683417,0.136539470693769,-2.16420686525594,0.772029899375795,-2.737106894161,1.29359167442745,-1.57019953848898,0.267559742843159,-0.235330720589473,0.172734759535276,0.172734759534089,0.735939448771938,0.274021814761354,0.650338290171828,0.955343402206456,0.0568707829158973,0.92802870288559,NaN,-0.603769423306493,0.559016513497892,0.635690184984145,-0.63569018498348,-0.106849040326762
1775.9232,-0.774463747118093,-1.21797263871113,-1.42415207349137,-0.040338561757456,1.754877035236,1.7548770352371,-0.361692044824697,-0.260066742345612,-0.348853932781896,-0.535713695674227,0.502577885081895,-0.535713695674126,0.192985388764385,-0.621130888336631,NaN,-0.673230303933117,0.870991870319354,-0.229613911529661,-0.257096654575305,-0.237287924734895,-0.257096654576557,0.995949283430746,-0.947993516750082,0.189406104918679,0.900798164215667,-0.17410457172152,NaN,NaN,0.496889725222197,0.132175875239153,-2.16705549794563,0.776925815706056,-2.73318435317985,1.3031544855548,-1.55733203222169,0.288082256762335,-0.256977001632857,0.171256327313989,0.171256327312815,0.754011159108869,0.282672028990782,0.66696991945587,0.946483802046409,0.0233753500606843,0.909117648587751,NaN,-0.597805113560526,0.531839880037956,0.643332904412106,-0.64333290441144,-0.121342635646317
1776.0256,-0.78431037321013,-1.24652889350015,-1.44866972539876,-0.0482079699748184,1.74822338405553,1.74822338405665,-0.342791256560245,-0.245038052839851,-0.33011456482604,-0.547521354826709,0.52016796404648,-0.547521354826639,0.211715444019481,-0.621485031694161,NaN,-0.651361754829897,0.856793411980542,-0.214279789278594,-0.239623462785515,-0.243241817653961,-0.23962346278677,0.993541513606602,-0.949714664044553,0.18443501911961,0.914234697004798,-0.163361782643978,NaN,NaN,0.491124234331851,0.127362424719484,-2.16899106394569,0.781287122958388,-2.72851221954019,1.31082736692468,-1.54377719656152,0.306996467511106,-0.278104371442924,0.171327053452238,0.171327053451085,0.771770100310159,0.291083276038041,0.683282952529308,0.936884281904108,-0.0103251609040147,0.88943749643522,NaN,-0.591768418901443,0.503516064124567,0.649959472439732,-0.649959472439073,-0.135933734567411
1776.128,-0.793767769251626,-1.27380732753083,-1.4721451262826,-0.0564277544335871,1.74176438858075,1.74176438858189,-0.3239093247808,-0.230287329575253,-0.311487026617639,-0.560529632547928,0.537535425445642,-0.560529632547894,0.22943100854669,-0.62262545619789,NaN,-0.62895887273751,0.841639834647586,-0.198910848815452,-0.222653815964474,-0.249281790083444,-0.222653815965734,0.990386049383926,-0.950633470148691,0.179423687390605,0.927044571908552,-0.153339793313533,NaN,NaN,0.48504938338777,0.122097715390574,-2.16998377101438,0.785106626316276,-2.72304615602744,1.31659807764832,-1.52952517114579,0.324296056316196,-0.298624862131207,0.172925067814179,0.172925067813052,0.789167639177324,0.299197528315953,0.699220660006257,0.92652887207767,-0.0442426530167818,0.868969309957398,NaN,-0.58570626803338,0.474006290923363,0.655548931578412,-0.655548931577748,-0.150621997447324
1776.2304,-0.802799404172816,-1.29973586532524,-1.49450392684074,-0.0650064306625703,1.73554564869172,1.73554564869289,-0.305101889615741,-0.215871976325204,-0.293031144659703,-0.574788106061093,0.554657943919936,-0.574788106061109,0.246090689606087,-0.62454070214547,NaN,-0.606090118117316,0.825519540638947,-0.183586412535899,-0.206200939548059,-0.255424320275617,-0.206200939549326,0.986465280851222,-0.950763679062352,0.174334452300883,0.939205451609552,-0.144049936443597,NaN,NaN,0.478646941360474,0.116381482637459,-2.1700062118418,0.788378809831128,-2.71674323548055,1.32045923212625,-1.51456647373267,0.339979887596523,-0.318453000123083,0.176025124915557,0.176025124914458,0.806154960411335,0.30695437870443,0.714725355146618,0.915402745583497,-0.0783905796890219,0.847694756869955,NaN,-0.579666303042979,0.44327436291477,0.660082911279662,-0.660082911279007,-0.165407427218171
1776.3328,-0.811368125977988,-1.32424736105377,-1.51567353273852,-0.0739528649348703,1.72961103385943,1.72961103386063,-0.286425757962337,-0.201849232171147,-0.274807515363802,-0.590342391585069,0.571514026737685,-0.590342391585138,0.261655619313692,-0.627218099021119,NaN,-0.58282531134826,0.808422916173874,-0.168386141200892,-0.190276148367118,-0.261686503628256,-0.190276148368388,0.981763001802909,-0.950122401492566,0.169127639674813,0.950695562262264,-0.135499994414728,NaN,NaN,0.471899341461175,0.110214621061321,-2.1690335670201,0.791099927513877,-2.70956216124629,1.32240839356318,-1.49889202574468,0.354052094957601,-0.337506420187512,0.18059868581065,0.180598685809576,0.822683159115601,0.314291094119138,0.72973848218877,0.903492274692333,-0.11278372872138,0.825596230452104,NaN,-0.573696649933928,0.411287006367034,0.663545676912158,-0.663545676911508,-0.180290270080586
1776.4352,-0.819436195548397,-1.34728006967801,-1.5355833717754,-0.0832763532163867,1.72400214592845,1.72400214592968,-0.267938322977754,-0.188275484558247,-0.256876849685827,-0.607233774685799,0.588083091247899,-0.607233774685926,0.27608953362965,-0.630643852777132,NaN,-0.559235225223842,0.790342389993934,-0.153389567597532,-0.1748887969485,-0.268085965970496,-0.174888796949773,0.97626446700432,-0.948730044816299,0.163761709551315,0.961493643207567,-0.127693882437989,NaN,NaN,0.464789695675343,0.103599206981561,-2.16704380648669,0.793268102154621,-2.70146346965615,1.32244815342533,-1.48249319638412,0.366522137277714,-0.35570646085636,0.186613987303971,0.186613987302925,0.838703356657762,0.32114271439315,0.744200737938785,0.890785109275226,-0.147437971353242,0.802657002633898,NaN,-0.567845692443579,0.378014196256604,0.665924184498771,-0.665924184498122,-0.195270896885722
1776.5376,-0.826965335090246,-1.36877807302007,-1.55416515457873,-0.0929866958944201,1.71875778572974,1.718757785731,-0.249696968066849,-0.175205576226061,-0.239299304586804,-0.625498870257685,0.604345531753863,-0.625498870257868,0.28935884046758,-0.634803127812927,NaN,-0.535391185456353,0.771272475757741,-0.138675647786992,-0.160046258140949,-0.274640776749917,-0.160046258142226,0.969956455289959,-0.946610224265233,0.158193435615683,0.971578899674299,-0.120631350925756,NaN,NaN,0.457301804834434,0.096538525786103,-2.16401788665404,0.794883427161065,-2.69240971820823,1.32058619728513,-1.46536187552882,0.377404817652307,-0.372978743226412,0.194036093631219,0.19403609363019,0.854166833782125,0.327442196345464,0.758052221958631,0.877270275292878,-0.182369983203753,0.778861405062124,NaN,-0.562161844061712,0.343429469783884,0.667208139690499,-0.667208139689859,-0.210349670651485
1776.64,-0.833916801322269,-1.38869165885464,-1.57135313866733,-0.10309426274593,1.71391344214764,1.71391344214892,-0.231758479420078,-0.162692138246901,-0.222133829809322,-0.645169306795966,0.620282782230484,-0.645169306796201,0.301432677022124,-0.639680125072737,NaN,-0.511364677184825,0.751209802503642,-0.124322325407896,-0.145753928981743,-0.281369366067424,-0.145753928983024,0.962827346203639,-0.943789667221838,0.152378109450575,0.980930961714603,-0.114307715081028,NaN,NaN,0.449420169683837,0.0890371066888953,-2.15993994089259,0.795948064222775,-2.6823656688397,1.31683535806527,-1.44749058434834,0.386720259562787,-0.389253731340041,0.202826930563417,0.202826930562408,0.869025176093556,0.333120599071936,0.771232610301712,0.862938285602483,-0.217596948558713,0.75419502710774,NaN,-0.556693315866115,0.307510231603979,0.667390062431345,-0.667390062430709,-0.225526803843366
1776.7424,-0.840251491488935,-1.40697765694427,-1.58708440644,-0.113610042617547,1.70950081921638,1.70950081921768,-0.214178485579013,-0.150784974779672,-0.205437552155167,-0.666271429374112,0.635877384822877,-0.666271429374392,0.312282962109425,-0.645258160926475,NaN,-0.487226954135748,0.730153132798118,-0.110406105683309,-0.132015260346626,-0.288290446558079,-0.132015260347906,0.954867210781888,-0.940298118943892,0.14626976101056,0.989529851467828,-0.108713620482135,NaN,NaN,0.441130006706824,0.081100765599355,-2.15479746274858,0.796466330078709,-2.67129847812019,1.31121365430161,-1.42887262409122,0.394493837246508,-0.404467266878147,0.212945310651513,0.212945310650519,0.883230430776486,0.338107308817562,0.783681351372038,0.847781254929872,-0.253136259893991,0.728644919331055,NaN,-0.551487880005316,0.270238046316509,0.666465355600334,-0.666465355599706,-0.240802208823226
1776.8448,-0.845930088505268,-1.42359973980358,-1.60129916763947,-0.124545669063582,1.70554741079221,1.70554741079353,-0.19701093099506,-0.139530511959979,-0.189265206607665,-0.688826018291399,0.651113071809261,-0.68882601829172,0.321884451016598,-0.651519746860247,NaN,-0.46304865314664,0.708103372122164,-0.0970016400299378,-0.118831803068327,-0.295422936792306,-0.118831803069608,0.946067914710468,-0.936168254569247,0.139821387631982,0.997355960309589,-0.103834852430431,NaN,NaN,0.432417270515282,0.0727366544037149,-2.14858148237911,0.796444769160734,-2.65917790156885,1.30374430709055,-1.40950225035639,0.400756062744722,-0.418561065621354,0.224346969667861,0.224346969666871,0.896735275889477,0.342330305022636,0.795337885468219,0.831793009318424,-0.289005223780393,0.702199789689622,NaN,-0.546592629342736,0.231598908617169,0.664432372310483,-0.664432372309858,-0.256175345285908
1776.9472,-0.850913249894683,-1.43852869555877,-1.61394109488101,-0.135913408217625,1.70207612570111,1.70207612570246,-0.180307576766116,-0.128971303199611,-0.173668606724322,-0.712848023877801,0.665974859350702,-0.712848023878159,0.330214797211783,-0.658446657390977,NaN,-0.438899423760234,0.685063583991302,-0.0841813234984934,-0.106203262241428,-0.30278588111856,-0.106203262242711,0.93642323247658,-0.931435597990701,0.132985189178305,1.00439003779291,-0.0996521929313433,NaN,NaN,0.423268684550701,0.063953312160523,-2.14128673462399,0.795892212556209,-2.64597650814369,1.29445572828055,-1.38937485076277,0.405542437981161,-0.431483162587948,0.236984636687255,0.236984636686273,0.909493202516188,0.345716469552854,0.806141888916928,0.81496917993656,-0.325220779021407,0.6748501810194,NaN,-0.54205373338509,0.191583481260798,0.661292480932033,-0.661292480931398,-0.271645067343698
1777.0496,-0.855161843855585,-1.45174267227794,-1.62495769550057,-0.147726093201177,1.69910495989703,1.6991049598984,-0.164117514195899,-0.119145573039997,-0.158696137785969,-0.738346321133694,0.680449141395062,-0.738346321134083,0.337254620125362,-0.666019968352139,NaN,-0.414847580195027,0.661039027142102,-0.0720149036919607,-0.09412755416305,-0.31039836296456,-0.0941275541643329,0.925928971205963,-0.926138444129206,0.125712811573052,1.01061319541232,-0.0961413248149672,NaN,NaN,0.413671783450408,0.05476071113142,-2.13291181228958,0.794819824389322,-2.63166989019931,1.28338147609022,-1.36848710617081,0.408893282607699,-0.443188300290149,0.250808146949816,0.250808146948845,0.921458705535338,0.348191939909329,0.816033539869114,0.797307273932298,-0.361799221824543,0.646588624447838,NaN,-0.537916189581175,0.150187296429043,0.657050132721672,-0.657050132721035,-0.287209471017531
1777.152,-0.858637234548733,-1.4632273827569,-1.63430071655297,-0.159996993901007,1.69664671116951,1.69664671117088,-0.148486681531006,-0.110086788407404,-0.144392261906209,-0.76532348926737,0.694523769528633,-0.765323489267803,0.342987575243955,-0.674220056248101,NaN,-0.390959774211839,0.636037219100268,-0.0605690971753501,-0.0826008636094761,-0.318279409172044,-0.0826008636107571,0.914583102760585,-0.92031777859268,0.117955603686816,1.01600692944127,-0.0932727793342683,NaN,NaN,0.403614969338508,0.0451702927370448,-2.12345929605457,0.793241135290809,-2.616236852746,1.27056018039789,-1.34683712753787,0.410853546145769,-0.45363826456682,0.265764588918239,0.265764588917281,0.932587474629914,0.349682505350103,0.824953799060808,0.778806718804573,-0.398755925456777,0.61740976929781,NaN,-0.534223568309546,0.107410923532807,0.651712936769452,-0.651712936768801,-0.302865742377952
1777.2544,-0.861301616982205,-1.47297625732157,-1.64192657726163,-0.172739619414877,1.69470873862198,1.69470873862338,-0.133457386897527,-0.101823258435374,-0.130797037659003,-0.793775620061729,0.708188109636595,-0.793775620062202,0.347400423158878,-0.68302655793934,NaN,-0.367300683548171,0.61006801845608,-0.0499072119961123,-0.0716176996044395,-0.326447879851971,-0.0716176996057189,0.90238590216966,-0.914017186134042,0.109664894805487,1.02055316505448,-0.091011922212286,NaN,NaN,0.393087581385331,0.0351949948099147,-2.11293585574005,0.791172061548839,-2.5996595744525,1.25603544341275,-1.3244245692963,0.411472610182539,-0.462802175792697,0.281798468128418,0.28179846812747,0.942836578945275,0.350114043059268,0.832844699573405,0.759468882570597,-0.436105046479609,0.58731049412469,NaN,-0.531017749100588,0.0632601107144777,0.64529174320744,-0.645291743206782,-0.318610008544126
1777.3568,-0.86311840046042,-1.48099054091646,-1.64779682598677,-0.185967457518488,1.6932927751164,1.69329277511782,-0.119067853121003,-0.0943777743323456,-0.117945669422649,-0.823692158451137,0.721433073045802,-0.82369215845164,0.35048309609006,-0.692418293811086,NaN,-0.34393271600567,0.583143718603943,-0.0400887804533749,-0.0611709472110214,-0.334922338060238,-0.0611709472122987,0.889340090070687,-0.907282738903371,0.10079229987823,1.02423431954665,-0.0893189775617879,NaN,NaN,0.382079979075497,0.0248492738836594,-2.10135232261896,0.788630908069986,-2.58192374338593,1.23985571884221,-1.30125071903944,0.410804084293449,-0.4706567381492,0.29885187226942,0.298851872268478,0.95216464618953,0.349412992945723,0.839649645704277,0.739297079384768,-0.473859219544828,0.556290007467295,NaN,-0.528338645095136,0.0177459083336542,0.637800731522266,-0.637800731521597,-0.334437196288904
1777.4592,-0.864052640139709,-1.48727933806239,-1.65187862298109,-0.199693659907861,1.69239480094015,1.69239480094159,-0.105351806224383,-0.0877673047284584,-0.105868107377266,-0.85505578107422,0.734251125307975,-0.855055781074755,0.352228760980599,-0.702373165184347,NaN,-0.320915735714649,0.555279153572776,-0.0311692087072706,-0.0512519168381866,-0.34372090017271,-0.0512519168394593,0.875450977272403,-0.900162859314467,0.0912900559902989,1.02703338180433,-0.0881490972726507,NaN,NaN,0.370583642293231,0.0141491227371593,-2.08872373643533,0.785638354308932,-2.56301867630238,1.22207416592166,-1.2773185590856,0.408905594954052,-0.477186440595179,0.316864634075356,0.316864634074415,0.960532042422999,0.347506872686357,0.84531372622286,0.718296570760778,-0.512029246670999,0.524349946134628,NaN,-0.52622391537308,-0.0291152182642395,0.629257497725417,-0.629257497724746,-0.350340902633058
1777.5616,-0.864071516472932,-1.49185960890056,-1.65414525027865,-0.213930683717514,1.69200498552335,1.69200498552482,-0.0923381210399665,-0.0820027518888021,-0.0945887096013406,-0.887842319695205,0.746636279190957,-0.887842319695768,0.352633877326378,-0.712868039895574,NaN,-0.298306816316047,0.526491819359433,-0.0231994463654053,-0.0418503978010641,-0.352861074704492,-0.0418503978023299,0.86072660851197,-0.892708157610446,0.0811113862747409,1.02893400638116,-0.087452482432339,NaN,NaN,0.358591287783781,0.0031120818240493,-2.0750693737915,0.782217425839538,-2.542937429332,1.20274847200946,-1.2526327945528,0.405838564413614,-0.482383696319553,0.3357745047943,0.335774504793354,0.967901056565538,0.344324830601587,0.849784044224663,0.696474562811286,-0.550623786022441,0.491494469853699,NaN,-0.52470867096613,-0.0773012861910643,0.61968313361707,-0.619683133616383,-0.366313279099932
1777.664,-0.86314485434017,-1.49475611543718,-1.65457663952531,-0.228689899294631,1.69210770094264,1.69210770094414,-0.0800505195868179,-0.0770887575105664,-0.084125959184709,-0.922020732415546,0.758584077811849,-0.922020732416147,0.351698248643933,-0.723878629329077,NaN,-0.276160020599558,0.496802007863574,-0.0162256771770641,-0.03295472189813,-0.362359597643725,-0.0329547218993897,0.845177900485406,-0.884971249489255,0.0702108790300414,1.02992061668431,-0.087174553292993,NaN,NaN,0.346096993927618,-0.00824275332882598,-2.06041276461737,0.778393457277689,-2.52167690211923,1.18194064320066,-1.22719984651319,0.401667979999449,-0.486248909697663,0.35551734884226,0.355517348841299,0.9742360875806,0.339798223356614,0.853010057560161,0.673840192411976,-0.589649047297939,0.457730343298505,NaN,-0.523825185435344,-0.126784713987771,0.609102292076555,-0.609102292075854,-0.382344928590547
1777.7664,-0.861245655210116,-1.49600130944129,-1.65315988510305,-0.243981177242539,1.69268160416264,1.69268160416417,-0.0685073127367852,-0.0730235464603726,-0.0744922255070509,-0.957553121300517,0.770091570407031,-0.957553121301138,0.349425068979319,-0.735379353080203,NaN,-0.254526207583105,0.466232940408175,-0.0102890391564577,-0.0245518394710709,-0.372232268695339,-0.0245518394723224,0.828818770379763,-0.877006562517385,0.0585448674729228,1.02997850565433,-0.0872561627107286,NaN,NaN,0.333096322921524,-0.0198947257382637,-2.04478169950233,0.774194051076286,-2.49923793209121,1.15971676912713,-1.20102781959398,0.396462153702604,-0.488790472925919,0.37602733896246,0.376027338961489,0.979503829081477,0.333861201194413,0.854943919911292,0.650404501026192,-0.629108505562034,0.423067000597372,NaN,-0.523602620783488,-0.177532280174086,0.597543231338172,-0.597543231337456,-0.398424810014781
1777.8688,-0.858350599261138,-1.49563514146225,-1.64988968649623,-0.259812475090085,1.69369977969335,1.69369977969489,-0.0577211892130273,-0.069798816875198,-0.065693575535665,-0.994394796322093,0.781157280144173,-0.994394796322754,0.34582096618476,-0.747343195886143,NaN,-0.233452874392669,0.434810882213369,-0.00542539237653346,-0.0166274095137947,-0.382493790965498,-0.0166274095150412,0.811666252896295,-0.868870138966742,0.0460717990047993,1.02909392116111,-0.0876338560080258,NaN,NaN,0.31958643209621,-0.0318216137268499,-2.02820822563314,0.769649034024306,-2.47562537088557,1.13614676812424,-1.17412646449461,0.390292463497736,-0.490024708766444,0.397237100941224,0.397237100940241,0.983673443539813,0.3264512887142,0.855540812478725,0.626180404046556,-0.669002645022316,0.387516596208647,NaN,-0.524066774604006,-0.229505136321583,0.585037830451777,-0.585037830451035,-0.414540143258868
1777.9712,-0.85444047498753,-1.49370476577382,-1.64476866220066,-0.276189446782537,1.69512993299288,1.69512993299446,-0.047699067362806,-0.0673997001314989,-0.0577296544283778,-1.03249439054231,0.791781161019954,-1.032494390543,0.340896040894087,-0.759741570092003,NaN,-0.212984043702911,0.402565223061997,-0.00166515413105236,-0.00916590316783902,-0.393157617412315,-0.00916590316907655,0.793740601169859,-0.860619439822897,0.0327525828592323,1.027254128491,-0.0882401821071794,NaN,NaN,0.305566169105541,-0.0439996376546073,-2.01072862654238,0.764790413533162,-2.45084812951378,1.11130411478482,-1.14650715449977,0.383233064216769,-0.489975776737141,0.419077766831353,0.419077766830364,0.986716714366782,0.317509953685236,0.854759254832009,0.601182660593262,-0.709328737756494,0.351094045307518,NaN,-0.5252398487027,-0.282658881452504,0.571621571056951,-0.571621571056177,-0.430676310753545
1778.0736,-0.849500510493982,-1.49026412945175,-1.63780750185129,-0.293115096005188,1.69693462537739,1.69693462537899,-0.0384420210291104,-0.0658048055591999,-0.0505936487490316,-1.07179403417318,0.801964541649573,-1.07179403417389,0.334663896196494,-0.772544196097158,NaN,-0.193160204317936,0.369528520719114,0.000966788549683904,-0.00215071780511898,-0.404235807711468,-0.00215071780634983,0.775065362711929,-0.852313149417334,0.0185509055607028,1.02444745102385,-0.0890040543575246,NaN,NaN,0.291036146884369,-0.0564034823544653,-1.99238338172256,0.759652335609729,-2.42491918085769,1.08526554899681,-1.1181828830648,0.375360561597004,-0.488675544833059,0.441478941022249,0.44147894102124,0.988608168390393,0.30698315551141,0.852561386386105,0.575427839061516,-0.750080658621039,0.313817048813172,NaN,-0.527140237063245,-0.336943693942954,0.557333484378892,-0.557333484378079,-0.446816757557128
1778.176,-0.843520599095758,-1.48537345484784,-1.62902495323088,-0.310589492997173,1.69907154401641,1.69907154401802,-0.0299452798485226,-0.064986344590783,-0.0442723306475195,-1.11222959183273,0.811710059706107,-1.11222959183346,0.327141650456605,-0.785719009179068,NaN,-0.174018303231239,0.335736513985742,0.00245109464129925,0.00443569903726088,-0.415738896671483,0.00443569903603401,0.755667420043133,-0.844010971103167,0.00343351194138843,1.02066329687682,-0.0898511532138462,NaN,NaN,0.275998793168547,-0.0690063364211355,-1.97321710588853,0.754271043303031,-2.39785552142634,1.05811076481383,-1.08916827950529,0.366753649892518,-0.486163411137998,0.464368622948026,0.464368622947001,0.989325175484352,0.294821863400787,0.848913220180813,0.548934270632562,-0.791248740690212,0.275706094279266,NaN,-0.529782333285371,-0.392304506233862,0.542216062480742,-0.542216062479894,-0.462942893724556
1778.2784,-0.836495423730143,-1.47909863637614,-1.61844765922791,-0.328609569648099,1.70149380499836,1.70149380499997,-0.0221982973321701,-0.0649103183205151,-0.0387461726132377,-1.15373096043409,0.821021596718367,-1.15373096043482,0.318349928252049,-0.799232096320898,NaN,-0.1555917793178,0.301228113990207,0.00277392841077333,0.0106117151398429,-0.427675771580685,0.0106117151386206,0.735576988377485,-0.835773402109476,-0.0126295445690057,1.01589217841962,-0.0907043604455661,NaN,NaN,0.260458368177933,-0.0817799472882152,-1.9532784715495,0.748684833583542,-2.36967810349604,1.0299220780152,-1.05947963593144,0.357492716958458,-0.482486053831128,0.487673137252265,0.487673137251227,0.988848041304934,0.280982535428977,0.843784877981178,0.521721986199247,-0.832819678941283,0.236784425901425,NaN,-0.533176362643088,-0.448681204720688,0.526315131628444,-0.526315131627581,-0.479034004269292
1778.3808,-0.828424494251325,-1.47151057268284,-1.60610987010136,-0.347168993534738,1.70415028957437,1.70415028957598,-0.0151848783632151,-0.0655367548624703,-0.0339895220423958,-1.1962224209261,0.829904223384326,-1.19622242092683,0.308312831266747,-0.813047662139632,NaN,-0.137910629972719,0.266045377535585,0.00192687361993531,0.0163963691714505,-0.440053554633595,0.0163963691702359,0.714827568904719,-0.827661484748982,-0.0296646810353977,1.0101257265165,-0.091484217463171,NaN,NaN,0.244420946460932,-0.0946946915664386,-1.93262011782288,0.742934013064114,-2.34041174257755,1.00078407260774,-1.02913493836743,0.347659422441301,-0.477697095381755,0.511317105665124,0.51131710566407,0.987160105656414,0.265427553479981,0.837150814428685,0.493812636743656,-0.874776487627677,0.197077981976761,NaN,-0.537328246755549,-0.506008844706827,0.509679687652211,-0.509679687651322,-0.495067175339727
1778.4832,-0.81931212062037,-1.46268444859162,-1.5920530626769,-0.366258105258003,1.70698601146648,1.70698601146808,-0.00888335798463163,-0.0668199881552685,-0.0299708268927074,-1.23962303718312,0.838364160253058,-1.23962303718384,0.297057895267918,-0.827128023100753,NaN,-0.121001507105967,0.230233461110592,-9.31943108972761e-05,0.0218092158138478,-0.452877488840995,0.0218092158126378,0.693455862459331,-0.819736538799736,-0.0476945928762514,1.00335669984422,-0.0921094066841943,NaN,NaN,0.227894363815089,-0.107719658146101,-1.91129854316441,0.737060853501796,-2.31008499383822,0.970783227886313,-0.998153895561393,0.337336255817517,-0.471856680181244,0.535223474943356,0.535223474942291,0.984247850216673,0.248125613708794,0.828990032939562,0.465229402212608,-0.917098509827239,0.156615305095808,NaN,-0.542239505365869,-0.564217877898414,0.492361696075463,-0.492361696074547,-0.511017245793396
1778.5856,-0.809167345165871,-1.45269897370811,-1.57632549459206,-0.385863897460385,1.70994250872899,1.70994250873059,-0.00326682270509805,-0.0687089701858182,-0.0266529033554559,-1.28384709592767,0.846408750312546,-1.2838470959284,0.284616038589253,-0.841433631507469,NaN,-0.10488783794668,0.193840551171753,-0.00328427579593095,0.0268701578958089,-0.46615082790781,0.0268701578946017,0.671501650118987,-0.812059879350633,-0.0667380870655662,0.995578990763577,-0.0924972558159528,NaN,NaN,0.210888133420804,-0.120822738567385,-1.88937397518432,0.731109545849561,-2.27872998650268,0.940007527928389,-0.966557956494525,0.32660608320601,-0.465030977199441,0.55931360355874,0.559313603557661,0.980101012069878,0.229052075842398,0.819286291808833,0.435996894738638,-0.959761472178554,0.115427432822477,NaN,-0.547907192639667,-0.623234390666136,0.474415859822348,-0.47441585982141,-0.526856789746149
1778.688,-0.798003845150088,-1.44163558824881,-1.55898171076557,-0.405970019918551,1.712958249366,1.71295824936757,0.00169663731340217,-0.0711476057004468,-0.0239932334131742,-1.32880458136709,0.854046433643028,-1.32880458136782,0.271021505501055,-0.855923126774814,NaN,-0.089589964295427,0.156917766790407,-0.00763944964775773,0.0315992676253726,-0.479874729596499,0.0315992676241708,0.649007641872993,-0.804692522446533,-0.0868099418668875,0.986787628696315,-0.0925642574552684,NaN,NaN,0.193413335562462,-0.133970721788991,-1.86691021063816,0.72512615005669,-2.24638220814218,0.908546055649551,-0.934370303501729,0.315551695266713,-0.457291625952905,0.583507407801089,0.583507407800008,0.974712694373287,0.208189277175423,0.808028295986065,0.40614105307374,-1.0027375791175,0.0735477676549821,NaN,-0.5543238613255,-0.682980352818708,0.455899359101074,-0.455899359100127,-0.542556131118413
1778.7904,-0.785839803645866,-1.42957766232195,-1.5400820128256,-0.42655680402271,1.71596903346761,1.71596903346917,0.00604365964209994,-0.0740750982306459,-0.0219442780645178,-1.37440167963671,0.861286713980936,-1.37440167963744,0.256311805491714,-0.870553402518758,NaN,-0.0751253004238734,0.119519033798975,-0.01314711140787,0.0360166072463216,-0.494048151509573,0.0360166072451225,0.626019284684887,-0.797694881237777,-0.107920807078724,0.976978782295612,-0.0922265900619695,NaN,NaN,0.17548248472273,-0.147129396923605,-1.84397442295708,0.719158537078876,-2.21308024056091,0.876488575927314,-0.901615809278492,0.304255370147246,-0.448715145051998,0.607723568789117,0.607723568788033,0.968079460473872,0.185526817879208,0.795209866466028,0.37568901164855,-1.04599564534305,0.0310119108606473,NaN,-0.561477549415158,-0.743373885649723,0.436871575094336,-0.436871575093386,-0.5580833880386
1778.8928,-0.772697743473739,-1.41660972292799,-1.51969190269841,-0.447601307764159,1.71890836990044,1.71890836990198,0.00981533715918505,-0.0774263004228931,-0.0204537947799759,-1.42054131089207,0.868140113107226,-1.42054131089281,0.240527647001224,-0.885279677045199,NaN,-0.0615085177210026,0.0817009323763587,-0.0197912549774115,0.0401420616245094,-0.508667751551429,0.0401420616233137,0.602584515082398,-0.791126454003238,-0.130077165073261,0.966149764054434,-0.091400627557336,NaN,NaN,0.157109378028912,-0.160263671115032,-1.8206369398391,0.713256317636731,-2.1788654628057,0.843925114061646,-0.868320952241806,0.292798462730973,-0.439382318759511,0.631879799481343,0.631879799480258,0.960201394971474,0.161061821367071,0.780830076116907,0.344668922125903,-1.08950126715944,-0.0121425611043652,NaN,-0.569351788726179,-0.804329566347601,0.417393812620052,-0.417393812619087,-0.573404544498633
1778.9952,-0.75860432449856,-1.4028167308554,-1.49788151155389,-0.469077390655881,1.72170781295639,1.72170781295793,0.0130569473750597,-0.0811320675028654,-0.0194651548243307,-1.46712368754335,0.874618117846583,-1.46712368754409,0.223712863530926,-0.900055565988839,NaN,-0.0487517603929286,0.0435225205735407,-0.0275518007332047,0.0439951901101994,-0.523727798966689,0.0439951901090049,0.578753443559325,-0.785045499428939,-0.15328136346478,0.954299040148346,-0.0900034288234021,NaN,NaN,0.138308929420373,-0.173337709370559,-1.79697099452788,0.707470750018132,-2.14378174333928,0.810945531428629,-0.834513687300639,0.28126102450879,-0.429377568237448,0.655893170095485,0.655893170094384,0.951082120339498,0.134799168107,0.764893342788574,0.313109712134315,-1.13321703458528,-0.0558763927726802,NaN,-0.577925640227934,-0.865758783299388,0.39752902890398,-0.397529028903005,-0.588483549039743
1779.0976,-0.743590110190002,-1.38828341224228,-1.47472502275055,-0.490955830787314,1.72429725808413,1.72429725808565,0.0158176824281052,-0.0851196174482595,-0.0189176624790939,-1.51404689551323,0.880733129504614,-1.51404689551398,0.205914330859325,-0.91483316524216,NaN,-0.0368648861866928,0.00504513424971387,-0.0364049634507749,0.0475950989544832,-0.539220101480513,0.0475950989532922,0.554577965590861,-0.779508689226985,-0.177531714810196,0.941426244195638,-0.0879532025544007,NaN,NaN,0.11909699359312,-0.186315100515572,-1.77305245112399,0.701854619698809,-2.10787513606654,0.777639092033171,-0.800223266452781,0.269721451214439,-0.418788304489371,0.679680499917375,0.679680499916261,0.940728766990996,0.106751697025478,0.747409476087837,0.281040776874352,-1.17710278896472,-0.100149024024834,NaN,-0.587173762691903,-0.927570149047846,0.377341562916589,-0.377341562915627,-0.603282443721939
1779.2,-0.727689309684588,-1.37309364485762,-1.45030009546558,-0.513204487144731,1.72660520116523,1.72660520116675,0.0181503771241616,-0.0893129030710132,-0.0187468798714122,-1.56120749505388,0.886498422905451,-1.56120749505464,0.187181874489637,-0.929563150507591,NaN,-0.0258557251063775,-0.0336678373969928,-0.0463236530086294,0.0509603323520999,-0.555133952536408,0.0509603323509078,0.530111303833363,-0.774570732571436,-0.20282265136733,0.927532193158112,-0.0851697489881057,NaN,NaN,0.0994901833083697,-0.199159048769679,-1.74895950278907,0.696462087863956,-2.0711935836429,0.744094011369582,-0.765480004289776,0.258256152271532,-0.407704256884601,0.703158834071125,0.703158834069991,0.929151898125745,0.0769403662402469,0.728393675983006,0.248491606994248,-1.22111593102902,-0.14491904094025,NaN,-0.597066517102513,-0.989669974055461,0.356896853723965,-0.356896853723021,-0.617761528815025
1779.3024,-0.710939500122652,-1.35732989941852,-1.42468729426082,-0.535788496328102,1.72855896574747,1.72855896574896,0.0201112341227753,-0.0936329988643606,-0.018884959057495,-1.6085011382667,0.891928115127838,-1.60850113826748,0.167568165625707,-0.944194894080699,NaN,-0.0157303553770291,-0.0725511990706748,-0.0572779061688559,0.0541087782145173,-0.571456104540518,0.0541087782133276,0.505407499415272,-0.770283980797145,-0.229144921835242,0.912618908045176,-0.08157488460291,NaN,NaN,0.0795056861043185,-0.211832583861219,-1.72477234670041,0.691348511991421,-2.03378662948185,0.710396988659799,-0.730314996352608,0.246939237239368,-0.396216776820741,0.726246009836563,0.726246009835404,0.916365390073836,0.0453943630848901,0.707866480320417,0.215491365023965,-1.26521177539668,-0.190144690177045,NaN,-0.607570103784615,-1.05196279789826,0.3362611393836,-0.336261139382676,-0.631879566306658
1779.4048,-0.693381335772776,-1.34107272829093,-1.39796952778388,-0.558670484168557,1.73008490671041,1.73008490671189,0.0217595465104384,-0.0979985010217337,-0.0192609806258054,-1.6558231981922,0.897037137571695,-1.65582319819298,0.147128601941056,-0.958676596044997,NaN,-0.00649339563105622,-0.111538214531806,-0.0692353456279911,0.0570575829170102,-0.588170776969331,0.0570575829158232,0.480520884919458,-0.766698034116862,-0.256485813445543,0.896689645162639,-0.0770928542307204,NaN,NaN,0.0591610930515663,-0.224298775780047,-1.70057284640699,0.686570245999933,-1.99570514474825,0.676632741658219,-0.69475981994628,0.235842218440884,-0.384418125029471,0.74886127696576,0.748861276964578,0.902386271866412,0.0121511525675975,0.685853660330242,0.182068436665228,-1.30934393113595,-0.235784425455423,NaN,-0.618646728080575,-1.11435195808163,0.31550113568218,-0.315501135681265,-0.64559401808442
1779.5072,-0.675058252340312,-1.32440028759788,-1.37023149871334,-0.581810772574767,1.73110860445214,1.73110860445359,0.0231574175539614,-0.102325935628379,-0.0198012971964108,-1.70306939971232,0.901841201631147,-1.70306939971308,0.125921168601894,-0.972955425132472,NaN,0.00185169426076766,-0.150560884294676,-0.0821616552747499,0.0598230698015946,-0.60525970539099,0.0598230698004084,0.455505578048055,-0.763859375713516,-0.284829378767216,0.879748941564378,-0.0716507282092642,NaN,NaN,0.0384742564048426,-0.236520937828217,-1.6764441920956,0.682184427948821,-1.95700107540763,0.642883576654242,-0.658846259663011,0.225033734520824,-0.372400756768302,0.770925907424872,0.770925907423661,0.887234532918148,-0.0227435452845746,0.662386067543494,0.148249993897047,-1.3534646783266,-0.281797441532713,NaN,-0.630254792859773,-1.17674016327357,0.294683699846053,-0.294683699845151,-0.65886130937376
1779.6096,-0.656016172266624,-1.30738788604647,-1.34155916786632,-0.605167569911611,1.73155506489769,1.73155506489912,0.0243694757440275,-0.106530169599195,-0.0204298812362087,-1.75013643964136,0.906356750170136,-1.7501364396421,0.104006277755349,-0.986977665194963,NaN,0.00930231487291779,-0.189550231048165,-0.0960210570879576,0.0624206598713103,-0.62270222814402,0.0624206598701284,0.430415026378469,-0.761811051031401,-0.314156648935185,0.861802674005882,-0.0651787750443761,NaN,NaN,0.0174631875801511,-0.248462807622307,-1.65247056193637,0.678248760525557,-1.91772720537674,0.60922902305243,-0.622606090911483,0.214579302802686,-0.360256619999551,0.792363740089591,0.792363740088352,0.870932910094018,-0.0592358547640554,0.637499438717224,0.11406160532228,-1.3975253182771,-0.3281441549326,NaN,-0.642349118282266,-1.23903004079127,0.273875484186616,-0.273875484185722,-0.671637110350779
1779.712,-0.636303212018352,-1.290107566371,-1.31203923642757,-0.62869714512192,1.73134893541222,1.73134893541362,0.0254625812683301,-0.110524822062032,-0.0210686791156761,-1.79692258459477,0.910600893507957,-1.79692258459551,0.0814465887579827,-1.00068886686183,NaN,0.0158564410213874,-0.228436587793324,-0.110776776664771,0.0648647967536664,-0.64047540070588,0.0648647967524886,0.405301614987402,-0.76059239700657,-0.344445823786919,0.842858129338974,-0.0576108003509824,NaN,NaN,-0.00385400450688686,-0.260088705553188,-1.62873678173452,0.674821285815455,-1.87793692745036,0.575745545066663,-0.586070934234248,0.204541104882289,-0.34807647848772,0.813101639391504,0.813101639390239,0.853506664933889,-0.0972639207008724,0.61123416683824,0.0795269167486732,-1.44147649161195,-0.374786607712027,NaN,-0.654881189975092,-1.3011246421155,0.253142581539589,-0.253142581538718,-0.683876634076096
1779.8144,-0.615969389779714,-1.27262773097311,-1.28175865028613,-0.652353993662918,1.73041473717685,1.73041473717821,0.0265055200901907,-0.114222679435248,-0.0216379752722721,-1.84332823978174,0.91459133405326,-1.84332823978248,0.0583068138641127,-1.01403400749829,NaN,0.021512353742084,-0.267149885171252,-0.126391488950686,0.0671688803646982,-0.658554130677716,0.0671688803635215,0.380216332471675,-0.760238816111503,-0.375672438780219,0.822924085887347,-0.0488844529880236,NaN,NaN,-0.0254591429090262,-0.271363674496144,-1.60532798043103,0.671960153025274,-1.83768401977279,0.542506327849806,-0.549272179749523,0.194977802943495,-0.335949264882234,0.833069871661149,0.833069871659859,0.834983360165449,-0.136758157209973,0.583635046601622,0.0446674084530562,-1.48526846692133,-0.421688788963035,NaN,-0.667799436714608,-1.36292790224581,0.232550162775916,-0.232550162775058,-0.69553494927078
1779.9168,-0.595066333950984,-1.25501281836678,-1.25080413015076,-0.676091005009052,1.72867710891408,1.7286771089154,0.0275686847245511,-0.117536122146546,-0.0220567699396672,-1.88925648673992,0.918346284621165,-1.88925648674065,0.0346535154406618,-1.02695766365419,NaN,0.0262683931055472,-0.30561993910015,-0.142827741972569,0.0693452157225442,-0.676911332255317,0.0693452157213664,0.355208484968775,-0.76078158769827,-0.407809513346749,0.802010904290473,-0.0389415071099137,NaN,NaN,-0.0473339923202931,-0.282253603397246,-1.58232924316688,0.669723377305224,-1.7970224348081,0.509581130850199,-0.512240977261986,0.185944382050991,-0.323961460885651,0.852202408976312,0.852202408975004,0.815392642096959,-0.177641561371451,0.554751001960235,0.00950222163500287,-1.52885140048894,-0.468816881350739,NaN,-0.681049536950269,-1.42434505561465,0.21216210564545,-0.212162105644617,-0.706567303213875
1780.0192,-0.573646997996137,-1.2373230260459,-1.21926173121212,-0.69985964004518,1.72606106085647,1.72606106085774,0.0287237445130041,-0.120377570993293,-0.0222431712873165,-1.9346135914876,0.921884383376934,-1.93461359148833,0.0105549000729939,-1.0394041977721,NaN,0.0301227301170174,-0.343776742957174,-0.160048362804487,0.0714049810988627,-0.695518099553924,0.0714049810976852,0.330325448416051,-0.762247710193925,-0.440827685737091,0.780130621658803,-0.0277281238618859,NaN,NaN,-0.0694602629411301,-0.292725337905626,-1.55982526765107,0.668168589713758,-1.75600611195419,0.477036201915607,-0.475008283785084,0.177492017377471,-0.312196497952424,0.870437169566772,0.870437169565453,0.794766029865037,-0.219830084092687,0.524634799152322,-0.0259519609788201,-1.5721755655841,-0.516139446543064,NaN,-0.694574750113209,-1.4852830172375,0.192040611910606,-0.192040611909795,-0.716929450756717
1780.1216,-0.551765389270876,-1.21961407113331,-1.18721643626031,-0.723610121196323,1.7224922440432,1.72249224404442,0.0300433103061982,-0.122659955010759,-0.0221147991472482,-1.97930948761764,0.925224604471476,-1.97930948761837,-0.0139193905320198,-1.0513179565488,NaN,0.0330731503814814,-0.381550765381351,-0.17801685415664,0.0733582101013259,-0.71434389749047,0.0733582101001503,0.305612451304027,-0.764659768217593,-0.474695337450923,0.757297040673987,-0.0151950872492961,NaN,NaN,-0.0918196140770665,-0.302746783904605,-1.53790002773739,0.667352779564571,-1.71468881903753,0.444934245324537,-0.437604956676713,0.169667967621448,-0.30073417550805,0.887716203874816,0.887716203873487,0.773136703295419,-0.263233056378296,0.49334273959225,-0.0616809953994211,-1.61519155201047,-0.563627564059804,NaN,-0.708316266959289,-1.54565074132821,0.172245809841941,-0.172245809841149,-0.726577990803148
1780.224,-0.529476316187612,-1.2019369858272,-1.15475178544492,-0.747291628687534,1.71789723736223,1.7178972373634,0.0316005981285492,-0.124297193248842,-0.0215891943890627,-2.02325824012885,0.928386159529322,-2.02325824012955,-0.0386984973573489,-1.06264347626916,NaN,0.0351168409939692,-0.418873249064138,-0.196697788084504,0.0752137747881291,-0.733356772503435,0.075213774786956,0.281112385744818,-0.76803582123747,-0.509378706195884,0.733525808350519,-0.00129800820247216,NaN,NaN,-0.114393647956635,-0.312287009678424,-1.51663643969823,0.667332028934764,-1.67312401428952,0.413334437852126,-0.400061883228982,0.162515494917119,-0.289650101557194,0.903985831716979,0.903985831715642,0.750539275621798,-0.307753676024126,0.460934320505758,-0.0976733237969016,-1.65785043818009,-0.611254930240734,NaN,-0.722213574548715,-1.60535956572523,0.152835347434377,-0.152835347433599,-0.735470714302348
1780.3264,-0.506835154618014,-1.18433794827135,-1.12194954394628,-0.770852491315476,1.71220384883765,1.71220384883878,0.0334690946846496,-0.125204675204872,-0.0205842265116523,-2.06637849013884,0.93138838471344,-2.06637849013954,-0.0637105731611436,-1.07332569230423,NaN,0.0362501796708662,-0.455676502974554,-0.216057193644883,0.0769793613340108,-0.752523586172698,0.0769793613328417,0.256865651977456,-0.772389315960835,-0.544841983384871,0.708834483379862,0.0140025017637546,NaN,NaN,-0.137163884474995,-0.321316346608934,-1.49611602251057,0.66816123791628,-1.6313647145615,0.382292490070117,-0.362410139122622,0.156073813831882,-0.279015167550517,0.91919672859322,0.919196728591876,0.727009543086972,-0.353289558371837,0.427471856031895,-0.133919982037004,-1.70010393828439,-0.658997911427464,NaN,-0.736204832809981,-1.66432354310247,0.133863995673324,-0.133863995672564,-0.74356696542852
1780.4288,-0.48389763302158,-1.16685814704806,-1.08888940612854,-0.794240365640022,1.70534143209645,1.70534143209753,0.0357222260828279,-0.125299722715787,-0.0190184923848614,-2.10859386826107,0.934250611451339,-2.10859386826175,-0.0888830171816438,-1.08331015303616,NaN,0.0364685367107802,-0.49189418024419,-0.236062922888186,0.0786614406993448,-0.771810267282504,0.0786614406981772,0.232910042438062,-0.777729027991465,-0.581047394670504,0.683242592669734,0.0307406794155537,NaN,NaN,-0.160111725735565,-0.329806480152006,-1.47641854981822,0.669893840554546,-1.58946336531648,0.351860750452839,-0.324681161270927,0.150378077683808,-0.268895072135297,0.933303957056667,0.933303957055309,0.702584216104417,-0.399733347436652,0.393020063595856,-0.170414553717156,-1.7419045280653,-0.706835539480966,NaN,-0.750227259728662,-1.72245975543411,0.11538328619356,-0.115383286192814,-0.750828014138198
1780.5312,-0.460719633554857,-1.14953367655851,-1.05564873190201,-0.817402407850369,1.69724122840649,1.69724122840752,0.0384330306223046,-0.124502021283247,-0.0168117012809676,-2.14983335524844,0.936992024572169,-2.14983335524909,-0.114142706114474,-1.09254323822403,NaN,0.0357661084781104,-0.527461537431526,-0.256684972905661,0.0802652450358521,-0.791182070618485,0.0802652450346872,0.209280666076571,-0.784059036804995,-0.617955267212937,0.656771676921874,0.0489454747896275,NaN,NaN,-0.183218429413379,-0.337730520810171,-1.45762170010587,0.672581515285103,-1.54747171779417,0.322088346388037,-0.286906913918574,0.145459411544736,-0.259349905515725,0.946266945247191,0.946266945245833,0.677300646475195,-0.446973377501998,0.357645629915246,-0.207153061684091,-1.78320555302245,-0.754749442241515,NaN,-0.764217523413568,-1.77968860438284,0.097441194193897,-0.0974411941931617,-0.75721743436329
1780.6336,-0.437357002921057,-1.13239546338023,-1.0223023086772,-0.840285449434141,1.68783674368829,1.68783674368929,0.0416738375141065,-0.122734016796593,-0.0138850434393835,-2.19003156891609,0.939631519252697,-2.19003156891673,-0.139416213532022,-1.10097237605683,NaN,0.034135804489872,-0.562315677855864,-0.277895741941118,0.081794765414483,-0.810603833242671,0.081794765413321,0.186009908066274,-0.791378734719084,-0.655524090561065,0.629445321791928,0.0686404362535428,NaN,NaN,-0.206465103316279,-0.345063048877545,-1.43980071348523,0.676273897435869,-1.50544071510659,0.293021354067908,-0.249120029448718,0.14134499694148,-0.250433798341153,0.958049421347382,0.958049421346026,0.651196569412307,-0.494894371325937,0.321416775578471,-0.244133795411096,-1.82396132371871,-0.802723708843016,NaN,-0.778112141579186,-1.83593406488326,0.0800818616979204,-0.0800818616971906,-0.762701476974897
1780.736,-0.413865364668822,-1.11546922514167,-0.988922130814444,-0.862836190123868,1.67706416122701,1.67706416122797,0.0455159550773792,-0.119921277398497,-0.0101615395601482,-2.22912896241111,0.942187573637751,-2.22912896241173,-0.1646300113183,-1.10854624824058,NaN,0.0315692082902947,-0.596395785222145,-0.299670201567375,0.0832527882404057,-0.830040228240982,0.0832527882392502,0.163127417432475,-0.79968286824993,-0.69371057876022,0.601289167772409,0.0898436282986582,NaN,NaN,-0.229832730180235,-0.351780130207701,-1.42302805685695,0.681018299144667,-1.46342038033937,0.264702992422045,-0.21135391505671,0.138058209503819,-0.242194630095939,0.968619313191021,0.968619313189675,0.624309878278563,-0.543378160850227,0.284402836582492,-0.281357076533904,-1.86412720537365,-0.850744694319253,NaN,-0.791847889313035,-1.89112388744527,0.063345358039123,-0.0633453580383912,-0.767249425472034
1780.8384,-0.39029992657152,-1.09877546064572,-0.95557718914832,-0.885001420214575,1.664862787233,1.66486278723391,0.0500293720190622,-0.11599282111021,-0.0055663688835661,-2.2670719301376,0.944678149589706,-2.2670719301382,-0.189710649408881,-1.11521497720633,NaN,0.0280566193584363,-0.629643351453028,-0.321985979406872,0.0846409819689558,-0.849456022126371,0.0846409819678077,0.140660115889415,-0.808961610140069,-0.732469740217463,0.572330893980087,0.11256759039244,NaN,NaN,-0.253302234897758,-0.357859304517532,-1.40737309077263,0.68685943383381,-1.42145969914037,0.237173841761997,-0.173642825901428,0.135618809850826,-0.234673786529693,0.97794861911341,0.977948619112072,0.596678440915957,-0.592304423715235,0.246673871843632,-0.31882496929617,-1.90365970903546,-0.898800772213391,NaN,-0.805362214823604,-1.94518974406136,0.0472674838521958,-0.0472674838514567,-0.770833931988971
1780.9408,-0.366715282803214,-1.08232946738565,-0.922333268392472,-0.906728276243237,1.6511755278847,1.65117552788557,0.055282473944025,-0.110881413066774,-2.71756955138794e-05,-2.30381283518785,0.947120619617678,-2.30381283518841,-0.214584918089174,-1.12093030035462,NaN,0.0235871625963694,-0.662002400159587,-0.344823367509625,0.0859600320594853,-0.868816342000885,0.0859600320583439,0.118632224749445,-0.819200661028611,-0.771754958121097,0.542600178009034,0.136819334206352,NaN,NaN,-0.276854597203228,-0.363279553780428,-1.39290172744721,0.693839134996508,-1.37960649602579,0.210472089361068,-0.136021908682258,0.134043187229111,-0.227905956254356,0.986013253867246,0.98601325386591,0.568339950922516,-0.641551441332949,0.208300289680744,-0.356540948035872,-1.94251658684191,-0.946882047534063,NaN,-0.818593663436719,-1.99806732997976,0.0318796234408151,-0.0318796234400755,-0.773431347775591
1781.0432,-0.343165216552565,-1.06614138512692,-0.889252757796386,-0.927964521108338,1.63594939630135,1.6359493963022,0.0613417746290375,-0.104523838721282,0.00652564315822424,-2.33930998172518,0.94953170485284,-2.33930998172571,-0.239180003240388,-1.12564574397651,NaN,0.0181489428336969,-0.693419706545478,-0.368165280841061,0.0872098112639485,-0.888086956806871,0.0872098112628161,0.0970653114679737,-0.830381380046821,-0.811518078636675,0.512128639184286,0.162600373178804,NaN,NaN,-0.30047099764226,-0.368021260029336,-1.37967606961792,0.701996056979881,-1.33790730813004,0.184633800587575,-0.0985272190104816,0.133344651793875,-0.221918962292381,0.992792871919309,0.992792871917973,0.539331798558599,-0.690996889319556,0.169352477978003,-0.394509531474416,-1.98065692694865,-0.994980037977008,NaN,-0.831482310998951,-2.04969644081257,0.0172086416741398,-0.0172086416733862,-0.775022069050195
1781.1456,-0.319702509211756,-1.05021626799104,-0.856394482800622,-0.9486588331186,1.61913604445168,1.61913604445251,0.0682716573724506,-0.0968611575764727,0.0141586648063296,-2.37352754651562,0.951927407392064,-2.37352754651611,-0.263423640719104,-1.12931681161654,NaN,0.0117292319156078,-0.723845013277778,-0.391997178847223,0.0883895727244294,-0.907234573167592,0.0883895727233043,0.0759783610805105,-0.842480945328705,-0.851709501366109,0.480949772819877,0.189906783014789,NaN,NaN,-0.324132987276349,-0.372066158636926,-1.36775402530534,0.711365351461731,-1.29640725895,0.159693209047844,-0.0611957162775649,0.13353376535567,-0.216733630662051,0.998270670419798,0.998270670418464,0.509690952172885,-0.740518660836442,0.129900430956793,-0.43273588527032,-2.01804123953073,-1.04308732211896,NaN,-0.843970204775826,-2.10002103292786,0.00327681769468375,-0.00327681769392974,-0.775590907663193
1781.248,-0.296378758729774,-1.03455418561955,-0.823813560738306,-0.96876109411414,1.60069230915885,1.60069230915966,0.0761341185295529,-0.0878389400386981,0.0229351744152231,-2.40643547143727,0.954322929521691,-2.40643547143774,-0.28724426942109,-1.13190119484391,NaN,0.00431468682153003,-0.753231239711372,-0.416306950289577,0.089498158437842,-0.926227137291575,0.0894981584367252,0.0553878753020211,-0.855472545833103,-0.892278270148072,0.449098881078301,0.218729294212776,NaN,NaN,-0.347822684226993,-0.37539728966215,-1.35718890646986,0.721978326584216,-1.2551499342176,0.13568301441478,-0.0240652392938453,0.134618695355366,-0.212363699617138,1.00243317723002,1.0024331772287,0.479453852286863,-0.789995707303259,0.0900133795248918,-0.471225394020101,-2.05463152939919,-1.09119715431708,NaN,-0.856001804697716,-2.14898926227568,-0.00989818840890062,0.00989818840967307,-0.775127477906487
1781.3504,-0.273244207476116,-1.01915034889886,-0.791561278735753,-0.988222675598304,1.58058075542071,1.58058075542151,0.0849885054257463,-0.0774074898987861,0.0329149003517599,-2.43800931989306,0.956732583391748,-2.43800931989352,-0.310571184166735,-1.13335899745093,NaN,-0.00410840598908402,-0.781534679896494,-0.441084763906342,0.0905342153031284,-0.945034126696278,0.0905342153020182,0.0353079905244673,-0.869325599642741,-0.933172169811278,0.416613004625023,0.249053413332573,NaN,NaN,-0.371522996821838,-0.37799894913873,-1.34802903386889,0.733862107737253,-1.21417726670519,0.112634672084717,0.0128255370385731,0.136605574003566,-0.208815769237666,1.00527003384665,1.00527003384533,0.448656326128504,-0.839308872061231,0.0497594395018477,-0.509983214069908,-2.09039136102711,-1.13930305895229,NaN,-0.867524416257275,-2.19655349847531,-0.0223033344524008,0.0223033344531825,-0.773626577858559
1781.4528,-0.250347581212593,-1.00399525515955,-0.759684993023054,-1.00699672101949,1.55877019700765,1.55877019700844,0.094891242769811,-0.0655220535770524,0.0441537458702857,-2.46823010757082,0.959169699268477,-2.46823010757126,-0.333334693639046,-1.13365295158972,NaN,-0.0135538738670514,-0.808715183176837,-0.466322896190458,0.0914964058428896,-0.963626816977968,0.0914964058417864,0.0157505956088079,-0.884005987009806,-0.974337839771458,0.383530858560563,0.28085956338703,NaN,NaN,-0.395217855626619,-0.379856644509103,-1.34031737515186,0.747039321740848,-1.17352944067983,0.0905786566521368,0.0494371658775107,0.139498843703314,-0.20608928783016,1.00677378681093,1.00677378680962,0.41733353146492,-0.888341691886312,0.00920529305327391,-0.549013825827774,-2.12528592615436,-1.18739842500274,NaN,-0.87848860918696,-2.24267031981803,-0.0339301585574328,0.0339301585582403,-0.771088538134448
1781.5552,-0.227735944740996,-0.989074851186034,-0.728228054782432,-1.02503841320699,1.53523617418537,1.53523617418616,0.105895545312003,-0.0521430146531443,0.0567035162470155,-2.49708411906214,0.961646538013419,-2.49708411906257,-0.355466286390906,-1.13274861006934,NaN,-0.0240354042463773,-0.834736310721034,-0.492015548892869,0.0923835993433489,-0.981978516496107,0.0923835993422514,-0.00327456535575418,-0.899476288212165,-1.01572091199,0.349892774510615,0.314123232422928,NaN,NaN,-0.41889242764881,-0.380957060794444,-1.33409123458175,0.761527819714203,-1.13324482233368,0.0695446851739944,0.0857295135159905,0.143301573027719,-0.204176574174013,1.00693969971481,1.00693969971352,0.385519937500866,-0.936981144761073,-0.0315840833601739,-0.588320598592373,-2.15928211773085,-1.23547611452436,NaN,-0.888848619240694,-2.28730049636325,-0.0447747043105922,0.0447747043114101,-0.76751951435576
1781.6576,-0.205454581512717,-0.974370713605562,-0.697229770100926,-1.04230521279067,1.50996137229062,1.5099613722914,0.118051119809053,-0.0372360720526933,0.0706116441119634,-2.52456271761025,0.964174210780555,-2.52456271761065,-0.376898803935087,-1.1306145148025,NaN,-0.0355663025454955,-0.859565465217442,-0.51815866390223,0.0931950341097422,-1.00006476887558,0.0931950341086512,-0.0217598050623031,-0.915696023585804,-1.05726616999983,0.315740647865672,0.348815122836677,NaN,NaN,-0.442533293748667,-0.381288043509971,-1.32938199925265,0.77734044575704,-1.09335991189762,0.0495618945940792,0.121661862675384,0.148015734860402,-0.203062879853414,1.0057655871437,1.0057655871424,0.353249345085533,-0.98511832881606,-0.0725456376267739,-0.627905370206833,-2.19234860594382,-1.28352808590794,NaN,-0.898562731267203,-2.33040896086637,-0.0548374056336807,0.0548374056345179,-0.762931710599173
1781.76,-0.183546898497015,-0.959860247062752,-0.666725395611186,-1.05875706151174,1.48293597116895,1.48293597116971,0.131403862569344,-0.020772403996326,0.0859209166858515,-2.5506621532428,0.966762608925004,-2.55066215324317,-0.397566621116267,-1.12722235151002,NaN,-0.0481592618522778,-0.883174000820628,-0.544749739627381,0.0939304473684682,-1.01786352751431,0.0939304473673827,-0.0396994096817247,-0.93262189817197,-1.0989177190275,0.281117887716298,0.384901296142298,NaN,NaN,-0.466128584429167,-0.38083860109779,-1.32621493997511,0.794484855603257,-1.0539093057918,0.0306589736366632,0.157193031198936,0.153642444912394,-0.202726497531551,1.00325166056112,1.00325166055983,0.320554939537123,-1.03264906581021,-0.113618409990226,-0.667768042168576,-2.22445591029972,-1.33154503062985,NaN,-0.90759364076825,-2.37196476160961,-0.064122927021126,0.0641229270219807,-0.75734353165892
1781.8624,-0.162054349389803,-0.9455169042971,-0.636746164454319,-1.07435655358422,1.45415791801083,1.45415791801158,0.145995558547342,-0.00272882318625674,0.102669207220034,-2.57538337458023,0.969420346855918,-2.57538337458055,-0.417405837427747,-1.12254709901725,NaN,-0.0618261388055061,-0.905537328988394,-0.571787651676513,0.0945901748694327,-1.03535530707341,0.0945901748683492,-0.0570895524467776,-0.950208054277012,-1.14061916109168,0.246069368817245,0.422343308461724,NaN,NaN,-0.489668078715142,-0.37959892660478,-1.32460906578076,0.812963389177177,-1.01492565913837,0.0128642506086828,0.192281504433427,0.16018216093949,-0.203138918485166,0.99940037437578,0.999400374374494,0.287469363503059,-1.07947442917429,-0.154743659931787,-0.707906197091871,-2.25557646505572,-1.37951602922142,NaN,-0.915908790528479,-2.41194099462531,-0.0726399588426346,0.072639958843502,-0.750779665700952
1781.9648,-0.141016368240723,-0.931310432922742,-0.607319336461266,-1.08906908270762,1.42363311674298,1.42363311674371,0.161863586644437,0.0169120741589209,0.12088921302082,-2.59873184725963,0.97215472002379,-2.5987318472599,-0.436354483767945,-1.11656717044062,NaN,-0.0765777304966818,-0.926635032746125,-0.599272479331057,0.0951752273505622,-1.05252331327316,0.0951752273494807,-0.0739282028953824,-0.968406332897183,-1.18231377459936,0.210641386511871,0.461098336388439,NaN,NaN,-0.513143273116012,-0.37756043877466,-1.32457703219889,0.832772997434475,-0.976439648193975,-0.00379426303630493,0.22688558119485,0.167634842415838,-0.204265038575523,0.994216264684953,0.994216264683673,0.254024798221512,-1.12550119814462,-0.195864961242533,-0.748314750053566,-2.28568468153584,-1.42742823854878,NaN,-0.923480679111528,-2.45031471967372,-0.0804009723140232,0.080400972314904,-0.743271096813337
1782.0672,-0.120470309600818,-0.917207149875201,-0.57846826886504,-1.10286297425419,1.39137553460825,1.39137553460898,0.179040633127001,0.0381617698171017,0.140608202971371,-2.62071737697209,0.974971680062574,-2.62071737697229,-0.454352746400032,-1.10926453545584,NaN,-0.0924235525702257,-0.946450989223395,-0.62720533791713,0.0956873487560504,-1.06935354735062,0.0956873487549679,-0.0902150324786243,-0.987166542029635,-1.22394469710364,0.174881613820976,0.501119298358296,NaN,NaN,-0.536547424743844,-0.37471584469222,-1.32612510138248,0.853905217341496,-0.93847994086184,-0.0192888773317307,0.260963537032868,0.176000069018041,-0.206063406894634,0.987705780097821,0.987705780096544,0.220253048867866,-1.17064223798525,-0.236928268546052,-0.788985644014126,-2.31475701750296,-1.47526662329298,NaN,-0.930287137433167,-2.48706686543505,-0.0874219389564132,0.0874219389573129,-0.734855045645968
1782.1696,-0.100451394113769,-0.903170241978132,-0.550212505635258,-1.1157096096422,1.35740723634933,1.35740723635005,0.197554411434411,0.0610257034995697,0.161847776114596,-2.64135393201919,0.977875827096487,-2.64135393201933,-0.471343204446965,-1.10062481773597,NaN,-0.109371623754124,-0.964973489084535,-0.655588216283332,0.0961290513349246,-1.08583487999793,0.0961290513338429,-0.105951317469033,-1.00643672868427,-1.26545510882026,0.13883905677921,0.542354975421319,NaN,NaN,-0.559875568738398,-0.371059224475327,-1.32925314903573,0.87634618541403,-0.901073183986225,-0.0335922849901363,0.29447381282898,0.185277114588821,-0.208486508355916,0.97987711452128,0.979877114520002,0.186185638176621,-1.2148168056561,-0.277881951884421,-0.829907594160113,-2.34277206460831,-1.52301373969305,NaN,-0.936311569004515,-2.52218212620595,-0.0937220158053673,0.0937220158062928,-0.725574839927358
1782.272,-0.080992660816473,-0.889160089771208,-0.522567885383945,-1.12758354112034,1.32175835612808,1.3217583561288,0.217427386671483,0.0855031772414665,0.18462363222177,-2.66065946421329,0.980870415595065,-2.66065946421339,-0.487271074634046,-1.09063737097764,NaN,-0.127428265705751,-0.982195336861237,-0.684423819902073,0.0965036169535031,-1.10195909132874,0.0965036169524198,-0.12113984469755,-1.0261634501625,-1.30678841888565,0.102564003461954,0.584750130334646,NaN,NaN,-0.583124508317451,-0.366586136338644,-1.33395471437581,0.900076684706655,-0.864244009967291,-0.0466776887839795,0.327375237652313,0.195464972492999,-0.21148107428873,0.970740057507918,0.970740057506626,0.151853914134817,-1.25795077953617,-0.318676794510077,-0.871065882358725,-2.36971065789304,-1.5706495739287,NaN,-0.941543150643716,-2.55564885293683,-0.0993231953444555,0.0993231953454005,-0.715479719815487
1782.3744,-0.0621249297012668,-0.875134610322929,-0.495546669537751,-1.13846258759056,1.28446700761947,1.28446700762018,0.238676506789244,0.111587286429993,0.208945356542901,-2.67865573607095,0.9839573680989,-2.67865573607099,-0.502084462095794,-1.07929533785467,NaN,-0.146597929301099,-0.99811391942283,-0.713715424302305,0.0968150581965343,-1.11772087597665,0.0968150581954494,-0.135784828821475,-1.04629203945984,-1.34788845954323,0.0661079652647044,0.628245623888169,NaN,NaN,-0.606292774606633,-0.361293744045199,-1.34021709488687,0.925072228727205,-0.828015059396807,-0.058519002127491,0.359627291276129,0.206562328559934,-0.214988421772333,0.960305871339682,0.96030587133839,0.117289172050112,-1.29997680850888,-0.359265952037674,-0.912442203867913,-2.39555600292325,-1.61815143580387,NaN,-0.945976992323809,-2.58745894506539,-0.104249920519884,0.104249920520852,-0.704624578187627
1782.4768,-0.0438767782665157,-0.861049612754625,-0.469157691677704,-1.1483279025834,1.2455791228491,1.24557912284981,0.261312945695363,0.139264877391504,0.234816222431505,-2.69536816758804,0.987137291054723,-2.69536816758801,-0.515734622825984,-1.06659569028128,NaN,-0.166883055935615,-1.01273124101096,-0.743466747071044,0.0970680428268048,-1.13311781514823,0.0970680428257221,-0.149891846694757,-1.06676686380623,-1.38869969417234,0.0295236119159042,0.672778531330294,NaN,NaN,-0.629380553816794,-0.355180973355772,-1.34802148974367,0.9513031898084,-0.792407012692158,-0.0690911259549792,0.391190409429176,0.218567480454587,-0.218944827528032,0.948587193238212,0.948587193236911,0.0825227852560434,-1.34083437338286,-0.3996048748693,-0.954014572773985,-2.42029381240337,-1.66549391134856,NaN,-0.949614256208248,-2.61760775043816,-0.108528667404464,0.108528667405466,-0.693069627894799
1782.5792,-0.0262745360031671,-0.846859155850525,-0.44340652704963,-1.15716401035344,1.2051482087097,1.20514820871039,0.285341863738805,0.168516532016526,0.262233015878302,-2.71082571058616,0.990409487835426,-2.71082571058608,-0.528176242053495,-1.05253924620667,NaN,-0.188283972529895,-1.02605393270727,-0.773681841430137,0.0972677931746164,-1.14815031815831,0.0972677931735334,-0.163467791106505,-1.08753157944615,-1.4291674455054,-0.0071352998635482,0.718282261585602,NaN,NaN,-0.652389583321915,-0.348248700067024,-1.35734319098521,0.978734975708161,-0.757438621613496,-0.0783703001943294,0.422026334673515,0.231478207584675,-0.223281941596056,0.935597955868916,0.935597955867617,0.047586337084707,-1.38046975816872,-0.439651198605884,-0.995757294016954,-2.44391244421051,-1.71264887930973,NaN,-0.952462237010113,-2.64609397639434,-0.112187500423009,0.112187500424038,-0.680879988385117
1782.6816,-0.00934230271991779,-0.832515897805112,-0.418295683666996,-1.16495880965055,1.16323502070119,1.16323502070185,0.31076218820909,0.199316579333704,0.291185883796583,-2.72506074344899,0.993771968607676,-2.72506074344885,-0.539367722796051,-1.03713066249432,NaN,-0.210798804422626,-1.03809324054778,-0.804364996913092,0.0974199733129232,-1.16282153124369,0.097419973311837,-0.176520842644564,-1.10852938191405,-1.46923814162841,-0.0438140085480931,0.764686675749077,NaN,NaN,-0.675323020859376,-0.340499962135243,-1.36815181361564,1.00732824911163,-0.723126733734165,-0.0863345184088302,0.452098506413628,0.245291599495455,-0.227927240074336,0.921353320942092,0.921353320940779,0.0125117523833816,-1.41883593783649,-0.479364606029161,-1.03764099955821,-2.4664030340932,-1.75958558708929,NaN,-0.954534408031266,-2.67291960559778,-0.115255612441602,0.115255612442661,-0.668125193299372
1782.784,0.00689800299373911,-0.817971439824212,-0.393824822572716,-1.17170354813798,1.1199071658605,1.11990716586114,0.337566415501408,0.231633131043904,0.321658206172908,-2.7381089649593,0.997221466155879,-2.73810896495911,-0.549271468665054,-1.0203784073187,NaN,-0.234423379650943,-1.04886498682699,-0.835520615896753,0.0975305757243293,-1.17713720447062,0.0975305757232376,-0.189060450093768,-1.12970324661374,-1.50885956183645,-0.0804568480034251,0.811918198041064,NaN,NaN,-0.698185289877886,-0.331940183752133,-1.38041155019864,1.03703917647419,-0.689486307924793,-0.0929639816039601,0.481372467151639,0.260003852453031,-0.2328045111694,0.905869625851815,0.905869625850491,-0.0226685645766596,-1.45589239443381,-0.518706659573846,-1.07963273168613,-2.48775961884277,-1.80627076861734,NaN,-0.955850437123883,-2.69808980250537,-0.117762871793774,0.117762871794854,-0.654878628434663
1782.8864,0.0224265624847007,-0.803176676471143,-0.369991016445841,-1.17739277575598,1.07523864844673,1.07523864844734,0.365740440758072,0.26542813803705,0.353626495153258,-2.75000926528822,1.00075347399122,-2.75000926528797,-0.557854143361938,-1.00229471023406,NaN,-0.259151098416084,-1.05838949940305,-0.867153035209615,0.0976058202002257,-1.19110550738825,0.0976058201991277,-0.201097303133784,-1.15099615881429,-1.54798106087866,-0.117007371285694,0.85989991993715,NaN,NaN,-0.720981903831942,-0.322577403480121,-1.39408143629363,1.0678196917789,-0.656530422122755,-0.0982415642048811,0.509816259545112,0.275610045348039,-0.237834369103032,0.889164347133446,0.889164347132099,-0.0579215770534153,-1.49160487263743,-0.557640601498099,-1.12169605550158,-2.50797925017405,-1.85266878712401,NaN,-0.956436174211006,-2.72161280071778,-0.119739398065011,0.11973939806611,-0.641216909751818
1782.9888,0.0372255474780484,-0.788082164628593,-0.346789047523946,-1.18202428876848,1.02930937138448,1.02930937138506,0.395263423201131,0.300657467504597,0.387060326758843,-2.76080356108402,1.0043623202788,-2.76080356108371,-0.565086894903575,-0.982895483688464,NaN,-0.284972752773478,-1.06669151123531,-0.899266278145261,0.0976520746286215,-1.20473679252208,0.0976520746275149,-0.212643283842491,-1.17235133731801,-1.5865537593674,-0.153408499466136,0.908551708507806,NaN,NaN,-0.743719273849021,-0.312422501781422,-1.40911561959105,1.09961776629805,-0.624270276693346,-0.102153274562192,0.537400801140816,0.292103904848744,-0.242934792100979,0.871256085509369,0.871256085507998,-0.093213444006845,-1.52594508365384,-0.596131122072468,-1.16379119266331,-2.52706210290253,-1.89874179638509,NaN,-0.95632360822725,-2.74349977133346,-0.121215177497837,0.121215177498963,-0.627219207939837
1783.0912,0.0512789950121721,-0.77263851242722,-0.32421173187261,-1.18559907162413,0.982204613340008,0.982204613340563,0.426107688995761,0.337270998878612,0.421922305910973,-2.77053658887874,1.00804127856201,-2.77053658887838,-0.570945538907683,-0.962200219991908,NaN,-0.311876300103857,-1.07380003222714,-0.931863741823311,0.0976757946719906,-1.21804331574148,0.0976757946708758,-0.223711392664546,-1.19371245201635,-1.6245306951225,-0.189602693183967,0.957790328424815,NaN,NaN,-0.766404502714392,-0.30148941843396,-1.42546363214747,1.13237768157949,-0.592715197601371,-0.104688700304263,0.564100228928019,0.309477564757653,-0.248021679489148,0.852164577108785,0.85216457710739,-0.128509331728811,-1.55889036598378,-0.634144100410952,-1.20587517357092,-2.54501157822856,-1.94444991800549,NaN,-0.955550787406969,-2.76376467254775,-0.122219719903056,0.122219719904208,-0.612966526456745
1783.1936,0.0645726840002833,-0.756796780603317,-0.302250248014718,-1.18812123350623,0.934014502784429,0.934014502784952,0.458238662949267,0.375212731857712,0.458168056205663,-2.77925565733943,1.01178270361969,-2.77925565733902,-0.575410701564162,-0.940231885253174,NaN,-0.339846611535904,-1.07974818835317,-0.964947839617908,0.0976834664386688,-1.23103892970411,0.0976834664375445,-0.234315652735104,-1.21502382731955,-1.66186693134145,-0.225532140951807,1.00752957517405,NaN,NaN,-0.789045163689174,-0.289795343791085,-1.4430706672149,1.16604030735487,-0.56187263902535,-0.105841427735395,0.589892195816,0.327721318179976,-0.253009420770491,0.831910735652566,0.831910735651147,-0.163773216130561,-1.59042331335823,-0.671646326934865,-1.24790200292255,-2.56183439621494,-1.98975142806859,NaN,-0.954161695024495,-2.7824240733064,-0.122781756315123,0.122781756316302,-0.598540944067595
1783.296,0.0770940286645599,-0.740508891130629,-0.280894451115227,-1.18959793272427,0.884833499993585,0.884833499994087,0.491614815487197,0.414420899549485,0.49574622234484,-2.78701036495318,1.01557817975157,-2.78701036495272,-0.578467928700663,-0.917016839152715,NaN,-0.368865220611417,-1.08457302031552,-0.998519621229352,0.0976815358131025,-1.24373876901601,0.0976815358119719,-0.244470998853953,-1.23623061932537,-1.69851961588455,-0.261138955319911,1.05768041034776,NaN,NaN,-0.811649062535648,-0.277360867128712,-1.46187786108358,1.2005433891404,-0.531748176981076,-0.105609421636583,0.614758090728858,0.346823356425771,-0.257811469783338,0.810516731753194,0.810516731751746,-0.19896768553542,-1.62053138376693,-0.708605219704217,-1.28982283054297,-2.5775406710877,-2.03460294343797,NaN,-0.952206074245294,-2.79949694171105,-0.122928977396523,0.12292897739772,-0.584024834292514
1783.3984,0.0888319975631289,-0.723728045708245,-0.260133164678428,-1.19003928867064,0.834759887654335,0.834759887654805,0.526187616989909,0.454828087391374,0.534598479838901,-2.7938522883505,1.01941867776285,-2.79385228834997,-0.580107767208477,-0.892584798942538,NaN,-0.398910086567347,-1.0883152371446,-1.03257838313155,0.0976763189864418,-1.25615894001827,0.0976763189853024,-0.254193155068949,-1.25727895600316,-1.73444798460549,-0.296365371217596,1.10815109594148,NaN,NaN,-0.834223985761461,-0.264210071373511,-1.4818225796368,1.23582185104798,-0.502345482662662,-0.103995355122858,0.638683161128959,0.366769490246489,-0.262340920238763,0.788006113937477,0.788006113935994,-0.234053752690688,-1.64920650379143,-0.744988546095689,-1.33158611980698,-2.59214397012793,-2.07895960063933,NaN,-0.949739197716645,-2.8150043946441,-0.122687817818532,0.122687817819747,-0.56950006936233
1783.5008,0.0997770587845113,-0.706409156644186,-0.239954450389996,-1.18945828600349,0.783895261870862,0.783895261871306,0.561901503170676,0.496361365199803,0.574659557196633,-2.79983463895357,1.02329472287402,-2.79983463895298,-0.580325817874357,-0.866968845931229,NaN,-0.429955374524382,-1.09101892277524,-1.06712127073114,0.0976739005175627,-1.26831621848354,0.0976739005164121,-0.263498503629134,-1.27811603543562,-1.76961330663173,-0.331153948453116,1.15884733431585,NaN,NaN,-0.856777438696896,-0.250370573646351,-1.50283870850823,1.27180811626547,-0.473666268560576,-0.101006887395756,0.661656539827033,0.387542857248717,-0.266511082665197,0.764403970421802,0.764403970420289,-0.268990683183366,-1.67644467485836,-0.780764157533714,-1.37313781146444,-2.60566135935587,-2.12277522623262,NaN,-0.946821576426409,-2.82896941254623,-0.12208329740657,0.122083297407797,-0.555047210904152
1783.6032,0.10992114721081,-0.688509289227299,-0.220345860034247,-1.18787067382376,0.732344005731828,0.732344005732246,0.598693861168457,0.53894243604886,0.615857278779916,-2.80501188059846,1.02719657493454,-2.80501188059781,-0.579122750935512,-0.840205462194535,NaN,-0.461971250117073,-1.09273119376307,-1.10214286859002,0.0976800305974449,-1.28022775546873,0.0976800305962859,-0.272403948714309,-1.29869018366587,-1.80397877762993,-0.365447782299643,1.20967242180423,NaN,NaN,-0.879316373254778,-0.235873517048167,-1.5248569439015,1.30843244246315,-0.445710206924271,-0.0966568931786285,0.683671194328694,0.409123625045785,-0.270236062575167,0.739737130322112,0.739737130320568,-0.303735846121604,-1.70224558000768,-0.815899741218623,-1.41442148545987,-2.61811343254439,-2.16600250006269,NaN,-0.943518599718802,-2.84141652537924,-0.121138927022286,0.121138927023528,-0.540744691201062
1783.7056,0.119257652677788,-0.669988115509762,-0.201294670699557,-1.18529486396741,0.680212732000672,0.680212732001067,0.636495040897547,0.582487795852256,0.658112629377772,-2.80943929890742,1.03111442068639,-2.80943929890674,-0.576504273606891,-0.81233458989182,NaN,-0.494923685110407,-1.09350180891673,-1.13763477546846,0.0977000297034286,-1.29191079576426,0.097700029702255,-0.280926778132509,-1.3189508764834,-1.83750936995351,-0.399190721410282,1.26052741678282,NaN,NaN,-0.90184690626169,-0.22075351618478,-1.54780508045916,1.34562326640828,-0.41847482459115,-0.0909636462009391,0.70472381404889,0.431488699098222,-0.273431334852299,0.71403440803836,0.714034408036783,-0.338244588151847,-1.72661219051324,-0.8503625894318,-1.45537851996151,-2.62952431455221,-2.20859310782429,NaN,-0.939900100509676,-2.85237146985389,-0.119876677653002,0.119876677654252,-0.526667996705979
1783.808,0.127781434307018,-0.650808374274906,-0.182788095077619,-1.18175183966468,0.627609703968329,0.627609703968704,0.675228388240204,0.626908894526213,0.701339834845689,-2.81317251354761,1.03503857504465,-2.81317251354687,-0.572481042137918,-0.783399708157232,NaN,-0.528774273521933,-1.09338273953076,-1.17358516853026,0.0977387003531701,-1.30338241578211,0.0977387003519871,-0.289084530490362,-1.33884872913628,-1.8701716536182,-0.432327589242991,1.31131131547327,NaN,NaN,-0.924374035836168,-0.20504855677344,-1.57160829206241,1.38330755138892,-0.391955378534716,-0.08395095290891,0.724814643128797,0.454611445409803,-0.276014305903185,0.687326890391256,0.687326890389645,-0.372470127193399,-1.749550377891,-0.884119385591632,-1.49594824166374,-2.63992163000509,-2.25049787448119,NaN,-0.936039850399926,-2.86186081355688,-0.118317001875789,0.118317001877034,-0.512888875049218
1783.9104,0.135488866340163,-0.630936318178744,-0.164813451841825,-1.17726508607682,0.574644261594831,0.574644261595172,0.714810295255929,0.672112296955378,0.74544645475452,-2.81626693471467,1.03895968104486,-2.81626693471389,-0.567068517563901,-0.753447916868034,NaN,-0.563480067527374,-1.09242771559627,-1.20997837517397,0.0978002401582262,-1.31465928384179,0.0978002401570265,-0.296894884369663,-1.35833545809986,-1.90193361359357,-0.464804405385589,1.36192122510324,NaN,NaN,-0.946901367634854,-0.188799856360104,-1.59618939939796,1.42141112980973,-0.366144714885444,-0.0756482303268157,0.743947268355401,0.478461442121968,-0.277904856508126,0.659648251478507,0.659648251476862,-0.406363465696715,-1.77106854230014,-0.917136010705466,-1.53606806727659,-2.64933642991533,-2.2916668761412,NaN,-0.932015003337171,-2.86991155114907,-0.116478890980028,0.116478890981268,-0.499474594279653
1784.0128,0.142377912104193,-0.610342125842808,-0.147358288804319,-1.1718605410187,0.521426277907108,0.521426277907419,0.755150267310512,0.717999850037929,0.79033348920297,-2.8187771861305,1.04286889220162,-2.81877718612968,-0.560286773177519,-0.722530017520156,NaN,-0.598993451237738,-1.09069176266675,-1.24679447993762,0.0978881505868727,-1.32575743774465,0.0978881505856553,-0.304375584863384,-1.37736382048717,-1.93276448904723,-0.496568603566646,1.41225252532758,NaN,NaN,-0.96943086064003,-0.172051701705718,-1.62146911899224,1.45985903327773,-0.341033115954912,-0.0660905272765168,0.76212837524622,0.50300427079662,-0.279025861071286,0.631035071661609,0.631035071659926,-0.439873332250574,-1.79117727072841,-0.949377381497719,-1.57567364954426,-2.65780307371504,-2.33204954231009,NaN,-0.927905513948228,-2.87655069601655,-0.114379950425408,0.11437995042664,-0.486487280767042
1784.1152,0.148448214821917,-0.589000270477232,-0.130410466769376,-1.16556654970305,0.468065658152585,0.468065658152872,0.796151014712148,0.764468864772718,0.835895508353809,-2.82075653004398,1.04675802495937,-2.82075653004315,-0.552160266791069,-0.690700589785557,NaN,-0.635262067569353,-1.08823074128544,-1.28400898932542,0.0980051401921451,-1.33669206571469,0.0980051401909159,-0.311544407555003,-1.39588753872601,-1.96263464322308,-0.527569243812917,1.46219901652928,NaN,NaN,-0.991962595570179,-0.154851280441966,-1.64736629419883,1.4985758055991,-0.316608145095212,-0.0553184924185836,0.779367481688046,0.528201350599541,-0.279303681731343,0.601527139405183,0.601527139403464,-0.472946163941933,-1.80988903435822,-0.980807332821197,-1.61469904532773,-2.66535907401922,-2.37159476751893,NaN,-0.923793553207824,-2.88180489939655,-0.112036477752486,0.112036477753708,-0.47398334784492
1784.2176,0.153701193894804,-0.566889849377829,-0.113958218354842,-1.15841380666882,0.41467188599061,0.414671885990869,0.837708582884493,0.811412321852474,0.88202081765064,-2.82225632043075,1.05061968031778,-2.82225632042993,-0.542717588130703,-0.658018061320105,NaN,-0.672228800129357,-1.08510090069158,-1.3215925631497,0.0981530287251716,-1.34747727321998,0.0981530287239289,-0.31841914588331,-1.41386122084886,-1.99151545786676,-0.55775721698477,1.51165306364127,NaN,NaN,-1.01449456387148,-0.137248518986396,-1.67379811340638,1.53748579694011,-0.292854503088289,-0.0433782902671931,0.795676653961947,0.554009817747808,-0.27866863964262,0.571167719089219,0.571167719087454,-0.505526136389566,-1.82721792670139,-1.01138855012716,-1.65307691113483,-2.67204491852655,-2.41025104195717,NaN,-0.919762934649838,-2.88570011997872,-0.109463528863894,0.109463528865094,-0.462013014285019
1784.32,0.158140139170325,-0.543994880260054,-0.0979901926997343,-1.15043527906209,0.361353617428844,0.361353617429079,0.879712532936776,0.858719104799862,0.928591668563783,-2.82332548963725,1.05444734364632,-2.82332548963643,-0.531991188864325,-0.624544756816992,NaN,-0.709831798757728,-1.08135845622364,-1.35951080556486,0.0983326656232568,-1.3581258258519,0.0983326656220039,-0.325017604901657,-1.43124028699775,-2.01937924270211,-0.587085438373651,1.56050574687961,NaN,NaN,-1.03702247567317,-0.11929592686121,-1.7006803203526,1.57651343717278,-0.269753909463529,-0.030321466348194,0.811070211722554,0.580382453880348,-0.277055466896915,0.540003774122907,0.540003774121097,-0.537555240174625,-1.84317944175344,-1.04108255077124,-1.690738712765,-2.67790388167939,-2.44796659235347,NaN,-0.915898556248049,-2.88826134862682,-0.106674967820911,0.106674967822092,-0.45061991131697
1784.4224,0.161770299765423,-0.520304568630404,-0.0824954917781996,-1.14166611559477,0.3082183215596,0.30821832155981,0.922046175073622,0.906274255934026,0.975484514930358,-2.82401005884247,1.05823547462132,-2.82401005884167,-0.520017102954025,-0.590346906898634,NaN,-0.748004531086384,-1.07705919514873,-1.39772409966772,0.0985438772779654,-1.36864887383048,0.0985438772767032,-0.331357590116291,-1.44798090651059,-2.04619915060441,-0.615509024750969,1.60864702594479,NaN,NaN,-1.05953958860202,-0.101048435411656,-1.7279274175344,1.61558348456443,-0.247285018131036,-0.0162047683221895,0.825564431675291,0.607267663049256,-0.274403737872848,0.508086144752215,0.508086144750363,-0.568973397179504,-1.85779029567945,-1.06984971046384,-1.72761492451788,-2.68298183111099,-2.48468951128335,NaN,-0.912285858814809,-2.88951237861165,-0.103683509405324,0.103683509406482,-0.43984078276218
1784.5248,0.164598969535545,-0.495813550858096,-0.067463698376255,-1.13214354996036,0.255371972645867,0.255371972646051,0.964586851523142,0.953959244967983,1.02257030891844,-2.82435265786589,1.0619795940918,-2.82435265786511,-0.506834659633268,-0.555494606668838,NaN,-0.786675843960094,-1.07225811358989,-1.43618746996794,0.0987854514277281,-1.37905567478903,0.0987854514264564,-0.337456887402517,-1.46403994129927,-2.07194908860158,-0.642985452957985,1.65596592189639,NaN,NaN,-1.08203656251007,-0.0825632159793537,-1.7554528597438,1.65462124490051,-0.225423371042936,-0.00108993063574856,0.839177258399594,0.634609495212646,-0.270658272353282,0.475469687135057,0.475469687133164,-0.599718608466445,-1.87106829776852,-1.09764933051974,-1.76363519595888,-2.68732702699704,-2.52036785334741,NaN,-0.909010300560987,-2.88947560888758,-0.100500769434274,0.100500769435417,-0.429705283771506
1784.6272,0.166635575395648,-0.470522115391069,-0.0528848903044521,-1.12190680759271,0.202918808301378,0.202918808301526,1.00720626733636,1.00165224387444,1.06971483319294,-2.82439204480767,1.06567636616996,-2.82439204480692,-0.492486182201378,-0.520061727151948,NaN,-0.825770028807665,-1.06700908645161,-1.47485046750054,0.0990551563183849,-1.38935333030128,0.0990551563171028,-0.343333234311958,-1.47937488839494,-2.09660361708593,-0.66947470859604,1.7023507243588,NaN,NaN,-1.10450134908961,-0.0638994707862129,-1.78316923616959,1.69355275965326,-0.204141389521908,0.0149565750426993,0.851928029635853,0.662347719231604,-0.265769501461772,0.442213381238037,0.442213381236112,-0.629727125722488,-1.88303227013735,-1.1244397397049,-1.79872847781472,-2.69098991081332,-2.55494968909713,NaN,-0.90615684694545,-2.88817187476477,-0.0971373326753704,0.0971373326764934,-0.420235877590424
1784.7296,0.167891770390931,-0.444436394522771,-0.0387496350960347,-1.11099701870208,0.150961165161208,0.150961165161331,1.04977087146252,1.04922841093168,1.11677907202134,-2.82416263161674,1.06932366975852,-2.82416263161603,-0.477016666693467,-0.484125784831728,NaN,-0.865206901421526,-1.06136456893921,-1.51365708792339,0.0993497824347088,-1.39954654212864,0.0993497824334162,-0.349004285861204,-1.49394381926734,-2.12013783844059,-0.694939439942301,1.74768923388277,NaN,NaN,-1.12691912839831,-0.0451181999760183,-1.81098844800426,1.73230497172095,-0.183408400299893,0.0318638227272654,0.863837226308929,0.690417952169056,-0.25969379392301,0.408380412821309,0.408380412819353,-0.658933641756526,-1.89370200432827,-1.15017842318612,-1.83282311550023,-2.69402288327543,-2.58838312473824,NaN,-0.903809472689952,-2.88562031064141,-0.0936028378694465,0.0936028378705587,-0.411447822500341
1784.832,0.168381522558717,-0.417568508960528,-0.0250489660489757,-1.09945712881904,0.0995993789531361,0.0995993789532228,1.09214229306126,1.0965601928831,1.16361962800457,-2.82369403768438,1.07292065591788,-2.8236940376837,-0.460473445240086,-0.44776776367248,NaN,-0.904901916740481,-1.05537532471204,-1.55254574174045,0.0996651945326537,-1.40963738722627,0.0996651945313509,-0.354487579879337,-1.50770532143145,-2.14252728768231,-0.719345125951317,1.79186904467279,NaN,NaN,-1.14927229850624,-0.0262819506919894,-1.8388218935563,1.77080588455951,-0.16319068905835,0.0495567449131008,0.874926256243773,0.718751847793877,-0.252393748430574,0.374038230724077,0.374038230722092,-0.687271501076561,-1.90309823710764,-1.17482217326427,-1.86584692969881,-2.69648007371203,-2.62061630682133,NaN,-0.902050671759128,-2.88183825611869,-0.0899060693485063,0.0899060693496029,-0.403349239112262
1784.9344,0.168121185322261,-0.389936649309527,-0.0117743470426024,-1.08733179029224,0.0489317121179138,0.0489317121179779,1.13417783887768,1.1435176529131,1.2100891912969,-2.82301069535298,1.0764677916879,-2.82301069535233,-0.442905846278799,-0.411071872266139,NaN,-0.944766336162999,-1.04909017586443,-1.5914492926147,0.0999963911941534,-1.4196251109496,0.0999963911928428,-0.359800504652788,-1.52061845398686,-2.16374784166981,-0.742660254374005,1.83477786393058,NaN,NaN,-1.1715405110093,-0.00745454919750173,-1.86658066620265,1.80898472545448,-0.143451571061387,0.0679564717446395,0.88521727176572,0.747277340465725,-0.243838459866831,0.339258576176363,0.339258576174346,-0.714672934373414,-1.91124263175491,-1.1983272600583,-1.89772730428605,-2.69841710129559,-2.65159743138395,NaN,-0.9009609743365,-2.87684121501744,-0.0860550421250647,0.0860550421261465,-0.39594125140724
1785.0368,0.167129540339902,-0.361565088278854,0.00108236721913614,-1.07466722287023,-0.000945726148493606,-0.000945726148444481,1.1757310565521,1.18996882757784,1.25603706588445,-2.82213151983015,1.07996689294995,-2.82213151982952,-0.424364862716223,-0.374125215822433,NaN,-0.984707456314721,-1.04255577242923,-1.630295171977,0.100337575975516,-1.42950593975678,0.100337575974196,-0.364960266917018,-1.53264272886323,-2.1837756576596,-0.764856499815129,1.87630385718291,NaN,NaN,-1.19370073880541,0.0112991864292693,-1.89417576190952,1.84677211288791,-0.124151472567953,0.0869806935201334,0.894733017455137,0.775918938156923,-0.234003762908689,0.304117477961369,0.304117477959318,-0.741069319053922,-1.91815775757046,-1.22064962125343,-1.928391297119,-2.69989082589156,-2.68127477163404,NaN,-0.900618472630901,-2.87064286954915,-0.0820570731738875,0.0820570731749577,-0.389218197148883
1785.1392,0.165427810724029,-0.332484121335642,0.0135289744267408,-1.06151104416329,-0.0499390779074353,-0.0499390779074072,1.21665236377355,1.23578011254705,1.30130975280697,-2.82106964291814,1.08342114614938,-2.82106964291754,-0.404902833579852,-0.337017371375831,NaN,-1.02462890014459,-1.03581638247689,-1.66900557146112,0.100682242926573,-1.43927291197879,0.100682242925244,-0.369983858118098,-1.54373812212639,-2.20258714348836,-0.785908894086841,1.91633600904525,NaN,NaN,-1.21572737073504,0.0299137530554907,-1.92151829412617,1.88410022449253,-0.105248025531028,0.106544040649486,0.903496709701832,0.804598059230634,-0.222872451658196,0.268695208033967,0.268695208031891,-0.766391465617562,-1.92386706232376,-1.24174506893941,-1.95776578347981,-2.70095908597658,-2.7095967327048,NaN,-0.901098354844771,-2.86325514612653,-0.0779188379327832,0.0779188379338345,-0.383167901427164
1785.2416,0.163039645651013,-0.302729931654051,0.0255729744738104,-1.04791208137744,-0.0979568371391951,-0.0979568371391934,1.25678973488156,1.28081667531808,1.34575158371196,-2.81983220191581,1.08683511228676,-2.81983220191523,-0.38457313798237,-0.2998398723935,NaN,-1.06443096385527,-1.02891370828462,-1.70749770931393,0.101023276564227,-1.44891572258004,0.101023276562892,-0.374888021013394,-1.55386510973591,-2.22015895568201,-0.805795985759068,1.95476449541738,NaN,NaN,-1.23759234017951,0.0483232838584176,-1.94851972061557,1.92090296635076,-0.0866961830446624,0.126558472735576,0.911531952669142,0.833233407084316,-0.210434470781915,0.233076197556066,0.233076197553969,-0.790569928881244,-1.92839483184999,-1.26156951079165,-1.98577763659019,-2.7016804215612,-2.73651193704356,NaN,-0.902472442814738,-2.85468832666032,-0.0736464124899434,0.073646412490984,-0.377772003942378
1785.344,0.159991080088753,-0.272344378440947,0.0372216302837682,-1.03392017736447,-0.14490993106267,-0.144909931062698,1.29598942958666,1.32494289248927,1.38920539300492,-2.81842017535303,1.09021470216714,-2.81842017535246,-0.363429896807749,-0.26268562951309,NaN,-1.10401101018508,-1.0218867332097,-1.74568416328064,0.101353066478716,-1.45842058470209,0.101353066477372,-0.3796892197502,-1.56298471857336,-2.23646801912347,-0.824499989296409,1.99148106635216,NaN,NaN,-1.25926529483664,0.0664618756425206,-1.97509208801966,1.95711614584853,-0.0684483625957563,0.146933670404615,0.918862687996724,0.861741373453632,-0.196687072352823,0.197348918526416,0.197348918524291,-0.813535342320832,-1.93176613290138,-1.2800791829458,-2.01235394542161,-2.70211378066606,-2.76196934019543,NaN,-0.90480873105922,-2.84495119671789,-0.0692453020269488,0.0692453020279667,-0.373006328829117
1785.4464,0.156310474923752,-0.241374714668253,0.0484820423360109,-1.01958599438066,-0.190711778971794,-0.190711778971857,1.33409674501894,1.36802280895068,1.43151321432141,-2.81682826751631,1.0935671141834,-2.81682826751576,-0.341527681436523,-0.225648329498775,NaN,-1.14326390270911,-1.01477159427816,-1.7834732615038,0.101663636580329,-1.46777012401461,0.101663636578982,-0.384403610156847,-1.57105859124478,-2.25149156247949,-0.842006924589127,2.02637943127587,NaN,NaN,-1.2807137990531,0.0842639122035066,-2.00114829321332,1.9926776447125,-0.0504546218098841,0.167577426943119,0.92551316361263,0.89003645597742,-0.18163493436254,0.161605736281584,0.161605736279424,-0.835218773627023,-1.93400674002683,-1.29723089339511,-2.0374222673229,-2.7023182091293,-2.78591837455086,NaN,-0.908170933054005,-2.83405121936366,-0.0647204576938717,0.0647204576948675,-0.368841285834634
1785.5488,0.152028439384706,-0.209873239227913,0.0593612364563904,-1.00496080572236,-0.235278352395409,-0.235278352395509,1.37095677375072,1.40992061437897,1.47251698736821,-2.81504485669889,1.09690073274496,-2.81504485669836,-0.318921235300933,-0.188821854767758,NaN,-1.18208248237349,-1.00760146887121,-1.82076952623598,0.101946786963761,-1.47694332668037,0.101946786962405,-0.389046997800123,-1.57804907674924,-2.26520716729484,-0.858306743385624,2.05935563138753,NaN,NaN,-1.30190354550483,0.101664375577737,-2.02660235457244,2.02752758500294,-0.0326628672584327,0.188396037730414,0.93150790312854,0.9180316737211,-0.165290242332811,0.125942737430126,0.125942737427934,-0.855552102534681,-1.93514305003833,-1.3129822779368,-2.06091091306331,-2.70235252384642,-2.8083091188002,NaN,-0.912618045477684,-2.82199472517616,-0.0600762845601304,0.0600762845610951,-0.365242293971148
1785.6512,0.147177734290487,-0.17789688329,0.0698662634080412,-0.99009626232305,-0.278528268909883,-0.278528268910014,1.40641515852123,1.45050113053872,1.51205926625065,-2.81305202521196,1.10022499015554,-2.81305202521146,-0.295665215418639,-0.152299746291727,NaN,-1.22035808941249,-1.00040647048823,-1.85747417091142,0.102194244822527,-1.48591555340223,0.102194244821162,-0.393634770622009,-1.58391936354915,-2.27759283272659,-0.873393437252766,2.09030839068418,NaN,NaN,-1.32279855479499,0.11859913937334,-2.0513696873668,2.06160848408118,-0.0150190927219326,0.209294684232297,0.936871668319088,0.945638971332873,-0.147672741509266,0.090459541653121,0.0904595416508936,-0.87446842567442,-1.93520198515486,-1.32729207263034,-2.08274926546106,-2.70227497005004,-2.82909249440007,NaN,-0.918203937611302,-2.80878711589671,-0.0553166435975427,0.0553166435984877,-0.362170220998297
1785.7536,0.141793155485171,-0.145506732154777,0.0800043089691785,-0.975044129210475,-0.320382937942779,-0.32038293794294,1.44031884212419,1.48963030521199,1.54998392671375,-2.81082567894284,1.103550194135,-2.81082567894237,-0.271813959596255,-0.116174707703926,NaN,-1.25798112767595,-0.993213559989848,-1.89348565099239,0.102397820185248,-1.49465862045181,0.102397820183873,-0.398181804556294,-1.58863365763349,-2.28862705681591,-0.887265127606008,2.11913944682643,NaN,NaN,-1.34336135203086,0.13500524079228,-2.07536738067884,2.09486539734753,0.00253235584013878,0.230177808811489,0.941629421254716,0.97276961259211,-0.128809768458933,0.0552591080768285,0.0552591080745779,-0.891902492276546,-1.93421088167356,-1.3401204045755,-2.10286813518273,-2.7021428652492,-2.84822049328612,NaN,-0.924976966728577,-2.79443308272791,-0.0504448529415039,0.0504448529424185,-0.359581830763372
1785.856,0.135911396200256,-0.112767487418474,0.0897828107889058,-0.959855991269227,-0.360766761162024,-0.360766761162232,1.47251680891411,1.52717571190306,1.58613686947913,-2.80833574788725,1.10688732014049,-2.80833574788681,-0.247421285836721,-0.0805381400177442,NaN,-1.29484165593058,-0.986046482348542,-1.92870025776895,0.102549560691807,-1.50314094140327,0.102549560690425,-0.402702352962397,-1.59215738828325,-2.29828892851397,-0.899924141840988,2.14575386067896,NaN,NaN,-1.36355311307241,0.150821132320522,-2.09851447197764,2.12724604364955,0.0200484862945908,0.250949478623045,0.945806292055091,0.999334565920146,-0.108736266048101,0.0204475391986548,0.020447539196375,-0.907791169431064,-1.93219736076764,-1.35142909885973,-2.1212001534122,-2.70201222955663,-2.8656464364607,NaN,-0.932979618131954,-2.77893683239239,-0.045463695419423,0.0454636954203161,-0.357430229161324
1785.9584,0.12957088408277,-0.0797468748904648,0.0992095748048753,-0.944582923448987,-0.399607388065301,-0.399607388065545,1.50286080640264,1.5630070529497,1.62036671065534,-2.80554644747076,1.11024776621769,-2.80554644747033,-0.222540329716808,-0.0454797055311973,NaN,-1.33082998242454,-0.978925732199056,-1.96301273172385,0.102641898230569,-1.51132772183684,0.10264189822918,-0.407209932190266,-1.59445741835759,-2.30655821991455,-0.911377072504731,2.17006029451113,NaN,NaN,-1.38333376959011,0.165986916537041,-2.12073221295132,2.15870090542638,0.03758733444084,0.271513738445515,0.949427547435375,1.02524487802745,-0.0874947787328958,-0.0138661265233354,-0.0138661265256318,-0.922073930556482,-1.92918918140779,-1.36118199687867,-2.13768019331907,-2.7019373916746,-2.88132525241224,NaN,-0.942248171042112,-2.762302302044,-0.0403754403883611,0.0403754403892484,-0.355665303836947
1786.0608,0.122811591620261,-0.0465150090902507,0.108292884557089,-0.929275121846844,-0.436836031397824,-0.436836031398104,1.53120603259836,1.59699665962249,1.65252544676419,-2.80241658082886,1.11364307192265,-2.80241658082846,-0.197223418321743,-0.0110869278353814,NaN,-1.36583724481625,-0.971868539263954,-1.99631687143106,0.102667781143234,-1.51918120391148,0.102667781141842,-0.411717209261286,-1.59550224524105,-2.31341547065129,-0.921634809725256,2.19197125104458,NaN,NaN,-1.40266206545217,0.180444562674368,-2.14194432561606,2.18918330540785,0.0552076116674235,0.291774949471597,0.952518553834773,1.0504120276386,-0.065135420135209,-0.0475701451528215,-0.0475701451551461,-0.93469335664494,-1.92521407824683,-1.3693452791275,-2.1522458066575,-2.70197055590437,-2.89521375776815,NaN,-0.952812395742999,-2.74453334301284,-0.0351818871266059,0.0351818871274799,-0.354234158925834
1786.1632,0.115674829322385,-0.013143736283208,0.117041602619709,-0.913981510619631,-0.472387837996536,-0.472387837996851,1.55741178175617,1.6290199822353,1.68246908670629,-2.79889986950126,1.11708461285197,-2.79889986950086,-0.171521969826312,0.0225551700560836,NaN,-1.39975596806374,-0.964888859170264,-2.02850612201685,0.102620788468543,-1.52666096243111,0.102620788467152,-0.416235893920764,-1.59526218824168,-2.31884206256811,-0.930712542095909,2.21140328351478,NaN,NaN,-1.42149557408295,0.194138096211565,-2.16207725963853,2.21864947859011,0.0729683410723511,0.311638108590078,0.955104739515077,1.07474825645947,-0.0417158036438935,-0.0805503261908907,-0.080550326193229,-0.945595635635204,-1.92029958904033,-1.37588778297308,-2.16483766058417,-2.70216133084846,-2.9072709261829,NaN,-0.964695289747931,-2.72563386573148,-0.0298844298255654,0.0298844298264234,-0.353081547442344
1786.2656,0.108203039672036,0.0202940177027079,0.125465270509392,-0.898749359543127,-0.506202288232495,-0.506202288232833,1.5813420533578,1.65895606691755,1.71005825290222,-2.7949453064921,1.12058328871757,-2.79494530649171,-0.145486405040626,0.0553643999465097,NaN,-1.43248059729848,-0.957997364046836,-2.0594741368819,0.102495225262911,-1.53372425003508,0.102495225261525,-0.420776638496193,-1.59370956005489,-2.32282028630968,-0.938629730019576,2.22827720379327,NaN,NaN,-1.43979070448497,0.207013752529989,-2.18106046593974,2.24705866321443,0.0909284985859588,0.331009148200284,0.957211566100391,1.09816688536687,-0.0173009287668992,-0.112690320586548,-0.112690320588912,-0.954731044598119,-1.91447287854379,-1.38078130622861,-2.17539996270684,-2.70255624169595,-2.91745814088077,NaN,-0.977912859278521,-2.70560795360382,-0.0244841355883273,0.0244841355891724,-0.352150303007552
1786.368,0.100439607380372,0.0537248764281427,0.133574214604233,-0.883623943162271,-0.538223586102165,-0.538223586102538,1.6028661366186,1.68668801962236,1.73515876054036,-2.79049753223595,1.1241492157226,-2.79049753223556,-0.119166064595297,0.0872617299742744,NaN,-1.46390800637971,-0.951201440394237,-2.08911531761134,0.102286198908323,-1.54032637976121,0.102286198906937,-0.425348948850593,-1.59081882037268,-2.32533340181907,-0.945410054819139,2.24251831179309,NaN,NaN,-1.45750272457688,0.219020093585283,-2.19882669064584,2.27437322006016,0.109146669201154,0.349795225011417,0.958864513875781,1.12058262861432,0.00803698022740898,-0.143871939039102,-0.143871939041483,-0.962054406101546,-1.90776056793138,-1.38400089312561,-2.18388086815036,-2.70319825230198,-2.92573943312604,NaN,-0.992473948330665,-2.68445996145054,-0.0189818265511639,0.0189818265520091,-0.351381774121992
1786.4704,0.0924286893509639,0.087075607950571,0.141379656504192,-0.86864825021791,-0.568401013230814,-0.568401013231214,1.62185917990393,1.7121034588605,1.75764218211989,-2.78549723626894,1.12779142437418,-2.78549723626856,-0.0926091344691641,0.118171598135148,NaN,-1.49393798095762,-0.944505208686452,-2.11732533890585,0.101989677184091,-1.5464211286473,0.101989677182709,-0.429961106097292,-1.58656671468845,-2.32636569575215,-0.951081339563859,2.25405664913425,NaN,NaN,-1.47458581230084,0.230108095218831,-2.21531227690593,2.30055876701212,0.127680717437703,0.367905005918732,0.960089077592987,1.14191191270578,0.0342186826280305,-0.173975502653636,-0.173975502656043,-0.967525516571326,-1.90018857826637,-1.38552510397262,-2.19023286556093,-2.70412631381563,-2.93208170892397,NaN,-1.00838011458608,-2.66219460979876,-0.0133781628118055,0.0133781628126455,-0.350716262857692
1786.5728,0.0842150572846157,0.12027367643612,0.148893815552427,-0.853862738737371,-0.596689235801149,-0.596689235801588,1.63820274421929,1.73509495433745,1.77738639569582,-2.77988157891848,1.13151756619399,-2.77988157891812,-0.0658625839935519,0.148022208740677,NaN,-1.522473662105,-0.937909579881101,-2.1440016521817,0.10160253124845,-1.55196114872438,0.101602531247067,-0.434620096619596,-1.58093240501169,-2.32590254026336,-0.955675435631389,2.26282726293843,NaN,NaN,-1.49099312575956,0.240231215949789,-2.23045745372938,2.32558430231607,0.146587461263387,0.385248951224027,0.960910767638165,1.16207319634048,0.0611581749277631,-0.202880225521098,-0.202880225523525,-0.971109542303088,-1.89178199319504,-1.38533626700007,-2.19441313632089,-2.70537495044645,-2.93645496180482,NaN,-1.02562555040506,-2.63881707469434,-0.00767372626356461,0.00767372626440197,-0.350093462572877
1786.6752,0.0758439459301238,0.153247743850713,0.156129992899443,-0.839305133995556,-0.623048560711128,-0.623048560711598,1.65178533062182,1.75556044125613,1.79427610599387,-2.77358461858193,1.13533363733116,-2.77358461858158,-0.0389721160951142,0.176745797567423,NaN,-1.54942193403648,-0.931412356992316,-2.16904395486079,0.101122567705586,-1.55689837763587,0.101122567704208,-0.439331548986553,-1.57389759656207,-2.32393045596328,-0.959228073031574,2.26877046035412,NaN,NaN,-1.50667688143777,0.249345456719714,-2.24420659414139,2.34942229350031,0.165922339453423,0.401739591245549,0.961355110525088,1.18098728239942,0.0887629921869254,-0.230464622921236,-0.230464622923682,-0.972777375507315,-1.8825649427215,-1.38342070727676,-2.19638388035884,-2.70697388840002,-2.93883246727328,NaN,-1.0441970460569,-2.61433306694466,-0.00186910586026963,0.00186910586110766,-0.349452885254301
1786.7776,0.0673609073967343,0.18592812178574,0.163102637580956,-0.825010267116254,-0.647445140117734,-0.647445140118244,1.66250287319253,1.77340360138173,1.80820332930687,-2.76653773305861,1.13924372204804,-2.76653773305827,-0.0119821253207505,0.204278857103321,NaN,-1.57469375552807,-0.925008378540125,-2.19235462315809,0.100548552198066,-1.56118444504872,0.100548552196695,-0.444099677621307,-1.56544666140183,-2.32043717994581,-0.961778674464663,2.27183204200843,NaN,NaN,-1.52158844016022,0.257409419568982,-2.25650843323488,2.37204872417772,0.185739075721272,0.417291794893332,0.961447643500003,1.19857761641922,0.116934560797263,-0.256606934947542,-0.256606934950003,-0.97250594777142,-1.87256050987133,-1.37976895134468,-2.19611260991438,-2.70894772640418,-2.93919095972483,NaN,-1.06407399080117,-2.58874890113298,0.00403501772923623,-0.00403501772839819,-0.348734272383082
1786.88,0.0588116768621378,0.21824717311409,0.169827400154428,-0.811009945398244,-0.6698511257816,-0.669851125782154,1.67025920418311,1.78853421782527,1.81906784933138,-2.75867003342579,1.14324975276153,-2.75867003342549,0.0150643410235674,0.230562325791151,NaN,-1.5982044463127,-0.918689695619262,-2.21383911574991,0.0998802257998431,-1.56477107009268,0.0998802257984755,-0.448927233377694,-1.55556676068793,-2.31541174097187,-0.963370131994007,2.27196352135707,NaN,NaN,-1.53567840833691,0.26438437355761,-2.26731624409068,2.39344310473325,0.206089355237191,0.431823033495168,0.9612139028739,1.21477057496275,0.145568599759369,-0.281185560254507,-0.281185560256992,-0.970278506390727,-1.86179066522567,-1.3743759134066,-2.19357242241281,-2.71131564513612,-2.93751080161734,NaN,-1.08522840675586,-2.56207156472389,0.0100377944907848,-0.010037794489955,-0.347877986882264
1786.9824,0.0502420531530162,0.250139659752096,0.176321175779399,-0.79733284156724,-0.690244775502136,-0.690244775502738,1.67496651008811,1.8008685243182,1.82677766461168,-2.74990877731145,1.1473512841246,-2.74990877731116,0.0421256187384837,0.255541753257515,NaN,-1.61987393779851,-0.912445776304624,-2.23340635475701,0.0991183169062757,-1.56761044272994,0.0991183169049113,-0.453815461123918,-1.54424796749213,-2.30884454412568,-0.964048546253734,2.26912235195885,NaN,NaN,-1.54889676258511,0.270234336540256,-2.27658797506877,2.41358845766949,0.227022527575371,0.445253646657185,0.96067940866277,1.22949575348454,0.174555560611208,-0.304079503973288,-0.304079503975792,-0.966084861546955,-1.85027623652466,-1.36724107157379,-2.18874226441172,-2.71409115821142,-2.93377615712677,NaN,-1.10762501157513,-2.53430879902511,0.0161381390494956,-0.0161381390486692,-0.346825385610512
1787.0848,0.04169779299957,0.281543036791046,0.182602135591433,-0.784004393576358,-0.708610515177822,-0.708610515178464,1.67654579106531,1.81032956442987,1.83124944188176,-2.74017979164699,1.15154528230904,-2.74017979164672,0.0691614560302951,0.279167447780706,NaN,-1.63962699481784,-0.906263731760278,-2.25096908803225,0.0982645518275677,-1.56965558450881,0.0982645518262082,-0.458764065389426,-1.53148338953175,-2.30072746553544,-0.963862933582228,2.26327218109277,NaN,NaN,-1.56119300115994,0.274926177513385,-2.28428635642449,2.43247128678955,0.24858533833116,0.457507116816664,0.959869646938916,1.24268626225397,0.203781096430988,-0.325168845654354,-0.325168845656863,-0.9599216091622,-1.83803691672516,-1.35836863898719,-2.18160719069444,-2.71728190825915,-2.92797517527148,NaN,-1.13122130889054,-2.5054691957641,0.0223346732834326,-0.0223346732826242,-0.345519174093315
1787.1872,0.0332245146376705,0.31239770038196,0.188689745372516,-0.771046713623707,-0.724938965027024,-0.724938965027703,1.67492732039552,1.81684755856841,1.8324089721919,-2.72940791216786,1.15582593309594,-2.72940791216761,0.0961330347909495,0.3013946011299,NaN,-1.65739341461802,-0.900128556667069,-2.2664442352347,0.0973216635903053,-1.57086069184578,0.0973216635889474,-0.463771187324214,-1.5172692887514,-2.2910539578138,-0.962864911922509,2.2543831334983,NaN,NaN,-1.57251631677929,0.278429736106445,-2.29037898648989,2.45008153576545,0.270821680133703,0.468510354981385,0.958810049326279,1.25427903271671,0.23312655632413,-0.344335227590482,-0.344335227592995,-0.951792329523414,-1.82509130591663,-1.34776772830015,-2.17215861266548,-2.72088950934323,-2.92010017732953,NaN,-1.1559677089942,-2.47556230401632,0.028625672690605,-0.0286256726898131,-0.343903746058903
1787.2896,0.0248676061251232,0.342647197454615,0.194604770534926,-0.758478510732637,-0.73922694103783,-0.739226941038545,1.67005109483784,1.82036026527713,1.83019161855205,-2.71751743956478,1.16018447515611,-2.71751743956454,0.123002987047673,0.32218338490025,NaN,-1.67310820334125,-0.894023380607677,-2.27975321607502,0.0962933951437662,-1.57118147104256,0.0962933951424144,-0.468833397093908,-1.50160519480924,-2.27981916810247,-0.961108374682258,2.24243212112098,NaN,NaN,-1.58281577995411,0.280717951025008,-2.29483840508521,2.46641253666555,0.293772349168797,0.478193995953699,0.957525969087042,1.26421513195822,0.262469506947971,-0.361462362396826,-0.361462362399346,-0.941707757737373,-1.81145697924591,-1.33545250384243,-2.16039452376566,-2.72490943788702,-2.91014783752115,NaN,-1.1818076845819,-2.44459873879973,0.0350090165558287,-0.0350090165550635,-0.341925510267216
1787.392,0.0166721370202471,0.372238399776852,0.200369267204573,-0.746315036251773,-0.751477432258029,-0.751477432258768,1.66186727190561,1.82081332656316,1.82454274863569,-2.70443260571752,1.16460906777332,-2.7044326057173,0.149735412478419,0.341499021886834,NaN,-1.68671172318758,-0.887929736712826,-2.29082225701318,0.0951844957558329,-1.5705754730386,0.0951844957544901,-0.473945703950314,-1.48449401158411,-2.26702007055073,-0.95864915318358,2.2274031755234,NaN,NaN,-1.59204052821257,0.281766992097218,-2.29764215495615,2.4814609448486,0.317474798687121,0.48649270072169,0.956042656139521,1.27244008443167,0.291684282914396,-0.376436563326493,-0.376436563329021,-0.929685919071423,-1.79715057750015,-1.32144231506485,-2.14631969094843,-2.72933097542905,-2.89811934755488,NaN,-1.20867796617223,-2.41259028630516,0.0414821464114359,-0.0414821464106956,-0.339533208724757
1787.4944,0.0086827757716878,0.401121641012651,0.206006561253415,-0.734568061034625,-0.761699540657913,-0.761699540658672,1.65033659274561,1.81816059823984,1.81541815195654,-2.69007804359002,1.16908470003987,-2.69007804358981,0.176295903080747,0.359311841149844,NaN,-1.69814980801858,-0.881827855029358,-2.29958267819141,0.0940007137412178,-1.56900242936694,0.094000713739883,-0.479101583161735,-1.46594211824868,-2.25265561393721,-0.955544661393907,2.20928779846828,NaN,NaN,-1.6001399669667,0.281556395125556,-2.29877282783154,2.49522665750276,0.341962890881955,0.493345464535176,0.954385234437134,1.27890420187892,0.320642566146345,-0.389147302771327,-0.389147302773862,-0.915752220998182,-1.78218792126336,-1.30576180539946,-2.1299458089596,-2.73413720454639,-2.88402056235132,NaN,-1.23650877887386,-2.37955000883862,0.0480420397305033,-0.0480420397297868,-0.33667823013528
1787.5968,0.000943712979583708,0.429250818136445,0.211541216117733,-0.723245883007903,-0.769908373854481,-0.76990837385526,1.63543078346451,1.81236447240072,1.80278443895929,-2.67437926039566,1.17359314104379,-2.67437926039547,0.202651577584221,0.375597317874944,NaN,-1.70737385737527,-0.875696976409008,-2.30597116886682,0.0927487874940534,-1.5664245849605,0.0927487874927266,-0.484293016516633,-1.44595946847773,-2.23672688430593,-0.951853517349028,2.18808531943018,NaN,NaN,-1.60706398789338,0.280069199555509,-2.2982180942974,2.50771271749695,0.367266651943692,0.498695925735289,0.9525786827514,1.28356291667971,0.349213993682342,-0.399487800001303,-0.399487800003843,-0.899939494787043,-1.7665841464955,-1.28844099038756,-2.11129161900155,-2.73930505629997,-2.86786212793652,NaN,-1.2652241184078,-2.34549235704189,0.0546852054814916,-0.0546852054808078,-0.333314916856391
1787.6992,-0.00650141462185267,0.456583460652603,0.216998985595944,-0.712353355317312,-0.776124897500936,-0.77612489750173,1.61713292160519,1.80339619304071,1.78661941294473,-2.65726311907179,1.17811292706949,-2.65726311907162,0.228771120831524,0.390336090835974,NaN,-1.71434092286959,-0.869515672070123,-2.30993005789939,0.0914364311569869,-1.5628070212902,0.0914364311556684,-0.489510540981297,-1.42455969233799,-2.21923728089756,-0.94763514103327,2.16380324381258,NaN,NaN,-1.61276320269114,0.277292087159419,-2.29597072066787,2.51892520647217,0.393412031686255,0.502492664221994,0.950647819400401,1.28637710651699,0.377266792181701,-0.407355634353438,-0.407355634355977,-0.882287981546812,-1.75035385355784,-1.26951529847832,-2.09038298982458,-2.74480540641067,-2.8496595887675,NaN,-1.29474206214766,-2.31043329219963,0.061407702273275,-0.0614077022726147,-0.329400859537855
1787.8016,-0.0136096046927127,0.483080767237472,0.222406745852661,-0.701891929296884,-0.780375760690319,-0.780375760691126,1.59543775750388,1.79123615503061,1.76691240407145,-2.63865833324647,1.18261938618953,-2.63865833324632,0.254624818024748,0.403513955167627,NaN,-1.71901379447833,-0.863262152806198,-2.311407578351,0.0900723095675769,-1.55811796391039,0.0900723095662624,-0.494743298715895,-1.40176020325117,-2.20019269949879,-0.942949332062939,2.13645757953574,NaN,NaN,-1.61718918831904,0.273215518788185,-2.29202857727813,2.52887313135349,0.420420667195908,0.504689480324206,0.948617290551952,1.28731339967343,0.40466843391075,-0.412653379928149,-0.412653379930689,-0.862845260328597,-1.73351126242074,-1.24902557018936,-2.06725295492431,-2.75060321763784,-2.82943346767705,NaN,-1.32497511045678,-2.27439041424183,0.0682051710894054,-0.068205171088777,-0.324897177529451
1787.904,-0.0203385760212777,0.508707609678917,0.227792404758473,-0.691859716371593,-0.782693100119172,-0.78269310011999,1.57035198950636,1.77587417450435,1.74366456047946,-2.61849597605884,1.18708470446253,-2.6184959760587,0.280184575266619,0.415121839032917,NaN,-1.72136108543966,-0.856914556273334,-2.31035811834835,0.088666002046539,-1.55232907107753,0.0886660020452284,-0.499979084974398,-1.3775823064857,-2.17960171484317,-0.937855830762485,2.10607313965959,NaN,NaN,-1.62029474757974,0.267833868524103,-2.2863946429206,2.53756830927745,0.448309650952991,0.505245655926229,0.946511556799389,1.28634445903012,0.43128630564814,-0.415289259211654,-0.415289259214198,-0.84166612000829,-1.71607037369922,-1.22701801680593,-2.04194170332879,-2.75665772490123,-2.80720931495891,NaN,-1.35583055305272,-2.23738308970779,0.0750728713896395,-0.0750728713890396,-0.319768788957668
1788.0064,-0.0266468616930459,0.533432512115763,0.233184792245353,-0.682251577952207,-0.783114320086482,-0.783114320087307,1.54189449824028,1.75730972716092,1.71688909898648,-2.59670999745317,1.19147803664082,-2.59670999745305,0.305423923197384,0.425155775373221,NaN,-1.72135730866383,-0.85045120764484,-2.30674244803471,0.0872279587581497,-1.54541570458293,0.0872279587568381,-0.505204399068269,-1.35205129904316,-2.15747575719643,-0.932413866976053,2.07268382777454,NaN,NaN,-1.62203419519386,0.261145558623212,-2.27907700805536,2.54502525478117,0.477091305738568,0.504126206974177,0.944354872549414,1.28344925090819,0.456988382500473,-0.415177813175872,-0.41517781317841,-0.818812380241107,-1.69804513953335,-1.20354414400056,-2.01449652951823,-2.76292265878696,-2.78301773051216,NaN,-1.38721085492653,-2.19943257658379,0.0820057151951951,-0.0820057151946098,-0.313984674120238
1788.1088,-0.03249390850773,0.557227616264071,0.238613537119088,-0.673059251921963,-0.781681841465737,-0.781681841466569,1.51009654589464,1.73555215823598,1.68661152091081,-2.5732377420465,1.19576566311921,-2.57323774204642,0.330318006024199,0.433616875815341,NaN,-1.71898293872838,-0.843850857137894,-2.30052791826015,0.0857694526071025,-1.53735718754525,0.0857694526057962,-0.510404510400031,-1.32519654724149,-2.13382928285672,-0.926681704618641,2.03633291589746,NaN,NaN,-1.6223636765386,0.253153197700718,-2.27008887215828,2.55126106808023,0.506772973123677,0.501302133352528,0.942171261529457,1.2786133080076,0.481643903751746,-0.412240586255181,-0.412240586257708,-0.794352665983544,-1.67944964520901,-1.17866064407761,-1.98497175015049,-2.76934650694576,-2.75689436620189,NaN,-1.41901405924718,-2.16056214612904,0.0889983019062536,-0.0889983019056875,-0.307518131396722
1788.2112,-0.0378401814815504,0.580068637668649,0.244108934041047,-0.664271518360825,-0.778442814140189,-0.778442814141036,1.47500193999037,1.71062086237738,1.65286979202934,-2.54802045993928,1.19991119338998,-2.54802045993922,0.354843562046227,0.440511306971414,NaN,-1.71422445970468,-0.837092904478844,-2.29168863689772,0.0843025263560743,-1.52813705246653,0.0843025263547638,-0.51556355011207,-1.2970515304802,-2.10867993891386,-0.920716192546608,1.99707331338773,NaN,NaN,-1.621241515603,0.243863717033379,-2.25944852379553,2.55629531925224,0.537356827815017,0.496750663086224,0.939984496725403,1.2718289893102,0.505124053990693,-0.406406822021172,-0.406406822023687,-0.768362136763949,-1.66029829471961,-1.15242925539233,-1.95342858981199,-2.77587281815094,-2.72887991204149,NaN,-1.45113421046373,-2.12079720364489,0.0960449581157708,-0.0960449581152274,-0.300347020322756
1788.3136,-0.0426472725127765,0.601934817557183,0.249701803908689,-0.655874393730842,-0.773448798552469,-0.773448798553323,1.43666714422573,1.6825454177709,1.61571446876357,-2.52100380329103,1.2038758070004,-2.52100380329101,0.378978900727557,0.445850254123873,NaN,-1.70707440363649,-0.830157620278899,-2.28020563348685,0.0828399307129182,-1.51774327611282,0.0828399307116027,-0.52066462822631,-1.26765384855575,-2.08204871915115,-0.914572330445562,1.9549678002729,NaN,NaN,-1.61862857553512,0.233288492884184,-2.24717929416312,2.56014992523856,0.568839729989576,0.490455478815883,0.937818083687431,1.26309572256478,0.52730265655399,-0.397614154334178,-0.397614154336671,-0.74092217329758,-1.64060598744804,-1.12491658648858,-1.91993503199124,-2.7824405501131,-2.69902006291571,NaN,-1.483461802938,-2.08016540609788,0.103139779349552,-0.103139779349036,-0.29245398172142
1788.416,-0.0468780148597043,0.622808881696226,0.255423351465319,-0.647851331173835,-0.766755437614872,-0.766755437615736,1.3951613046488,1.65136565390474,1.5752087407577,-2.49213830392005,1.20761851210906,-2.49213830392005,0.40270387642109,0.449649841877892,NaN,-1.69753138644382,-0.823026366728992,-2.26606702075704,0.0813950473526228,-1.50616849084833,0.0813950473513023,-0.525689961912692,-1.23704520020312,-2.05396010161637,-0.908302855413092,1.9100891839683,NaN,NaN,-1.6144886082635,0.221443443545355,-2.23330948412299,2.56284902192842,0.601213119948913,0.482406911920566,0.935695232668009,1.2524202018638,0.548056884862485,-0.385809268204859,-0.385809268207333,-0.71212002915009,-1.62038827289957,-1.09619390627197,-1.88456563022985,-2.78898445088222,-2.66736545785949,NaN,-1.51588425437665,-2.03869676764204,0.110276662494153,-0.110276662493651,-0.283826622115632
1788.5184,-0.0504966082215253,0.642677017119426,0.261305020356413,-0.640183408597728,-0.758422141988435,-0.758422141989301,1.35056616842702,1.61713164348541,1.53142837035376,-2.46137983402885,1.21109640598621,-2.46137983402888,0.425999855184279,0.451930988861092,NaN,-1.6856001477036,-0.815681813769837,-2.24926815774792,0.079981792895883,-1.49341016191594,0.0799817928945584,-0.530620996083307,-1.20527134391262,-2.02444215658408,-0.901957852740244,1.86252035446423,NaN,NaN,-1.60878857702904,0.208349097774904,-2.21787227149375,2.56441883596907,0.634462950876045,0.472602095198161,0.93363880696118,1.23981652050155,0.567267987443644,-0.370948507057928,-0.370948507060377,-0.68204845497754,-1.59966147559758,-1.06633690318779,-1.84740127831494,-2.79543545929829,-2.63397158626504,NaN,-1.5482863964475,-1.99642374566066,0.117449321253017,-0.117449321252529,-0.274457653496351
1788.6208,-0.0534687589217777,0.661528862935783,0.267378338969153,-0.632849503223088,-0.748511796444974,-0.748511796445837,1.30297589878343,1.57990362349126,1.48446153326355,-2.42869005741715,1.21426493974306,-2.42869005741722,0.448849671152903,0.452719200447556,NaN,-1.67129159451785,-0.808108149333482,-2.22981181396564,0.0786145022734668,-1.47947072877549,0.0786145022721385,-0.535438508973188,-1.17238204664168,-1.99352662197694,-0.89558439204642,1.81235424103211,NaN,NaN,-1.60149894965583,0.194030636787043,-2.20090560330098,2.56488755815765,0.668569654089109,0.461045071707285,0.931671250746077,1.22530623891684,0.584822010604738,-0.35299841670016,-0.352998416702581,-0.65080529669565,-1.5784427886498,-1.03542541391126,-1.80852894350821,-2.8017211188374,-2.59889866305718,NaN,-1.58055097581997,-1.95338130854271,0.124651289459501,-0.124651289459038,-0.264344987104581
1788.7232,-0.0557618344452452,0.679357497071446,0.273674748954437,-0.62582646621117,-0.737090480986884,-0.737090480987756,1.25249680596585,1.53975185311145,1.43440857728357,-2.39403687381471,1.217078201962,-2.3940368738148,0.471237572425981,0.452044320593452,NaN,-1.65462283881504,-0.800291288317435,-2.20770832584396,0.0773077915133716,-1.46435771860927,0.0773077915120385,-0.540122709793217,-1.13843101802403,-1.96124895248262,-0.889226189534851,1.75969368559484,NaN,NaN,-1.59259396651708,0.178517908119085,-2.18245207031472,2.56428521446915,0.703508134367326,0.447746861159374,0.929814508271269,1.20891839825323,0.600610501827238,-0.331936229844835,-0.331936229847226,-0.618493063574339,-1.556750338043,-1.0035431192346,-1.76804136629726,-2.80776601009425,-2.56221147779651,NaN,-1.61255916375552,-1.90960698833129,0.131875922473605,-0.131875922473172,-0.253491785642805
1788.8256,-0.0573450254517887,0.696159403569357,0.280225416231224,-0.619089314980173,-0.724227196799094,-0.72422719679996,1.1992470091454,1.49675640756223,1.38138170927015,-2.35739484658714,1.21948923295709,-2.35739484658724,0.49314916038537,0.449940261967475,NaN,-1.63561721103907,-0.792219083926287,-2.18297572940483,0.0760764038466976,-1.44808384116417,0.076076403845359,-0.544653338704157,-1.1034758237662,-1.92764834818953,-0.882923299055356,1.70465124409549,NaN,NaN,-1.58205188722427,0.161845405028082,-2.16255875708611,2.56264352728716,0.739247794213293,0.432725487953263,0.928089939922446,1.19068948834635,0.614531187493775,-0.307750300234897,-0.307750300237254,-0.585218461707336,-1.53460322129988,-0.970777204965617,-1.72603672400132,-2.81349220724444,-2.52397921683791,NaN,-1.64419107462257,-1.86514091437412,0.139116402587273,-0.139116402586852,-0.241906482337752
1788.928,-0.0581895069629635,0.711934419523313,0.287061032885284,-0.612611454066736,-0.709993586078453,-0.709993586079327,1.14335603170668,1.45100690124158,1.32550460980684,-2.31874559659976,1.22145037037482,-2.31874559659988,0.514571326915909,0.446444727984733,NaN,-1.61430423890021,-0.783881536581739,-2.15563985438611,0.0749350468309863,-1.43066706441581,0.0749350468296437,-0.54900977499272,-1.06757777197643,-1.89276776312161,-0.876711835504591,1.64734892256328,NaN,NaN,-1.56985522253815,0.144052208007622,-2.14127706213657,2.55999576263735,0.775752589366086,0.416005975949033,0.926518234164127,1.17066337511546,0.626488627367986,-0.280440490589464,-0.280440490591793,-0.551091893351548,-1.51202152549433,-0.937217989932528,-1.68261825566368,-2.81881975670679,-2.48427525554221,NaN,-1.67532629316707,-1.82002582198432,0.146365749413375,-0.146365749412973,-0.229602775484138
