time,S1-D1,S1-D8,S1-D9,S1-D15,S2-D1,S2-D2,S2-D3,S2-D9,S3-D1,S3-D2,S3-D16,S4-D2,S4-D3,S4-D5,S5-D3,S5-D4,S5-D5,S6-D2,S6-D5,S6-D17,S7-D6,S7-D7,S8-D6,S8-D7,S8-D18,S9-D3,S9-D4,S9-D9,S9-D11,S9-D19,S10-D8,S10-D9,S10-D10,S10-D11,S11-D8,S11-D10,S11-D20,S12-D10,S12-D11,S12-D12,S13-D4,S13-D11,S13-D12,S14-D10,S14-D12,S14-D21,S15-D13,S15-D14,S16-D13,S16-D14,S16-D22
1447.936,-0.0496324027176985,-0.78284658236018,-0.666440733450492,1.30476393468003,2.30205641781809,2.30205641781847,0.167698974327023,-0.376385137054996,0.00256500705589192,-1.4946006551875,0.111993069579088,-1.49460065518759,0.816590653589826,0.171864694885187,NaN,0.960749811357857,-1.12146702336894,0.628093118225408,-1.32795023650046,1.89746294215542,-1.327950236499,-1.79882482874392,-0.28953571767423,-2.0572167583528,1.20779649571919,-0.40142732829481,NaN,NaN,-0.790154127918652,0.513394856792927,-0.344360725860904,-0.422400354309008,-0.455349643814746,0.868157697246492,-1.85651374963643,-0.100873202574978,1.61826153563704,-0.980980298094187,-0.980980298094782,0.226860508025905,0.247644857575431,0.565963987067078,-0.7254675230319,-0.513200527281522,-3.14957299690758,NaN,0.740605700043511,-0.910822617099761,-0.286969117085635,0.286969117084907,0.665937729676867
1448.0384,-0.00650826814115314,-0.796976208777797,-0.650663815035654,1.30298786576069,2.29979616786558,2.29979616786593,0.203783729995188,-0.382504662045702,0.0325552106496364,-1.45018734656634,0.122609994169391,-1.45018734656642,0.86358167378175,0.200230077316036,NaN,0.988774059824616,-1.13301679275459,0.662988259000151,-1.33999300876861,1.91259536046737,-1.33999300876713,-1.75870610220053,-0.298337617265898,-2.02618186355032,1.20911254715369,-0.382838956631625,NaN,NaN,-0.822962760715949,0.519553060630366,-0.372539406909665,-0.421898574593069,-0.47590452204453,0.888542675413087,-1.83772785610923,-0.0677713832718806,1.62605531172709,-0.969819839629174,-0.969819839629765,0.23609423715921,0.255822216603107,0.587137284375085,-0.70546371055924,-0.526121132597953,-3.1290730303797,NaN,0.699591875011384,-0.933650766896688,-0.314317082038597,0.314317082037868,0.670316627286462
1448.1408,0.0351963206874732,-0.811448916092709,-0.636061890206477,1.2999203937094,2.29679493022422,2.29679493022453,0.240041166946972,-0.388518602892504,0.0627419601314242,-1.40572707618326,0.133048794598928,-1.40572707618334,0.911203193947189,0.228852343461409,NaN,1.01703806496105,-1.14502686099678,0.697898826804625,-1.35064737175765,1.92825210215503,-1.35064737175617,-1.71744372942053,-0.307435419668343,-1.99430604553543,1.20961361252676,-0.364796974352427,NaN,NaN,-0.856067142947328,0.525265497330836,-0.400662115767011,-0.421718241542636,-0.496571236545347,0.90815948676663,-1.81890880749397,-0.0354955449416408,1.63340790229319,-0.959182158694228,-0.959182158694814,0.245349766061322,0.264664627340346,0.608992859886413,-0.684636458502612,-0.538683253655506,-3.10554717429526,NaN,0.6578361318867,-0.955957193434145,-0.341573626494522,0.34157362649379,0.674082580131521
1448.2432,0.0754103114029149,-0.8262545320829,-0.622671587430483,1.29557543264553,2.29303735223898,2.29303735223926,0.276418552908608,-0.394449388493247,0.0930690943051715,-1.36126379969842,0.143288609148905,-1.36126379969849,0.959403908821289,0.257683582067958,NaN,1.0455161418216,-1.15749321624365,0.732787690809945,-1.3599138984382,1.94440956479065,-1.35991389843671,-1.67508797332043,-0.316838658472755,-1.96164819156057,1.20928432786254,-0.347333377667633,NaN,NaN,-0.889420840958957,0.530501168792548,-0.428755998134277,-0.421884038185151,-0.517381578181896,0.926993727621772,-1.80008892107361,-0.00407990556003692,1.64034027935248,-0.949060904883097,-0.94906090488368,0.254587604531756,0.274199550800411,0.63150129352158,-0.663020516956874,-0.550870149390025,-3.07904502040498,NaN,0.615362453034692,-0.977730910042794,-0.368678321376801,0.36867832137607,0.677177889041097
1448.3456,0.114068908139928,-0.84138340385022,-0.610526004515511,1.28996907616784,2.28850753494929,2.28850753494954,0.31286354446436,-0.400320292827469,0.123480468804128,-1.31684120953279,0.153305885406533,-1.31684120953286,1.00812892063729,0.286670571336056,NaN,1.07418091003201,-1.17041012971914,0.767616406505178,-1.36779850004842,1.96104053188122,-1.36779850004692,-1.63169114887366,-0.326557490644589,-1.92826982085546,1.20810868869552,-0.330478998565736,NaN,NaN,-0.922976707272442,0.535229169099332,-0.456846580970534,-0.422418757011786,-0.538365242630886,0.945031851155608,-1.7812996891583,0.0264427283872645,1.64687182931236,-0.939447596129203,-0.939447596129781,0.263771289743268,0.284448824227705,0.65463197533176,-0.640652370192245,-0.562666421296723,-3.04962397305415,NaN,0.572196270076722,-0.998961279951136,-0.395571045287467,0.395571045286735,0.679547110611303
1448.448,0.151113777409286,-0.856826463172108,-0.599654631583665,1.28311939437287,2.28318898053267,2.28318898053289,0.349324446683556,-0.406155334824905,0.153920228551424,-1.27250254365114,0.16307434530936,-1.27250254365121,1.05731978590815,0.315754704857855,NaN,1.10300337155315,-1.18377037223043,0.802345168061538,-1.37431246763125,1.97811413250563,-1.37431246762974,-1.58730743300791,-0.33660275284417,-1.89423495178591,1.20607005252298,-0.314263449462235,NaN,NaN,-0.956687074371769,0.539418780775562,-0.4849573206064,-0.423343103177523,-0.559549403162954,0.962261039741645,-1.76257167857208,0.0560408786521689,1.65302014253263,-0.930331722391352,-0.930331722391926,0.272867547874417,0.295428462053534,0.678353141073139,-0.617569981357262,-0.5740581336047,-3.01734887794688,NaN,0.528364626966178,-1.01963790886902,-0.422192138946291,0.422192138945557,0.681137309052742
1448.5504,0.1864932157834,-0.872575283434159,-0.590083291338405,1.27504623751843,2.2770645463209,2.27706454632108,0.38575044551736,-0.411979185458086,0.184333052933236,-1.22829041690364,0.172564987792503,-1.22829041690371,1.10691457167922,0.344871951948679,NaN,1.13195297546005,-1.19756541026441,0.836932756322402,-1.37947250391686,1.9955958258877,-1.37947250391533,-1.54199268314056,-0.346986006218388,-1.85960996632145,1.20315114629457,-0.298715062475936,NaN,NaN,-0.990503942065363,0.543039565740884,-0.51310916291278,-0.424675504140119,-0.5809582953878,0.978669074520467,-1.74393442259516,0.0846843132226175,1.6588008181068,-0.921700874034733,-0.9217008740353,0.281846429970133,0.307148470669909,0.702631884563191,-0.593812540350121,-0.585032922931365,-2.98229163339055,NaN,0.483896326920441,-1.03975053661053,-0.448482532575599,0.448482532574864,0.681898292680681
1448.6528,0.22016227843824,-0.888622124761181,-0.581834094482988,1.26577104369256,2.27011641060452,2.27011641060466,0.422091810963429,-0.417817080971207,0.214664372315033,-1.18424667704859,0.181746141365517,-1.18424667704866,1.15684792483735,0.373952860867303,NaN,1.16099767136863,-1.21178557665189,0.871336488911952,-1.38330074072574,2.01344741475219,-1.3833007407242,-1.49580426601053,-0.357719568726172,-1.82446347253694,1.19933407637599,-0.283860820137222,NaN,NaN,-1.02437915937129,0.546061451518665,-0.541320121480729,-0.426431927890361,-0.602612819383294,0.994244210103349,-1.72541630576416,0.112343974027542,1.66422729337164,-0.913540893664661,-0.913540893665224,0.290681415062297,0.319612689358796,0.727434148963625,-0.569420222981391,-0.59558008807601,-2.94453078231152,NaN,0.43882207124482,-1.05928893160226,-0.474383850000318,0.474383849999582,0.681782831253516
1448.7552,0.252082872410352,-0.90495996391776,-0.574925405071029,1.25531665160781,2.2623260573035,2.26232605730362,0.458300077795585,-0.423694736768249,0.244860564156787,-1.14041227780985,0.190583563578716,-1.14041227780992,1.20705116062981,0.402922616397443,NaN,1.19010395507313,-1.22642021584701,0.905512178011249,-1.38582473152176,2.03162708587404,-1.38582473152022,-1.44880089061345,-0.368816535281607,-1.78886615931139,1.19460034777552,-0.269726272145493,NaN,NaN,-1.05826458986907,0.548454819098042,-0.569604875653252,-0.42862571150917,-0.624530161393702,1.00897506173124,-1.70704444777917,0.138991918848083,1.66931070041134,-0.905836046582387,-0.905836046582943,0.299349475533752,0.332818673493933,0.752724705618193,-0.544433959969538,-0.6056906628995,-2.90415108846064,NaN,0.393174583261015,-1.07824279506333,-0.499838498029892,0.499838498029155,0.680746847807267
1448.8576,0.282223823838454,-0.921582508288976,-0.569371809374795,1.24370712168275,2.25367428132951,2.25367428132959,0.494328214484057,-0.42963825882029,0.274869139501298,-1.09682715922556,0.199040582278874,-1.09682715922564,1.25745237488412,0.43170115910623,NaN,1.21923691204883,-1.24145780670854,0.939414102407841,-1.3870774056829,2.0500894749614,-1.38707740568135,-1.40104243181571,-0.380290785947745,-1.7528906302003,1.18893090306822,-0.256335436179499,NaN,NaN,-1.09211225208181,0.550190599852434,-0.597974388923971,-0.431267404680468,-0.646723437682346,1.02285050783592,-1.68884459361392,0.164601276641,1.67405974782583,-0.898569204740811,-0.898569204741361,0.307831107854882,0.346757626915491,0.778467131663556,-0.518895211119338,-0.615357480241438,-2.86124310416966,NaN,0.346988710922242,-1.09660167695103,-0.524789752711498,0.524789752710762,0.678749577006343
1448.96,0.310560932209952,-0.938484196833179,-0.565184082392938,1.23096756987781,2.244141206468,2.24414120646806,0.530130788682232,-0.435674056108168,0.304638925972891,-1.05353013044696,0.207078279523162,-1.05353013044704,1.30797657853738,0.460203362383585,NaN,1.24836026543138,-1.25688606726057,0.972995000677687,-1.38709697152471,2.06878575653159,-1.38709697152316,-1.35258972942609,-0.392156981011311,-1.71661120031935,1.18230618831729,-0.243710688918009,NaN,NaN,-1.12587444063212,0.551240385682838,-0.626435549516862,-0.434364635639907,-0.66920136544099,1.03585960282333,-1.67084101280495,0.18914620888495,1.67848062574394,-0.891722044601757,-0.891722044602299,0.316110339054752,0.361414374493195,0.804623792391292,-0.492845742280561,-0.624575232528408,-2.81590273724855,NaN,0.300301511858868,-1.11435489762049,-0.549181850407325,0.54918185040659,0.675753682611355
1449.0624,0.337077018095152,-0.955660191166523,-0.562369150466093,1.21712401968542,2.2337063082751,2.23370630827513,0.565664128702434,-0.441828761652028,0.334120243798798,-1.0105587596962,0.214655719453725,-1.01055875969629,1.35854584835443,0.488339258876125,NaN,1.27743643021385,-1.27269204456792,1.00620608577449,-1.38592676143708,2.08766376015766,-1.38592676143553,-1.30350435985468,-0.404430538878122,-1.6801036494559,1.17470625073677,-0.231872655282603,NaN,NaN,-1.15950383835106,0.551576555404937,-0.654990837058991,-0.437922004031492,-0.691967965773213,1.04799149342391,-1.65305640914201,0.212601868935295,1.68257693508073,-0.885275263107938,-0.885275263108471,0.324174718156297,0.376767359618875,0.831155826580173,-0.466327401869614,-0.633340533873223,-2.76823082039712,NaN,0.253152324197875,-1.1314914696268,-0.572960084763796,0.572960084763062,0.671725330084756
1449.1648,0.361761955055637,-0.97310635610668,-0.560930055337651,1.20220327669532,2.22234844814598,2.22234844814598,0.600886469462189,-0.44812916705347,0.363265062575294,-0.967949284248873,0.221730216440993,-0.967949284248968,1.40907948863468,0.516014316458764,NaN,1.30642656791843,-1.28886218957081,1.0389970721427,-1.38361502551503,2.10666810967197,-1.38361502551349,-1.25384839763886,-0.417127591884927,-1.64344494369267,1.16611087338055,-0.220840096614117,NaN,NaN,-1.19295361861554,0.551172422007878,-0.683638021676235,-0.441940998279708,-0.715022302283115,1.05923534083889,-1.63551184483408,0.234944359521912,1.68634964651229,-0.879208811907269,-0.879208811907793,0.332015293314391,0.392788660404087,0.858023129757578,-0.439381891495095,-0.64165198956825,-2.71833268336228,NaN,0.205582820087563,-1.14800002450124,-0.596070906758681,0.596070906757949,0.666634217748019
1449.2672,0.384612668468493,-0.990819223705357,-0.56086592571756,1.18623283007298,2.21004593419322,2.2100459341932,0.635758067163301,-0.454602169121411,0.392027125211318,-0.925736550917485,0.228257636667553,-0.925736550917598,1.45949420269236,0.54312977356383,NaN,1.33529063505687,-1.30538241267391,1.07131620816475,-1.38021468978868,2.12574037844223,-1.38021468978713,-1.20368419176181,-0.430264917510635,-1.60671294769667,1.1564997508061,-0.210629791569582,NaN,NaN,-1.22617753022431,0.550002404340127,-0.712369906045291,-0.446419931580876,-0.738358260233165,1.0695802587532,-1.6182266815473,0.256150698103431,1.68979709383004,-0.873502140557334,-0.873502140557846,0.339626567014768,0.409444032041248,0.885184331796266,-0.412050530318124,-0.649510274401425,-2.66631773037909,NaN,0.15763704098191,-1.16386875656794,-0.618462024503227,0.618462024502497,0.66045357769503
1449.3696,0.405633092326889,-1.00879593154137,-0.562171954509376,1.16924078699552,2.19677661964902,2.19677661964898,0.670241271251977,-0.461274723037634,0.420362030948318,-0.883953985542596,0.234192727278825,-0.883953985542725,1.50970427510775,0.56958304372863,NaN,1.36398742499317,-1.32223811284924,1.10311031900681,-1.37578309024834,2.14481925657526,-1.3757830902468,-1.15307417143724,-0.443859843474168,-1.56998614068545,1.14585270338378,-0.201256404112595,NaN,NaN,-1.2591299647971,0.548042221130132,-0.741174125427362,-0.451353893367258,-0.76196437585989,1.07901527569674,-1.6012185308967,0.276198803623971,1.69291499773321,-0.868134432057344,-0.868134432057845,0.347006420382206,0.426692988039162,0.912596768528632,-0.384374022381318,-0.656918210157303,-2.61229902335623,NaN,0.109361419087451,-1.17908539150862,-0.640082500279798,0.640082500279071,0.653160159079841
1449.472,0.424834089733497,-1.02703412790837,-0.564839372113996,1.15125584456759,2.18251803908927,2.1825180390892,0.704300551077418,-0.468173796203756,0.448227277441058,-0.842633579709595,0.239489471012367,-0.842633579709734,1.55962176726124,0.595268192318901,NaN,1.39247460963964,-1.33941417539828,1.13432487374906,-1.3703816801614,2.16384073129316,-1.37038168015986,-1.10208068013372,-0.457930125200519,-1.53334333338229,1.13414992219972,-0.192732338088068,NaN,NaN,-1.29176601479047,0.545269101299018,-0.770033019791837,-0.456734717310879,-0.785823726766694,1.08752932447908,-1.58450320033348,0.295067515663782,1.69569650946886,-0.863084814231033,-0.863084814231522,0.354156005226125,0.44448892622154,0.940216451188117,-0.356392239553118,-0.663880825581808,-2.55639286280541,NaN,0.0608047878585569,-1.19363717947571,-0.660882845027092,0.660882845026368,0.644734202766585
1449.5744,0.442233352999724,-1.04553184225757,-0.568855404428488,1.13230729769713,2.16724757897425,2.16724757897415,0.737902484486537,-0.475326317653894,0.475582270408817,-0.801805878761553,0.244101468507327,-0.801805878761708,1.60915673334522,0.62007648334025,NaN,1.42070878992599,-1.35689493941905,1.16490408999838,-1.36407569994788,2.18273828345478,-1.36407569994634,-1.05076582481834,-0.472493796695929,-1.49686337412176,1.12137223832894,-0.185067581200635,NaN,NaN,-1.32404152795084,0.541662008471196,-0.798923585854598,-0.462550968281143,-0.80991389031792,1.09511126023208,-1.56809462571865,0.312736652623528,1.69813226741384,-0.858332534995812,-0.858332534996291,0.361079610857483,0.46277929785664,0.967998042109542,-0.328144027660971,-0.670405387524345,-2.49871835860457,NaN,0.0120183795397494,-1.20751091200768,-0.680815115849212,0.68081511584849,0.635159414292806
1449.6768,0.457855301344433,-1.06428732345641,-0.574203206251569,1.1124250761749,2.15094268228213,2.15094268228202,0.771015721666705,-0.482759117960599,0.502388314802603,-0.761499953261986,0.247982352422854,-0.761499953262156,1.65821746928518,0.643896995278938,NaN,1.44864556173704,-1.3746641382098,1.19479108395107,-1.35693379796699,2.20144310017242,-1.35693379796547,-0.999191322052504,-0.487568997761442,-1.46062482882641,1.10750141781079,-0.178269540984536,NaN,NaN,-1.35591315850966,0.537201885700783,-0.827817511827761,-0.468787951126954,-0.83420697346565,1.10174991193751,-1.55200479304504,0.329187112906291,1.70021046842082,-0.853857092453644,-0.853857092454111,0.367784512242981,0.48150582280058,0.995894848873273,-0.299667036620247,-0.676501403319028,-2.43939699285054,NaN,-0.0369441956989584,-1.22069296680864,-0.69983302740156,0.699833027400841,0.624422941120507
1449.7792,0.471730987774096,-1.08329884902088,-0.580861765341768,1.09163980371438,2.13358108927374,2.13358108927361,0.803610936795366,-0.490498854908354,0.528608600621676,-0.721743337399202,0.251086238123466,-0.721743337399391,1.70671080506295,0.666617307405105,NaN,1.47623960031618,-1.39270481415236,1.22392806939603,-1.34902759251138,2.21988430139865,-1.34902759250987,-0.94741832463016,-0.503173778435436,-1.42470561962288,1.09252048876328,-0.172342873584375,NaN,NaN,-1.38733841250518,0.531871929187466,-0.856681295314847,-0.475427744995512,-0.858669716097995,1.10743417213689,-1.5362436586609,0.344401018944463,1.70191696320443,-0.84963831495392,-0.849638314954376,0.374280801007108,0.500604761159386,1.02385884933333,-0.270997572363773,-0.682180600046552,-2.3785521829026,NaN,-0.0860269977564922,-1.23316938561284,-0.717892087534984,0.71789208753427,0.612515354776784
1449.8816,0.483898014943383,-1.10256450975601,-0.588805780852759,1.06998287400344,2.1151411126966,2.11514111269645,0.835660775248792,-0.498571923705981,0.554208190822354,-0.682561928371465,0.253368214240272,-0.682561928371667,1.75454244018301,0.688124253116754,NaN,1.503444762085,-1.4109992087206,1.25225660350772,-1.34043117422953,2.23798918040571,-1.34043117422802,-0.895507222024003,-0.519325880376842,-1.38918261516976,1.07641410438493,-0.167289305818388,NaN,NaN,-1.41827568401179,0.525657893332,-0.885476439686867,-0.48244926521399,-0.883263665432118,1.11215312247491,-1.52081907810491,0.358361895740058,1.70323538904057,-0.845656395861487,-0.845656395861932,0.380581200669534,0.520007245507403,1.05184075346117,-0.242170468819236,-0.687456885312322,-2.31630885140714,NaN,-0.135171840089421,-1.24492598502761,-0.734949757097848,0.734949757097137,0.599430630980493
1449.984,0.494400450369767,-1.12208198062192,-0.59800553100204,1.04748654058729,2.09560193692448,2.09560193692432,0.867139800327072,-0.507004357853501,0.579154012467123,-0.643979860140379,0.254784862970582,-0.643979860140591,1.80161730929959,0.708304719336437,NaN,1.53021419668629,-1.42952862999557,1.27971786628523,-1.33122057078286,2.25568345942556,-1.33122057078134,-0.843517420349917,-0.536042501601973,-1.35413118457288,1.05916893805607,-0.163107455671425,NaN,NaN,-1.44868427991914,0.518548418995437,-0.91415971188442,-0.48982834913691,-0.907945407152868,1.11589618431975,-1.50573675192417,0.371054867327456,1.70414734739568,-0.841891897347623,-0.841891897348058,0.386700871870677,0.53963965889574,1.07979009574966,-0.213218983294633,-0.692346290531047,-2.25279301449248,NaN,-0.184318405393215,-1.25594849340951,-0.750965619877342,0.750965619876635,0.585166121880834
1450.0864,0.503288729505744,-1.14184829572955,-0.60842675175977,1.02418401896129,2.07494392243161,2.07494392243144,0.898024441482958,-0.515821732672662,0.603414848176545,-0.606019381363785,0.255294776749915,-0.606019381364009,1.84783995817474,0.727046451667967,NaN,1.55650045827707,-1.44827330322907,1.30625295209185,-1.32147322035783,2.27289155870518,-1.32147322035632,-0.791507115935389,-0.553340061822041,-1.31962474557192,1.04077410153381,-0.15979266372854,NaN,NaN,-1.47852442878959,0.510535369667655,-0.94268343128671,-0.497537856569531,-0.932666826420825,1.11865328106767,-1.49100019464432,0.382466852921583,1.70463261909779,-0.838325738578303,-0.838325738578728,0.392657216136895,0.559424030557933,1.10765534286316,-0.184174728563558,-0.696866892474093,-2.18813141239558,NaN,-0.233404371914958,-1.26622270473887,-0.765901544395756,0.765901544395054,0.569722525466937
1450.1888,0.510619536470992,-1.1618596435908,-0.620030546080308,1.0001095986218,2.05314889896313,2.05314889896296,0.928292943078344,-0.5250490819535,0.626961322897717,-0.568700767236161,0.254859034771095,-0.568700767236391,1.89311491421874,0.744238828655049,NaN,1.58225560882625,-1.4672122096472,1.33180315786847,-1.31126749561358,2.28953687336806,-1.31126749561208,-0.739533077701333,-0.5712339866931,-1.2857343398272,1.02122157233775,-0.157336849014373,NaN,NaN,-1.50775726711464,0.501614156947999,-0.970995761628049,-0.505547776121098,-0.957375373954198,1.12041500501484,-1.47661072916939,0.392586753628953,1.70466939893309,-0.834939176323696,-0.834939176324112,0.398469683456159,0.579278428048599,1.13538400322825,-0.155067656526716,-0.701038707365312,-2.12245120731036,NaN,-0.282365524619247,-1.27573464345208,-0.77972182371028,0.779721823709581,0.55310386343599
1450.2912,0.516455651712905,-1.18211118850864,-0.632773335230037,0.975298757064998,2.03020044224428,2.0302004422441,0.957925308990372,-0.534710830770949,0.649765880588591,-0.532042279621305,0.253441631621672,-0.53204227962154,1.93734704783644,0.759773595917306,NaN,1.6074313117826,-1.48632291242206,1.35631026629793,-1.30068227904674,2.30554205206618,-1.30068227904524,-0.687650448720005,-0.58973851780491,-1.25252825217689,1.00050660746195,-0.155728396007395,NaN,NaN,-1.5363448047419,0.491784034843608,-0.999040997590417,-0.513825336795602,-0.982014330677219,1.12117279084624,-1.46256750321845,0.401405633905183,1.70423453299151,-0.831713779613571,-0.831713779613978,0.404159581204518,0.599117345411879,1.16292273466309,-0.125926094610594,-0.704883556691622,-2.05587974944179,NaN,-0.331135842906916,-1.28447073623381,-0.792393282707365,0.792393282706669,0.535317472197796
1450.3936,0.520865757591905,-1.20259691523748,-0.646606855570377,0.949788264433766,2.00608413675373,2.00608413675355,0.986903237694667,-0.544830740929577,0.671802747387502,-0.496060173406376,0.251009874406026,-0.496060173406623,1.98044192875015,0.773545571975264,NaN,1.63197891713518,-1.50558136619892,1.37971682835211,-1.28979655939565,2.32082927435544,-1.28979655939416,-0.635912570878684,-0.608866543663912,-1.22007167312684,0.978628118918912,-0.154952073736647,NaN,NaN,-1.56424988458334,0.481048346166886,-1.02675985435126,-0.522335131031348,-1.00652308000361,1.12091909968574,-1.4488675211192,0.408916905895438,1.70330374861778,-0.828631398705206,-0.828631398705603,0.409749877780198,0.618852099647984,1.19021745258552,-0.0967768244182063,-0.708424906587659,-1.98854438847987,NaN,-0.379647574273105,-1.29241798411318,-0.803885346729044,0.803885346728349,0.516374002644203
1450.496,0.523924200433261,-1.22330949300488,-0.661478198546198,0.923616272869317,1.98078782482053,1.98078782482035,1.01521004745997,-0.555431862248347,0.693047883608575,-0.460768738261556,0.247534758685223,-0.460768738261814,2.02230618127052,0.785453336079519,NaN,1.65584954243309,-1.52496171569979,1.40196644805887,-1.27868902553125,2.33532053020045,-1.27868902552978,-0.584370831021535,-0.628629444259935,-1.18842639575666,0.955589000706861,-0.154988987815302,NaN,NaN,-1.59143615273353,0.469414715801408,-1.05408976882948,-0.531039255410378,-1.03083739717061,1.11964761170835,-1.4355056859399,0.415116517312687,1.70185187145682,-0.825674128815533,-0.82567412881592,0.415264998974183,0.638391241338467,1.21721344172799,-0.0676451916750517,-0.711687683185241,-1.9205723077798,NaN,-0.427831305214913,-1.29956412537053,-0.814170074269457,0.814170074268763,0.496287423978072
1450.5984,0.52571071536941,-1.24424015939473,-0.677329890290564,0.896822390874311,1.95430183772794,1.95430183772776,1.04283059913479,-0.566536481499798,0.713478934497553,-0.42618036343351,0.242991318882164,-0.426180363433777,2.06284784106158,0.795399897273408,NaN,1.67899415760492,-1.54443609807702,1.42300407028954,-1.2674376552907,2.34893791411627,-1.26743765528923,-0.533074522050794,-0.649036946459882,-1.1576505379254,0.931396413812069,-0.15581656879054,NaN,NaN,-1.61786804356309,0.456895197469119,-1.08096521285339,-0.539897470564809,-1.05488975651606,1.11735341891959,-1.42247485033532,0.420003134544839,1.69985302913716,-0.822824271601215,-0.822824271601594,0.42073062417209,0.657640971314433,1.24385547352884,-0.0385552359035267,-0.714698073707979,-1.85209037505414,NaN,-0.475616037172921,-1.30589778305281,-0.823222163127129,0.823222163126438,0.475075032917758
1450.7008,0.526310120896304,-1.26537862582375,-0.694100007877648,0.869447744370905,1.92661920504264,1.92661920504248,1.06975122448198,-0.578166062717045,0.733075189362596,-0.392305615227702,0.237358946471112,-0.392305615227976,2.10197671375337,0.803293340226483,NaN,1.70136368042506,-1.56397446099838,1.44277627291972,-1.25611930731779,2.36160394628952,-1.25611930731633,-0.482070713252391,-0.670096990192222,-1.1277982840811,0.906062041593884,-0.157408597644217,NaN,NaN,-1.643510775671,0.443506385341359,-1.10731801503675,-0.548867377834017,-1.07860965316185,1.11403320819969,-1.40976587546467,0.423578310464964,1.69728084803347,-0.820064300953087,-0.820064300953458,0.426173490267513,0.676505554693072,1.27008793194254,-0.00952982810641871,-0.717483329208074,-1.78322501797534,NaN,-0.522929274474562,-1.31140859673314,-0.831018939004263,0.831018939003572,0.452757469671983
1450.8032,0.525811983225073,-1.28671300097624,-0.711722329223353,0.841535025447098,1.89773584233869,1.89773584233853,1.09595965761792,-0.59034117987251,0.751817546491777,-0.359153319602606,0.230621673732119,-0.359153319602893,2.13960472988197,0.809047449596472,NaN,1.72290908751563,-1.58354440192929,1.46123156674783,-1.24480932611524,2.37324191645842,-1.24480932611378,-0.431404133471976,-0.691815600014701,-1.09891964499188,0.879602320086958,-0.159735261095487,NaN,NaN,-1.66833035706478,0.429269495975868,-1.1330776942847,-0.557904610986284,-1.10192394045615,1.10968542916029,-1.39736769658574,0.425846631741906,1.694108651129,-0.817376835975476,-0.817376835975839,0.43162119936468,0.694887741489452,1.29585495109132,0.0194091870253613,-0.720071576210609,-1.71410213340641,NaN,-0.569697126456081,-1.31608733749799,-0.837540329853677,0.837540329852985,0.429358731447003
1450.9056,0.524310243128602,-1.30822972552927,-0.730126515835797,0.813128527823616,1.86765071912589,1.86765071912573,1.12144495829117,-0.603081450595927,0.769688470335456,-0.32673064782634,0.222768422719029,-0.326730647826642,2.17564628711139,0.812582318999566,NaN,1.74358154390597,-1.60311103236214,1.47832070497256,-1.23358116966197,2.3837762321592,-1.23358116966051,-0.381117079826975,-0.714196751571942,-1.07106023771008,0.852038633299843,-0.162763226080542,NaN,NaN,-1.69229360356079,0.41421041368037,-1.15817181311188,-0.566963044525343,-1.12475718993691,1.10431044873403,-1.38526739506762,0.426815847909862,1.69030965773601,-0.814744614855165,-0.814744614855523,0.437102017143136,0.712689217165963,1.32110056891572,0.0482408410339848,-0.722491630748465,-1.64484702301631,NaN,-0.615844417713414,-1.31992600018084,-0.842768823134472,0.842768823133779,0.404906165607823
1451.008,0.521902796714273,-1.32991351538673,-0.749238331571562,0.784274163699132,1.83636600841453,1.83636600841437,1.14619741722872,-0.616405480181587,0.786671928543651,-0.295043212231593,0.213793221969224,-0.295043212231908,2.2100185742533,0.813824947784278,NaN,1.7633325499642,-1.6226368700329,1.49399699799007,-1.22250606315711,2.39313275838321,-1.22250606315565,-0.331249365283426,-0.737242226261788,-1.04426109242519,0.823397453886899,-0.166455727824816,NaN,NaN,-1.71536817328661,0.398359685272553,-1.18252635574635,-0.575995020191628,-1.14703207825367,1.09791069983414,-1.3734502781704,0.426496989499549,1.68585717886757,-0.81215046100939,-0.812150461009739,0.442644653442463,0.72981109943541,1.34576890076253,0.0769448844928361,-0.724772806404719,-1.57558433278444,NaN,-0.661294799682392,-1.32291786744132,-0.846689402809869,0.846689402809176,0.379430426686941
1451.1104,0.518691027841727,-1.3517473146673,-0.768979899848671,0.75501945363813,1.80388722040151,1.80388722040134,1.17020844082445,-0.630330818696507,0.802753305305817,-0.26409518358872,0.203695398985661,-0.264095183589049,2.24264187717809,0.812709824836815,NaN,1.78211410082883,-1.6420817600876,1.50821662511717,-1.21165267342796,2.40123914838782,-1.2116526734265,-0.281838310957701,-0.760951455954787,-1.01855849378409,0.793710412361668,-0.170772670982254,NaN,NaN,-1.73752261330273,0.38175245485163,-1.20606612927456,-0.58495158980571,-1.16866979887764,1.0904908307374,-1.36189996709095,0.424904482264484,1.68072480281567,-0.809577240033802,-0.809577240034144,0.448278026869241,0.746154478058808,1.36980433228905,0.105501628590029,-0.726944715177247,-1.50643797808155,NaN,-0.705970862590897,-1.32505754759495,-0.849289468893126,0.849289468892435,0.352965388798272
1451.2128,0.514779299079153,-1.37371226114789,-0.789269997153537,0.725413485196778,1.77022332246719,1.77022332246702,1.19347042060629,-0.644873926065371,0.817919297888754,-0.23388943499587,0.192479751799558,-0.233889434996217,2.27343986930863,0.8091794928792,NaN,1.79987885366131,-1.66140282709527,1.52093893441889,-1.20108679687423,2.40802517012583,-1.20108679687278,-0.232918777960281,-0.785321366943438,-0.993983860491439,0.763014292715637,-0.175670745643128,NaN,NaN,-1.75872640900491,0.364428340803894,-1.2287151795849,-0.593782768907572,-1.18959048987539,1.08205785366169,-1.35059849396901,0.422056255426416,1.67488656978392,-0.80700781420832,-0.807007814208656,0.454031021584788,0.761620977355674,1.39315172345718,0.133891789879439,-0.72903706439332,-1.43753105081005,NaN,-0.749794248723225,-1.3263409950853,-0.850558749990906,0.850558749990216,0.325548016882632
1451.3152,0.510274413446647,-1.39578766884512,-0.810024378903928,0.695506844464791,1.73538684256888,1.73538684256871,1.21597660157744,-0.660050135062582,0.832157812986678,-0.204427703986031,0.18015668625283,-0.204427703986397,2.30233989050444,0.803185076732235,NaN,1.81658030086868,-1.68055446518908,1.53212672203535,-1.19087106176349,2.41342303327222,-1.19087106176203,-0.184523223959869,-0.81034623677367,-0.970563661843892,0.731350969498276,-0.181103563053151,NaN,NaN,-1.77895003013693,0.34643126737466,-1.25039720849642,-0.602437794045574,-1.20971366429574,1.07262128055247,-1.33952641139951,0.417973828741598,1.66831713646754,-0.804425004539987,-0.804425004540317,0.459932246204546,0.776113315075618,1.41575661197549,0.162096340489838,-0.731079452949023,-1.36898571065615,NaN,-0.792685766941892,-1.32676552383905,-0.85048922608012,0.850489226079433,0.297218217140582
1451.4176,0.505285059751938,-1.41795103448258,-0.831156135053409,0.665351528014862,1.6993939475902,1.69939394759003,1.23772096951374,-0.675873602212566,0.845457884844127,-0.175710754100204,0.166742297306462,-0.175710754100585,2.32927321967855,0.794686753338067,NaN,1.83217294950129,-1.69948837672781,1.54174648319033,-1.18106465006479,2.4173677231538,-1.18106465006334,-0.136681763090928,-0.836017577888499,-0.948319363651489,0.69876730901585,-0.187021818566815,NaN,NaN,-1.79816497876853,0.327809266804898,-1.27103597811442,-0.610865378543677,-1.22895863040613,1.06219322965032,-1.32866291871943,0.412682357893193,1.66099193107739,-0.801811568387641,-0.801811568387965,0.466009804004915,0.789535836936,1.43756540903785,0.190096366062552,-0.733101169843521,-1.30092306181208,NaN,-0.83456551401354,-1.32632981972457,-0.849075080863575,0.849075080862889,0.268018696178903
1451.52,0.499921250876066,-1.44017807353595,-0.852576074144259,0.635000837067424,1.66226448914023,1.66226448914007,1.2586981741885,-0.692357240849107,0.857809632649061,-0.147738517241649,0.152258383664696,-0.147738517242042,2.35417534596266,0.783654149044979,NaN,1.84661250611863,-1.71815366547246,1.54976862907783,-1.17172303912565,2.41979734814181,-1.17172303912421,-0.08942220945286,-0.86232405601218,-0.927267391764358,0.665315051053729,-0.193373487326847,NaN,NaN,-1.81634385378593,0.308614264660281,-1.29055569523498,-0.619013966913692,-1.24724489656087,1.05078849082016,-1.31798600627066,0.406210624307993,1.65288729969817,-0.79915019724638,-0.799150197246699,0.472291081140181,0.801795019168156,1.45852558941757,0.217872932634314,-0.735130998689486,-1.23346302101733,NaN,-0.875353020551604,-1.32503395308007,-0.846312693903737,0.846312693903054,0.237994847037335
1451.6224,0.494293756097289,-1.46244278785723,-0.874193136744979,0.604509247696698,1.62402201552891,1.62402201552875,1.27890349327771,-0.709512636324817,0.869204261466703,-0.12051020946528,0.136732401096062,-0.120510209465687,2.37698623913462,0.770066664276067,NaN,1.85985606463036,-1.7364969839661,1.55616766596227,-1.16289776059067,2.42065350557782,-1.16289776058922,-0.0427700988632711,-0.889251441598028,-0.907419106304856,0.631050672398854,-0.200104052342478,NaN,NaN,-1.83346044273621,0.288901851372573,-1.30888137729593,-0.626831992278222,-1.26449256388622,1.03842454641942,-1.30747261636607,0.398590966576301,1.64398064715695,-0.796423537427084,-0.7964235374274,0.478802553794443,0.812799946939641,1.47858588493961,0.245406960574761,-0.737197029265193,-1.16672418446052,NaN,-0.914967443828118,-1.32287938994007,-0.842200665444952,0.84220066544427,0.207194656933522
1451.7248,0.488513520982383,-1.48471756471693,-0.895914842228962,0.573932247676806,1.58469375267426,1.5846937526741,1.29833283124968,-0.727349948728342,0.879634099493744,-0.0940244263626594,0.120197366030033,-0.0940244263630832,2.39765061623182,0.753913731895151,NaN,1.87186229617804,-1.75446273375991,1.56092233609002,-1.15463617989608,2.41988166688785,-1.15463617989464,0.00325130083048994,-0.916782588644694,-0.888780791234632,0.596035218068633,-0.207156761341771,NaN,NaN,-1.84948983838894,0.268731030599809,-1.32593920337953,-0.634268139868075,-1.28062271082873,1.02512155177533,-1.29709882058708,0.389859158163403,1.63425057635764,-0.793614234415896,-0.793614234416206,0.485569608459816,0.822462785158204,1.49769648920996,0.272679100504667,-0.739326469290867,-1.10082369006554,NaN,-0.953327817531316,-1.31986900160109,-0.836739856797142,0.836739856796464,0.175668617267642
1451.8272,0.482691066859877,-1.50697330625512,-0.917647773119856,0.543326131264097,1.54431055754039,1.54431055754024,1.31698274365628,-0.745877812137394,0.88909265947987,-0.0682792307895296,0.102691721854996,-0.068279230789966,2.41611820025874,0.73519501443267,NaN,1.88259164472762,-1.77199331932165,1.56401572551153,-1.14698130767584,2.4174315749777,-1.14698130767438,0.0486209750973603,-0.944897437440916,-0.871353671489182,0.560334077858534,-0.214472908889214,NaN,NaN,-1.86440857087216,0.24816392773993,-1.3416568507854,-0.641271616439777,-1.29555776987563,1.01090228363829,-1.28684001400944,0.380054240274728,1.62367702748359,-0.790704997681416,-0.790704997681724,0.492616367394277,0.830699254245936,1.51580927459727,0.299669610267263,-0.741545448859292,-1.03587705902895,NaN,-0.990353356159034,-1.31600707252692,-0.829933432165921,0.829933432165245,0.143469615773755
1451.9296,0.476935861878631,-1.52917958497426,-0.939298098511847,0.512747745385191,1.50290684951369,1.50290684951354,1.33485047345721,-0.765103239143963,0.897574708879351,-0.0432722446342316,0.0842591812455374,-0.0432722446346802,2.43234396564398,0.7139205488294,NaN,1.89200653396515,-1.78902945578337,1.56543534746013,-1.13997165702155,2.41325764227984,-1.13997165702009,0.0933201263490727,-0.97357303627118,-0.855133969998597,0.524016687076881,-0.221992138982555,NaN,NaN,-1.87819475522354,0.22726544405551,-1.35596381915995,-0.647792425962471,-1.30922189807971,0.995792065602344,-1.27667112517814,0.369218320433875,1.61224141434661,-0.78767868052949,-0.787678680529799,0.49996551227746,0.837429116924314,1.5328780174264,0.326358244689988,-0.743878823173258,-0.971997999853427,NaN,-1.02596381305453,-1.31129930307881,-0.82178689298267,0.821786892981996,0.110652793379328
1452.032,0.471355656269223,-1.55130481694777,-0.960772134473424,0.482254185493238,1.46052052623947,1.46052052623932,1.35193398326947,-0.785031534291372,0.905076332840264,-0.0190007507837039,0.0649485523778834,-0.0190007507841637,2.44628836362927,0.690110851309298,NaN,1.90007158596256,-1.80551052439861,1.5651732068203,-1.13364115662133,2.40731934011497,-1.13364115661984,0.137332097672374,-1.00278357248822,-0.840113013199075,0.487156139857155,-0.229652760728205,NaN,NaN,-1.89082826260114,0.206102850249981,-1.36879174886696,-0.653781652940485,-1.3215413469721,0.979818675491672,-1.26656683847997,0.35739634417713,1.59992675233835,-0.784518372197627,-0.784518372197932,0.507638099248136,0.842576681457773,1.54885862699869,0.352724176817367,-0.746349990429093,-0.909298167431374,NaN,-1.06007989377958,-1.30575280042473,-0.812308100155104,0.812308100154434,0.0772753536996718
1452.1344,0.466055784015177,-1.57331644445801,-0.981976933318458,0.451902446274096,1.41719286862685,1.4171928686267,1.36823197399015,-0.805666213489402,0.911594982609276,0.00453819647025651,0.0448135471270126,0.00453819646978055,2.45791752473144,0.663796988991592,NaN,1.90675384296462,-1.82137496037933,1.56322584413036,-1.12801912402105,2.39958157518194,-1.12801912401954,0.180642247783798,-1.03250040635211,-0.826277387381464,0.449828719155159,-0.237392069182897,NaN,NaN,-1.90229091401622,0.18474532567018,-1.38007474059245,-0.659191751146554,-1.33244483596375,0.963012236674173,-1.25650182476898,0.344635844377853,1.58671777489977,-0.781207502032411,-0.781207502032714,0.515653360153496,0.846071326283875,1.56370937589277,0.378745961903064,-0.748980738262043,-0.847886880620748,NaN,-1.09262372135376,-1.29937605565777,-0.801507290176184,0.801507290175519,0.0433963272869536
1452.2368,0.461138450852975,-1.5951811224927,-1.00282088464284,0.421749038893871,1.37296843802151,1.37296843802136,1.38374389389036,-0.827008922875573,0.91712951559945,0.0273476629458545,0.0239125663985764,0.0273476629453661,2.46720344466972,0.635020614527264,NaN,1.91202298059133,-1.83656065397756,1.55959435575181,-1.12313029864982,2.39001505086622,-1.12313029864829,0.223237787631602,-1.06269211055298,-0.813609138425466,0.412113365000398,-0.245146664886119,NaN,NaN,-1.91256667878757,0.163263463382693,-1.38974968072166,-0.663976831086924,-1.34186392940199,0.945405098846885,-1.2464509759176,0.330986676759823,1.57260104336313,-0.777729953539341,-0.777729953539643,0.524028490399704,0.847848044588964,1.57739113068992,0.40440154306435,-0.751791121796922,-0.78787080863201,NaN,-1.12351934479373,-1.29217891551069,-0.789397100788026,0.789397100787363,0.00907630979159344
1452.3392,0.456702040931776,-1.61686490510542,-1.02321430446442,0.391849592623211,1.32789496684157,1.32789496684143,1.39846995190263,-0.849059351405489,0.921680241688403,0.0494307446332411,0.00230846090109824,0.0494307446327392,2.47412416516324,0.603833955670481,NaN,1.91585150949796,-1.85100535223599,1.55428439541682,-1.1189949249732,2.3785966091252,-1.11899492497166,0.265107604933362,-1.09332452415267,-0.802085997470894,0.374091114215813,-0.25285276792993,NaN,NaN,-1.92164185868103,0.141728769250251,-1.3977565765641,-0.668092939676894,-1.34973341718345,0.92703171768497,-1.23638963880537,0.316500754480399,1.55756506077798,-0.774070181567489,-0.774070181567788,0.532778432433571,0.847847995055407,1.58986758251305,0.429668290594674,-0.754799369685043,-0.72935363823017,NaN,-1.15269328053099,-1.28417256210511,-0.775992617151377,0.775992617150718,-0.0256228010030947
1452.4416,0.452840471755554,-1.63833342811715,-1.04306999089658,0.362258463206041,1.28202323930655,1.28202323930642,1.41241114732038,-0.871815135661773,0.925248987310789,0.0707905119016696,-0.0199317343892703,0.0707905119011473,2.47866395519331,0.570299752265504,NaN,1.91821497307291,-1.86464705873793,1.54730617113019,-1.1156288626303,2.36530954836098,-1.11562886262875,0.306242104065646,-1.12436082846071,-0.791681612776909,0.335844544314179,-0.260446526385315,NaN,NaN,-1.9295052528213,0.120213178354094,-1.40403890527108,-0.671498329261999,-1.3559917003951,0.907928538237998,-1.22629384374571,0.301231789997828,1.54160039655287,-0.770213324648874,-0.770213324649171,0.541915670928971,0.846019032084635,1.60110547415867,0.454523066300286,-0.758021812807957,-0.672435731230835,NaN,-1.18007507231569,-1.27536950815061,-0.761311434136932,0.761311434136278,-0.0606380531851913
1452.544,0.449642609206528,-1.65955208532308,-1.06230373660214,0.333028367877456,1.23540695597428,1.23540695597416,1.42556931594488,-0.895271760136867,0.927839176096592,0.0914299927525535,-0.042737099273084,0.0914299927520139,2.4808134864425,0.534491134867811,NaN,1.91909214700078,-1.87742443326713,1.53867444506632,-1.11304369754681,2.3501439161476,-1.11304369754525,0.346633071820274,-1.15576164659291,-0.782365779092052,0.297457242153421,-0.26786432246202,NaN,NaN,-1.93614830619416,0.098788598839144,-1.40854397740037,-0.674153716671165,-1.36058118301517,0.888133879094142,-1.21614052345449,0.285235043161215,1.52469981913968,-0.766145309647887,-0.766145309648183,0.551450051744207,0.842316189689101,1.61107481575823,0.47894230653729,-0.761472829616683,-0.6172137739994,NaN,-1.20559785137438,-1.26578360419409,-0.745373721704334,0.745373721703686,-0.0959056696894783
1452.6464,0.447191732598152,-1.68048619558126,-1.08083480224851,0.304210057738556,1.18810258086139,1.18810258086128,1.43794717898521,-0.919422457457992,0.929455912003868,0.111352186671682,-0.0660331732186115,0.111352186671124,2.48056998907957,0.496491443355546,NaN,1.91846523490691,-1.8892771920086,1.52840852689852,-1.11124684064335,2.33309677755441,-1.11124684064178,0.386273555848155,-1.18748516268853,-0.774104673628243,0.259013303394376,-0.275043078767417,NaN,NaN,-1.94156523701656,0.0775264822385851,-1.4112233120938,-0.676022533812298,-1.36344866815422,0.867687812983806,-1.20590772312062,0.268567070444397,1.50685842804891,-0.7618529536828,-0.761852953683094,0.561388621426791,0.836702110957175,1.61974907644485,0.502902120287821,-0.765164801959519,-0.563780413436818,NaN,-1.22919888468756,-1.25543005043985,-0.728202285340398,0.728202285339758,-0.131361257529474
1452.7488,0.44556503256274,-1.70110115762896,-1.0985863592667,0.275852030250011,1.14016917718249,1.14016917718239,1.44954837815433,-0.944258110178288,0.930106049442678,0.130560095828388,-0.0897423571928029,0.130560095827814,2.47793737590535,0.456393989000476,NaN,1.91632004825578,-1.90014650588807,1.51653224389675,-1.11024161355198,2.31417245741509,-1.11024161355041,0.425157734566025,-1.21948725582036,-0.766861114756585,0.220596860306803,-0.281920563361973,NaN,NaN,-1.94575313180252,0.0564974163172478,-1.41203301899962,-0.677071169411867,-1.36454575505445,0.846632043344061,-1.19557480459973,0.251285473079237,1.48807377499299,-0.757324070835748,-0.757324070836041,0.571735473213468,0.8291474295435,1.62710533830674,0.52637840004772,-0.769108078153007,-0.512223877307081,NaN,-1.2508201104211,-1.24432541013963,-0.709822621574884,0.709822621574249,-0.166939994578271
1452.8512,0.444833137027999,-1.72136258975963,-1.11548590258563,0.248000280442417,1.09166823777631,1.09166823777624,1.46037748931103,-0.969767153024609,0.929798243958325,0.149056765706802,-0.113784375503708,0.149056765706212,2.47292632999197,0.414301764601045,NaN,1.91264616572925,-1.90997539659333,1.50307388066624,-1.11002732315972,2.29338275259761,-1.11002732315814,0.463280769740125,-1.25172164581089,-0.760594849385987,0.182291631497967,-0.288435691700675,NaN,NaN,-1.94871200366644,0.0357707381035187,-1.41093418278461,-0.677269200657574,-1.36382923318967,0.825009778107261,-1.18512264390961,0.233448645944918,1.46834596197011,-0.752547586445618,-0.752547586445911,0.582491590024202,0.819631107575508,1.63312440337865,0.549346943956048,-0.773310943313719,-0.46262758304323,NaN,-1.27040865970959,-1.23248762472555,-0.690262969378682,0.690262969378056,-0.202576794724035
1452.9536,0.445059675167583,-1.74123645377089,-1.13146562661987,0.220698084761717,1.04266351063861,1.04266351063856,1.47044001755299,-0.995935474253362,0.928542986612317,0.166845334922453,-0.138076790871196,0.166845334921854,2.46555435797288,0.370327105001946,NaN,1.90743707879655,-1.91870913825695,1.48806609280153,-1.11059932657144,2.27074711196565,-1.11059932656986,0.500638647774892,-1.28414004933212,-0.755262861495876,0.144180484183393,-0.294528825891465,NaN,NaN,-1.95044481777451,0.0154141656263287,-1.40789324679998,-0.676589615504977,-1.36126147129315,0.802865601177788,-1.1745338172272,0.215115530453061,1.44767770446817,-0.747513656017819,-0.747513656018112,0.59365468716245,0.808140725677783,1.63779085333004,0.571783588950389,-0.777779596594786,-0.415069734722567,NaN,-1.28791735855043,-1.21993602946062,-0.66955435562301,0.669554355622392,-0.238206458023762
1453.056,0.446300891853918,-1.76068916563581,-1.14646275858621,0.193985807346188,0.993220816342936,0.993220816342899,1.47974238280694,-1.02274631568203,0.92635263035254,0.183929098743348,-0.162535558985803,0.183929098742735,2.45584581683405,0.324591299703059,NaN,1.90069033385917,-1.92629567615392,1.471545801844,-1.11194909275697,2.24629278496246,-1.11194909275538,0.537228021581222,-1.31669234585828,-0.750819689683269,0.106345000993636,-0.300142072388034,NaN,NaN,-1.95095748666903,-0.00450655321598469,-1.40288239200116,-0.675009027511684,-1.35681079932323,0.780245343088992,-1.16379277204285,0.196345374971285,1.42607435590137,-0.742213783126039,-0.742213783126329,0.60521906434673,0.794672719564826,1.64109307014048,0.5936643559774,-0.782518133751943,-0.369622901665892,NaN,-1.30330520963807,-1.20669136935363,-0.647730633330589,0.647730633329977,-0.273763809757764
1453.1584,0.448605321295196,-1.77968769609104,-1.16041984625616,0.16790072232714,0.943407856034094,0.943407856034072,1.48829190754091,-1.05018017246291,0.923241418389927,0.200311592318798,-0.187075607399863,0.200311592318173,2.44383192453347,0.277224160911137,NaN,1.89240767415334,-1.93268606104407,1.45355407760672,-1.11406427283984,2.22005493676011,-1.11406427283825,0.573046065791699,-1.34932675466541,-0.747217742284015,0.068865052894449,-0.305219576431955,NaN,NaN,-1.95025883524094,-0.0239279734117247,-1.39587990745055,-0.672507881271297,-1.35045187973928,0.757195954823398,-1.15288598333052,0.177197507246185,1.40354389989994,-0.73664092925726,-0.736640929257547,0.617175476605519,0.77923256248557,1.64302323065224,0.614965608506584,-0.787528537754396,-0.326353582061073,NaN,-1.31653786567892,-1.19277581981884,-0.624828511378906,0.6248285113783,-0.30918382472675
1453.2608,0.452013526007798,-1.79819966254299,-1.17328499739557,0.142476856347344,0.893294013013532,0.893294013013527,1.49609681648935,-1.07821469691762,0.919225521763449,0.215996696067671,-0.211611426208579,0.21599669606704,2.42955076099089,0.228363550085325,NaN,1.88259517460221,-1.93783487819204,1.43413601361304,-1.11692879316322,2.19207671931026,-1.11692879316163,0.608090356295258,-1.38199002351489,-0.74440759985779,0.0318183914803951,-0.309707809038774,NaN,NaN,-1.9483605386765,-0.0427892610902853,-1.38687055009491,-0.669070641015803,-1.34216606284455,0.733765388476872,-1.14180209533832,0.157731122530133,1.38009692221403,-0.730789608843893,-0.730789608844176,0.629511033552072,0.761834891829592,1.64357728691484,0.635664225217914,-0.792810688232174,-0.285321775788093,NaN,-1.32758810343492,-1.17821301768175,-0.600887567938852,0.600887567938256,-0.344401731261084
1453.3632,0.456557902990307,-1.81619341311542,-1.18501207038044,0.11774485949561,0.842950150865276,0.842950150865288,1.50316625022649,-1.10682461434215,0.914323084631126,0.230988757116412,-0.23605765927033,0.230988757115774,2.41304725749074,0.178154862393789,NaN,1.87126336184011,-1.94170064728598,1.41334060207761,-1.12052298201036,2.16240928716754,-1.12052298200877,0.642358776918433,-1.41462762679336,-0.742338300078968,-0.00471972524221219,-0.313555845180398,NaN,NaN,-1.94527704212275,-0.0610324713065932,-1.3758458902426,-0.664685956249495,-1.33194172063399,0.710002484518232,-1.13053204884455,0.138005087226617,1.35574657373937,-0.724655967746642,-0.724655967746921,0.642209137554264,0.742503570425409,1.64275493804279,0.655737786675854,-0.798362401221653,-0.246580595024228,NaN,-1.33643628915747,-1.16302810115823,-0.575950232891212,0.575950232890624,-0.379353094464386
1453.4656,0.462262551586102,-1.83363810463478,-1.19556082092872,0.0937319065662155,0.792448406830371,0.792448406830398,1.50951028501558,-1.13598165830192,0.908554267532001,0.245292714439637,-0.260329685444687,0.245292714438998,2.39437316526599,0.126750466302369,NaN,1.85842731733049,-1.94424618513478,1.39122061153029,-1.1248237330845,2.13111175541015,-1.1248237330829,0.675849443536951,-1.44718396787945,-0.740957609535593,-0.0406768697978098,-0.316715636339331,NaN,NaN,-1.94102547171247,-0.0786027953496242,-1.36280463439465,-0.659346804820954,-1.31977455318209,0.685956861639058,-1.1190691932103,0.118077754029484,1.33050853306964,-0.718237848935278,-0.718237848935552,0.655249468112223,0.721271670113124,1.64055959185459,0.675164774750469,-0.804179501836853,-0.21017592230076,NaN,-1.34307081138797,-1.14724774931514,-0.550061726463939,0.55006172646336,-0.413973885206951
1453.568,0.469143194801965,-1.85050377524215,-1.20489701070696,0.0704616258745063,0.741861978383939,0.741861978383987,1.5151399490137,-1.16565452815524,0.901941278636159,0.258914217691987,-0.284344183284615,0.258914217691343,2.37358699250141,0.074309098217683,NaN,1.84410676100808,-1.94543893110095,1.36783246308805,-1.12980470420789,2.09825109863036,-1.12980470420629,0.708560630199953,-1.47960257964437,-0.740212291726114,-0.075983749469781,-0.319142278551331,NaN,NaN,-1.93562554103358,-0.0954487818735846,-1.34775291478998,-0.653050614973463,-1.30566786045321,0.661678804705432,-1.10740938159464,0.0980067845489365,1.30440097121292,-0.711534848757,-0.711534848757268,0.668608014084648,0.69818137027078,1.63699831146493,0.693924781951438,-0.810255924922079,-0.17614611128452,NaN,-1.34748846048995,-1.13090021080733,-0.523269950263204,0.523269950262633,-0.448200545964314
1453.6704,0.477207150724638,-1.86676141006365,-1.21299247866085,0.0479540526661311,0.691264903264235,0.691264903264306,1.52006722970733,-1.1958088672432,0.894508388995896,0.271859737177162,-0.308019673808456,0.271859737176517,2.35075390277635,0.0209952153747597,NaN,1.82832610967195,-1.94525123012233,1.34323610035333,-1.13543655096224,2.06390198409724,-1.13543655096064,0.740490689737474,-1.5118263199213,-0.740048375606185,-0.110574484903087,-0.320794271569962,NaN,NaN,-1.92909944783101,-0.111522537170594,-1.33070453789569,-0.645799364498194,-1.28963277290774,0.637219146940576,-1.09555104532057,0.0778489774483534,1.27744451617411,-0.704548364647905,-0.704548364648168,0.682257152579689,0.673283769903923,1.63208174377982,0.71199872321454,-0.816583835733681,-0.144521730250415,NaN,-1.349694745176,-1.1140153155042,-0.495625333881984,0.495625333881421,-0.481970063939102
1453.7728,0.486453355313399,-1.88238299920871,-1.21982517366967,0.0262256008456158,0.640731832300669,0.640731832300762,1.52430507293012,-1.22640725991276,0.886281932834393,0.284136667261424,-0.331277029901509,0.284136667260778,2.32594557348421,-0.0330216905520105,NaN,1.81111450935932,-1.94366057053883,1.31749485391143,-1.14168719438624,2.02814653168769,-1.14168719438463,0.771637974634831,-1.54379756403951,-0.740411421016242,-0.144386871745799,-0.321633764909856,NaN,NaN,-1.92147175202663,-0.126779910797899,-1.31168118720043,-0.6375996562478,-1.27168843712502,0.612629141719207,-1.08349524161493,0.0576601002964669,1.24966221553219,-0.697281634977857,-0.697281634978113,0.696165773055006,0.64663861621191,1.62582403067245,0.729369037997903,-0.823153760214334,-0.115325354332565,NaN,-1.34970414113604,-1.09662446508228,-0.467180643984683,0.467180643984128,-0.515220055493929
1453.8752,0.496872437244189,-1.89734159050738,-1.22537915005394,0.00528904217596942,0.590337791071399,0.590337791071516,1.52786737693019,-1.25740924792519,0.877290295767692,0.295753426224517,-0.3540399378406,0.295753426223874,2.29924001650105,-0.0875678188417083,NaN,1.79250584859111,-1.94064978639306,1.29067530365948,-1.14852211664889,1.99107399886032,-1.14852211664728,0.80200077060731,-1.5754583997005,-0.741246773851932,-0.177362633148584,-0.321626791404144,NaN,NaN,-1.91276923261562,-0.141180672264875,-1.2907125758769,-0.628462774525833,-1.25186215532214,0.587960319439136,-1.07124567045842,0.0374947225724134,1.22107949722784,-0.689739770750378,-0.689739770750629,0.710299446548703,0.618313955921669,1.61824270888774,0.746019873149957,-0.829954714933676,-0.0885714071006892,NaN,-1.34754026750101,-1.07876059981472,-0.437990764798367,0.43799076479782,-0.547888859214202
1453.9776,0.508446842814511,-1.91161134047164,-1.22964453002104,-0.0148465159484173,0.540157924619002,0.540157924619139,1.53076898622276,-1.28877136805056,0.867563894503744,0.306719555826554,-0.376235303963117,0.306719555825919,2.27072136280352,-0.142465824662232,NaN,1.77253876016616,-1.93620723949889,1.26284713902554,-1.15590467507711,1.95278039217908,-1.15590467507548,0.831577252068696,-1.60675082842934,-0.742499806021892,-0.209447666237318,-0.320743491289458,NaN,NaN,-1.90302072839886,-0.154688682163462,-1.26783654365692,-0.618404728346616,-1.23018947745044,0.563264326214065,-1.05880865945749,0.0174060468615532,1.19172412822343,-0.681929777141551,-0.681929777141794,0.724620643011059,0.588385714283898,1.60935860770317,0.761937246306214,-0.83697433275294,-0.0642660424331177,NaN,-1.34323599084124,-1.06045814019089,-0.408112456988176,0.408112456987637,-0.579915634903559
1454.08,0.521151007210473,-1.92516756547324,-1.23261743700153,-0.0341756547776796,0.490267220699746,0.490267220699901,1.53302568887751,-1.3204472122308,0.857135150751212,0.317045822669266,-0.397793608726567,0.317045822668638,2.24047960843878,-0.197535624790785,NaN,1.7512566123707,-1.93032698716187,1.23408301382878,-1.16379642509145,1.9133680053848,-1.16379642508981,0.860365460149198,-1.6376169752557,-0.744116141155585,-0.240592281344095,-0.318958327357384,NaN,NaN,-1.89225696674922,-0.167272059784754,-1.24309909110967,-0.607446281331591,-1.20671424073341,0.538592741129957,-1.04619311682555,-0.00255426539045501,1.16162617068722,-0.67386056475376,-0.673860564753996,0.739089000339955,0.556937200817463,1.59919574858843,0.777109195891736,-0.844198986139943,-0.0424070555606543,NaN,-1.33683346228844,-1.04175290326086,-0.377604095317262,0.37760409531673,-0.611240470233374
1454.1824,0.534951567275657,-1.93798679415928,-1.2342999037746,-0.0526966638841904,0.440740211225877,0.440740211226048,1.53465421689413,-1.35238751260578,0.84603845812486,0.326744317304304,-0.418649212813554,0.326744317303687,2.20861031626941,-0.25259524549881,NaN,1.72870748035281,-1.92300892592295,1.20445838881735,-1.17215744172485,1.87294488440478,-1.17215744172321,0.888363296874027,-1.66799930715246,-0.746041872880586,-0.270751431515589,-0.316250288450075,NaN,NaN,-1.88051037941396,-0.178903348432108,-1.21655434469827,-0.595612960315875,-1.18148854798106,0.513996869749143,-1.03341045226411,-0.0223362759932857,1.13081793619274,-0.665542954289869,-0.665542954290097,0.75366164274519,0.524058541376481,1.58778124306061,0.791525921650238,-0.851613909687237,-0.0229838168618369,NaN,-1.32838409235823,-1.02268199303242,-0.346525378668037,0.346525378667511,-0.641804498157537
1454.2848,0.549807609301581,-1.95004682260618,-1.23469976069347,-0.0704115489065655,0.391650656218176,0.391650656218357,1.53567224443531,-1.38454025592676,0.834310135572317,0.335828540001399,-0.4387406189631,0.335828540000797,2.1752142703924,-0.307461711017312,NaN,1.70494408284503,-1.91425889456571,1.17405135177816,-1.18094662716767,1.83162422676253,-1.18094662716602,0.915568527316554,-1.69784086118489,-0.748223784676655,-0.299884930463353,-0.31260307856222,NaN,NaN,-1.86781490502128,-0.189559677257728,-1.18826444856674,-0.58293503503826,-1.15457267806025,0.489527516905806,-1.02047446700813,-0.0418919573686793,1.09933393677567,-0.65698967928417,-0.65698967928439,0.768293536718944,0.489846046832141,1.57514518209736,0.805179912698576,-0.859203318087053,-0.00597722705470603,NaN,-1.31794845993802,-1.00328366316874,-0.314937006965118,0.314937006964598,-0.671550024232157
1454.3872,0.565670946264749,-1.96132677391818,-1.23383050891624,-0.0873260249498912,0.343071217216368,0.343071217216557,1.53609837674888,-1.41685083283525,0.821988358732881,0.34431346094541,-0.45801069209502,0.344313460944826,2.14039708658159,-0.361951966524597,NaN,1.68002367192274,-1.90408872239156,1.1429424068742,-1.19012199474148,1.78952372805669,-1.19012199473983,0.941978786006089,-1.72708548486981,-0.750609577410118,-0.327957657339734,-0.308005290882156,NaN,NaN,-1.8542057851834,-0.199222914632608,-1.15829938252405,-0.569447468169443,-1.12603492777251,0.465234749243302,-1.00740121751246,-0.0611753762006443,1.06721082877745,-0.648215388633522,-0.648215388633732,0.78293786956008,0.454401535549822,1.56132051246761,0.818066055522314,-0.866950513327467,0.00864030171862645,NaN,-1.30559614545417,-0.983597152796259,-0.282900332669688,0.282900332669172,-0.700420656578098
1454.4896,0.582486427262095,-1.97180716310715,-1.2317111775829,-0.10344949901302,0.295073127503019,0.295073127503211,1.53595212589376,-1.44926222671726,0.809113063888156,0.352215548798193,-0.476406837172296,0.352215548797629,2.10426878834531,-0.415883827546137,NaN,1.65400786894774,-1.8925162126706,1.11121423037248,-1.19964092762697,1.74676488164737,-1.19964092762532,0.967591594531261,-1.7556780932303,-0.753148102061813,-0.354939745300922,-0.302450567129176,NaN,NaN,-1.83971936311313,-0.207879803644785,-1.12673670822189,-0.555189839512529,-1.09595138843911,0.44116766168778,-0.994208858867013,-0.0801428612294995,1.03448734278226,-0.639236645478123,-0.639236645478321,0.797546442265538,0.417831620069542,1.54634289849738,0.830181717798647,-0.874837980535603,0.0209048295942197,NaN,-1.29140547840006,-0.963662501612103,-0.250477010151529,0.250477010151018,-0.728361426951309
1454.592,0.600192292219301,-1.98146996763006,-1.22836615698521,-0.118795047755568,0.247725863600079,0.24772586360028,1.53525387565873,-1.48171524398879,0.795725825919494,0.35955277083852,-0.493881130889562,0.359552770837976,2.06694336031447,-0.469076949804197,NaN,1.62696244405652,-1.87956505527318,1.07895139331725,-1.20946041304343,1.70347222849654,-1.20946041304177,0.992404406783631,-1.783564947059,-0.755789585808009,-0.380806749702777,-0.295937743276682,NaN,NaN,-1.82439288754849,-0.215522068612897,-1.09366124655532,-0.540206247679382,-1.06440566100273,0.417374157016865,-0.980917471447073,-0.0987531471108402,1.00120419115442,-0.630071915182065,-0.630071915182249,0.812070078403933,0.380246957677277,1.53025057126789,0.84152681315405,-0.882847479798887,0.0308608328277042,NaN,-1.27546319526039,-0.943520352398838,-0.21772866916713,0.217728669166623,-0.755318891858675
1454.6944,0.618720584554347,-1.99029870511672,-1.22382500096188,-0.13337939678976,0.20109681595142,0.20109681595162,1.53402484212954,-1.51414878238605,0.781869717415443,0.366344573700807,-0.51039040328542,0.366344573700286,2.02853828680976,-0.521353818049834,NaN,1.59895704003174,-1.86526467076902,1.04624005067236,-1.21953724635632,1.65977255589164,-1.21953724635467,1.01641469683402,-1.81069395358242,-0.758485837816481,-0.405539793432624,-0.288470984766647,NaN,NaN,-1.80826432190168,-0.222146486582601,-1.05916468794229,-0.524545190940986,-1.03148851167657,0.393900735311598,-0.967548869494316,-0.116967497130013,0.967403946566581,-0.620741536896236,-0.620741536896405,0.826459055479857,0.341761459707568,1.51308416947415,0.852103856949317,-0.890960141314351,0.0385611160809651,NaN,-1.25786401022293,-0.923211744066817,-0.184716627962964,0.184716627962461,-0.781241207723953
1454.7968,0.637997623936847,-1.99827851990364,-1.21812219847787,-0.147222904433863,0.155250953225003,0.155250953225203,1.53228703506962,-1.54650013049924,0.767589156224747,0.372611853522575,-0.525896267771298,0.37261185352208,1.98917407729278,-0.572540751771846,NaN,1.57006484587189,-1.84964999702197,1.01316759662956,-1.2298281958856,1.61579405214824,-1.22982819588394,1.039620095109,-1.83701498558761,-0.761190425331438,-0.429125687075243,-0.280059913879666,NaN,NaN,-1.79137216338388,-0.227754924380673,-1.02334513607371,-0.50825942964563,-0.997297469718202,0.370792283543222,-0.954126388895375,-0.134749813939323,0.933130891180965,-0.611267675868119,-0.611267675868274,0.840663563931442,0.302491456592931,1.49488657635478,0.861918019717842,-0.899156566479101,0.0440667040288399,NaN,-1.23871010399727,-0.90277789189605,-0.151501648881247,0.15150164888075,-0.806078181726937
1454.8992,0.657944533700832,-2.0053962755365,-1.21129691552343,-0.16034954437819,0.110250481335313,0.110250481335513,1.53006321972926,-1.57870529485548,0.752929742561857,0.378376920728313,-0.540365100041582,0.378376920727848,1.94897377739191,-0.622468914932262,NaN,1.54036223185301,-1.83276123266274,0.979822293310496,-1.24029012336885,1.57166542907117,-1.24029012336719,1.06201857100662,-1.86248021019505,-0.763858813306405,-0.451557014546867,-0.270719724799984,NaN,NaN,-1.77375528314011,-0.232354339930441,-0.986306591673974,-0.491405833298907,-0.961936373627855,0.34809186476679,-0.940674654521936,-0.152066739105541,0.898430843649163,-0.601674248340186,-0.601674248340324,0.854634191542262,0.262554826064447,1.47570275677877,0.870977177896043,-0.907416938430645,0.0474467027449678,NaN,-1.21811053859415,-0.882259952038178,-0.118143730877429,0.118143730876939,-0.829781306344471
1455.0016,0.678477817936221,-2.01164064403523,-1.20339270300694,-0.172786871853002,0.0661545097801553,0.0661545097803493,1.52737687304801,-1.61069935612128,0.737938079629149,0.383663460076557,-0.553767966184483,0.383663460076121,1.90806246370043,-0.670975305613374,NaN,1.50992836398157,-1.81464355112245,0.946292890211474,-1.2508800583216,1.52751502246509,-1.25088005831993,1.08360865631479,-1.88704441566003,-0.766448461845217,-0.472832167949047,-0.260471271974218,NaN,NaN,-1.75545280087986,-0.235956739618722,-0.948158393086374,-0.474045211591043,-0.925514877838928,0.325840520609892,-0.927219329697888,-0.168887727872326,0.863350975600723,-0.591986801747299,-0.591986801747422,0.868322422131137,0.222070103823334,1.45557959752754,0.879291954896059,-0.915721148089953,0.0487780979093696,NaN,-1.19618060843821,-0.861698772475719,-0.0847019274008879,0.0847019274004048,-0.852303789390085
1455.104,0.699509985150345,-2.01700218056503,-1.19445716339183,-0.184565956218099,0.0230187418444888,0.0230187418446667,1.52425212708967,-1.64241685532182,0.722661570974177,0.388496483441222,-0.566080499616765,0.388496483440814,1.86656672017119,-0.717903702444415,NaN,1.47884481716444,-1.79534679792675,0.912668254746873,-1.26155522247323,1.48346987644416,-1.26155522247156,1.10438970119902,-1.91066532532392,-0.768918878993038,-0.492955320381636,-0.249341113689553,NaN,NaN,-1.73650400343311,-0.238579083870929,-0.909014632970513,-0.456242122480272,-0.888147930850055,0.304077102585316,-0.913786849227916,-0.185185082874291,0.827939627664159,-0.582232333983902,-0.582232333984009,0.881681134002664,0.181155597728434,1.43456575067822,0.886875740956217,-0.924048935932392,0.048145459128352,NaN,-1.17304113600939,-0.841134634265007,-0.0512341760433745,0.0512341760428998,-0.873600593362632
1455.2064,0.720950210729789,-2.02147337605768,-1.18454157493709,-0.195721271246979,-0.019104801440115,-0.0191048014399492,1.5207136958505,-1.67379220313893,0.707148193845361,0.392902272392686,-0.577282729367294,0.392902272392305,1.82461409563889,-0.763105554243701,NaN,1.44719520170509,-1.77492518241865,0.879037028050684,-1.27227299987337,1.43965481974696,-1.2722729998717,1.12436214941554,-1.93330389084962,-0.771231634395613,-0.511936338652239,-0.237361499756317,NaN,NaN,-1.71694830685351,-0.240243142474588,-0.868993562125841,-0.438064649309457,-0.849955229104314,0.282838136500472,-0.900404138174509,-0.200933943347199,0.792246129752255,-0.572439052076226,-0.572439052076316,0.894665083677085,0.139928521963504,1.41271147556044,0.893744680583343,-0.93238003964931,0.0456405453051504,NaN,-1.14881771905175,-0.820606985608125,-0.0177971311069328,0.0177971311064662,-0.893628496031898
1455.3088,0.742705016951706,-2.02504868676685,-1.17370048613995,-0.20629054617959,-0.0601680218239593,-0.0601680218238137,1.51678678313052,-1.70476009705366,0.691446252461835,0.396908305518015,-0.587358869266684,0.39690830551766,1.78233254645177,-0.806440803924789,NaN,1.41506480840706,-1.75343697235943,0.845487307699667,-1.28299085370191,1.39619155633705,-1.28299085370024,1.14352780882221,-1.95492455877394,-0.773350351638394,-0.529790647893105,-0.224570304824488,NaN,NaN,-1.69682525170034,-0.240975311052467,-0.828216982059848,-0.41958414598759,-0.811060647348615,0.262157713236811,-0.887098326969247,-0.216112243251781,0.756320626315789,-0.562636093741609,-0.562636093741685,0.907231356734941,0.0985041692789164,1.39006847110329,0.899917622379231,-0.940694333621931,0.0413618319835096,NaN,-1.12363994663456,-0.800154172787932,0.0155540018989579,-0.0155540018994147,-0.912346177091789
1455.4112,0.764678934716925,-2.02772454401149,-1.16199130565163,-0.216314589946863,-0.100126947797581,-0.100126947797462,1.51249696572677,-1.73525592927214,0.675604112751737,0.400543160038051,-0.596297086477092,0.400543160037725,1.73984987173984,-0.847778633405118,NaN,1.38254026833105,-1.73094420066969,0.81210634390437,-1.29366620001051,1.35319780331825,-1.29366620000885,1.16189008355625,-1.97549550394801,-0.775240706205354,-0.546539062380678,-0.211010917609862,NaN,NaN,-1.67617451556747,-0.240806402808758,-0.786809625017458,-0.400874960275522,-0.771591649308981,0.242067398146667,-0.873896487248208,-0.230700660706439,0.720213903948435,-0.552853249198142,-0.552853249198205,0.919339761424267,0.0569951470912162,1.3666896890949,0.905416034985508,-0.948971950577335,0.0354139940033143,NaN,-1.09764061631961,-0.779813176411877,0.0487656262663651,-0.0487656262668126,-0.929714327335895
1455.5136,0.786775110595841,-2.02949934820164,-1.14947391398566,-0.225837104509559,-0.138941896841035,-0.138941896840943,1.50787004464646,-1.76521617312831,0.659669916841922,0.403836376716563,-0.604089272365629,0.403836376716268,1.69729315071375,-0.886998112468937,NaN,1.34970922068348,-1.70751239907107,0.77898022738188,-1.30425625732121,1.31078650377187,-1.30425625731955,1.17945413780337,-1.99498882352964,-0.776870452578629,-0.562207592903684,-0.196732096641843,NaN,NaN,-1.65503592701323,-0.239771424248399,-0.744898522346628,-0.382014151415664,-0.731678687064171,0.222596157693154,-0.860825418612407,-0.244682577413806,0.683977215694755,-0.543120715540297,-0.543120715540347,0.930953141621343,0.0155107044018106,1.3426291213753,0.910263901304018,-0.957193385842936,0.0279073741508398,NaN,-1.07095498905252,-0.759619365073215,0.0817859037733281,-0.0817859037737656,-0.945695770732794
1455.616,0.808895842598467,-2.03037345128169,-1.1362103108517,-0.234904500922834,-0.176577591531901,-0.176577591531836,1.50293186473566,-1.79457874191136,0.643691280034196,0.406818285839984,-0.610730826815413,0.406818285839724,1.65478819466465,-0.923988740257218,NaN,1.31665998700269,-1.68321037135805,0.746193556065042,-1.31471789338907,1.26906513000677,-1.31471789338742,1.19622698054406,-2.01338068927802,-0.778209488766824,-0.576827235690079,-0.181787799417072,NaN,NaN,-1.63344947105101,-0.237909336563314,-0.702612364659662,-0.363081214427362,-0.691454597540691,0.203770307613015,-0.847911502165138,-0.258044052387687,0.647662099982898,-0.533468897340932,-0.533468897340969,0.942037600237224,-0.025843836165715,1.31794156226275,0.914487605859025,-0.965339592678288,0.0189574557916822,NaN,-1.04372010960009,-0.739606278112621,0.114564887406203,-0.114564887406629,-0.960255586944397
1455.7184,0.830943052795004,-2.03034913234109,-1.12226429683523,-0.243565726321748,-0.213003232565849,-0.213003232565816,1.49770811487887,-1.82328331820136,0.627714981934247,0.409519803507938,-0.616220444049311,0.409519803507707,1.61245902924503,-0.958650879021704,NaN,1.28348125432269,-1.65811000396493,0.713829086678997,-1.32500748501811,1.22813508540612,-1.32500748501648,1.21221748273745,-2.03065146223772,-0.779229950926373,-0.590433743448901,-0.166236989878829,NaN,NaN,-1.61145528450177,-0.235262801637979,-0.660080857729028,-0.344157815028506,-0.651054000922581,0.185613487384354,-0.835180613215183,-0.270773800393736,0.611320203411844,-0.523928249134875,-0.523928249134903,0.952562642725291,-0.0669675425165727,1.29268235870096,0.918115826322102,-0.973392077715051,0.00868434609395329,NaN,-1.01607420410842,-0.719805444334236,0.147054629841558,-0.147054629841975,-0.973361222837885
1455.8208,0.85281871366625,-2.02943057085037,-1.10770118237763,-0.251872102208403,-0.248192538833562,-0.248192538833563,1.49222412495719,-1.8512716537876,0.61178666623735,0.411972213152888,-0.620559882298031,0.411972213152685,1.57042741781198,-0.990896087957184,NaN,1.25026176921044,-1.63228609951679,0.681967385365995,-1.33508079981948,1.18809120788001,-1.33508079981786,1.22743634681868,-2.04678577702083,-0.779906325471788,-0.60306737401964,-0.150143429111362,NaN,NaN,-1.5890936433639,-0.231877911817072,-0.617434076463983,-0.325327534032939,-0.61061270215933,0.168146660237475,-0.822658075292541,-0.282863165789221,0.57500312293692,-0.514529148221522,-0.51452914822154,0.962501257091256,-0.107764241537281,1.26690716356997,0.92117943440609,-0.981333001759157,-0.00278772945770915,NaN,-0.988156147462459,-0.700246236914805,0.179209265405281,-0.179209265405686,-0.984982585770716
1455.9232,0.874425239185929,-2.02762382000446,-1.09258751912071,-0.259877164716616,-0.282123766401625,-0.282123766401666,1.48650466923282,-1.87848784196899,0.595950557142693,0.414206943421229,-0.623753715829038,0.414206943421051,1.52881242322308,-1.02064737082649,NaN,1.2170900413665,-1.60581621925612,0.650686486354063,-1.34489290331216,1.14902137190369,-1.34489290331055,1.24189604237146,-2.06177260079562,-0.780215569962789,-0.614772610908816,-0.13357545275064,NaN,NaN,-1.56640494433434,-0.227803904395557,-0.57480181903268,-0.30667561658981,-0.570267094887878,0.151388129586295,-0.810368639842229,-0.294306092904885,0.538762274140959,-0.505301788717734,-0.505301788717739,0.971829942904975,-0.148142804492223,1.24067169760416,0.92371140248655,-0.989145284688143,-0.0153309276483192,NaN,-0.960104979791441,-0.680955757446684,0.210985071747073,-0.210985071747468,-0.995092117986818
1456.0256,0.895665845890105,-2.02493677925089,-1.07699084954777,-0.267636491184005,-0.314779714683758,-0.314779714683837,1.48057377631425,-1.90487856591253,0.580249191089626,0.416255344240952,-0.625809079633902,0.416255344240802,1.48772999396323,-1.04783935384633,NaN,1.18405405306719,-1.57878052108732,0.620061563216689,-1.35439809143349,1.11100618073584,-1.35439809143189,1.25561071291731,-2.07560526694591,-0.780137237856096,-0.625597856646198,-0.116605733766031,NaN,NaN,-1.54342968215945,-0.223092865277965,-0.532312966962927,-0.288288716796024,-0.530153567562178,0.135353560426771,-0.798336477259051,-0.305099097412866,0.502648777359519,-0.496276091050482,-0.496276091050476,0.980528697704021,-0.188017367005906,1.21403151460667,0.925746700663141,-0.996812702633623,-0.0288142941420834,NaN,-0.932059448865397,-0.661958736176317,0.242340523011664,-0.242340523012049,-1.00366485905683
1456.128,0.916444886855997,-2.02137916136527,-1.0609794693132,-0.27520749836183,-0.34614772137652,-0.346147721376638,1.47445454117877,-1.93039332600587,0.56472315860033,0.418148458255301,-0.626735416803215,0.418148458255175,1.44729255981712,-1.07241840534227,NaN,1.15124096891083,-1.5512615779114,0.590164616045996,-1.36354984928539,1.07411873495765,-1.36354984928381,1.26859605274543,-2.0882814780761,-0.779653603002969,-0.63559510590822,-0.0993110233001086,NaN,NaN,-1.52020842283961,-0.217799427425497,-0.490094860931042,-0.27025462549907,-0.490407913151217,0.120056000138667,-0.786585167280514,-0.315241237985945,0.466713348072573,-0.487481619837361,-0.48748161983734,0.988580965115208,-0.227307496258033,1.187041763765,0.927322166141713,-1.00431995993324,-0.0431042804389515,NaN,-0.904157558156086,-0.643277436508699,0.273236345730112,-0.273236345730486,-1.01067850717936
1456.2304,0.936668158680187,-2.01696244856717,-1.044622197736,-0.282649204512914,-0.376219642237145,-0.376219642237304,1.46816893598657,-1.95498464515022,0.549410853711384,0.419916787645647,-0.626544237698755,0.419916787645549,1.40760863007056,-1.09434269957058,NaN,1.11873684017634,-1.52334416457567,0.56106417475858,-1.37230083565887,1.03842446103298,-1.3723008356573,1.28086914932483,-2.09980327114386,-0.778749781270273,-0.64481960474875,-0.0817718614830673,NaN,NaN,-1.49678177127026,-0.211980467414217,-0.448272701715571,-0.25266197243102,-0.451164745178168,0.10550589877142,-0.775137684737991,-0.324734085884585,0.431006183703938,-0.478947502189805,-0.478947502189771,0.995973544764325,-0.265938307504349,1.15975694709872,0.928476337152649,-1.0116527253777,-0.0580652658084631,NaN,-0.876536107711267,-0.624931559749661,0.303635583046042,-0.303635583046405,-1.01611348731253
1456.3328,0.956243179955068,-2.01169983523069,-1.02798815542163,-0.290021957649907,-0.404991810281135,-0.404991810281332,1.46173761971053,-1.97860824793076,0.53434823261323,0.421590059154324,-0.625248896305819,0.421590059154251,1.36878239664212,-1.11358222067036,NaN,1.08662630093705,-1.49511500941943,0.532825017201906,-1.38060288567346,1.00398098919028,-1.38060288567191,1.29244828815807,-2.11017694083942,-0.777413848608854,-0.653329501215182,-0.0640722558257086,NaN,NaN,-1.47319033268563,-0.205694802020719,-0.406968983854923,-0.235599902159794,-0.412556925419076,0.0917111316100533,-0.764016383188524,-0.333581690831337,0.395576847540628,-0.470702342958223,-0.470702342958176,1.00269646477713,-0.303840529109143,1.1322306739819,0.929249255455588,-1.01879763486,-0.0735600788027992,NaN,-0.849330230173931,-0.606938154291817,0.333503665367639,-0.33350366536799,-1.01995302862089
1456.4352,0.975079442094724,-2.00560615868336,-1.01114654968607,-0.297387141495219,-0.432464970597998,-0.432464970598244,1.45517974950416,-2.00122321046818,0.519568585378237,0.423196989967487,-0.622864378089115,0.42319698996744,1.33091335164972,-1.13011870111643,NaN,1.05499225748446,-1.46666251069997,0.505507904276467,-1.38840701981045,0.970838078780828,-1.38840701980891,1.30335272301969,-2.11941292253433,-0.775636953951475,-0.661185494177552,-0.0462993309320494,NaN,NaN,-1.44947466797503,-0.199002887061057,-0.366302967689159,-0.219157731960529,-0.374715011313022,0.0786770297951466,-0.753242978439718,-0.341790537966472,0.360474157228125,-0.462774138700366,-0.462774138700305,1.00874282141996,-0.340950515510438,1.10451541979237,0.929682246162381,-1.02574227030895,-0.0894505197970845,NaN,-0.822672938093338,-0.589311537694924,0.362808479696018,-0.362808479696356,-1.0221832506881
1456.5376,0.993088637938878,-1.99869782208616,-0.994166467592232,-0.304806875346337,-0.458644190391157,-0.458644190391447,1.44851279990316,-2.02279208071635,0.505102326342042,0.424765058283831,-0.619407084365613,0.424765058283806,1.29409593196811,-1.14394549155429,NaN,1.02391557673841,-1.43807642049473,0.479169338940836,-1.39566345137041,0.939037593672865,-1.39566345136888,1.31360242030751,-2.12752563851457,-0.773413421939556,-0.668450487119317,-0.0285429562625682,NaN,NaN,-1.42567524482001,-0.191966519854841,-0.326390192019667,-0.203424604343544,-0.337766730799836,0.0664064261629692,-0.74283853050018,-0.34936948716921,0.32574608842301,-0.455190192013727,-0.455190192013652,1.01410859280983,-0.377210205722463,1.07666230091468,0.929817683089903,-1.03247512504061,-0.105597887978375,NaN,-0.796694698654125,-0.572063239675208,0.391520428535335,-0.39152042853566,-1.02279325863811
1456.64,1.01018487830789,-1.9909927139121,-0.977116673837829,-0.31234372154814,-0.48353874699864,-0.483538746998976,1.44175239997238,-2.04328097051392,0.490976811702256,0.426320286816692,-0.614894600230914,0.426320286816689,1.25841920242216,-1.15506736329856,NaN,0.993474782308866,-1.40944750224089,0.453861357860996,-1.40232159194048,0.908613528493196,-1.40232159193896,1.32321778953302,-2.13453331148324,-0.770740837485986,-0.675189248949625,-0.0108953585882045,NaN,NaN,-1.40183239035478,-0.184648543395385,-0.287342025760218,-0.188489145276976,-0.301836488643765,0.0548997211000346,-0.732823420966739,-0.356329687772032,0.291439702082635,-0.447977024700183,-0.447977024700094,1.01879243781638,-0.412567029152792,1.04872088021574,0.929698746329582,-1.03898556277748,-0.121863513112354,NaN,-0.77152304121501,-0.55520197085406,0.41961247401615,-0.419612474016463,-1.02177524883786
1456.7424,1.02628491059769,-1.98251012700746,-0.960065407016064,-0.320060404377014,-0.507161999715641,-0.507161999716019,1.43491220170448,-2.06265961992069,0.477216196071966,0.427887052457143,-0.609345445778337,0.427887052457161,1.22396658418256,-1.1635002516013,NaN,0.963745767202339,-1.38086716985299,0.429631363585776,-1.40833006221312,0.879592079368195,-1.40833006221161,1.33221941531296,-2.14045775120787,-0.767620102726975,-0.681468076854958,0.0065492766498443,NaN,NaN,-1.37798624957181,-0.177112547309095,-0.249265254806516,-0.174439130862056,-0.267044902772891,0.044154966123357,-0.723217321394036,-0.362684468652586,0.257601097719709,-0.441160287387892,-0.441160287387788,1.0227954965117,-0.446973771493626,1.02073901382146,0.929369177252915,-1.0452637754392,-0.13810929098606,NaN,-0.74728219119783,-0.538733618609779,0.44706017034861,-0.447060170348913,-1.01912462429004
1456.8448,1.04130835178832,-1.97327067850182,-0.943080167460473,-0.328019532696473,-0.529531256186078,-0.529531256186503,1.42800379017026,-2.08090143520476,0.463841336877641,0.429487933608351,-0.602778824058979,0.429487933608389,1.19081562515596,-1.16927095634084,NaN,0.934801528123802,-1.35242711341386,0.406522001098525,-1.41363671766007,0.851991747155645,-1.41363671765857,1.34062780678632,-2.1453241219465,-0.764055458072971,-0.687354453904147,0.0236952126383238,NaN,NaN,-1.35417674735971,-0.16942256317012,-0.212261700053834,-0.16136115641933,-0.233508364752265,0.0341679527231535,-0.714039146306921,-0.368449213805186,0.224275388406409,-0.4347646649443,-0.43476466494418,1.0261212050702,-0.480388418988496,0.992762739671666,0.928873033236659,-1.05130074045891,-0.154198218418841,NaN,-0.724092714982616,-0.522661266152721,0.473841690729488,-0.473841690729782,-1.01484011419988
1456.9472,1.05517793593219,-1.96329623117317,-0.926227497123981,-0.336283315073127,-0.550667644802319,-0.550667644802795,1.42103663384361,-2.09798350616866,0.45086974294907,0.431143594252306,-0.595214385772749,0.431143594252363,1.15903779983515,-1.17241681730088,NaN,0.906711920586492,-1.32421891459406,0.384571075039167,-1.41818869380407,0.82582346551109,-1.41818869380258,1.34846317103679,-2.14916069524598,-0.760054465333011,-0.692916698773137,0.040445575111308,NaN,NaN,-1.33044355024799,-0.16164275760054,-0.176427864904104,-0.149340301097648,-0.201338619885268,0.0249322917939811,-0.705306989681206,-0.373641238862747,0.191506689069393,-0.428813778837548,-0.428813778837411,1.0287751239468,-0.512773991984632,0.96483619549953,0.928254440962284,-1.0570881726029,-0.169994918520445,NaN,-0.702071159083228,-0.506985225799789,0.499937851484922,-0.499937851485208,-1.00892389233301
1457.0496,1.06781976057017,-1.95260981525772,-0.909572760495939,-0.3449132597607,-0.570595994528132,-0.570595994528662,1.41401806043604,-2.11388661006516,0.438315551284236,0.432872691525704,-0.586672033221682,0.432872691525778,1.12869832483371,-1.17298536958387,NaN,0.879543430999897,-1.29633365829306,0.363811496506547,-1.4219324732886,0.801090753569044,-1.42193247328713,1.35574520227146,-2.15199858762551,-0.755627960581051,-0.698223608898356,0.0567027732382519,NaN,NaN,-1.30682602523576,-0.153837127420236,-0.141854614668162,-0.138459786314556,-0.170642367912607,0.0164394796817198,-0.697038055159207,-0.378279678776124,0.159338107013525,-0.423330089098406,-0.423330089098251,1.03076476556284,-0.544098365665429,0.937001548661952,0.927557345680874,-1.06261846429736,-0.18536614830386,NaN,-0.681329678524152,-0.491703080010832,0.52533213124138,-0.525332131241656,-1.0013816917301
1457.152,1.07916351220041,-1.94123554734977,-0.893179936390068,-0.353969856710586,-0.589344712694472,-0.589344712695059,1.4069532413389,-2.12859520481001,0.426189515750558,0.434691793263344,-0.577171784359346,0.434691793263433,1.09985598301019,-1.17103397309947,NaN,0.853358961268733,-1.26886154749672,0.344271246958308,-1.42481397827084,0.777789893784805,-1.42481397826938,1.36249287243797,-2.15387148117433,-0.750789988978662,-0.703344098879716,0.0723689306314651,NaN,NaN,-1.28336319243427,-0.146069198113847,-0.108626892609679,-0.128800630020772,-0.141520888760941,0.00867895753108346,-0.689248594298182,-0.382385387429329,0.127811722741118,-0.418334799938487,-0.418334799938317,1.03209940664755,-0.574334069800278,0.909298924635573,0.92682525292138,-1.06788461026248,-0.200181287545357,NaN,-0.6619756656003,-0.476809731883981,0.550010681023018,-0.550010681023284,-0.992222913523643
1457.2544,1.08914266026314,-1.92919854371101,-0.877111425083929,-0.363512245288682,-0.606945651585626,-0.606945651586269,1.39984517546011,-2.14209741037099,0.414498999891373,0.436615298262077,-0.566733701867003,0.436615298262178,1.07256295769577,-1.16662940751796,NaN,0.82821762302446,-1.24189152304311,0.325973353370145,-1.42677868759023,0.755910135595356,-1.42677868758879,1.36872421523843,-2.15481532582705,-0.745557728288593,-0.708346839207299,0.0873463274831322,NaN,NaN,-1.26009367038923,-0.138401727620308,-0.0768234779630772,-0.12044130157059,-0.114069699554073,0.00163817255658351,-0.681953860043958,-0.385980843796839,0.0969685540508747,-0.413847773234943,-0.413847773234756,1.03278987862877,-0.603458062094744,0.881766330063158,0.926100959641681,-1.07288011379123,-0.214312810190842,NaN,-0.644111392796846,-0.462297469049467,0.573962323498443,-0.573962323498701,-0.981460727919721
1457.3568,1.09769462191892,-1.91652482867994,-0.861427869932056,-0.373597879135618,-0.623433960848505,-0.623433960849203,1.39269467279943,-2.1543849777469,0.403247974377442,0.438655357739542,-0.555377869551328,0.438655357739654,1.04686468519875,-1.15984742707059,NaN,0.804174542893229,-1.215510886033,0.308935878628314,-1.42777177028073,0.735433927879476,-1.42777177027931,1.3744561053901,-2.15486802344787,-0.739951399380609,-0.713299904933024,0.101537850722027,NaN,NaN,-1.23705561672653,-0.130896419801646,-0.0465167905972043,-0.113457384092864,-0.0883782496188589,-0.00469735165762033,-0.675168073448966,-0.38909005570224,0.0668485064631869,-0.409887451495166,-0.409887451494962,1.03284834047719,-0.631451475600293,0.854439576180299,0.925426277892692,-1.07759887779549,-0.227636737954935,NaN,-0.627833673352886,-0.448156041701181,0.597178542632183,-0.597178542632435,-0.969112167796429
1457.4592,1.10476090886611,-1.90324124111866,-0.846187988731852,-0.384282200983791,-0.638847926595168,-0.638847926595928,1.38550034657037,-2.16545324539784,0.392437027065462,0.440821804530717,-0.543124389880576,0.440821804530837,1.02279973703882,-1.15077227512827,NaN,0.781280683358206,-1.18980491984544,0.293171936682786,-1.42773822563262,0.716337180264418,-1.42773822563122,1.37970404303348,-2.15406909805404,-0.733994158170963,-0.718270442229826,0.114847448976784,NaN,NaN,-1.2142866650332,-0.123613650138244,-0.017772743242794,-0.107921247467664,-0.0645296556425428,-0.0103439312355428,-0.668904394746307,-0.391738451071757,0.0374903207529064,-0.40647078706329,-0.406470787063073,1.03228804680598,-0.658299347438037,0.827352213773413,0.924841761139819,-1.08203509184714,-0.240033077174965,NaN,-0.613233536757639,-0.434372755437885,0.619653464562858,-0.619653464563105,-0.955198214435359
1457.5616,1.11028727191046,-1.88937534223615,-0.831448407626078,-0.39561833251857,-0.65322880214534,-0.65322880214616,1.37825862835406,-2.17530108183546,0.382063399176222,0.443122105219416,-0.529993383903685,0.443122105219546,1.00039974140856,-1.13949616619159,NaN,0.759582684378609,-1.16485650988594,0.278689742021844,-1.42662302620676,0.698589548621981,-1.42662302620538,1.3844819586467,-2.15245936059704,-0.727711962026068,-0.723324353865076,0.127180590104389,NaN,NaN,-1.19182385700061,-0.116612202271837,0.00934936280477455,-0.10390172824026,-0.0426004722168898,-0.0153196265748656,-0.663174885681478,-0.3939527515555,0.00893152970290135,-0.403613170961525,-0.403613170961294,1.03112312587745,-0.683990341623384,0.800535488040397,0.924386442844393,-1.08618312852493,-0.251386246500025,NaN,-0.600395917283048,-0.420932580523203,0.641383827940282,-0.641383827940524,-0.939743872379073
1457.664,1.11422385741483,-1.87495532762995,-0.817263490923372,-0.407656773992593,-0.666620640107182,-0.666620640108062,1.37096381850714,-2.18393081376206,0.37212105880537,0.445561348870438,-0.51600498760248,0.445561348870579,0.979689345287708,-1.12611874863417,NaN,0.739122730180756,-1.14074576182218,0.26549269979978,-1.42437126650849,0.682154741963813,-1.42437126650712,1.38880205277281,-2.150080575502,-0.72113340351515,-0.72852599949963,0.138444717529853,NaN,NaN,-1.16970357401585,-0.109949012602487,0.0347969037734869,-0.101463810897013,-0.0226604912269194,-0.0196441454021616,-0.657990451923059,-0.395760833159679,-0.0187915694184487,-0.401328356518611,-0.401328356518369,1.02936837938017,-0.708516479988401,0.774018316564645,0.924097589133833,-1.09003745620642,-0.261585508142779,NaN,-0.589399354283573,-0.407818275248987,0.66236894320003,-0.662368943200268,-0.922778233422545
1457.7664,1.11652537919214,-1.86000994510505,-0.803685165850786,-0.420445105155389,-0.679070134228119,-0.679070134229057,1.3636081715067,-2.19134814329841,0.362600810090521,0.448142270904624,-0.501179350437712,0.448142270904772,0.960686208765741,-1.1107465610107,NaN,0.719938441722388,-1.11754962053886,0.253579535655961,-1.42092832035848,0.666990851731,-1.42092832035714,1.39267467508673,-2.1469751316287,-0.714289509635274,-0.733937908156398,0.148549700377339,NaN,NaN,-1.147961478608,-0.103678922609558,0.0585239631943202,-0.100668308893889,-0.00477256791487819,-0.0233387547120308,-0.653360763009225,-0.397191583875687,-0.0456439313202675,-0.399628378572891,-0.399628378572638,1.02703911196437,-0.731872892123834,0.747827291097869,0.924010459596153,-1.09359256421971,-0.270525408235713,NaN,-0.580315704118695,-0.395010515933364,0.68261064512032,-0.682610645120552,-0.904334533220835
1457.8688,1.11715129561356,-1.8445684181441,-0.790762748596693,-0.434027684739476,-0.690626472225833,-0.69062647222683,1.35618200199127,-2.19756206167687,0.353490422348684,0.450865295881142,-0.485536647452634,0.450865295881294,0.943401018800644,-1.09349248957839,NaN,0.70206279028249,-1.09534149335362,0.242944455320527,-1.41624000774742,0.653050702901777,-1.41624000774609,1.39610823619449,-2.14318571788994,-0.707213513259514,-0.739620506064198,0.157408273633885,NaN,NaN,-1.12663247409958,-0.0978544423175114,0.0804913239553906,-0.101571548561486,0.0110075238465757,-0.0264262045871543,-0.649294156043165,-0.398274765134768,-0.0715917811883443,-0.398523473346218,-0.398523473345955,1.02415099151877,-0.754057589256887,0.721986699740056,0.924158069235739,-1.09684288817609,-0.278106214602364,NaN,-0.573209866323307,-0.382488026103725,0.702113241734256,-0.702113241734482,-0.884450199905351
1457.9712,1.11606597600104,-1.82866037313619,-0.778542780171516,-0.448445350934605,-0.70134119362814,-0.701341193629197,1.3486737941218,-2.20258476510812,0.344774761339748,0.453728582813734,-0.469097116506719,0.453728582813888,0.92783751301589,-1.07447522837177,NaN,0.685524026604195,-1.07419088488992,0.233577319477039,-1.41025277358772,0.64028222197739,-1.4102527735864,1.39910914076622,-2.13875500417762,-0.699940608692192,-0.745631865848112,0.164936468289778,NaN,NaN,-1.10575068009564,-0.0925255286731355,0.100666421455006,-0.104225059574691,0.0246312044474041,-0.0289306601442024,-0.645797533374568,-0.399040878780038,-0.0966026475318413,-0.398022004539822,-0.398022004539549,1.02071993152925,-0.775071260131347,0.696518559061895,0.924570950549724,-1.09978272595226,-0.28423433129868,NaN,-0.5681395282584,-0.370227702640227,0.72088345468468,-0.720883454684902,-0.86316688869078
1458.0736,1.11323884430408,-1.81231576730848,-0.767068877187226,-0.463735126953965,-0.711268042291902,-0.711268042293018,1.34107030411077,-2.20643157268716,0.336435913594577,0.456728066409647,-0.451881129190144,0.456728066409798,0.913992511600824,-1.05381873647792,NaN,0.670345622929338,-1.05416305440449,0.225463821252466,-1.40291388257837,0.628628815989059,-1.40291388257705,1.40168173195769,-2.13372532855065,-0.692507702174393,-0.752027481082575,0.17105403485742,NaN,NaN,-1.08534941284186,-0.0877393799851785,0.119023258890801,-0.10867527431305,0.036057169256654,-0.0308776349475012,-0.642876265477187,-0.399521038607196,-0.12064541567696,-0.398130399903159,-0.398130399902877,1.01676198234786,-0.794917081740665,0.671442644388868,0.925276920629715,-1.10240614308447,-0.288822674100442,NaN,-0.565154932429663,-0.358204742569716,0.738930343287393,-0.738930343287612,-0.840530497438815
1458.176,1.10864449548293,-1.7955648149204,-0.756381598467533,-0.479929939462697,-0.720462803634679,-0.720462803635849,1.33335665508074,-2.20912084230894,0.328453304639162,0.459857496247911,-0.433909293707166,0.459857496248065,0.901855962999147,-1.03165168262806,NaN,0.656546229137963,-1.03531870463004,0.218585661140813,-1.39417163223172,0.61802975917875,-1.39417163223041,1.40382824322838,-2.12813839166404,-0.684953162133966,-0.758860068847286,0.175684862699365,NaN,NaN,-1.06546116240585,-0.0835402469868743,0.135542287030495,-0.114963240327727,0.0452514368847022,-0.0322939181935647,-0.640534107804308,-0.399746843002856,-0.143690401601944,-0.398853100687917,-0.398853100687624,1.01229322287482,-0.813600536096608,0.646776514764612,0.926300860495627,-1.10470687153443,-0.291790997848377,NaN,-0.564298668188921,-0.34639277662919,0.756265208417411,-0.756265208417626,-0.816591161764901
1458.2784,1.10226278608567,-1.77843791166902,-0.746518326507496,-0.497058363848862,-0.728983121233168,-0.728983121234395,1.32551643022499,-2.21067388122393,0.32080381780196,0.463108480349104,-0.415202572442901,0.463108480349257,0.891411014264312,-1.00810686790834,NaN,0.644139646148223,-1.01771370545126,0.212920721709162,-1.38397558441902,0.608420586575388,-1.38397558441771,1.40554876162845,-2.12203496086082,-0.677316567517017,-0.766179403980547,0.178757392841751,NaN,NaN,-1.04611756736314,-0.0799692628591607,0.150210250622621,-0.123124354881541,0.0521873623122888,-0.0332074877154352,-0.638773134314603,-0.399750241466777,-0.165709439262147,-0.40019252517721,-0.400192525176908,1.00732965320918,-0.831129227378984,0.622535538922092,0.927664514306393,-1.10667820873835,-0.293066172652843,NaN,-0.565605487172243,-0.334764014324615,0.77290147434807,-0.77290147434828,-0.791403229479174
1458.3808,1.09407890381736,-1.76096556005216,-0.737513162979906,-0.515144413274992,-0.736888292202875,-0.736888292204163,1.31753177403666,-2.21111485037435,0.313461922710496,0.466470540473453,-0.395782387520109,0.466470540473611,0.882634118804873,-0.983320621735519,NaN,0.633134819267898,-1.00139885138281,0.20844324711366,-1.37227681699227,0.599733497283008,-1.37227681699096,1.40684121175566,-2.11545458871442,-0.669638449776907,-0.774032188471496,0.180205017552217,NaN,NaN,-1.02734939160314,-0.0770642947170966,0.163020002678783,-0.133188133873197,0.0568456099300351,-0.0336474012270044,-0.637593684883328,-0.399563385097847,-0.186675970430893,-0.402149048120016,-0.402149048119705,1.00188709625934,-0.847512699947016,0.598732933187108,0.929386315117536,-1.10831292699836,-0.292582416217375,NaN,-0.569102146062349,-0.32328940349757,0.788854545694316,-0.788854545694522,-0.765025212464483
1458.4832,1.08408342428584,-1.74317829941807,-0.729396836143705,-0.534207381198436,-0.744239045482895,-0.744239045484239,1.30938351341936,-2.21047066219107,0.306399824208383,0.469931186645211,-0.375670694072621,0.469931186645368,0.875495191063925,-0.957432172830947,NaN,0.623535853233915,-0.986419648966121,0.205124033189248,-1.35902819668886,0.591897773152613,-1.35902819668756,1.40770137212712,-2.10843535241349,-0.661960023147334,-0.782461954131387,0.179966458472847,NaN,NaN,-1.00918650601417,-0.0748598169470935,0.173970288666404,-0.145178024616094,0.0592140834812749,-0.0336436631676585,-0.636994319750925,-0.399218454247117,-0.206565128328057,-0.404720996308064,-0.404720996307746,0.995981119640418,-0.862762263436877,0.575379821370216,0.931481240904159,-1.10960320308542,-0.290281496770383,NaN,-0.574807284762786,-0.311938805668504,0.804141638647246,-0.804141638647446,-0.737519712054336
1458.5856,1.07227236426652,-1.72510664248645,-0.722196615701027,-0.554261731799935,-0.751097312181618,-0.75109731218302,1.30105130752844,-2.20877087070903,0.299587640086747,0.473476016978197,-0.354890022794683,0.473476016978362,0.869957806676589,-0.930583004942633,NaN,0.615342047388416,-0.972816125861299,0.202930632121286,-1.34418466851912,0.584840213939466,-1.34418466851783,1.40812293339448,-2.10101361941613,-0.654322899173311,-0.791508990041837,0.177986117357128,NaN,NaN,-0.991657873914677,-0.0733868058753223,0.183065506561577,-0.159111263027834,0.0592878170336645,-0.0332270757829943,-0.636971773218025,-0.398747468404876,-0.22535381582877,-0.407904656374261,-0.407904656373935,0.989626986787277,-0.876890835111826,0.552485319423798,0.933960699677128,-1.11054057035143,-0.286112915293527,NaN,-0.582731342497143,-0.300681183114233,0.818781593472153,-0.818781593472348,-0.708953315551534
1458.688,1.05864723158539,-1.70678101694257,-0.715936233906091,-0.575317023005499,-0.757525996460592,-0.757525996462053,1.29251382260063,-2.20604755397267,0.292993604281258,0.477088840983526,-0.333463516838373,0.4770888409837,0.865979433078072,-0.902916210801521,NaN,0.608547942380364,-0.960622652461932,0.201827565380877,-1.32770355171949,0.578485580385965,-1.32770355171819,1.40809759573023,-2.09322384129495,-0.646768790007195,-0.801210285704469,0.174214398316253,NaN,NaN,-0.974791534349432,-0.0726726562762885,0.190315451472775,-0.174998767810796,0.0570688369422951,-0.0324290903324134,-0.637520906875744,-0.398182095963083,-0.243020789877276,-0.41169429205614,-0.411694292055808,0.982839638022944,-0.889912809056958,0.530056636527373,0.93683243779659,-1.11111588490287,-0.280034061718084,NaN,-0.592876507688156,-0.289484788833534,0.832794681605107,-0.832794681605296,-0.679396464409529
1458.7904,1.04321505756626,-1.68823170805466,-0.71063581851755,-0.597377848167753,-0.763588746413927,-0.763588746415444,1.28374891470542,-2.20233518997116,0.286584279725342,0.480751815541117,-0.311414996741929,0.480751815541301,0.863511671272762,-0.874575852592492,NaN,0.603143364420568,-0.949867772135501,0.201776526068656,-1.3095448375255,0.572757032002865,-1.30954483752421,1.40761518798686,-2.08509837423251,-0.639339216143705,-0.81159948488663,0.168608005168709,NaN,NaN,-0.958614572984211,-0.0727411199696322,0.19573505114924,-0.192845061627197,0.0525660042259278,-0.031281669443965,-0.638634673978439,-0.39755348257353,-0.259546766990603,-0.416082174528667,-0.416082174528332,0.975633693628702,-0.901843955512814,0.508099178034003,0.940100466601825,-1.11131929524563,-0.272010331863734,NaN,-0.605236700668133,-0.278317354115516,0.846202418740886,-0.84620241874107,-0.648923294237816
1458.8928,1.02598839660211,-1.66948879658649,-0.706311842700398,-0.620443787458278,-0.769349715223766,-0.769349715225335,1.27473380360514,-2.19767052569282,0.280324765926309,0.48444558306011,-0.288769076184563,0.484445583060307,0.862500497119395,-0.845706328688338,NaN,0.599113455617132,-0.940574040100021,0.202736552669358,-1.2896714938222,0.567576548781942,-1.28967149382091,1.40666378881456,-2.07666732350265,-0.63207523555896,-0.822706847843572,0.161130219832187,NaN,NaN,-0.943153068670544,-0.0736122648326613,0.199344093822021,-0.212648210254171,0.0457948427194164,-0.0298171622260741,-0.640304106574196,-0.396892106477075,-0.274914558866764,-0.42105863146089,-0.421058631460551,0.968023469111743,-0.912701348948706,0.486616637668266,0.943765009350568,-1.11114021382919,-0.26201519606998,NaN,-0.619797593509485,-0.267146276219853,0.859027390360481,-0.859027390360661,-0.617611445474834
1458.9952,1.0069852923581,-1.6505820863727,-0.702977087619009,-0.644509364263886,-0.774873301616811,-0.774873301618428,1.26544523338103,-2.19209243703577,0.274178898255572,0.488149410410996,-0.265551329372278,0.488149410411209,0.862886502015503,-0.816451743074913,NaN,0.596438688849405,-0.932757871118636,0.204664171657508,-1.26804978677887,0.562865329786242,-1.26804978677758,1.40522984257938,-2.06795841065045,-0.625017200066585,-0.83455922066946,0.151751167146427,NaN,NaN,-0.928432005151048,-0.0753024514077362,0.201166946721037,-0.234399773331621,0.0367773548227754,-0.0280681884804066,-0.642518325709356,-0.3962276569629,-0.289109238229719,-0.426612114956401,-0.426612114956058,0.960022999578673,-0.922503326021353,0.46561107344574,0.947822474741399,-1.11056729662925,-0.250030218205591,NaN,-0.636536669255354,-0.255938811110909,0.871293092885093,-0.871293092885267,-0.585541843471828
1459.0976,0.98622922479826,-1.63154101863947,-0.700640606390209,-0.66956400855244,-0.780223864292944,-0.780223864294608,1.25585962723801,-2.18564177777162,0.268109446316764,0.491841336287369,-0.241788490071712,0.491841336287599,0.86460514202671,-0.786955274310048,NaN,0.595094875799501,-0.926429397535388,0.207513521275186,-1.24464962923865,0.558544166228012,-1.24464962923736,1.40329827678011,-2.05899686338903,-0.618204532296925,-0.847180012969198,0.140448068260573,NaN,NaN,-0.914475141931278,-0.0778243255342937,0.201232262598937,-0.258084765103172,0.0255418236392991,-0.0260675258046738,-0.645264566290399,-0.395588924340897,-0.302118327651599,-0.432729282067173,-0.432729282066824,0.951646078214347,-0.931269476373414,0.445082971549468,0.952265460843667,-1.10958843539139,-0.236045026411354,NaN,-0.655423317494508,-0.244662273494888,0.883023788219549,-0.883023788219718,-0.5527984467168
1459.2,0.963749052560546,-1.61239457455341,-0.699307681424493,-0.69559203893117,-0.785465411742684,-0.785465411744384,1.24595324772487,-2.1783612169052,0.262078321738456,0.495498337647954,-0.21750864992295,0.4954983376482,0.867587010240403,-0.757358539681843,NaN,0.59505318147027,-0.921592343137948,0.211236473084932,-1.21944495927872,0.554533795827437,-1.21944495927743,1.40085263079944,-2.04980532786154,-0.611675513249248,-0.860589189428617,0.127205479703842,NaN,NaN,-0.901304845592337,-0.0811868291572661,0.199572671312273,-0.283681629661352,0.0121225971770596,-0.0238479903654837,-0.648528208048673,-0.395003686422556,-0.313931998159372,-0.439395081249061,-0.439395081248707,0.942906315192078,-0.939020662677245,0.425031310703651,0.957082789893607,-1.10819076352036,-0.220057236793362,NaN,-0.676418963116996,-0.233284245309424,0.894244363416758,-0.894244363416922,-0.51946796111237
1459.3024,0.939578956095975,-1.5931711704168,-0.698979775319005,-0.722572680140714,-0.790661272433494,-0.79066127243523,1.23570237169902,-2.17029506399923,0.256046803936374,0.49909652351635,-0.192741423031122,0.499096523516608,0.871758147715259,-0.727800950008168,NaN,0.596280158684863,-0.918243923084802,0.215782764439447,-1.19241414212836,0.550755252483402,-1.19241414212707,1.39787520155836,-2.04040380293563,-0.605467074596508,-0.874803282584546,0.112015511265639,NaN,NaN,-0.888941888230411,-0.0853952337721561,0.196224454587276,-0.311162238133864,-0.0034401503111084,-0.0214423010435034,-0.652292806251826,-0.394498576570764,-0.324543260613672,-0.446592842819978,-0.446592842819614,0.933817220287969,-0.945779059915118,0.405453641511307,0.96225957579035,-1.10636067939295,-0.202072334543559,NaN,-0.699477231478711,-0.221772796117644,0.904980187124666,-0.904980187124825,-0.485639517214576
1459.4048,0.913758379230068,-1.57389854979916,-0.699654480261665,-0.750480126037096,-0.795873751730027,-0.795873751731796,1.22508348456403,-2.16148908162362,0.249975788241028,0.502611358503423,-0.167518057371942,0.502611358503695,0.877040399475607,-0.698419056769914,NaN,0.59873781123062,-0.916374780936488,0.221100146804765,-1.16354038264305,0.547130221143127,-1.16354038264176,1.39434720668805,-2.03080959709252,-0.599614595683159,-0.88983542929567,0.0948780137870645,NaN,NaN,-0.877405221489883,-0.0904511990175088,0.191227206560674,-0.340491913260404,-0.0211006805337689,-0.0188829234606857,-0.65654011722304,-0.394098926671069,-0.33394813443025,-0.45430437533597,-0.454304375335594,0.924392310464295,-0.951568206900244,0.386346189409393,0.967777328230422,-1.10408389584881,-0.182103523671667,NaN,-0.724544155760872,-0.210096717984217,0.915256959104188,-0.915256959104343,-0.451404309991585
1459.5072,0.886331961575771,-1.55460367655235,-0.701325473930724,-0.779283647207602,-0.801163786782077,-0.801163786783873,1.21407349045244,-2.15199028542526,0.243826053208306,0.506017908633331,-0.141871492364854,0.506017908633622,0.883351805739005,-0.669345904795074,NaN,0.602383685128213,-0.915968969887218,0.2271345435656,-1.13281213778176,0.543581395884399,-1.13281213778048,1.39024896160821,-2.02103730788839,-0.594151708758654,-0.905695428832746,0.0758007243444572,NaN,NaN,-0.866711737909108,-0.0963528580366477,0.184623489116581,-0.371629486305716,-0.0408079726124355,-0.0162019049286052,-0.661250117720684,-0.393828596626945,-0.342145785623669,-0.462510071043709,-0.462510071043326,0.914645240102319,-0.956413068721394,0.36770397922373,0.973614094147031,-1.1013455211771,-0.160171556643315,NaN,-0.751558422018637,-0.198225768184806,0.925100553492398,-0.92510055349255,-0.416855206036414
1459.6096,0.857349451821539,-1.53531263390378,-0.703982492405648,-0.80894773987707,-0.806590619448213,-0.806590619450031,1.20264992862393,-2.14184673662937,0.237558536486001,0.509291095321028,-0.115836367400293,0.509291095321337,0.890607009278362,-0.640710411285362,NaN,0.607170983509073,-0.917003982812151,0.233830206615315,-1.10022352545085,0.540032831104076,-1.10022352544956,1.38556006627695,-2.01109882167235,-0.589110114373633,-0.922389824114186,0.0547993513363401,NaN,NaN,-0.85687603714631,-0.103094935409449,0.176458493274781,-0.404527396296297,-0.0625060202309512,-0.0134307212866272,-0.666401021202054,-0.393709815159736,-0.349138633169438,-0.471189022069973,-0.471189022069581,0.904589946726037,-0.960340108538457,0.349520972656194,0.979744632204796,-1.09813016663392,-0.13630454283822,NaN,-0.78045163387524,-0.186130903270587,0.934536859365774,-0.934536859365924,-0.382086323647233
1459.712,0.826865596972101,-1.51605053481425,-0.707611327406123,-0.83943231662954,-0.81221150901484,-0.812211509016683,1.19079118856309,-2.13110733496158,0.231134609347434,0.512405948733127,-0.0894489779499806,0.512405948733461,0.898717666356317,-0.612636788045024,NaN,0.613048704559314,-0.919450833139452,0.241129869307842,-1.0657747301927,0.536410276597224,-1.06577473019141,1.38025960193943,-2.00100332971208,-0.584519402870726,-0.939922012045603,0.0318975853887832,NaN,NaN,-0.847910215930525,-0.110668904909522,0.166779712975242,-0.439131842512282,-0.0861341450085234,-0.0106001517733262,-0.671969292692762,-0.393763050646704,-0.354932424140021,-0.480319144274543,-0.480319144274148,0.894240805021702,-0.963377363447274,0.33179021361641,0.986140614251467,-1.09442206965104,-0.110537725166106,NaN,-0.811148579205845,-0.173784489602126,0.943591622404556,-0.943591622404704,-0.347192588890009
1459.8144,0.794940013207947,-1.49684144589474,-0.712193846141582,-0.870692937599581,-0.818081492771943,-0.818081492773805,1.17847672386119,-2.11982161767585,0.224516347732598,0.515337862526072,-0.0627471759505426,0.515337862526433,0.907592859546095,-0.585244013645395,NaN,0.619961803484935,-0.923274180213611,0.248974902228919,-1.02947240182484,0.532641493167024,-1.02947240182355,1.37432634283791,-1.9907573581246,-0.580406874539797,-0.958292379965595,0.00712703900351912,NaN,NaN,-0.839823694235185,-0.119063183966852,0.155636631548403,-0.475382988104973,-0.111627324868213,-0.00774018473430384,-0.677929662135775,-0.394006915008796,-0.359536277221805,-0.489877300466032,-0.489877300465631,0.88361278413847,-0.965554515983561,0.31450398250195,0.99277084593555,-1.09020522413612,-0.0829132240822591,NaN,-0.843567494716266,-0.161160487118491,0.952290288571514,-0.952290288571661,-0.312269275617417
1459.9168,0.761637050194799,-1.47770832382188,-0.717708025437729,-0.902681070727315,-0.824253183242095,-0.824253183243981,1.16568726799355,-2.10803956459953,0.217666802625205,0.518062853020126,-0.0357702276419928,0.518062853020511,0.917139511709739,-0.558645356603237,NaN,0.627851374507034,-0.92843248459046,0.257305476931221,-0.991330032326949,0.52865655011913,-0.991330032325664,1.36773898688827,-1.98036481215213,-0.576797355009558,-0.977498445906521,-0.0194728645630484,NaN,NaN,-0.832623081592301,-0.128263345157597,0.143080421379063,-0.513215195593509,-0.138916527856948,-0.00487994732341371,-0.684255140441428,-0.394458095522165,-0.362962695579025,-0.499839413309529,-0.499839413309121,0.872721601869926,-0.966902951751679,0.297653959617127,0.999601497982715,-1.08546351607158,-0.0534797667929505,NaN,-0.877620334376754,-0.148234612267038,0.960657847353747,-0.960657847353892,-0.277411547298798
1460.0192,0.727025654816747,-1.45867296154298,-0.724127994168924,-0.93534436298952,-0.830776582917734,-0.830776582919644,1.15240505062597,-2.09581140501078,0.210550270184257,0.52055781511112,-0.00855865638044506,0.520557815111528,0.927262793902281,-0.532947950517486,NaN,0.636654844464201,-0.93487817926642,0.266060735389611,-0.951368288995637,0.524388107291991,-0.951368288994353,1.36047640136536,-1.96982703692552,-0.573713011866751,-0.997534973344361,-0.0478550321212249,NaN,NaN,-0.826312080726404,-0.138252319667547,0.12916366262857,-0.552557273015335,-0.167929036977379,-0.00204765109603435,-0.690917048892371,-0.395131311702051,-0.365227552426055,-0.51018056374784,-0.510180563747427,0.861583868213546,-0.967455798103567,0.281231392000745,1.0065963452707,-1.0801808694477,-0.022292421451184,NaN,-0.913213045390524,-0.13498448517487,0.96871867031486,-0.968718670315002,-0.242714021060933
1460.1216,0.691179227180077,-1.4397559415632,-0.731424086318356,-0.968626910457949,-0.837698905953101,-0.837698905955035,1.13861400632207,-2.083187422093,0.203132556006007,0.522800757428297,0.0188459092536245,0.522800757428728,0.937866517025617,-0.50825242161915,NaN,0.646306171428941,-0.942557851277618,0.275178959196576,-0.909615288374745,0.519771682946082,-0.909615288373464,1.35251787039126,-1.95914289496813,-0.57117318578337,-1.01839404816722,-0.0779648652077781,NaN,NaN,-0.820891422307769,-0.149010581734677,0.113940089506954,-0.593332724286481,-0.198588756695362,0.00072944974610818,-0.697885071812375,-0.396039299329565,-0.366350052373175,-0.520875080062208,-0.52087508006179,0.850217214934401,-0.967247948265698,0.265227254546118,1.01371701932809,-1.07434140909801,0.0105876622307435,NaN,-0.950245848014411,-0.121389759201563,0.976496341645902,-0.976496341646042,-0.208270365170452
1460.224,0.654175455264857,-1.4209765945132,-0.739562911809279,-1.00246952645558,-0.845064410493628,-0.845064410495586,1.12429996545496,-2.07021775321398,0.195381225050846,0.524771001677959,0.0464008832596889,0.524771001678412,0.948853501376675,-0.484652566605089,NaN,0.656736047931995,-0.951412435557509,0.28459773638191,-0.866106811889375,0.514745906887394,-0.866106811888101,1.3438433297283,-1.94830885750808,-0.569194247609568,-1.04006512845027,-0.109740455364597,NaN,NaN,-0.816358825682738,-0.160516322620153,0.0974643683426289,-0.635460010459685,-0.230816501174833,0.00342508530410683,-0.705127334255437,-0.397192824989464,-0.366352668061493,-0.531896626897579,-0.531896626897161,0.83864041286825,-0.966316080557511,0.249632398445037,1.02092328184143,-1.0679296424595,0.0450935207733641,NaN,-0.988613512403955,-0.107432226358518,0.984013482562295,-0.984013482562432,-0.174172929652442
1460.3264,0.616096120539924,-1.40235296228586,-0.748507449384156,-1.03681001240995,-0.852914250154631,-0.852914250156609,1.10945082229514,-2.05695218693412,0.187265832365508,0.526449343017282,0.0740628783351552,0.52644934301775,0.960125925339007,-0.462235077017065,NaN,0.667872111742761,-0.961377422782439,0.294254129124876,-0.820886473566799,0.509252756867307,-0.820886473565524,1.33443358170973,-1.93731910573303,-0.567789484745141,-1.06253508484717,-0.143112815089173,NaN,NaN,-0.812708982871121,-0.172745628642487,0.0797919046376573,-0.678852826514107,-0.264530268522722,0.0060139788213588,-0.712610499540002,-0.398600731809816,-0.365261049749293,-0.543218299825421,-0.543218299824999,0.826873477869641,-0.964698676149694,0.234437684870381,1.0281733200057,-1.0609306558506,0.0811526661047151,NaN,-1.02820562791396,-0.0930958936556468,0.99129157747417,-0.991291577474305,-0.140512405702783
1460.4288,0.577026877867232,-1.38390176579742,-0.758217159475709,-1.0715834357553,-0.861286347381936,-0.861286347383937,1.09405668380371,-2.04343995906309,0.178758136856951,0.52781818042536,0.101787877543041,0.527818180425845,0.971585660265805,-0.441079307324856,NaN,0.679639165479286,-0.972383079856144,0.304084845411983,-0.774005846069745,0.503237776035428,-0.774005846068475,1.32427049247159,-1.92616564007468,-0.566969012793094,-1.08578824346632,-0.178006140204441,NaN,NaN,-0.809933563752924,-0.185672669955075,0.0609786723598469,-0.723420387876681,-0.299645503260852,0.00847183763523162,-0.720299879227185,-0.400270011950819,-0.363103908460177,-0.554812724344519,-0.554812724344095,0.81493776107664,-0.962436026060559,0.219634106833586,1.03542405419498,-1.05333031486005,0.118687396788663,NaN,-1.06890686539196,-0.0783670308035476,0.99835081031011,-0.998350810310243,-0.107377511526587
1460.5312,0.537057020073033,-1.36563837797696,-0.768648111004814,-1.10672241827099,-0.870215284576095,-0.870215284578117,1.07811000889546,-2.02972954917641,0.169832306329337,0.528861633372621,0.129531419940495,0.528861633373115,0.983134601931406,-0.421257085200976,NaN,0.691959404514947,-0.984354682611534,0.314026414135296,-0.72552454191475,0.496650270873822,-0.725524541913488,1.31333718061706,-1.91483839850191,-0.566739704434546,-1.10980643449584,-0.214338093387723,NaN,NaN,-0.8080212397019,-0.199269896459219,0.0410810596974158,-0.769067714048511,-0.336075345270391,0.0107753325540532,-0.728159548932069,-0.402205895140365,-0.359912877191831,-0.56665215224415,-0.566652152243723,0.802856016897387,-0.959570209272831,0.205212907553581,1.04263144099236,-1.04511545517281,0.157615120587525,NaN,-1.1105972387465,-0.0632341947155562,1.00520991337037,-1.0052099133705,-0.0748547049033228
1460.6336,0.496279237242953,-1.34757680322588,-0.779753116759905,-1.14215743692725,-0.879732207238437,-0.87973220724047,1.06160574771134,-2.01586847726244,0.160465122478196,0.529565660260193,0.157248794312035,0.529565660260696,0.994675008286547,-0.402832561951988,NaN,0.704752653716136,-0.997212762222421,0.324015363299778,-0.675510240621727,0.489443491037751,-0.675510240620463,1.30161820973488,-1.90332538691699,-0.56710512627535,-1.13456904120647,-0.252020100364281,NaN,NaN,-0.806957721803589,-0.213508231372969,0.0201557292175581,-0.815695899146631,-0.373730861873604,0.0129020759166688,-0.736152467778611,-0.404411940730518,-0.355722355226933,-0.578708545711097,-0.578708545710668,0.790652445142745,-0.956145025924162,0.191165705950888,1.04975075714816,-1.03627405428902,0.197848674116721,NaN,-1.15315237658116,-0.0476882379540001,1.01188602394596,-1.01188602394609,-0.0430279243645426
1460.736,0.454789374866144,-1.32972966507142,-0.79148187615088,-1.17781713833158,-0.889864738991084,-0.889864738993136,1.04454148328577,-2.00190310098234,0.150636187793621,0.529918182785536,0.184895238366801,0.52991818278605,1.00610984707547,-0.385862099781295,NaN,0.717936615641676,-1.01087336564934,0.333988405210831,-0.624038653934393,0.481574791893798,-0.624038653933134,1.28909979456613,-1.89161282418914,-0.568065476462823,-1.16005303986859,-0.290957661384651,NaN,NaN,-0.806725810710803,-0.228357254833865,-0.00174050554007127,-0.863202373022781,-0.412521263298573,0.0148306041273307,-0.744240605230223,-0.406890129025906,-0.35056933671726,-0.590953644428648,-0.590953644428218,0.778352709657887,-0.952205883044523,0.177484635096051,1.05673686433739,-1.02679538522987,0.239296636574017,NaN,-1.19644381284152,-0.031722304487569,1.0183945415377,-1.01839454153782,-0.0119783604315698
1460.8384,0.412686186307311,-1.31210820339552,-0.80378112931386,-1.21362866733912,-0.900636916023353,-0.900636916025423,1.02691756897123,-1.98787841578955,0.140328127530044,0.529909204228734,0.21242614651137,0.529909204229264,1.01734314725781,-0.370394193462307,NaN,0.731427132283131,-1.02524832856419,0.343882633120118,-0.57119342749011,0.47300577790274,-0.571193427488851,1.27577002002252,-1.87968530045877,-0.569617522529247,-1.18623302670694,-0.331050693906106,NaN,NaN,-0.807305459679239,-0.243785378253691,-0.0245507813436467,-0.911481171930429,-0.452354106365127,0.0165403607248834,-0.752385081974163,-0.409640960016114,-0.34449321973731,-0.603359020837252,-0.603359020836825,0.765983941754301,-0.947799645773048,0.164162492786253,1.06354446919541,-1.01667016158912,0.281863652365132,NaN,-1.24033929271402,-0.0153318084776497,1.02474898125636,-1.02474898125648,0.0182157434409212
1460.9408,0.370071066831478,-1.29472228159159,-0.816594830922439,-1.2495180089269,-0.91206915000013,-0.912069150002217,1.00873724911394,-1.97383786063641,0.12952677444228,0.529530899478213,0.239797290134641,0.529530899478759,1.02828034148302,-0.356469426327354,NaN,0.74513845855722,-1.04024555915497,0.353635727776933,-0.517065979882553,0.463702423178235,-0.517065979881296,1.26161906101342,-1.86752594428699,-0.571754547043143,-1.21308123734795,-0.372193925497285,NaN,NaN,-0.808673856136296,-0.259760017637485,-0.0482182582799891,-0.960423239829389,-0.493135491905894,0.0180116726400426,-0.760546331242414,-0.412663571220629,-0.337535592215996,-0.615896134352947,-0.615896134352519,0.753574737440213,-0.942974471302526,0.151192900191613,1.0701283955326,-1.005890683507,0.325450783228622,NaN,-1.28470307970578,0.00148561352010668,1.0309608210585,-1.03096082105862,0.0474792637003821
1461.0432,0.327047753761674,-1.27758040358067,-0.829864353389763,-1.28541034188621,-0.924178225738047,-0.92417822574016,0.990006747997919,-1.9598231342954,0.118221320859755,0.528777655026878,0.266965055663929,0.528777655027438,1.03882858733206,-0.34412046013581,NaN,0.758983543162836,-1.05576933413922,0.363186165965312,-0.461755276557852,0.453635165809637,-0.461755276556597,1.24663939038074,-1.85511659493486,-0.574466309989703,-1.24056756766239,-0.414277349723323,NaN,NaN,-0.810805527736804,-0.276247776412476,-0.0726861639601959,-1.00991677472559,-0.534770262386179,0.0192257171170801,-0.768684285158082,-0.415955880031658,-0.32973999597115,-0.628536392467342,-0.628536392466918,0.741155150283658,-0.937779634391814,0.138570462530459,1.07644387929696,-0.994450990201389,0.369955903612124,NaN,-1.32939625844548,0.0187301867983762,1.03703934077077,-1.0370393407709,0.0757403518105285
1461.1456,0.283721982720231,-1.26068974103758,-0.843528726093778,-1.32123040427341,-0.936977337997464,-0.936977337999597,0.97073531337487,-1.94587403102639,0.10640442238176,0.527646045118877,0.293886710282264,0.527646045119452,1.0488970600769,-0.333372054677248,NaN,0.77287431301891,-1.07172061155174,0.372473421518222,-0.405367530495431,0.442778974116542,-0.405367530494178,1.23082596874379,-1.84243797651676,-0.57773903083017,-1.26865960163196,-0.457186749870106,NaN,NaN,-0.813672477728811,-0.293214646519313,-0.0978978160537239,-1.05984762938101,-0.577162209434184,0.0201644812760956,-0.776758588712432,-0.419514749862345,-0.32115167255394,-0.641251219864122,-0.641251219863694,0.728756673146146,-0.932265341736722,0.126290924784584,1.08244689078625,-0.98234702133608,0.415274145450672,NaN,-1.37427704311018,0.0364001271571669,1.04299145438066,-1.04299145438078,0.102930580863103
1461.248,0.240201099723713,-1.24405617042355,-0.857524910443289,-1.35690286926552,-0.950476166211929,-0.950476166214086,0.950935208597013,-1.93202830237314,0.0940722451553607,0.526134743286642,0.320520699677634,0.526134743287243,1.05839721554088,-0.32424111056271,NaN,0.786721957270321,-1.08799736229705,0.381438150958236,-0.348015820801661,0.431113384393605,-0.348015820800408,1.21417641295948,-1.82946986966023,-0.581555389242532,-1.29732264593946,-0.500804283525168,NaN,NaN,-0.817244348613321,-0.310626230193537,-0.123796632841953,-1.11009976583961,-0.620214298168778,0.0208107170073619,-0.784728841600887,-0.423336177270621,-0.311817294347136,-0.654012131721162,-0.654012131720736,0.716412200416843,-0.926482529206346,0.11435131638786,1.08809448316778,-0.969576786863789,0.461298390780298,NaN,-1.4192011034642,0.0544918159724915,1.04882154333767,-1.04882154333778,0.128985085389148
1461.3504,0.196593639548227,-1.22768431620528,-0.87178810126846,-1.39235272268502,-0.964680973854357,-0.96468097385653,0.930621660683662,-1.91832154089163,0.0812244649677377,0.52424438603381,0.34682695885441,0.524244386034435,1.06724302817675,-0.31673673237108,NaN,0.800437205699379,-1.10449491721362,0.390022358217688,-0.289819632693014,0.418622509957469,-0.289819632691764,1.1966911401727,-1.81619127873579,-0.585894545645594,-1.32651976417021,-0.545009102990479,NaN,NaN,-0.821488600029736,-0.328447973233019,-0.150326137139542,-1.16055574176882,-0.663828901790389,0.0211478937534189,-0.792554862744818,-0.427415494305933,-0.301784687521572,-0.666790806479387,-0.666790806478962,0.704155969553149,-0.920482647116744,0.102750078121269,1.09334516033796,-0.956140543975935,0.507919797367555,NaN,-1.46402191246903,0.0730000084200614,1.05453130286561,-1.05453130286573,0.153842689759912
1461.4528,0.153008888155023,-1.21157759422307,-0.88625203840069,-1.42750562760347,-0.979594711019806,-0.979594711021999,0.909812782604829,-1.90478706990817,0.0678642408200807,0.521977419348256,0.372767196328169,0.521977419348901,1.07535121574338,-0.310860316131538,NaN,0.813930599691543,-1.12110632837725,0.398169536532258,-0.230904342102493,0.405295022126578,-0.230904342101247,1.17837348789241,-1.80258059809106,-0.590732184417769,-1.35621179956289,-0.589677975558872,NaN,NaN,-0.826370676353052,-0.346645391370208,-0.177429952416636,-1.211097190228,-0.707908027285193,0.0211601520690918,-0.800196965424987,-0.431747576034555,-0.29110255842847,-0.679559155345712,-0.679559155345288,0.692023490367714,-0.914317453338643,0.0914871638648964,1.09815925329819,-0.942040980229205,0.555028331410418,NaN,-1.5085911130453,0.091918047270189,1.06011961339462,-1.06011961339473,0.177446023500873
1461.5552,0.10955644579599,-1.19573825168203,-0.900849315083444,-1.46228826772555,-0.995217105858444,-0.99521710586065,0.888529487784766,-1.89145582380361,0.0539981852417248,0.51933795647436,0.398305121403324,0.519337956475026,1.08264146360315,-0.306605666801512,NaN,0.827112761493963,-1.13772275110013,0.405824791449172,-0.171400671971688,0.391124107323381,-0.171400671970442,1.15922981576209,-1.78861578264522,-0.596040579426699,-1.38635737915245,-0.634685877508819,NaN,NaN,-0.831854144669741,-0.365184274721114,-0.205051788000884,-1.26160526379908,-0.752353516092816,0.0208322609028332,-0.807616229058571,-0.436327042063589,-0.279820232497744,-0.692289389000701,-0.69228938900028,0.680051472319859,-0.908038830508711,0.080564115903054,1.10249929338343,-0.927283399178775,0.602513285888048,NaN,-1.55275890048142,0.111238058705891,1.06558244497333,-1.06558244497344,0.199741628249836
1461.6576,0.0663458014286583,-1.18016740468214,-0.915511677242726,-1.49662867248901,-1.01154474551934,-1.01154474552156,0.866795405221,-1.87835621524512,0.0396363402890601,0.516331658640986,0.4234066143825,0.516331658641673,1.08903665558591,-0.303959149193486,NaN,0.839894670981301,-1.15423385401948,0.412934953606984,-0.111444127287623,0.376107405684045,-0.111444127286381,1.13926959767812,-1.77427452617041,-0.601788676564827,-1.41691290019928,-0.679906556248197,NaN,NaN,-0.837900800841715,-0.384030866729903,-0.23313541453385,-1.31196103764751,-0.79706721801646,0.020149579782262,-0.81477475609518,-0.44114844420947,-0.267987405984058,-0.704954084956292,-0.704954084955874,0.668277753026312,-0.901698625092565,0.0699841205716359,1.10633037088211,-0.911875899473725,0.650263776837518,NaN,-1.59637441872242,0.130951124733565,1.07091279551757,-1.07091279551768,0.220680062681579
