time,S1-D1,S1-D8,S1-D9,S1-D15,S2-D1,S2-D2,S2-D3,S2-D9,S3-D1,S3-D2,S3-D16,S4-D2,S4-D3,S4-D5,S5-D3,S5-D4,S5-D5,S6-D2,S6-D5,S6-D17,S7-D6,S7-D7,S8-D6,S8-D7,S8-D18,S9-D3,S9-D4,S9-D9,S9-D11,S9-D19,S10-D8,S10-D9,S10-D10,S10-D11,S11-D8,S11-D10,S11-D20,S12-D10,S12-D11,S12-D12,S13-D4,S13-D11,S13-D12,S14-D10,S14-D12,S14-D21,S15-D13,S15-D14,S16-D13,S16-D14,S16-D22
228.4544,1.95621696802177,0.380954871470415,1.7046883394847,-2.3146090154765,1.94676615738229,1.94676615738405,1.7703664394634,1.94289426919864,2.31772354484566,1.06602055813165,0.409490278129331,1.0660205581323,-0.938261571674653,0.701774146714975,NaN,-1.04581204390237,1.84243901473856,0.321163323171372,-3.54177975829958,-1.23168312983366,-3.5417797583002,-1.06635395740729,0.564638020911562,-0.692639203359864,-1.50533443973475,0.989118586543101,NaN,NaN,-0.193343872957358,-1.38779424518882,0.568691133463185,1.76732627612502,1.33019338055356,-1.17272897940741,0.768821224536584,-0.727590099821312,0.0209063174341372,-0.0105519352354658,-0.0105519352359851,0.340147648155354,-0.250277961502696,0.13497837104265,-1.21991079617875,2.32035056443478,1.57156484999207,NaN,0.960304160323212,0.787604202807999,-1.56994441022367,1.56994441022436,-0.603127726004169
228.5568,1.95335753939127,0.369971307429421,1.69687227517864,-2.34952197102775,1.96334068511789,1.96334068511964,1.78106011169703,1.95083723504304,2.33007674550307,1.06499478209371,0.433827017333203,1.06499478209438,-0.926594691069422,0.687690712081029,NaN,-1.05347190457875,1.85533167403839,0.323042995376977,-3.57765531768039,-1.22433206082225,-3.57765531768102,-1.09011580578888,0.563483410621073,-0.71745608956502,-1.50270740799857,0.957504292423466,NaN,NaN,-0.211182535435484,-1.39802788786391,0.550177791214003,1.77274972538947,1.31928248575842,-1.15437116819651,0.751906619315774,-0.719281988537626,0.0587617453704396,-0.00455821906466968,-0.00455821906519076,0.346217905244662,-0.236450004798089,0.167838671018868,-1.21924533503376,2.30759045165624,1.55322268202663,NaN,0.955568375775939,0.76924587227049,-1.56552748555421,1.56552748555489,-0.589147975044194
228.6592,1.94832696202136,0.35822391929643,1.68699009148998,-2.38252557730391,1.97839762078886,1.9783976207906,1.78909731032281,1.95749276725367,2.33965893548205,1.06222261868311,0.458092325806693,1.06222261868378,-0.91405807539768,0.672874375179973,NaN,-1.06028709813406,1.86708634129607,0.32493814796741,-3.61171753078843,-1.21552603675619,-3.61171753078906,-1.11419433358231,0.561789538148165,-0.742961542450964,-1.49867010753418,0.924527685079961,NaN,NaN,-0.229019585896651,-1.40734093374554,0.530762351721833,1.7766662481672,1.3069286303134,-1.134439615578,0.734021782220528,-0.709958659224179,0.0974658277422864,0.00104173764606931,0.00104173764554382,0.35244996882149,-0.222482895332824,0.201192974209274,-1.21711938166441,2.29222532007304,1.53326207847943,NaN,0.949896226927159,0.748829753758808,-1.55999357679738,1.55999357679806,-0.574400692058535
228.7616,1.94111008252892,0.345726371772885,1.67503706807442,-2.41351914783996,1.991928031719,1.99192803172073,1.79444408991845,1.96290129644511,2.34645940182057,1.0576829977704,0.482193918075531,1.05768299777107,-0.900655539381036,0.657361964415151,NaN,-1.06629039619602,1.87775772875212,0.326856471748729,-3.64396531065188,-1.20524541863121,-3.64396531065251,-1.13856347486243,0.559551661856102,-0.769132442588983,-1.49325042363456,0.890242310527533,NaN,NaN,-0.246819114179606,-1.41575087005748,0.510439925997199,1.77908268291665,1.29313171447092,-1.11294636414858,0.715191159854175,-0.699617130671289,0.136933365344794,0.0062370972443442,0.00623709724381388,0.358831891886284,-0.208390466694853,0.234998881409618,-1.21352297955003,2.27430302133161,1.51177181108973,NaN,0.943297001844817,0.726369294247063,-1.55341355698297,1.55341355698366,-0.558922057688823
228.864,1.93169757261595,0.332494407254375,1.66101404238216,-2.4424060871147,2.00392656698904,2.00392656699075,1.79707415924383,1.96710638563227,2.35047516519222,1.05135940631361,0.506039493961981,1.05135940631428,-0.88639226848839,0.641192227332507,NaN,-1.07151663330493,1.88740294916132,0.328805322315542,-3.67440018702704,-1.19347340737016,-3.67440018702767,-1.16319397955857,0.556765683588457,-0.795942011185361,-1.48647864240398,0.854702917982125,NaN,NaN,-0.26454478390392,-1.4232771282394,0.4892083985945,1.78000849734429,1.27789504391506,-1.08990611096348,0.695439519693644,-0.688256964906892,0.17707585304127,0.0110192587946695,0.0110192587941332,0.365351112009771,-0.194185650441663,0.269214496906977,-1.20845053162092,2.25387861160626,1.48884461353925,NaN,0.935782534773784,0.701884089014605,-1.54585948695962,1.5458594869603,-0.54274932264692
228.9664,1.92008614701592,0.318545820402245,1.64492756492305,-2.46909432718808,2.01439141601642,2.01439141601814,1.79696908208892,1.97015447098879,2.3517110345996,1.04324004418423,0.529537189571294,1.0432400441849,-0.871274854534373,0.624405671803736,NaN,-1.07600252629942,1.8960810999959,0.330791587950873,-3.70302605027166,-1.18019629965032,-3.70302605027229,-1.18805338889603,0.553428120796564,-0.823359804285596,-1.47838725137473,0.817965346561177,NaN,NaN,-0.282159863615261,-1.42994090893729,0.467068613660694,1.77945575552264,1.26122545053401,-1.06533632731391,0.674791970794616,-0.675880378023327,0.21780179192018,0.0153818732218576,0.0153818732213147,0.371994514409482,-0.179880567443588,0.303798378719372,-1.20190084331512,2.23101409508859,1.46457672214546,NaN,0.927367203902322,0.675399816244005,-1.53740423841779,1.53740423841847,-0.52592072840328
229.0688,1.90627878557806,0.303900420181923,1.62679005132614,-2.49349677211081,2.02332424768586,2.02332424768757,1.79411846480204,1.97209458691903,2.35017964416608,1.03331797707602,0.552596040434855,1.03331797707669,-0.855311333950275,0.60704438665986,NaN,-1.07978649055372,1.90385284596775,0.332821559594372,-3.72984891385458,-1.16540373657385,-3.72984891385521,-1.21310602654699,0.549536079587267,-0.851351722235528,-1.46901073293284,0.780086414214451,NaN,NaN,-0.299627258250803,-1.43576498781494,0.444024551533646,1.77743907571992,1.24313340141961,-1.03925738009224,0.653273995202368,-0.662492345885642,0.259017017321219,0.0193208476209248,0.0193208476203782,0.378748495671084,-0.165486633889877,0.338709465474483,-1.19387715732774,2.20577815759961,1.43906741486402,NaN,0.918067912975933,0.646948147835379,-1.52812112933005,1.52812112933073,-0.508475433395596
229.1712,1.89028494790754,0.288579975297958,1.60661992017422,-2.51553173333388,2.03073012747135,2.03073012747305,1.78852012988182,1.97297808129413,2.34590147405218,1.02159128239815,0.575126440428972,1.02159128239883,-0.838511232113656,0.589151836526883,NaN,-1.08290846132846,1.91078000126612,0.334900795084237,-3.75487669452336,-1.14908893909431,-3.75487669452399,-1.23831300586451,0.545087219229303,-0.879880041239947,-1.45838534907082,0.741123806132791,NaN,NaN,-0.316909539220442,-1.44077350578808,0.42008350321144,1.77397558460254,1.22363310442494,-1.01169265976584,0.630911489101836,-0.648100710525601,0.300625038834533,0.0228343341104233,0.0228343341098702,0.385599028957207,-0.151014684846056,0.373906976485867,-1.18438716604479,2.17824588379308,1.41241856114933,NaN,0.907904054411363,0.61656663740844,-1.51808358047634,1.51808358047701,-0.490453436468889
229.2736,1.87212076235146,0.272608140656067,1.5844417013456,-2.53512334258249,2.0366174111197,2.03661741112141,1.78018026654567,1.97285832134885,2.33890484814558,1.00806317806249,0.597040586625429,1.00806317806317,-0.820885616848501,0.570772634124732,NaN,-1.08540972817264,1.91692511667166,0.337033973182847,-3.77811900644747,-1.13124892328706,-3.77811900644811,-1.26363225762471,0.540079705853775,-0.908903473040149,-1.446548922415,0.701135963879286,NaN,NaN,-0.333968974093898,-1.44499175648265,0.395256242645288,1.7690848741077,1.20274261348509,-0.982668716610755,0.607730810568538,-0.632716290911439,0.342527388430636,0.0259227009040174,0.0259227009034598,0.392531727658678,-0.136475115525849,0.409350279817125,-1.17344299416257,2.14849845559677,1.38473419113013,NaN,0.896897448367017,0.584298589348086,-1.50736478944649,1.50736478944716,-0.471895490423599
229.376,1.85180917944667,0.256010366018478,1.56028610782826,-2.55220193935258,2.04099761392166,2.04099761392336,1.76911354570618,1.97179038597233,2.32922589620618,0.992742123139933,0.618252913292661,0.992742123140611,-0.802447163754127,0.551952297665811,NaN,-1.08733278769077,1.92235107920344,0.339224737679026,-3.79958696822365,-1.11188469295689,-3.79958696822428,-1.28901858285319,0.534512162779416,-0.938377252262426,-1.43354062129171,0.660181977945046,NaN,NaN,-0.35076755883658,-1.44844598177378,0.369557189296625,1.76278896469142,1.18048393001279,-0.952215402559417,0.583758830576174,-0.616352997468343,0.384623974479922,0.0285884880965097,0.0285884880959507,0.399531903499616,-0.121878039117791,0.444998723796946,-1.16106115355373,2.11662283617693,1.35612008731028,NaN,0.885072260812977,0.550192915669097,-1.49603741443406,1.49603741443472,-0.452843008137484
229.4784,1.82938009373686,0.238813791983774,1.5341900766432,-2.56670443993774,2.04388525791522,2.04388525791692,1.7553431924544,1.96983074114995,2.31690847331186,0.975641883969767,0.638680524668905,0.975641883970448,-0.783210231673477,0.532737002838525,NaN,-1.08872121260828,1.92712072910604,0.341475537565704,-3.81929302028414,-1.09100141036314,-3.81929302028478,-1.31442373076888,0.528383628816064,-0.968253243716022,-1.41940075824051,0.618321485564403,NaN,NaN,-0.367267057230456,-1.45116317821701,0.343004550071009,1.75511227300057,1.15688309130759,-0.920366011951901,0.559022985908741,-0.59902794426194,0.426813438653037,0.0308363528219644,0.0308363528214077,0.4065846198572,-0.107233458424326,0.480811437783192,-1.14726247338166,2.0827114423717,1.32668339845797,NaN,0.872454909914405,0.514303985889983,-1.48417326319245,1.48417326319311,-0.43333797458503
229.5808,1.80487044420584,0.221047139667068,1.50619679004304,-2.57857469939359,2.04529770402614,2.04529770402784,1.7389010156458,1.96703689888328,2.30200403641029,0.956781565567514,0.658243635205456,0.956781565568198,-0.763190940576326,0.51317333789403,NaN,-1.08961952816134,1.93129649466551,0.343787473334107,-3.83725074936138,-1.06860854172427,-3.83725074936202,-1.33979649784836,0.521693531765832,-0.998480060667798,-1.40417061055845,0.57561457524056,NaN,NaN,-0.383429053493103,-1.45317091171973,0.315620429576414,1.74608157870464,1.13197023509017,-0.88715741148484,0.53355133504452,-0.580761548130657,0.46899351420997,0.0326730069179723,0.0326730069174213,0.413674745848193,-0.0925514461948962,0.516747119698976,-1.13207200379832,2.04686180103993,1.29653227142871,NaN,0.859073964605279,0.476691467930618,-1.47184298746202,1.47184298746268,-0.413422876648081
229.6832,1.77832430054001,0.202740596793584,1.47635568393966,-2.58776387475174,2.04525497478136,2.04525497478305,1.71982739636622,1.96346706223871,2.28457148060755,0.936185612410935,0.676866022681567,0.93618561241162,-0.742407243761542,0.493308063014275,NaN,-1.09007308769168,1.93494004370565,0.346160157220035,-3.85347472431595,-1.04471996952886,-3.85347472431659,-1.36508284300137,0.514441675815018,-1.02900318992083,-1.38789226469501,0.532121699127944,NaN,NaN,-0.39921502241248,-1.45449713674029,0.287430902336534,1.73572598874433,1.10577963455121,-0.852630153215452,0.507372620632145,-0.561577606126556,0.511061391121672,0.0341071477392883,0.0341071477387426,0.420787015423069,-0.0778423294149218,0.552763825104238,-1.11551888967276,2.00917618119027,1.26577549424992,NaN,0.844960033870363,0.437420152806181,-1.45911578744295,1.45911578744361,-0.393140650265696
229.7856,1.74979293574606,0.183925697934516,1.44472244280717,-2.59423078610444,2.04377956530596,2.04377956530766,1.6981712381582,1.95917976120937,2.26467693962596,0.913883784766701,0.694475492636989,0.913883784767389,-0.720878993102534,0.473187865635901,NaN,-1.09012794486366,1.93811194895062,0.348591587972679,-3.86798035654744,-1.01935407008324,-3.86798035654808,-1.39022601416552,0.506628236176574,-1.05976512348776,-1.37060847767757,0.487903592163861,NaN,NaN,-0.414586417737323,-1.45517001812585,0.258466050623307,1.7240769015031,1.07834970791625,-0.816828574000962,0.48051634306979,-0.541503351912583,0.55291409694904,0.0351493817550183,0.0351493817544785,0.427906090885411,-0.0631168757064913,0.588818759928174,-1.09763621321241,1.96976119893181,1.23452214779273,NaN,0.830145651308467,0.396559761279723,-1.44605913298838,1.44605913298904,-0.372534636583345
229.888,1.71933487824504,0.164635195581709,1.41135897406292,-2.59794225871527,2.04089623566842,2.04089623567012,1.67398988165985,1.95423348647698,2.24239355571635,0.889911115657549,0.711004341616757,0.889911115658237,-0.698628002864968,0.452859102643991,NaN,-1.08983072330515,1.94087136307115,0.351078035998915,-3.88078379604366,-0.9925337655741,-3.8807837960443,-1.41516668391646,0.498253756262058,-1.09070549765291,-1.35236254719561,0.443021193736103,NaN,NaN,-0.42950477857414,-1.45521775905426,0.228759978571618,1.71116797112525,1.04972301053275,-0.779800889303862,0.453012846768079,-0.520569498321562,0.594448893784268,0.0358121409472732,0.0358121409467433,0.435016629179105,-0.0483864815161782,0.624868074715141,-1.07846080567251,1.92872739941104,1.2028812720529,NaN,0.814665166810823,0.354184742922115,-1.43273850649713,1.43273850649779,-0.351648539914421
229.9904,1.68701593112324,0.14490292292542,1.37633335285768,-2.59887342386699,2.03663178235827,2.03663178235998,1.64734898252875,1.94868632923935,2.21780122163116,0.864307849479034,0.726389799577013,0.86430784947972,-0.675678117822068,0.432367529826368,NaN,-1.08922848398961,1.94327570290946,0.353613938145218,-3.8919018653522,-0.964286559643571,-3.89190186535284,-1.43984309555921,0.489319147029741,-1.12176124114678,-1.33319818945607,0.397535567291497,NaN,NaN,-0.443931855463878,-1.45466844461694,0.198350808587303,1.697035067826,1.01994621179064,-0.741599282232867,0.424893415564391,-0.498810269207509,0.63556367788574,0.0361095939443922,0.0361095939438738,0.442103351261899,-0.033663359806969,0.660866664700709,-1.05803302727698,1.88618882244493,1.17096155865459,NaN,0.798554650732773,0.310374082361034,-1.41921716708696,1.41921716708761,-0.330526383234547
230.0928,1.65290914787377,0.124763655195801,1.33971973254406,-2.59700795901392,2.03101479568952,2.03101479569123,1.61832234911444,1.94259563426338,2.19098629482204,0.837119361423558,0.740574433203817,0.837119361424245,-0.652055286006069,0.411758027609254,NaN,-1.08836858823724,1.94538034841492,0.356191808744469,-3.90135203083484,-0.934644555898759,-3.90135203083548,-1.46419122252547,0.479825688764483,-1.15286673511462,-1.31315943159424,0.351507818302628,NaN,NaN,-0.457829757871881,-1.4535499095991,0.167280654244676,1.68171623276965,0.989070051848471,-0.702279977105104,0.396190370162234,-0.476263414006231,0.67615736375267,0.0360575568707373,0.036057556870233,0.449151113193778,-0.0189607203077368,0.696767985056575,-1.03639651771501,1.84226255991805,1.13887107805484,NaN,0.781851802770024,0.265211117326375,-1.40555593390258,1.40555593390323,-0.30921245860994
230.1952,1.61709476154511,0.104252978582419,1.30159822304575,-2.5923382545201,2.02407541617981,2.02407541618152,1.58699173937698,1.93601767083533,2.16204128547197,0.808396058887408,0.753506497792341,0.808396058888092,-0.62778763066233,0.391074332445348,NaN,-1.08729855366688,1.94723836255129,0.358802174714941,-3.90915240963289,-0.903644454157404,-3.90915240963354,-1.48814494230666,0.469775033265124,-1.18395398750532,-1.29229052552162,0.304999018871581,NaN,NaN,-0.471161121037291,-1.45188963094289,0.13559555717697,1.66525163463055,0.957149272577277,-0.661903281871949,0.366937160026587,-0.452970193588451,0.716130240019973,0.0356734105629406,0.0356734105624484,0.456144973294265,-0.00429293213484235,0.732523889102961,-1.01359792735325,1.79706831414409,1.10671703916866,NaN,0.764595853629723,0.218783359500794,-1.39181299376135,1.391812993762,-0.287751271300758
230.2976,1.57966006998719,0.0834071719308358,1.26205474185955,-2.58486550473506,2.01584510362722,2.01584510362894,1.55344662033074,1.92900732312303,2.13106452174983,0.778193266745637,0.765140233591212,0.778193266746316,-0.602905513202803,0.370358779189924,NaN,-1.08606590312449,1.94890023322771,0.361433535509877,-3.91532180529122,-0.871327523814533,-3.91532180529187,-1.51163622528199,0.459169204132492,-1.21495282381975,-1.27063588560729,0.258070149975199,NaN,NaN,-0.483889287660377,-1.44971464000325,0.103345378596816,1.64768353822121,0.924242521135749,-0.62053358805776,0.337168444007976,-0.428975329280614,0.755384293868172,0.0349760297781249,0.0349760297776484,0.463070249471423,0.0103243398695864,0.768084494333039,-0.989686643371585,1.75072796325382,1.07460556783043,NaN,0.746827452404115,0.171182305504573,-1.37804374481622,1.37804374481688,-0.266187476872392
230.4,1.5406992819484,0.0622631014714076,1.22118084148983,-2.57459973326506,2.00635642971578,2.0063564297175,1.51778389551513,1.92161779950957,2.09815979667776,0.746571096912278,0.775436112618686,0.746571096912952,-0.57744157772665,0.349652057863684,NaN,-1.08471800897836,1.95041363461236,0.364072343271652,-3.91987976477227,-0.837739560437762,-3.91987976477292,-1.53459533830411,0.448010594889906,-1.24579109426258,-1.24824004981759,0.210782067711604,NaN,NaN,-0.495978501335534,-1.44705144917841,0.0705836438792384,1.62905629011402,0.890412227551516,-0.578239323402154,0.306920157465986,-0.404326911486297,0.793823509107607,0.0339857266747413,0.0339857266742767,0.469912565456985,0.0248740294672845,0.80339808149537,-0.964714523518665,1.70336513571404,1.04264148691506,NaN,0.728588535660353,0.122503229083884,-1.36430068279056,1.36430068279121,-0.244565812545337
230.5024,1.50031333137696,0.0408581274992261,1.17907351844025,-2.5615597680259,1.99564290233946,1.99564290234119,1.48010760911447,1.91390036077365,2.06343600373666,0.71359430273733,0.784361047102892,0.713594302737997,-0.551430766159479,0.32899298907017,NaN,-1.08330193462447,1.95182320597125,0.366702999748381,-3.92284665664061,-0.802930833351221,-3.92284665664126,-1.55695105949516,0.436301963991959,-1.27639489435561,-1.22514766163181,0.163195494251023,NaN,NaN,-0.507394108338791,-1.44392598388457,0.0373673447780126,1.6094163198215,0.855724458952773,-0.535092854958561,0.276229567341361,-0.379076264668359,0.831354146517571,0.0327242062073911,0.0327242062069438,0.476657890512435,0.039337594076226,0.83841103422781,-0.938735645031253,1.65510479496281,1.01092808750763,NaN,0.709922170648807,0.0728449461667055,-1.35063332568291,1.35063332568356,-0.222931027999174
230.6048,1.45860966821271,0.0192300217652249,1.13583500952611,-2.54577317517975,1.98373882522176,1.98373882522349,1.44052863578191,1.90590406818967,2.02700676921581,0.679332119883616,0.791888564845802,0.679332119884276,-0.524910295165347,0.308418321496025,NaN,-1.08186427489803,1.95317034641775,0.369307866880238,-3.92424377037574,-0.76695602459351,-3.92424377037638,-1.5786308978754,0.424046421965648,-1.30668879581173,-1.20140346444607,0.115371029826327,NaN,NaN,-0.51810275993369,-1.44036350622277,0.00375670627787218,1.58881215198522,0.820248753291779,-0.491170342474713,0.245135317369283,-0.353277767126826,0.867885012159647,0.0312145273877705,0.031214527387336,0.483292579574424,0.0536949670540895,0.87306782473066,-0.911806066492229,1.60607283206715,0.979566891509224,NaN,0.690872363315352,0.022309543569805,-1.337088168123,1.33708816812365,-0.201327819827382
230.7072,1.415702027175,-0.00258310777956307,1.09157257495492,-2.52727614679627,1.97067918801489,1.97067918801662,1.39916435892756,1.89767555400152,1.98899008467053,0.643858094564021,0.797998944637827,0.643858094564676,-0.49791959465422,0.287962550676587,NaN,-1.08045100172555,1.95449302463742,0.371867283504079,-3.92409342849914,-0.729874147941058,-3.92409342849978,-1.59956131628418,0.411247405750648,-1.33659608948164,-1.17705229611645,0.0673691785561116,NaN,NaN,-0.528072604308906,-1.43638852231145,-0.030185075543716,1.56729442433929,0.784057934584267,-0.446551548023949,0.213677463867398,-0.326988631473157,0.903327715892012,0.0294810638347592,0.0294810638343433,0.489803415801792,0.0679245337603095,0.907311042914196,-0.883983592553591,1.55639566012472,0.94865741229674,NaN,0.671483833092467,-0.0289979325136047,-1.32370865798363,1.32370865798428,-0.179800765466213
230.8096,1.37171016504289,-0.0245428897330697,1.04639825836385,-2.50611332923705,1.95649957770155,1.95649957770328,1.3561383310152,1.88925881774787,1.94950793562194,0.607249896814878,0.802679299737552,0.607249896815526,-0.470500217203892,0.267657756210329,NaN,-1.0791073263119,1.95582560756446,0.374359579144233,-3.92241909764243,-0.691748434685883,-3.92241909764307,-1.61966796544745,0.397908640947449,-1.36603904783157,-1.15213907489636,0.0192503811732621,NaN,NaN,-0.537273460022284,-1.43202467937478,-0.064392121633526,1.54491590724307,0.747227909729866,-0.401319612265255,0.181897500645416,-0.300268657453909,0.93759692304376,0.0275494600107333,0.0275494600103359,0.496177649615381,0.0820031323108461,0.94108146096067,-0.855327535024535,1.50619980613882,0.91829691737367,NaN,0.651801772211022,-0.0809698228190683,-1.3105351889584,1.31053518895904,-0.158394247375703
230.912,1.32675955225879,-0.0466107627775751,1.00042861119415,-2.48233758567705,1.94123610609828,1.94123610610001,1.31157990411229,1.88069505144846,1.90868591801718,0.569589112696707,0.805923604709948,0.569589112697348,-0.4426957303834,0.247533457752829,NaN,-1.07787758451232,1.95719871421044,0.376761082601192,-3.91924548446393,-0.652646183318917,-3.91924548446456,-1.63887594025876,0.38403409838262,-1.39493921376496,-1.12670877525665,-0.028924949484395,NaN,NaN,-0.54567696940604,-1.42729466703056,-0.0987961851914695,1.52173152033487,0.709837443786278,-0.355560804119451,0.149838369186082,-0.273179966576465,0.970610604082091,0.0254465831942019,0.0254465831938211,0.502403028218522,0.0959060826641702,0.974318129608097,-0.825898472853576,1.45561150230871,0.888580191906747,NaN,0.63187160973046,-0.133496224190527,-1.2976051031327,1.29760510313334,-0.137152363130068
231.0144,1.28098101147586,-0.068748050502847,0.953784375449877,-2.45600969709117,1.92492535326441,1.92492535326615,1.26562382285399,1.87202249591716,1.86665283690557,0.53096101001142,0.807732668543216,0.530961010012053,-0.414551598884859,0.227616491551156,NaN,-1.07680513959878,1.95863909539798,0.379046132161152,-3.91459860559409,-0.612638577644094,-3.91459860559472,-1.65711006351026,0.369627952680145,-1.42321771583179,-1.10080639682932,-0.0770963928916839,NaN,NaN,-0.553256734043226,-1.42222013338788,-0.13332699625796,1.49779834169095,0.671967909659703,-0.309364245137048,0.117544450061024,-0.245786722405402,1.00229028376926,0.0232004720354542,0.0232004720350937,0.508467816535859,0.109607244835592,1.00695850900312,-0.795758016290988,1.40475628195043,0.859599302596446,NaN,0.611738790735233,-0.186465370602111,-1.28495270139317,1.2849527013938,-0.116118824320435
231.1168,1.23451030715319,-0.0909160370536201,0.906590128245549,-2.4271980121828,1.90760432625804,1.90760432625978,1.21840978225581,1.86327632909535,1.8235402897462,0.491454277938385,0.808114057908707,0.491454277939009,-0.386115055495882,0.207930906008942,NaN,-1.0759322906135,1.96016953516895,0.38118709681083,-3.90850582978242,-0.571800473709634,-3.90850582978305,-1.67429519510461,0.354694548786931,-1.4507956037714,-1.07447693215117,-0.125203487793535,NaN,NaN,-0.559988433232628,-1.41682161934789,-0.167912636088528,1.47317560742924,0.633703010834006,-0.262821610730866,0.0850615368565748,-0.218154837972171,1.03256128547876,0.0208402811608091,0.0208402811604673,0.514360812964322,0.123079103517254,1.03893863509432,-0.764968577258648,1.35375858445658,0.831443365333699,NaN,0.591448573086463,-0.239764022368705,-1.27260926683422,1.27260926683485,-0.0953368472771862
231.2192,1.18748769453441,-0.11307604541393,0.85897389365213,-2.39597806189585,1.88931042868425,1.889310428686,1.17008195879013,1.85448858332593,1.77948224001736,0.451160744811284,0.807081977285208,0.451160744811899,-0.357434955172454,0.188497873737503,NaN,-1.07530018116854,1.96180877151329,0.383154412142148,-3.90099590142125,-0.530210150781586,-3.90099590142188,-1.69035656356695,0.339238381225713,-1.47759419791222,-1.04776534035916,-0.173185705774227,NaN,NaN,-0.565849926787163,-1.41111851453969,-0.202479939936399,1.44792469931969,0.595128476904953,-0.216026815557617,0.0524367987934393,-0.190351673927942,1.06135296779182,0.0183962201243592,0.0183962201240395,0.520071358166844,0.136292877420668,1.07019331589514,-0.733593143871601,1.30274137106294,0.804198322631928,NaN,0.571045842893334,-0.293277863970275,-1.26060311142535,1.26060311142598,-0.0748490333156506
231.3216,1.14005743255608,-0.135189522840167,0.811066723047281,-2.36243215948111,1.87008143403389,1.87008143403563,1.12078852218433,1.84568808561407,1.73461458475262,0.410175078365341,0.804657119146825,0.410175078365945,-0.328561606621676,0.169335620431673,NaN,-1.07494871355498,1.96357143865861,0.384916627471743,-3.8920989565444,-0.487949024997427,-3.89209895654503,-1.70522011981091,0.323264089508283,-1.50353545003667,-1.02071653325821,-0.22098243655654,NaN,NaN,-0.570821345414561,-1.40512904267444,-0.236954924927988,1.42210911422226,0.556331731193744,-0.169075693099628,0.0197187376823936,-0.162445734273729,1.08859895836518,0.0158994836212146,0.0158994836209186,0.52558933051957,0.149218654384637,1.10065634899168,-0.701695054269949,1.25182575155876,0.777946738812941,NaN,0.550574948966032,-0.346891908447066,-1.24895965268657,1.24895965268719,-0.0546972342465221
231.424,1.09236726327379,-0.157218137871192,0.763002243706207,-2.32664900527284,1.84995545699598,1.84995545699773,1.07068113449787,1.83690041674265,1.68907471967015,0.368594473443122,0.800866497924978,0.368594473443715,-0.299546576954893,0.150459372065259,NaN,-1.07491647673003,1.96546803617543,0.386440459080369,-3.88184653379201,-0.445101328748038,-3.88184653379265,-1.71881291299748,0.306776468329013,-1.52854231649129,-0.993375374848218,-0.268532989582822,NaN,NaN,-0.57488516920449,-1.39887028097014,-0.271263236386541,1.39579440856738,0.517401531866388,-0.122065676210856,-0.0130428586832179,-0.134506365338278,1.11423739375636,0.0133821684743611,0.0133821684740858,0.530905123601734,0.16182555267125,1.13026075352214,-0.669337765548797,1.20113062297015,0.75276762127443,NaN,0.530079550006258,-0.400490907476086,-1.23770151628746,1.23770151628809,-0.0349224013253516
231.5264,1.04456786171106,-0.179123892879166,0.714916176623833,-2.2887233040211,1.82897091886559,1.82897091886734,1.01991444361469,1.82814788807993,1.64300110733304,0.326518331360392,0.795743271626485,0.326518331360975,-0.270442464841348,0.131881320365545,NaN,-1.07524069596892,1.96750493280918,0.387690847403921,-3.87027157541011,-0.401753752264703,-3.87027157541074,-1.73106348347596,0.28978048569272,-1.55253914315091,-0.965786686474029,-0.315776619001953,NaN,NaN,-0.578026291884602,-1.39235820622381,-0.305330602320078,1.36904811117318,0.47842759071966,-0.0750954766636011,-0.0457969708682257,-0.106603458605938,1.13821116991926,0.0108771730816383,0.0108771730813805,0.536009607767964,0.174081905650359,1.15893901527559,-0.636584616862211,1.15077232032145,0.728736269481141,NaN,0.509602461876084,-0.453959772307137,-1.22684865375774,1.22684865375836,-0.015564416769452
231.6288,0.996812257975566,-0.200869256742908,0.66694582265264,-2.24875538939296,1.80716650370785,1.8071665037096,0.968645574958284,1.81944953505523,1.59653285106617,0.284047930351363,0.789326542185662,0.284047930351938,-0.241302640738235,0.113610604097568,NaN,-1.07595721228906,1.96968441447389,0.388631016859019,-3.85740841449782,-0.35799503347355,-3.85740841449846,-1.74190226584315,0.272281301490608,-1.57545206030841,-0.937995245285818,-0.362652582800914,NaN,NaN,-0.580232070346717,-1.3856077529378,-0.339083285084531,1.34193959699395,0.439500173956128,-0.0282647554802338,-0.0784914197824017,-0.0788071551560145,1.16046820111934,0.00841807571015374,0.00841807570991171,0.540894084444481,0.185955463558895,1.1866233484135,-0.603498585108492,1.10086427259081,0.705924143765261,NaN,0.489185492862185,-0.507184011453448,-1.21641846801845,1.21641846801906,0.0033380962737267
231.7312,0.949255228839692,-0.222417319743974,0.619229513719733,-2.20685084333364,1.7845811040984,1.78458110410015,0.917033616352533,1.81082112346005,1.54980926873391,0.241286082271389,0.781661122012286,0.241286082271956,-0.212180961275129,0.0956533009864744,NaN,-1.07710050178663,1.9720047825881,0.389222532243741,-3.84329274849921,-0.313915483627344,-3.84329274849985,-1.75126200084002,0.254284282319858,-1.59720938906688,-0.910045767962342,-0.409100240248149,NaN,NaN,-0.581492357937886,-1.37863287457121,-0.372448524553305,1.31453992063548,0.400709688544535,0.0183262222946377,-0.111072964195831,-0.0511875501285562,1.18096168035256,0.00603898903359461,0.00603898903336765,0.545550241610901,0.197413604150203,1.21324597391148,-0.570142025193908,1.0515166490499,0.684398744252507,NaN,0.468869257885892,-0.560050186597393,-1.20642594553321,1.20642594553382,0.0217479945757784
231.8336,0.902052654116504,-0.243731967080469,0.571906027359828,-2.16312009770078,1.76125376147886,1.7612537614806,0.865239083007784,1.80227516277449,1.50296945301824,0.198336770221488,0.77279726020024,0.198336770222045,-0.183131471364866,0.0780124256193427,NaN,-1.07870374655188,1.9744605038153,0.389425339992725,-3.82796159706187,-0.269606445197808,-3.82796159706251,-1.75907816258288,0.23579501191992,-1.61774206623204,-0.881982876477528,-0.455059177249752,NaN,NaN,-0.581799513232089,-1.37144660619234,-0.405354974924345,1.28692161974588,0.362146257789434,0.0645769513086991,-0.143487426898811,-0.0238143961564142,1.19965033504207,0.00377439145225389,0.00377439145204154,0.549970109669192,0.20842354797259,1.23873940633427,-0.536576384436215,1.00283598059609,0.664223493255914,NaN,0.448692966436338,-0.612446386296324,-1.19688379572765,1.19688379572825,0.0396298755419905
231.936,0.855360835549838,-0.264778064152209,0.525113966298978,-2.11767800909638,1.73722361095581,1.73722361095755,0.813423351041211,1.79382092458253,1.45615180770453,0.155304763936983,0.762790327055695,0.155304763937529,-0.154208106024073,0.0606879339125102,NaN,-1.08079896465832,1.97704241030525,0.389197785511215,-3.81145323704696,-0.225159683856882,-3.8114532370476,-1.76528940848152,0.216819299800811,-1.63698409338094,-0.853851043115473,-0.500469343133388,NaN,NaN,-0.581148373812813,-1.36406112672163,-0.437733139038513,1.25915850174538,0.323899290170232,0.110387070864016,-0.17567985313655,0.00324319479981355,1.21649867490776,0.0016589394309705,0.0016589394307717,0.554146008819804,0.218952581327665,1.2630367396222,-0.502861889299945,0.954924749247076,0.645457613649526,NaN,0.428694190539098,-0.664262715141752,-1.18780259682209,1.18780259682269,0.0569503755313072
232.0384,0.809335783159353,-0.285521647067575,0.478991110247859,-2.07064340580734,1.71252983686904,1.71252983687077,0.761748057889474,1.78546447012465,1.40949356036569,0.11229521424499,0.751700458953348,0.112295214245528,-0.125464399332505,0.0436767395949086,NaN,-1.08341719220124,1.97973794679951,0.388496611292214,-3.79380710753168,-0.180666726243306,-3.79380710753233,-1.76983805024385,0.197363193783453,-1.65487300458157,-0.825694514077185,-0.545271189004911,NaN,NaN,-0.579536193601813,-1.35648781877108,-0.4695157993861,1.23132542021397,0.286057045310158,0.155656771032526,-0.207594703893757,0.0299170494902945,1.23147722837187,-0.000272732228973187,-0.000272732229157836,0.558070483681645,0.228968290312328,1.28607193064171,-0.469057216366652,0.907880953827582,0.628155996330895,NaN,0.408908634392856,-0.715391787272293,-1.17919094337841,1.17919094337901,0.0736784865465712
232.1408,0.764132484024732,-0.305930112141425,0.433673754653629,-2.02213861648163,1.68721163712091,1.68721163712263,0.710374477422914,1.77720869083375,1.36313025961696,0.0694132335201852,0.739592171679247,0.0694132335207116,-0.0969532074999097,0.0269727488778994,NaN,-1.08658869273358,1.98253145381235,0.387276953874946,-3.77506368473434,-0.136218176778007,-3.77506368473499,-1.77267053198562,0.177433004339597,-1.67135033323747,-0.797557216450086,-0.58940580519361,NaN,NaN,-0.576962555843629,-1.34873732813994,-0.50063844136562,1.20349803956762,0.248706199653364,0.200287211970508,-0.23917607786599,0.0561402269517286,1.24456275993118,-0.00198621239843881,-0.0019862123986106,0.561736233528014,0.238438801295513,1.30778008633773,-0.435219169524321,0.86179767593508,0.612369058125414,NaN,0.389369933246079,-0.765729201952963,-1.17105558659056,1.17105558659115,0.08978586085841
232.2432,0.719904173313669,-0.325972398174919,0.389296054869808,-1.97228899685645,1.6613081903405,1.66130819034222,0.6594628818358,1.76905336118417,1.31719526670504,0.0267634727082549,0.726533954672108,0.0267634727087712,-0.0687264540332303,0.0105669177094232,NaN,-1.09034316297562,1.98540447131401,0.385492360910999,-3.75526433501549,-0.091903063178663,-3.75526433501615,-1.77373789556321,0.157035348105302,-1.68636205291605,-0.769482656476545,-0.632815056604113,NaN,NaN,-0.57342928153303,-1.34081962747563,-0.531039664223376,1.17575258473932,0.211931413544044,0.244180942564892,-0.270367948139512,0.0818473021032139,1.25573845924155,-0.00344750752651192,-0.00344750752667214,0.565136052436083,0.247333017147991,1.32809775989228,-0.401402388819591,0.816762679598158,0.598142600120955,NaN,0.370109502253326,-0.815173976970002,-1.16340155931008,1.16340155931067,0.105247074880542
232.3456,0.676801622334447,-0.345619156873015,0.345989389526148,-1.92122247069227,1.63485862229366,1.63485862229537,0.60917190317394,1.76099520185567,1.27181925127361,-0.0155502948647436,0.712597856211553,-0.0155502948642366,-0.0408349017344717,-0.0055526662402577,NaN,-1.09470991279759,1.98833605115355,0.383094842778739,-3.73445115958275,-0.0478082533490936,-3.73445115958341,-1.77299621727977,0.136177214076446,-1.6998589737365,-0.741513816615551,-0.675441714783804,NaN,NaN,-0.568940350046328,-1.33274408679719,-0.560661574900457,1.14816557426552,0.175814902417222,0.287242304868769,-0.301114400722769,0.106974633472556,1.26499409569409,-0.0046232223881705,-0.00462322238832628,0.568262787334812,0.255620840528661,1.3469632543619,-0.367659112523282,0.772858075198568,0.58551767834557,NaN,0.351156441881218,-0.86362892711693,-1.15623228572716,1.15623228572775,0.120039836754188
232.448,0.634972450072489,-0.364842909246355,0.303881749184556,-1.86906909582336,1.60790197077898,1.60790197078068,0.5596579058364,1.75302795314505,1.22712970071618,-0.0574255760480112,0.697859064420256,-0.0574255760475106,-0.0133279506935897,-0.0214006773633332,NaN,-1.09971801338517,1.99130307355209,0.380034961633659,-3.71266684438499,-0.00401796002618101,-3.71266684438566,-1.77040700801607,0.114866050409574,-1.7117970876982,-0.713693056141079,-0.717229587904549,NaN,NaN,-0.563501837453585,-1.32451954980318,-0.589450158494946,1.12081353780172,0.140436017284676,0.329377814586725,-0.331359868121182,0.131460609277843,1.27232613691586,-0.00548073019777212,-0.0054807301979201,0.571109311884816,0.263273381180246,1.36431692537083,-0.334039003432703,0.730160065333039,0.574530495982848,NaN,0.332537492183469,-0.911000991973243,-1.14954968198619,1.14954968198678,0.134145136166529
232.5504,0.594560461552595,-0.383618187929116,0.263097152895746,-1.81596065615042,1.58047714771421,1.5804771477159,0.511074378170604,1.74514245908029,1.18325045007471,-0.0987615429368354,0.682395483535201,-0.0987615429363419,0.0137465405830246,-0.0369944253298654,NaN,-1.10539641784956,1.99428056502077,0.376261951231287,-3.68995452065041,0.0393866785034247,-3.68995452065109,-1.76593757318057,0.0931098652725875,-1.72213786378122,-0.686062014307653,-0.758123652099474,NaN,NaN,-0.557121867178824,-1.31615441032377,-0.617355617998835,1.09377272202219,0.105870841983461,0.370496513035933,-0.361049355675541,0.155245868572343,1.27773783114636,-0.00598833691914625,-0.00598833691928771,0.573668511049049,0.270263147530845,1.38010147501685,-0.300589038047887,0.6887387741496,0.565212321647046,NaN,0.314277022472961,-0.957201526338705,-1.14335425005998,1.14335425006057,0.147547340351595
232.6528,0.555705016806181,-0.401921666882124,0.22375509482388,-1.76203026881484,1.55262289483996,1.55262289484163,0.463571348063393,1.73732676104207,1.14030123604746,-0.139459397337303,0.666287299591409,-0.139459397336815,0.0403424115146254,-0.0523537134343051,NaN,-1.11177405935511,1.99724201452127,0.37172385956471,-3.66635763168609,0.0823279672970954,-3.66635763168677,-1.75956133019432,0.0709173345608476,-1.73084849541631,-0.658661510089565,-0.798070187902199,NaN,NaN,-0.549810566178603,-1.30765668132246,-0.644332676730609,1.06711878952598,0.0721918144343209,0.410510292688371,-0.39012866121873,0.178273499280315,1.28123925127705,-0.0061154404405587,-0.00611544044069136,0.575933276181149,0.276564222737456,1.3942622369354,-0.267353449620475,0.648658149419767,0.557589431830655,NaN,0.296397048198575,-1.00214656147243,-1.13764515898706,1.13764515898764,0.160234238532876
232.7552,0.518540431406818,-0.419732279719141,0.185970021050733,-1.70741199229729,1.52437772928212,1.52437772928378,0.417294823179736,1.72956619821204,1.09839727448504,-0.179422713185047,0.649616530901038,-0.179422713184564,0.0664153310946892,-0.067500685608263,NaN,-1.11887992894396,2.00015968878754,0.366367712692605,-3.64191979786871,0.124731994194829,-3.6419197978694,-1.75125808435144,0.0482979133445162,-1.73790210331518,-0.631531435753046,-0.837016925141946,NaN,NaN,-0.541580026419186,-1.29903405470774,-0.67034084091239,1.04092651204812,0.0394673744660526,0.449334204531253,-0.418544591697315,0.200489219341607,1.28284729755352,-0.00583268081949248,-0.00583268081962094,0.577896514769931,0.282152425416837,1.40674745964143,-0.234373716450958,0.609975923281925,0.551683069972548,NaN,0.278917275263012,-1.04575703342552,-1.13242030757007,1.13242030757065,0.172197035860575
232.8576,0.483195404703854,-0.437031325462015,0.149850834181492,-1.65224042903212,1.49577987751778,1.49577987751943,0.372386250753642,1.72184351221066,1.05764885598644,-0.218557759967873,0.632466569214287,-0.218557759967396,0.0919229020597919,-0.0824596603456143,NaN,-1.12674313228554,2.00300495303686,0.360139705478877,-3.61668467338901,0.166528946377673,-3.61668467338971,-1.74101426705533,0.0252619530932502,-1.74327789630858,-0.604710651769376,-0.874913200206892,NaN,NaN,-0.532444277358112,-1.2902939604991,-0.695344626187258,1.0152694544052,0.00776163355988994,0.486886757563455,-0.446245183447779,0.221841547413437,1.28258565871463,-0.00511207762141803,-0.0051120776215375,0.579551176936187,0.28700545789111,1.41750859625414,-0.201688592074427,0.572743622833224,0.547509414118805,NaN,0.26185517578427,-1.08795896847209,-1.12767636835453,1.1276763683551,0.183430299863192
232.96,0.449792471416315,-0.453802559237287,0.115500423673703,-1.5966503266321,1.46686719775329,1.46686719775493,0.328981989611722,1.71413895525463,1.01816095320949,-0.256773813214336,0.61492172567659,-0.25677381321386,0.116824736356288,-0.0972569477599428,NaN,-1.13539291917561,2.00574860115094,0.352985429093454,-3.59069579241583,0.207653399367738,-3.59069579241653,-1.72882313909444,0.00182082850693677,-1.74696129027067,-0.578236896709675,-0.911710131904622,NaN,NaN,-0.52241927677944,-1.28144363770611,-0.719313754361818,0.990219642300324,-0.0228659416751722,0.523090216664963,-0.473179933612452,0.242281964854208,1.28048473267441,-0.00392715335806421,-0.00392715335817704,0.580890298111529,0.291103044412943,1.42650060378275,-0.169334176366883,0.537006627699221,0.545079550362939,NaN,0.245226098787997,-1.12868361595037,-1.12340881305833,1.1234088130589,0.193931864004632
233.0624,0.418447475274587,-0.470032267299976,0.0830152211897853,-1.54077618762236,1.43767709243024,1.43767709243187,0.287212790231607,1.70643040433289,0.980032837484834,-0.293983457865543,0.597066792966723,-0.293983457865071,0.141082504398051,-0.111920648671392,NaN,-1.14485867300188,2.00836118995543,0.344850144813145,-3.56399640847865,0.248044570863687,-3.56399640847936,-1.71468495891081,-0.0220129241274793,-1.74894398377097,-0.55214672160987,-0.947360822768846,NaN,NaN,-0.511522927082793,-1.27249022280795,-0.74222332284603,0.965847208023723,-0.0523608371938374,0.557870897103331,-0.499300045312054,0.261765065540929,1.27658150564923,-0.00225304610644823,-0.00225304610655213,0.58190705884005,0.294427055871322,1.43368224767477,-0.137344021003191,0.502804269163308,0.544399454367706,NaN,0.229043415077461,-1.16786752259828,-1.11961191685546,1.11961191685602,0.20370269293106
233.1648,0.389269065423092,-0.485709328152133,0.0524847806211196,-1.48475189960462,1.40824641777449,1.40824641777611,0.247203283531449,1.69869348641671,0.943357707491065,-0.330102889097401,0.578986628688574,-0.330102889096932,0.164659967244549,-0.126480436006616,NaN,-1.1551698464217,2.01081336464278,0.335679108752428,-3.53662933554823,0.287646534085916,-3.53662933554895,-1.69860711498785,-0.0462254589590017,-1.74922399087228,-0.526475449308605,-0.981820588099367,NaN,NaN,-0.499775121718171,-1.26344085183011,-0.764053944753481,0.942220013364585,-0.0806737892175167,0.591159449578912,-0.524558679725361,0.280248691537577,1.27091938781438,-6.66172618018073e-05,-6.66172618951748e-05,0.582594863230762,0.29696161422869,1.43901640286996,-0.105749253180724,0.470169955742839,0.545469983798482,NaN,0.213318685702849,-1.20545255179847,-1.11627874219873,1.1162787421993,0.212746715773822
233.2672,0.362358219730492,-0.500825261479463,0.0239913851047543,-1.42871039743882,1.37861140224935,1.37861140225095,0.209071486577988,1.69090172053938,0.908222339342034,-0.365052211327582,0.560765763938421,-0.365052211327115,0.187523008897142,-0.140967316392715,NaN,-1.16635583644136,2.01307616429371,0.325417946181671,-3.50863679751641,0.326408386501051,-3.50863679751713,-1.68060421815427,-0.0708014696357742,-1.74780563137377,-0.501257152512203,-1.01504720867684,NaN,NaN,-0.487197819964226,-1.25430276351529,-0.784791855778063,0.919403254540146,-0.107761066601701,0.622891133193577,-0.548911202281472,0.297694059989054,1.26354800701146,0.00265344156563391,0.00265344156555063,0.582947435089158,0.298693174148412,1.44247034555509,-0.0745786974381052,0.439131305170341,0.548286883557476,NaN,0.198061833442714,-1.24138586469489,-1.11340110910065,1.11340110910121,0.221070635612609
233.3696,0.337807806948237,-0.515374263978491,-0.00239030927559543,-1.37278336352619,1.34880758578112,1.34880758578271,0.172928343693111,1.68302668213496,0.874706775814766,-0.398755728003701,0.542488041230846,-0.398755728003237,0.209639689346639,-0.155413368528487,NaN,-1.17844580049941,2.01512130364525,0.314013070683614,-3.48006028658096,0.364284366845246,-3.4800602865817,-1.66069814315332,-0.095724046412497,-1.74469947524507,-0.476524638436133,-1.04700119803101,NaN,NaN,-0.473815139910892,-1.24508338184083,-0.804428982432372,0.897459058496727,-0.133584729047148,0.653006078952785,-0.572315411971485,0.31406589088292,1.25452296658212,0.00592650447110245,0.00592650447102692,0.582958930979195,0.29961058352031,1.44401603724767,-0.0438589808555815,0.409710269332744,0.55284080698005,NaN,0.183281296305312,-1.27561988957436,-1.11096955897359,1.11096955897414,0.228683719505602
233.472,0.315702204297686,-0.52935322872593,-0.0265935785948648,-1.31710095997189,1.31886978660862,1.3188697866102,0.138877324594685,1.67503819399556,0.842884074626716,-0.431142207810675,0.524236278526323,-0.431142207810214,0.230980330680929,-0.169851459922228,NaN,-1.19146842043936,2.01692142953955,0.301412139509022,-3.45094042904492,0.401233912157558,-3.45094042904567,-1.63891800812158,-0.120974554218413,-1.73992223859072,-0.452309421925096,-1.07764607130539,NaN,NaN,-0.459653454777891,-1.23579035144592,-0.822962964125394,0.876446085606216,-0.158112847857972,0.681449544548626,-0.594731747814442,0.329332540219387,1.2439055732485,0.00976991544210328,0.00976991544203578,0.58262407248767,0.299705122996511,1.44363040507987,-0.0136146177662573,0.381923250343619,0.559117356430044,NaN,0.1689841523508,-1.30811230201028,-1.10897331442663,1.10897331442718,0.235597567777233
233.5744,0.296116978503296,-0.542761745888857,-0.0485598776848171,-1.26179157366314,1.28883209318344,1.288832093185,0.10701408922822,1.66690454582192,0.812820124660916,-0.462145114735408,0.506091943773386,-0.46214511473495,0.251517629680534,-0.184314953324116,NaN,-1.20545162531119,2.01845034728898,0.287564529618316,-3.42131686178637,0.437221653890808,-3.42131686178713,-1.61530009058503,-0.146532542077628,-1.73349663683498,-0.428641672529993,-1.10694860358524,NaN,NaN,-0.44474148128813,-1.22643151318528,-0.840397121371382,0.856419156790255,-0.181319674264052,0.708172152697631,-0.616123470566407,0.343466131804194,1.2317625350646,0.0141989032417022,0.0141989032416388,0.581938298112325,0.298970521387907,1.44129561372309,0.0161319203978381,0.355781213315447,0.567097142735421,NaN,0.155176217769604,-1.33882602041808,-1.10740023423072,1.10740023423127,0.241825862060413
233.6768,0.279118621826687,-0.555602085735726,-0.068239035234839,-1.20698155197048,1.25872786932055,1.2587278693221,0.0774262105208388,1.65859273870752,0.784573521248407,-0.491702799990317,0.48813482359599,-0.491702799989863,0.271226773900253,-0.198837420085869,NaN,-1.22042228638886,2.01968321106588,0.27242181537634,-3.39122812817349,0.472217359631193,-3.39122812817426,-1.58988769104243,-0.172375687783233,-1.72545120898622,-0.405550135985546,-1.13487907105732,NaN,NaN,-0.429110357939705,-1.21701483403654,-0.856740366274947,0.837428919105743,-0.20318574523435,0.733130099492047,-0.636456820104064,0.356442673384284,1.21816562720287,0.0192265033895945,0.0192265033895337,0.580897927247195,0.297402944726344,1.43699931309483,0.0453601397028245,0.331289803828977,0.576755858900678,NaN,0.141862127229824,-1.36772920464487,-1.10623676189835,1.1062367618989,0.247384099204191
233.7792,0.264764327024612,-0.56787916610971,-0.0855894109101461,-1.15279491494179,1.2285897593856,1.22858975938714,0.0501929370500178,1.65006874385309,0.758195480866157,-0.519758665028457,0.470442685559849,-0.519758665028005,0.290085536394629,-0.213452373900449,NaN,-1.23640589613167,2.02059667580371,0.255938233306193,-3.36071160368579,0.506195824754411,-3.36071160368656,-1.56273095941429,-0.198479775220212,-1.71582012665078,-0.383062041319411,-1.16141147136637,NaN,NaN,-0.412793715326282,-1.20754831988764,-0.872007058386753,0.819521557125974,-0.223697925297541,0.756285321990077,-0.655701149283497,0.368242145475105,1.20319133066255,0.0248634809031852,0.0248634809031298,0.579500322598386,0.295000961340493,1.43073484359473,0.0740514520302961,0.308449478181498,0.588064363178502,NaN,0.129045406004979,-1.39479524312961,-1.10546786783949,1.10546786784003,0.252289323817138
233.8816,0.253101790743252,-0.579600505825335,-0.100578023329632,-1.09935304331479,1.19844968648831,1.19844968648983,0.0253849810657432,1.64129776314093,0.733729777754299,-0.546261308522886,0.453090948122815,-0.546261308522438,0.308074335854162,-0.228193029121434,NaN,-1.25342623817292,2.02116901238039,0.2380711276696,-3.32980345757106,0.539136716745416,-3.32980345757185,-1.53388669563532,-0.224818697667256,-1.7046429946452,-0.361203004536609,-1.18652371905166,NaN,NaN,-0.395827738220869,-1.19803993172018,-0.886216815786514,0.802738552151409,-0.242849390618227,0.777605622403575,-0.673829034588506,0.378848559948473,1.18692045561505,0.0311182502032122,0.0311182502031629,0.577744038889038,0.291765488735131,1.42250138881885,0.1021890897692,0.287255650774882,0.600988766343711,NaN,0.116728540621789,-1.4200027218421,-1.10507698936874,1.10507698936928,0.256559869648568
233.984,0.244169043518147,-0.590776164497251,-0.113180650576443,-1.04677435387763,1.16833884361083,1.16833884361234,0.00306432523953179,1.63224448457273,0.711212693897227,-0.571164665029362,0.436152373313964,-0.571164665028913,0.32517626387998,-0.243092080609826,NaN,-1.271505051203,2.02138019107454,0.218781377706741,-3.29853864883112,0.571024381673307,-3.29853864883192,-1.50341812970995,-0.251364478657311,-1.69196464283445,-0.339996937677119,-1.21019781324912,NaN,NaN,-0.378251218109769,-1.18849751162274,-0.89939429478706,0.787116485412087,-0.260639567215878,0.79706475358479,-0.690816363851817,0.388249993065652,1.16943775799654,0.0379967939440804,0.0379967939440397,0.575628952732465,0.287699728099427,1.41230407714509,0.129758004278522,0.26769885621436,0.615490515295151,NaN,0.10491305073497,-1.44333537474596,-1.10504597597139,1.10504597597193,0.260215112828919
234.0864,0.237994310859847,-0.601418668390767,-0.123381899573199,-0.995173980970555,1.13828768095431,1.1382876809558,-0.0167159526970556,1.62287333026447,0.690672980669855,-0.594428135093163,0.419696792962275,-0.594428135092715,0.341377090024975,-0.258181500622365,NaN,-1.29066168936522,2.02121194005156,0.198033809023321,-3.26695094749106,0.601847624889433,-3.26695094749187,-1.47139468095268,-0.278087303732747,-1.67783490436316,-0.319465970305302,-1.23241997668589,NaN,NaN,-0.360105595545298,-1.17892871630882,-0.911568950145249,0.772686877448807,-0.277074036142719,0.814642473215567,-0.706642400627956,0.396438600879941,1.15083155184433,0.0455025864952126,0.0455025864951754,0.573156374026392,0.282809090193266,1.40015403900239,0.156744749285231,0.249764918585645,0.631526463396649,NaN,0.0935995603316855,-1.46478202099476,-1.10535504630638,1.10535504630691,0.263275235335054
234.1888,0.234595915241688,-0.611542921644438,-0.131175236412032,-0.944663481975215,1.10832589162915,1.10832589163062,-0.0339118352159881,1.61314869439654,0.672131832858438,-0.616016700690196,0.403790877170819,-0.616016700689748,0.356665254566715,-0.273492353296447,NaN,-1.31091278550735,2.02064778467156,0.175797586846409,-3.23507297012547,0.631599470332321,-3.23507297012629,-1.4378916912079,-0.304955561832282,-1.66230837415345,-0.299630382761621,-1.25318076347398,NaN,NaN,-0.341434989332378,-1.16934094900876,-0.922774781838697,0.759476059645884,-0.292164412176796,0.830324571770304,-0.721289823289361,0.403410623472656,1.13119331902578,0.0536365294805443,0.0536365294805072,0.570329139177049,0.277101114754608,1.38606842389137,0.18313735459549,0.233435118925664,0.649048922521895,NaN,0.0827878626196718,-1.48433649931877,-1.10598276099594,1.10598276099647,0.26576099791665
234.2912,0.23398223031744,-0.621166103382392,-0.136562969159025,-0.895350572287453,1.07848239299125,1.0784823929927,-0.048488494207826,1.60303516943144,0.655602879278245,-0.635901015240664,0.388497946302192,-0.635901015240217,0.371031852656483,-0.289054634905367,NaN,-1.3322719265886,2.01967307042463,0.152046583344,-3.20293622230345,0.660276895468227,-3.20293622230427,-1.40299012442843,-0.331935900976358,-1.64544414315069,-0.280508539575945,-1.27247513220246,NaN,NaN,-0.322286207497691,-1.15974127618473,-0.933050066783456,0.747505081863263,-0.305928192796462,0.844102874241179,-0.734744737374289,0.409166378939797,1.11061732003052,0.0623969073830996,0.0623969073830661,0.567151685049958,0.27058538503124,1.37007037803655,0.208925200664372,0.218686354139714,0.66800570346589,NaN,0.0724769704546421,-1.50199760846187,-1.10690601306222,1.10690601306275,0.267693525882763
234.3936,0.236151692180014,-0.63030755282749,-0.139556180496918,-0.847338876201004,1.04878529605115,1.04878529605258,-0.0604203822931874,1.59249776535701,0.641092201925615,-0.65405745468013,0.373877811986432,-0.654057454679683,0.384470607810523,-0.304897150994757,NaN,-1.35474934884762,2.01827496974527,0.126759711021124,-3.17057114591714,0.687880537389538,-3.17057114591798,-1.36677622650516,-0.358993306875967,-1.62730550803238,-0.262116809281391,-1.29030248518187,NaN,NaN,-0.302708736357309,-1.15013632066828,-0.942437066440493,0.736789664040173,-0.318388566686608,0.855975210486941,-0.746996662525882,0.41371024096793,1.08920020835256,0.0717793695699419,0.0717793695699133,0.563630104338022,0.263273437427002,1.35218898377327,0.234098906321476,0.205491286553638,0.688340163227251,NaN,0.0626651434322314,-1.51776905317112,-1.10810003524787,1.1081000352484,0.269094112864206
234.496,0.241092862203375,-0.638988644247372,-0.140174615354959,-0.800727668808743,1.01926185601026,1.01926185601166,-0.0696912737867417,1.58150213192264,0.628598398353977,-0.670468120102296,0.35998662262251,-0.670468120101849,0.396977830285331,-0.321047437089399,NaN,-1.37835165442699,2.01644247075963,0.099921218839941,-3.13800717363827,0.714414369156043,-3.13800717363911,-1.32934114443779,-0.386091213975958,-1.60795966195627,-0.244469465827649,-1.30666667932975,NaN,NaN,-0.28275470458378,-1.14053213439997,-0.950981699329666,0.72734019884287,-0.329574170010708,0.865945347650302,-0.758038497350994,0.417050591116485,1.06704064698193,0.0817769400503334,0.0817769400503089,0.559772184639519,0.255178664110265,1.33245916080478,0.258650237323796,0.193818489043819,0.70999127899349,NaN,0.0533498861199078,-1.53165938967135,-1.1095384217409,1.10953842174142,0.269984045303475
234.5984,0.248784530922158,-0.647232651489657,-0.138446531542315,-0.755611588572501,0.989938403808283,0.989938403809665,-0.0762942531567278,1.57001479116096,0.618112692236098,-0.685120793014737,0.346876695772763,-0.685120793014291,0.408552355844701,-0.337531722411145,NaN,-1.40308154559716,2.01416634296,0.0715209512840847,-3.1052727960882,0.739885353943458,-3.10527279608906,-1.29078051046356,-0.413191654732344,-1.58747737598897,-0.227578574998926,-1.32157601245736,NaN,NaN,-0.262478818026613,-1.13093405987341,-0.958733175288865,0.719161810060485,-0.339518785687963,0.874022882415012,-0.767866465719798,0.419199741277163,1.04423892443394,0.0923800513910482,0.0923800513910227,0.55558743092798,0.246316206850018,1.31092152592612,0.282572036325135,0.183632590852329,0.732893757544347,NaN,0.0445279174868676,-1.54368196844343,-1.11119316392028,1.1111931639208,0.270384448708124
234.7008,0.259195854849377,-0.655064600502082,-0.134408518818634,-0.71208031373583,0.960840264682316,0.960840264683673,-0.0802316609399356,1.55800338113187,0.609619084225583,-0.698008852723711,0.334596335306136,-0.698008852723266,0.419195461090549,-0.35437493127993,NaN,-1.42893757206182,2.01143907318331,0.041554570029262,-3.07239564666846,0.764303088645857,-3.07239564666932,-1.2511940003811,-0.440255445018737,-1.56593267911794,-0.211453870642972,-1.33504318351422,NaN,NaN,-0.241938262570955,-1.12134658798287,-0.965743599729207,0.712254467928907,-0.348260991174787,0.880223096509054,-0.776480048483049,0.420173827322756,1.02089657125017,0.10357659893707,0.103576598937045,0.551087067062155,0.236702842959446,1.28762220562303,0.305858171582424,0.174894424982522,0.756978177133872,NaN,0.0361951145800865,-1.55385487558579,-1.11303470382212,1.11303470382264,0.2703161562225
234.8032,0.272286524400283,-0.662511108370487,-0.128105287066785,-0.670218209277146,0.931991669691127,0.93199166969246,-0.0815150101035954,1.54543690782776,0.603094530970675,-0.709131165821126,0.323189642446646,-0.709131165820682,0.428910752857482,-0.371600716266427,NaN,-1.45591389017947,2.00825476852761,0.0100237368311128,-3.03940260340641,0.78767944184269,-3.03940260340729,-1.21068487340495,-0.467242396359104,-1.54340253791049,-0.19610262640919,-1.34708522246971,NaN,NaN,-0.22119257502057,-1.11177321777581,-0.972067562143245,0.706613158845646,-0.355843766607283,0.884566780867631,-0.783881904836092,0.419992676874731,0.997115981103926,0.115352014893733,0.115352014893708,0.54628401073639,0.226356866166847,1.26261259715897,0.328503501886709,0.167561175180312,0.782171154784572,NaN,0.0283464356595606,-1.56220087203081,-1.11503200948656,1.11503200948708,0.2697995969972
234.9056,0.288006967091628,-0.669600208979505,-0.119589420402769,-0.63010396112403,0.903415662448701,0.903415662450007,-0.0801648802833938,1.53228599973236,0.598509143702768,-0.718491953987362,0.312696334802304,-0.718491953986921,0.437704033326736,-0.389231519274327,NaN,-1.48400003685409,2.00460902981946,-0.0230637424954995,-3.00631990198663,0.81002818673576,-3.00631990198751,-1.16935949627532,-0.494111544144282,-1.5199665311691,-0.181529531529598,-1.35772338670557,NaN,NaN,-0.200303481603068,-1.10221632142507,-0.9777617222886,0.702228104861191,-0.362314075612534,0.887080033297711,-0.79007778463352,0.418679655374629,0.973000040930424,0.127689363627315,0.127689363627289,0.54119281919841,0.215297964378384,1.23594907708601,0.35050385351248,0.161586520529059,0.808395529242105,NaN,0.0209758326126544,-1.56874732989638,-1.11715267344637,1.11715267344688,0.268854698663892
235.008,0.306298590855546,-0.676361168185003,-0.108921094962276,-0.591810217723132,0.87513400201992,0.875134002021199,-0.0762107895216097,1.5185231574845,0.595826403435332,-0.726100644077115,0.30315158631466,-0.726100644076677,0.445583149461948,-0.407288656994202,NaN,-1.51318072352256,2.00049880557434,-0.0576938110406044,-2.97317325159685,0.831364636268121,-2.97317325159774,-1.12732685281624,-0.520821384148239,-1.49570651554095,-0.167736580079046,-1.3669830257293,NaN,NaN,-0.179334704374852,-1.0926770154109,-0.982884402808977,0.699085025362466,-0.367722429175638,0.887794034270817,-0.795076428209635,0.416261497420816,0.948651773780573,0.140569456672635,0.14056945667261,0.535829609978183,0.203547093311457,1.20769266236105,0.371856002949781,0.156920776109426,0.835570547226104,NaN,0.0140761666741226,-1.57352616686654,-1.11936303261112,1.11936303261164,0.267500800036086
235.1104,0.327094065794221,-0.682824292963804,-0.0961677639363479,-0.555403253555997,0.847167065681174,0.847167065682426,-0.0696910383153476,1.50412299179246,0.595003394119206,-0.731971703741773,0.294585892812889,-0.731971703741338,0.452557840092368,-0.425792422335506,NaN,-1.54343565647065,1.99592223918763,-0.0938460874117621,-2.93998794477732,0.851705294614401,-2.93998794477822,-1.08469804266064,-0.547330113606611,-1.47070628328925,-0.154722981831878,-1.37489342210778,NaN,NaN,-0.158351740961773,-1.08315503960548,-0.987495191913586,0.697165427509083,-0.372122442156946,0.88674480511782,-0.798889448250791,0.412768131235784,0.924173995643893,0.153970980832989,0.153970980832964,0.530211968180199,0.191126343940107,1.17790863937365,0.392557662028571,0.153511028132378,0.863612045113507,NaN,0.00763914373720405,-1.57657377437856,-1.12162830329063,1.12162830329115,0.265756573506601
235.2128,0.350317636316422,-0.689020737842993,-0.0814038177637315,-0.520942658350922,0.819533756539451,0.819533756540674,-0.0606525210454785,1.48906244605311,0.595991056319408,-0.736124464344654,0.287024957263305,-0.736124464344222,0.45863959167582,-0.444762188274478,NaN,-1.57473938850072,1.99087852049438,-0.131493822655868,-2.90678895479026,0.87106753946094,-2.90678895479116,-1.04158577442991,-0.573595876117055,-1.44505121706721,-0.142485101023766,-1.38148761867169,NaN,NaN,-0.137421626250212,-1.07364864847369,-0.991654557089951,0.696446909821088,-0.375570391208255,0.883972950409332,-0.801531189038214,0.408232501065445,0.899668981668197,0.167870630915355,0.167870630915328,0.5243588520831,0.178058804789845,1.14666618165592,0.412607465986667,0.151301263504616,0.892432626877447,NaN,0.00165528609112496,-1.5779309276933,-1.12391272073646,1.12391272073697,0.263639955043631
235.3152,0.375885456156691,-0.694982310057611,-0.0647102260089826,-0.488481047304702,0.792251417959269,0.792251417960461,-0.0491505033846212,1.47332100245096,0.598734462048905,-0.73858293113102,0.280489584505112,-0.738582931130591,0.463841507312903,-0.464216500983024,NaN,-1.60706120371344,1.98536774852782,-0.170603884023737,-2.87360101599033,0.889469347123385,-2.87360101599125,-0.998103856763059,-0.599577010471381,-1.41882794520312,-0.131016426174169,-1.386802238127,NaN,NaN,-0.116612682800109,-1.06415451844765,-0.995423471891508,0.696903469309049,-0.378124780542821,0.87952338456689,-0.803018560685695,0.402690389057396,0.875238133092229,0.182243242529937,0.182243242529909,0.51829049968322,0.164368424871878,1.11403797018729,0.432004964972371,0.150232496590428,0.921941843274409,NaN,-0.0038860474738401,-1.57764266682888,-1.12617967409153,1.12617967409204,0.261168076353541
235.4176,0.403705942727051,-0.700741274743143,-0.0461741643340407,-0.458063787212509,0.765335755302266,0.765335755303428,-0.0352483674901851,1.45688087053583,0.60317310882072,-0.739375581028138,0.2749955798482,-0.739375581027711,0.46817819127584,-0.484173151932718,NaN,-1.64036503310527,1.97939081037009,-0.211136759262173,-2.84044868294589,0.90692907183266,-2.84044868294682,-0.95436668836807,-0.62523230089905,-1.39212399696073,-0.12030756948325,-1.3908772955352,NaN,NaN,-0.0959942648737508,-1.05466767254649,-0.99886306090963,0.698505808368841,-0.37984592128432,0.873445047291668,-0.803370852366602,0.39618023884028,0.850981640075547,0.197061925585979,0.197061925585951,0.512028328474511,0.150079887258928,1.08009982044477,0.45075061887258,0.150242896424876,0.952046377055725,NaN,-0.00899659212425482,-1.57575814627857,-1.12839183341177,1.12839183341228,0.258357196063162
235.52,0.433680149488174,-0.706330162573634,-0.0258886288080142,-0.429728740259084,0.738800768334272,0.738800768335405,-0.01901732783948,1.43972715745671,0.609241230182258,-0.738535150453813,0.270553655191989,-0.738535150453389,0.47166565494306,-0.504649220061129,NaN,-1.67460939674118,1.9729492830147,-0.253046571437028,-2.80735636890352,0.923465289785065,-2.80735636890445,-0.91048874797792,-0.650521221728161,-1.36502745389003,-0.110346291776282,-1.39375600150322,NaN,NaN,-0.0756365004061699,-1.04518142171223,-1.00203427023514,0.701221636758987,-0.380795532210168,0.865790619682466,-0.802609536153722,0.388742985744359,0.826998143832942,0.212298201073937,0.212298201073907,0.50559481653472,0.135218506106145,1.04493031816511,0.46884579646088,0.151267915898958,0.982650238112771,NaN,-0.0136890675757827,-1.57233045891883,-1.1305112703188,1.13051127031931,0.255222633253679
235.6224,0.465702156830586,-0.711781582270617,-0.00395203841482356,-0.403506035804353,0.712658698309037,0.71265869831014,-0.000536119274005773,1.42184802004255,0.616868121509745,-0.736098414435319,0.267169355168292,-0.7360984144349,0.47432125276876,-0.525661078917641,NaN,-1.70974736935867,1.96604536517175,-0.296281095461974,-2.774348372192,0.939096712126296,-2.77434837219295,-0.86658408492064,-0.675404167642702,-1.33762659196078,-0.101117551941838,-1.39548455412745,NaN,NaN,-0.055610033470177,-1.03568732528967,-1.00499757083025,0.705015962258641,-0.381036370675175,0.856616252610297,-0.800758072398636,0.380421898728551,0.803384405109146,0.227922144078739,0.227922144078709,0.49901335465196,0.119810158466155,1.00861046606252,0.486292778810321,0.153240424849503,1.01365497140719,NaN,-0.0179770429441409,-1.56741644059868,-1.13249957843057,1.13249957843107,0.251778711275242
235.7248,0.499659484672546,-0.717128038708225,0.0195321763463002,-0.379417885504096,0.68691998933517,0.686919989336241,0.0201093457902058,1.40323480033184,0.625978484292261,-0.732105952872502,0.264843019750433,-0.732105952872089,0.476163655786465,-0.547224370387137,NaN,-1.74572656770635,1.95868184053111,-0.340781773317305,-2.74144889721461,0.953842160137165,-2.74144889721557,-0.822765808652332,-0.699842664657106,-1.31000950947643,-0.0926035853907689,-1.39611191992831,NaN,NaN,-0.0359857670082532,-1.02617517774614,-1.00781269914775,0.709851364894435,-0.380631899555148,0.845981310893377,-0.797841719435279,0.371262435921202,0.780234982886079,0.243902536516048,0.24390253651602,0.492308063928969,0.103881255957957,0.971223340904062,0.503094762369068,0.156090853570863,1.04495988021332,NaN,-0.0218747871206074,-1.56107646024891,-1.13431800375691,1.13431800375741,0.248038720811302
235.8272,0.53543353133869,-0.722401756132458,0.0444560025370354,-0.357478457145045,0.661593259352095,0.661593259353134,0.0428263606593843,1.38388214760312,0.636492798285389,-0.726601896219383,0.263569797388435,-0.726601896218975,0.477212868763649,-0.569353948980915,NaN,-1.78248915762615,1.95086206760251,-0.386483729648674,-2.70868206720644,0.967720591498355,-2.7086820672074,-0.779145572360034,-0.723799563888646,-1.28226373724174,-0.0847840176297748,-1.39568960974303,NaN,NaN,-0.0168346046672699,-1.01663302924259,-1.01053843238836,0.715688248235203,-0.379645991624502,0.833948130789244,-0.793887346649756,0.36131211181076,0.757641922607737,0.260207031792468,0.260207031792439,0.485503578931766,0.0874587551108121,0.932853759088281,0.519255853934165,0.159747357931624,1.0764622692212,NaN,-0.0253971113636022,-1.55337420088339,-1.13592759422086,1.13592759422136,0.244014909335869
235.9296,0.572900041927166,-0.727634506920811,0.0707072937915293,-0.337693818264183,0.636685274181519,0.636685274182525,0.0675158600198231,1.36378813086032,0.648327733121853,-0.719633646878851,0.263339717302021,-0.71963364687845,0.477490295210772,-0.592063798164649,NaN,-1.81997187872498,1.94258998851263,-0.433315791410392,-2.67607192705886,0.980751171840834,-2.67607192705983,-0.735833045640462,-0.747239223361468,-1.25447582950889,-0.0776360153559715,-1.39427146265851,NaN,NaN,0.00177280669673595,-1.00704724411697,-1.01323238908668,0.722485056540352,-0.378142670247758,0.820581787185108,-0.788923252695232,0.350620371219465,0.735694453256016,0.27680233031609,0.276802330316059,0.478624802349808,0.0705702010281163,0.893587951489853,0.53478105291682,0.164136015156849,1.10805771388856,NaN,-0.0285592104916978,-1.54437643712446,-1.13728937148225,1.13728937148275,0.239718500000693
236.032,0.61192960598911,-0.732857447913397,0.0981702380901499,-0.320061952187343,0.612200917224288,0.61220091722526,0.0940729128741883,1.34295434468241,0.661396604737218,-0.711251580610955,0.264137822499171,-0.711251580610559,0.477018846909304,-0.615366920441471,NaN,-1.85810608772179,1.93387015036298,-0.481200517744054,-2.64364244272026,0.992953388617006,-2.64364244272124,-0.692935376255816,-0.770127679860044,-1.22673093708163,-0.0711344723203323,-1.39191345136575,NaN,NaN,0.0197663290327163,-0.997402597931945,-1.01595084446884,0.730198447578696,-0.376185883811627,0.8059498659463,-0.782978991657394,0.339238463591805,0.714478697796633,0.293654362528689,0.293654362528656,0.471696642727131,0.0532437941905485,0.853513249368575,0.549676223952078,0.169181049081034,1.13964035912462,NaN,-0.031376510455983,-1.53415280937563,-1.13836452188437,1.13836452188486,0.235159737572068
236.1344,0.652388180127111,-0.738100966264877,0.126725839908466,-0.304572840788309,0.588143150195351,0.58814315019629,0.122387264951449,1.32138600552266,0.675609868845973,-0.70150873675113,0.265944355581879,-0.701508736750739,0.475823082209101,-0.639275207030081,NaN,-1.89681782848064,1.92470773497034,-0.530054251993653,-2.61141750104203,1.00434719507738,-2.61141750104302,-0.65055664882578,-0.792432807222231,-1.19911236805897,-0.0652522224958582,-1.38867351161473,NaN,NaN,0.0370765762696631,-0.987682409837216,-1.01874855428764,0.738783420091544,-0.373839309767254,0.790122235521199,-0.776085207820592,0.327219311082364,0.694077404328259,0.310728475910141,0.310728475910107,0.464743750280498,0.0355084658074048,0.812717781404932,0.563948069328248,0.174805072533993,1.17110324374658,NaN,-0.0338645323200066,-1.52277558649628,-1.13911459776762,1.13911459776811,0.230347953535344
236.2368,0.694137628388787,-0.74339453504549,0.156252411125384,-0.291208606560904,0.564512968059964,0.564512968060868,0.152343912256073,1.2990920260909,0.690875630831794,-0.690460505735771,0.268734982285986,-0.690460505735384,0.473929349408772,-0.663799294437091,NaN,-1.93602794429236,1.91510859426362,-0.579787214745504,-2.57942090473555,1.01495315864186,-2.57942090473655,-0.608797353578418,-0.814124454463808,-1.17170114497461,-0.0599602697363074,-1.38461138545039,NaN,NaN,0.0536351506458074,-0.977868701079635,-1.02167858699346,0.748193402539763,-0.371166184761631,0.773170813227425,-0.768273479128288,0.314617365651099,0.67456970001519,0.327989622998461,0.327989622998424,0.457790265853582,0.0173939473754078,0.771290182394894,0.577604114152939,0.180929330077436,1.20233864591326,NaN,-0.0360387875978447,-1.51031940677195,-1.13950171665675,1.13950171665723,0.225291640326151
236.3392,0.737036273859234,-0.748766577880427,0.18662606596124,-0.279943710389764,0.541309356766399,0.541309356767269,0.183823685646569,1.27608505103143,0.707100148018027,-0.678164320487085,0.272481039054442,-0.6781643204867,0.471365915214505,-0.688948412650257,NaN,-1.97565225101901,1.90507929065022,-0.630303658463791,-2.5476763553406,1.02479258703866,-2.54767635534161,-0.567753876854089,-0.83517455858231,-1.14457556663832,-0.0552280237829927,-1.3797884644817,NaN,NaN,0.0693748774201851,-0.967942368011757,-1.02479216813929,0.758380310084923,-0.368229160167296,0.755169324961405,-0.759576170190305,0.301488453326504,0.656030862235811,0.345402548090267,0.345402548090231,0.450859592855779,-0.00106917387641714,0.729319315722766,0.590652718046403,0.187473927394137,1.233238450834,NaN,-0.0379147186218734,-1.49686099243835,-1.13948874854009,1.13948874854056,0.219998529187595
236.4416,0.780939457546558,-0.754244342674466,0.21772121690669,-0.27074520548197,0.518529259724537,0.518529259725372,0.216703833883088,1.25238144260747,0.724188308957945,-0.664679354812721,0.277149799197677,-0.664679354812338,0.468163069497408,-0.714730227743434,NaN,-2.01560178260377,1.89462714137618,-0.681502096866693,-2.51620742214458,1.03388762153298,-2.51620742214559,-0.527518020412887,-0.855557229679116,-1.11781078019601,-0.0510235382378583,-1.37426762535347,NaN,NaN,0.0842300410450444,-0.957883364353632,-1.02813854062921,0.769294573869802,-0.365090183589779,0.736193057487667,-0.750026293195207,0.287889605800685,0.638532100068962,0.362931969783062,0.362931969783026,0.443974192151629,-0.0198494141882733,0.686894008670742,0.603103122329647,0.194358042044096,1.26369454710647,NaN,-0.039507684994082,-1.48247883881633,-1.1390394890682,1.13903948906867,0.214475673737854
236.544,0.825700102985411,-0.759853785520085,0.249411069865694,-0.263573051669199,0.496167552126139,0.496167552126938,0.250858602565021,1.22800121409612,0.742044086600444,-0.65006622755798,0.282704761762586,-0.650066227557597,0.464353206165884,-0.741150682661237,NaN,-2.05578310666179,1.88376025935334,-0.733275612494298,-2.48503750043451,1.04226130424693,-2.48503750043554,-0.488176555265084,-0.875248806499353,-1.09147836789407,-0.0473137534108911,-1.36811305656545,NaN,NaN,0.0981366196115018,-0.947670898230901,-1.03176484083824,0.780885144874465,-0.361810405202531,0.716318597491796,-0.739657369749585,0.273878877746908,0.622140345035895,0.3805427543499,0.380542754349862,0.437155393824287,-0.0389143651081423,0.644102794056187,0.614965531385022,0.201500120569149,1.29359925713846,NaN,-0.040832986186485,-1.46725288058865,-1.13811881975786,1.13811881975833,0.208729544265089
236.6464,0.871169285997433,-0.765619466355644,0.28156811727947,-0.258380495453287,0.474217018334475,0.474217018335237,0.28615981085352,1.2029679133307,0.760570967967039,-0.634386710386803,0.289105971561251,-0.634386710386418,0.459970881048565,-0.768213841942035,NaN,-2.09609870174831,1.87248757666142,-0.785512244253614,-2.45418976378609,1.04993763197576,-2.45418976378712,-0.449810816524311,-0.894227881041157,-1.06564595419949,-0.044064748887233,-1.36139007909753,NaN,NaN,0.111032508667903,-0.937283652787859,-1.03571598655029,0.793099474880175,-0.358450104606382,0.695623546762129,-0.7285032850778,0.259515144268284,0.606918056371065,0.398200073589748,0.39820007358971,0.430423222915866,-0.0582306798486014,0.60103365036738,0.626251220384381,0.208818071852008,1.32284580419472,NaN,-0.0419059108909628,-1.45126413683129,-1.13669285303338,1.13669285303385,0.2027661336778
236.7488,0.917196809733369,-0.771564457518702,0.314064628743,-0.255114513819562,0.452668329749828,0.452668329750555,0.322477426554604,1.17730845952464,0.779672362180254,-0.617703440301795,0.296310370713446,-0.617703440301408,0.455052844414681,-0.795921747025112,NaN,-2.13644739438435,1.86081883895199,-0.838095462118618,-2.42368710871458,1.05694160546455,-2.42368710871561,-0.412496343963663,-0.912475294763316,-1.04037683973599,-0.0412420038374627,-1.3541649616898,NaN,NaN,0.122857727886219,-0.926700029352707,-1.04003457066625,0.805883480753625,-0.355068630541461,0.674186205809349,-0.716598130374784,0.244857873178993,0.5929230457556,0.415869541977832,0.415869541977797,0.423796241712847,-0.0777640792061878,0.557773736165818,0.636972664108015,0.216229462137748,1.35132881582553,NaN,-0.0427418096473694,-1.4345943369063,-1.13472905791146,1.13472905791191,0.19659107024061
236.8512,0.963631785617942,-0.777710264884872,0.346773139751673,-0.253716307671937,0.431510025904769,0.431510025905459,0.359680137710943,1.15105293642967,0.799251986626749,-0.600079639753866,0.304272166319053,-0.600079639753474,0.449638042836607,-0.824274289035701,NaN,-2.17672486180697,1.84876456566902,-0.890904739399682,-2.39355208004444,1.06329927973577,-2.39355208004548,-0.376302571194804,-0.929974112469032,-1.01572966914005,-0.0388106545191158,-1.34650472544375,NaN,NaN,0.133554615248619,-0.915898399671724,-1.04476075667917,0.81918150485763,-0.351724343899825,0.652085226039367,-0.703976032169851,0.229966872958607,0.580208319959298,0.433517329619461,0.433517329619423,0.417291413908286,-0.0974793818465439,0.51440911940579,0.647143685470031,0.223651709372864,1.37894485788801,NaN,-0.0433561915706868,-1.41732553182294,-1.13219636579402,1.13219636579447,0.190209732606105
236.9536,1.01032321992721,-0.784076759727047,0.379566939321833,-0.25412182596209,0.410728504939371,0.410728504940026,0.397635917094018,1.12423434435942,0.819214229349405,-0.581578845791779,0.312943193298015,-0.581578845791383,0.443767584750174,-0.8532691056008,NaN,-2.21682420526479,1.83633597507786,-0.943816228561439,-2.36380676247038,1.06903781866025,-2.36380676247142,-0.341292567945548,-0.946709579584536,-0.991758141268798,-0.0367357375771124,-1.33847692664346,NaN,NaN,0.143068021885363,-0.904857351979781,-1.0499321766886,0.832936288338281,-0.348474555992117,0.629399234565108,-0.690670965327741,0.214902022736439,0.568821935829746,0.451110248539817,0.451110248539781,0.410923998019432,-0.11734056382876,0.471024505524197,0.65677961901488,0.231002273324359,1.40559298617854,NaN,-0.0437648473184734,-1.3995396982793,-1.12906526086762,1.12906526086807,0.183627368528921
237.056,1.05712060252171,-0.790682118856238,0.412320555046629,-0.256262306432771,0.390308030196388,0.390308030197007,0.436212574510702,1.09688831497233,0.839464485123901,-0.562264649017573,0.32227326092079,-0.562264649017173,0.43748466715257,-0.88290150446507,NaN,-2.25663658671878,1.82354487489226,-0.996703532285685,-2.3344726319962,1.07418555397491,-2.33447263199725,-0.307522840108231,-0.962669067556196,-0.968510769710844,-0.0349824129976844,-1.33014940812617,NaN,NaN,0.15134551746182,-0.893555922250713,-1.05558383446271,0.847088970430256,-0.345375457163308,0.6062064373314,-0.676716547414727,0.199722991610502,0.558806865496856,0.468615811454771,0.468615811454738,0.404707476154691,-0.137310849914182,0.427702969945666,0.665897474460897,0.238198845064975,1.43117529717621,NaN,-0.0439839951854865,-1.38131834440691,-1.12530785886316,1.1253078588636,0.176849219092581
237.1584,1.10387448936442,-0.797542771478945,0.444910229924126,-0.260064825080692,0.37023075957433,0.370230759574913,0.475278291085733,1.06905279861138,0.85990946461172,-0.542200444927394,0.332210482553344,-0.542200444926989,0.430834466140459,-0.913164409702066,NaN,-2.29605190532167,1.81040352257998,-1.04943854114938,-2.30557037347084,1.07877204636377,-2.3055703734719,-0.275043187692357,-0.977842013291129,-0.946030697782038,-0.0335161639734773,-1.32159001875252,NaN,NaN,0.158337605999405,-0.881973806909469,-1.06174801209839,0.861579117443733,-0.342482032799516,0.582584211803265,-0.662145823201459,0.184488953399269,0.550200876230271,0.486002264408352,0.486002264408321,0.39865351725823,-0.157352830187865,0.384525704361965,0.674516075700366,0.24515954687658,1.45559745523944,NaN,-0.0440304341490518,-1.36274212598018,-1.12089797112777,1.12089797112821,0.169880642466426
237.2608,1.15043706823518,-0.804673353538601,0.477214382391801,-0.26545285042729,0.350476802103026,0.350476802103573,0.514702130814727,1.04076773834148,0.880457478810911,-0.521449201898587,0.342701593485903,-0.521449201898177,0.423863998579905,-0.944048322174962,NaN,-2.33495948187346,1.79692446319468,-1.10189229753167,-2.27711967821254,1.08282814373933,-2.2771196782136,-0.243896614748412,-0.99221985916295,-0.924355566461019,-0.0323029710721696,-1.31286631132651,NaN,NaN,0.163997944937078,-0.870091554844072,-1.06845417446111,0.876344775260933,-0.339847965595625,0.558608706230942,-0.646991059698147,0.169258301545286,0.543036433019846,0.503238596719914,0.503238596719887,0.392771967281687,-0.17742858641499,0.341571790471427,0.682656150990436,0.251803153596127,1.47876917407655,NaN,-0.0439216779450102,-1.3438904777075,-1.11581114850064,1.11581114850108,0.16272722710675
237.3632,1.19666270121928,-0.812086672530772,0.509114043082879,-0.272346802833953,0.331024301701002,0.331024301701512,0.554354529320045,1.01207474192469,0.901018703628199,-0.500073248299741,0.353692265692032,-0.500073248299323,0.416621965471897,-0.975541287626062,NaN,-2.37324872651446,1.78312035471114,-1.15393585129391,-2.24913903536784,1.08638602891135,-2.2491390353689,-0.214119281266906,-1.00579599731901,-0.903517427708694,-0.0313094593762849,-1.30404523447644,NaN,NaN,0.168283558914015,-0.857890737981868,-1.07572886616846,0.891322534828888,-0.337525525617908,0.534354460955021,-0.631283571030316,0.15408836797298,0.537340631928161,0.520294533519455,0.52029453351943,0.387070856448364,-0.197499811320559,0.298918013214344,0.690340363133171,0.258049339070836,1.50060464008811,NaN,-0.0436760499595896,-1.32484125934675,-1.11002470767567,1.11002470767611,0.155394890334968
237.4656,1.24240844331757,-0.819793685376846,0.540493266480791,-0.280664622800302,0.311849546771272,0.311849546771745,0.594107766559161,0.983016759411254,0.921505433526559,-0.478134076431012,0.365127431397454,-0.478134076430591,0.409158589588752,-1.00762886875183,NaN,-2.41080977879821,1.76900379254966,-1.20544108637284,-2.22164552482824,1.08947924669575,-2.2216455248293,-0.18574048698377,-1.01856571751282,-0.883542692459581,-0.0305030212743519,-1.29519283076613,NaN,NaN,0.171155039733289,-0.84535410168683,-1.08359559955854,0.906447604204358,-0.335565450323484,0.5098940599614,-0.615053579920544,0.139035150120637,0.533135172024181,0.537140517618601,0.537140517618579,0.381556412898975,-0.217527908676397,0.256638716303204,0.69759328397611,0.263818943653736,1.52102287834395,NaN,-0.0433127354446844,-1.30567041668079,-1.1035177516789,1.10351775167933,0.147889964809144
237.568,1.28753453734627,-0.827803489664563,0.571239517444132,-0.290322350963679,0.2929271057551,0.292927105755536,0.633836433200848,0.953637776125794,0.94183233658393,-0.455692158163799,0.376951623927564,-0.455692158163373,0.40152545745646,-1.04029411852293,NaN,-2.44753411726574,1.75458714460556,-1.25628150630437,-2.19465461018672,1.092142699974,-2.19465461018778,-0.158782680485878,-1.03052615472475,-0.86445210405236,-0.0298519197841149,-1.28637394783977,NaN,NaN,0.172576722922846,-0.83246569705667,-1.09207473239157,0.921653886748168,-0.334016813817571,0.485297814637324,-0.598330113823531,0.124153049398125,0.530436373622908,0.553747688198721,0.553747688198702,0.376233071249578,-0.237474067539108,0.214805692529072,0.704441325100548,0.26903425585492,1.53994806977012,NaN,-0.0428517990451729,-1.28645165980531,-1.09627119604424,1.09627119604467,0.140219273103638
237.6704,1.3319048828584,-0.836123328192228,0.60124403088352,-0.301234714834769,0.274229984852924,0.274229984853324,0.673417895033716,0.923982532297671,0.961916719481391,-0.432806769905928,0.389109332160442,-0.432806769905495,0.39377536621595,-1.07351755464623,NaN,-2.48331513647639,1.73988240223414,-1.30633297219788,-2.16817991943883,1.09441260725082,-2.16817991943988,-0.133261491049426,-1.04167623235888,-0.846260731626395,-0.029325374127372,-1.27765197022279,NaN,NaN,0.172516832545428,-0.819210995821289,-1.10118332906052,0.936874063667989,-0.332926881668865,0.460633478794104,-0.581140937551116,0.109494618943924,0.529255245287397,0.570087862989671,0.570087862989653,0.371103467717863,-0.257299308861924,0.173488098271947,0.710912638488378,0.273619300669966,1.55730983030547,NaN,-0.0423141730085175,-1.26725615629635,-1.08826780745963,1.08826780746006,0.132390183371598
237.7728,1.37538747489588,-0.844758608464393,0.630402140513531,-0.313315709302777,0.255729796917479,0.255729796917842,0.712732748626418,0.894096273633206,0.981678798640413,-0.409535830478335,0.401545351369587,-0.409535830477897,0.385962164732789,-1.10727714073638,NaN,-2.51804868970222,1.7249010453124,-1.35547439270692,-2.14223299989465,1.09632642325522,-2.1422329998957,-0.109185784466805,-1.05201659816268,-0.828977982805157,-0.0288936253519597,-1.26908858350212,NaN,NaN,0.170947589582407,-0.805576987090736,-1.11093499705236,0.952039673144338,-0.332340949166267,0.435965993163963,-0.563512529969204,0.0951103140390305,0.529597590151799,0.586133527204482,0.586133527204464,0.366168422764191,-0.276964508346082,0.132752387315395,0.71703700047371,0.277500125929606,1.57304346021854,NaN,-0.0417216130486628,-1.24815222772318,-1.07949225733824,1.07949225733866,0.124410637710506
237.8752,1.41785480791017,-0.853712938182345,0.658613572547909,-0.326479156261595,0.237396930893933,0.23739693089426,0.751665252630503,0.864024526014795,1.00104196155268,-0.385935758977807,0.414205110649822,-0.385935758977364,0.378140575607837,-1.14154828206142,NaN,-2.55163359500511,1.70965391702787,-1.40358836695656,-2.11682305057415,1.09792273431367,-2.1168230505752,-0.0865577466628706,-1.06154955359582,-0.812607640006087,-0.0285279806299431,-1.26074358025577,NaN,NaN,0.167845282580785,-0.791552254971215,-1.12133969875484,0.96708117805164,-0.332302167197426,0.411357258989843,-0.545470107795462,0.0810482428706075,0.531464132523337,0.601857827887824,0.601857827887805,0.361426923104851,-0.296430406507757,0.092662264923169,0.7228456867245,0.280605078649731,1.58709016381553,NaN,-0.0410966195049312,-1.22920504033082,-1.06993118797347,1.06993118797389,0.116289152802558
237.9776,1.45918424198766,-0.86298817335421,0.685782703850772,-0.340639231425664,0.219200719448906,0.219200719449198,0.790103718720957,0.833812882867081,1.01993299999966,-0.362061358264858,0.427034967546795,-0.362061358264413,0.370365992375853,-1.17630383922828,NaN,-2.58397209845334,1.69415110652073,-1.4505617751803,-2.09195665573779,1.09924114328631,-2.09195665573885,-0.0653729972536152,-1.0702789821742,-0.79714792632857,-0.0282008388006025,-1.25267470807994,NaN,NaN,0.163190303209889,-0.777127035570848,-1.13240355155062,0.981928021159786,-0.332851365900463,0.386865944049608,-0.527037688696362,0.067353926028713,0.534850646968205,0.617234569726617,0.61723456972659,0.356876118170597,-0.315657620821374,0.0532786618836597,0.728371339064146,0.282865065914968,1.59939723252344,NaN,-0.0404623322061911,-1.21047629693934,-1.05957328488821,1.05957328488862,0.108034801273145
238.08,1.49925833070679,-0.872584472044665,0.711818787588529,-0.355710949750741,0.201109609427088,0.201109609427344,0.827940851519347,0.803506798038765,1.03828230318449,-0.337965726707675,0.439982473293016,-0.337965726707228,0.36269425560678,-1.21151415619794,NaN,-2.61497028690669,1.67840184224841,-1.496286306666,-2.06763754542165,1.10032215523123,-2.0676375454227,-0.0456207321047081,-1.07821028341018,-0.782591604589291,-0.0278857032876627,-1.24493755282861,NaN,NaN,0.156967152267098,-0.762293252660605,-1.14412863583324,0.996508673059293,-0.334026887922309,0.362547326723643,-0.508238180091912,0.054070079121639,0.53974808168392,0.632238208259211,0.632238208259179,0.352511338310781,-0.334606669605397,0.0146597242706395,0.733647823756405,0.284213796380414,1.60991818478796,NaN,-0.0398424144281056,-1.19202394899771,-1.0484093473548,1.04840934735521,0.0996571828569039
238.1824,1.53796511049712,-0.882500347871268,0.736636149291508,-0.371610606529918,0.183091341071369,0.18309134107159,0.865074032741201,0.773151382862159,1.05602400623313,-0.313700199721635,0.45299661978789,-0.313700199721185,0.355181416703787,-1.24714709462809,NaN,-2.64453844791732,1.66241440253255,-1.54065891729947,-2.04386639626351,1.10120707057807,-2.04386639626456,-0.0272838939338376,-1.08535031387748,-0.768926109582266,-0.0275571910113451,-1.23758544904882,NaN,NaN,0.149164419308311,-0.747044534652463,-1.15651282896438,1.01075067885535,-0.33586444150909,0.338453181490852,-0.489093481578082,0.0412364296465643,0.546142677807588,0.646843836965433,0.646843836965395,0.348326133119658,-0.353238008496434,-0.0231391851201266,0.738710082721879,0.28458799938124,1.61861286056346,NaN,-0.0392609366693047,-1.17390194422502,-1.03643234759586,1.03643234759628,0.0911663881196653
238.2848,1.57519835232024,-0.892732721004926,0.760154355103376,-0.3882561800851,0.165113140251657,0.165113140251843,0.901405551018007,0.742791207192984,1.07309609518649,-0.28931432159131,0.466028083741123,-0.289314321590859,0.347883500663759,-1.28316806673638,NaN,-2.67259137912032,1.64619604940875,-1.58358221445458,-2.02064067749809,1.10193788597739,-2.02064067749914,-0.0103393704421107,-1.09170733137074,-0.756133710290304,-0.0271910468140631,-1.23066941113151,NaN,NaN,0.139774735549171,-0.731376218230406,-1.16954967745458,1.0245807072651,-0.338396980648358,0.314631705006639,-0.469624591025545,0.0288895735181367,0.554016092312039,0.661027165776949,0.661027165776909,0.344312326528059,-0.371512076949265,-0.0600654748364687,0.743593975652353,0.283927623049211,1.62544746925915,NaN,-0.0387422612697552,-1.15616001663804,-1.02363746868158,1.023637468682,0.0825729537966868
238.3872,1.61085777893484,-0.903276967142822,0.782298354497544,-0.40556770910423,0.147141926155567,0.147141926155718,0.936842785646965,0.712470102272531,1.08944047441947,-0.264855844463887,0.479029485794443,-0.264855844463436,0.340856280848945,-1.31954006301701,NaN,-2.69904865017782,1.62975298890751,-1.62496477007116,-1.99795454530515,1.10255719281658,-1.9979545453062,0.00524178377503863,-1.0972909395765,-0.744191696491888,-0.0267641708247397,-1.22423807920907,NaN,NaN,0.128794702403496,-0.715285343941197,-1.18322831308397,1.03792460501,-0.341654615006106,0.291127479624144,-0.449851704083099,0.0170628744948891,0.563345534739645,0.674764491734828,0.674764491734782,0.340460086464284,-0.389389352722993,-0.0960693025035483,0.74833610406468,0.282176020074745,1.63039458990302,NaN,-0.0383109239983628,-1.13884352291358,-1.01002211494853,1.01002211494895,0.0738878128069019
238.4896,1.64484925396368,-0.914126966217854,0.802998601359836,-0.42346765502499,0.129144533686066,0.129144533686182,0.971298357515024,0.682230962814696,1.10500300638923,-0.240370747141109,0.491955678882692,-0.240370747140657,0.334155077120831,-1.35622367705731,NaN,-2.7238348200174,1.61309035754075,-1.66472136504684,-1.97579878482339,1.10310806114245,-1.97579878482444,0.0194941106513079,-1.10211203828501,-0.733072583982717,-0.0262546601172636,-1.21833767427156,NaN,NaN,0.116224805052537,-0.698770646247733,-1.19753341239624,1.0507074621636,-0.345664546326612,0.267981470126964,-0.429794297467454,0.00578640820019795,0.574103927142328,0.688032667561701,0.688032667561653,0.336758008099729,-0.40683041461076,-0.131103544250665,0.752973608888076,0.279280131968554,1.6334331265418,NaN,-0.0379915116509074,-1.12199332906028,-0.995585897248806,0.995585897249225,0.0651222446596117
238.592,1.67708494987684,-0.925275153284376,0.822191157683685,-0.441881245340385,0.111087945134433,0.111087945134515,1.00469025884765,0.652115548257486,1.11973353338811,-0.215903265848247,0.504764064585477,-0.215903265847793,0.327834579172965,-1.39317713524698,NaN,-2.74687961448751,1.59621223287966,-1.70277317211607,-1.95416079413681,1.10363390821976,-1.95416079413787,0.0324575068444013,-1.10618278839095,-0.722744335185862,-0.0256418574934755,-1.21301195841413,NaN,NaN,0.102069322582482,-0.681832534686762,-1.21244519437047,1.06285369771218,-0.350451022687149,0.245231047566908,-0.409471191233361,-0.00491305254390798,0.58626008967736,0.700809076305931,0.700809076305876,0.333193212536824,-0.423796017684373,-0.165123759928668,0.757543941410714,0.27519067706502,1.63454822657168,NaN,-0.0378085381871765,-1.10564574665793,-0.980330605373674,0.980330605374095,0.0562878245308561
238.6944,1.70748349637497,-0.936712574083317,0.839817779745031,-0.460736779285449,0.0929395238762001,0.0929395238762481,1.03694196162033,0.622164286417863,1.13358588257224,-0.191495934909761,0.517414914859218,-0.191495934909306,0.321948682025347,-1.43035634179546,NaN,-2.76811807527451,1.57912166704186,-1.73904788981472,-1.93302460326121,1.10417836078232,-1.93302460326227,0.0441769764755555,-1.10951659547234,-0.713170597968009,-0.0249063953470512,-1.20830219801832,NaN,NaN,0.0863362387062488,-0.664473059287422,-1.22793945024015,1.07428717320064,-0.356035302093815,0.222910034218918,-0.388900593693376,-0.0150120195813906,0.599778942840293,0.713071616060589,0.71307161606053,0.329751463419526,-0.440247184860305,-0.198088156432106,0.762084614872611,0.269862338224693,1.63373116754661,NaN,-0.0377863164238646,-1.08983250791417,-0.964260182297847,0.964260182298268,0.0473963612049651
238.7968,1.73597010096439,-0.948428946107388,0.85582598000138,-0.479965875659802,0.0746672440980972,0.0746672440981107,1.06798249067784,0.592416085071486,1.14651784504306,-0.167189642029682,0.529871668849667,-0.167189642029226,0.316550312450277,-1.46771494638313,NaN,-2.78749069232292,1.56182074310798,-1.77347984068811,-1.91237092183365,1.10478511647032,-1.91237092183472,0.0547023665165375,-1.11212810675866,-0.704310971148167,-0.024030226496998,-1.20424713072754,NaN,NaN,0.069037146633399,-0.646695859038314,-1.24398760216923,1.08493133444387,-0.362435622993833,0.201048767176702,-0.368100139477847,-0.0244902476720645,0.614621712295058,0.724798692483775,0.724798692483712,0.326417299959639,-0.456145312777933,-0.229957548225062,0.766632949356961,0.26325393835071,1.63097921469282,NaN,-0.0379488118402629,-1.0745807620247,-0.947380705892349,0.94738070589277,0.038459817558606
238.8992,1.76247662999954,-0.960412722339281,0.870169057107584,-0.499503649658779,0.0562399125322288,0.0562399125322074,1.09774644622383,0.562908158422931,1.15849111923413,-0.143023702998387,0.542101186341117,-0.143023702997931,0.311691232199267,-1.50520443350169,NaN,-2.80494352368282,1.54431065388539,-1.80601003842267,-1.89217720895469,1.10549780422604,-1.89217720895575,0.0640880709521918,-1.11403321230219,-0.696121304451814,-0.0229966417126073,-1.20088293855566,NaN,NaN,0.0501871403637041,-0.628506101181032,-1.26055679140278,1.09470937501806,-0.369667185395201,0.179674181773757,-0.34708693076092,-0.0333306742327094,0.630746130425395,0.735969215693319,0.735969215693251,0.32317417990779,-0.471452286102215,-0.260695315763759,0.771225824218464,0.25532859171856,1.62629545372899,NaN,-0.03831946495216,-1.05991308008121,-0.929700375498984,0.929700375499407,0.0294902168467939
239.0016,1.78694164495516,-0.972651152069758,0.882806092861001,-0.519288812957932,0.0376273827111722,0.0376273827111178,1.12617397120251,0.533675875027473,1.16947121772297,-0.119035955712783,0.554073954793908,-0.119035955712325,0.307421820272951,-1.54277422457441,NaN,-2.82042829884874,1.52659180203232,-1.83658622044057,-1.87241775878367,1.10635984692679,-1.87241775878475,0.0723926967916154,-1.1152490419133,-0.688554034150781,-0.0217902767226778,-1.1982432249243,NaN,NaN,0.0298046944678065,-0.609910419913778,-1.27761000010233,1.10354441689868,-0.377742148093457,0.158809918898097,-0.325877585711853,-0.0415193389245271,0.64810663942841,0.746562600880754,0.746562600880681,0.320004622864602,-0.486130593712432,-0.290267366506907,0.775899445734777,0.2460538264775,1.6196886042683,NaN,-0.0389209823052145,-1.04584746964511,-0.911229500035219,0.911229500035643,0.0204995440913978
239.104,1.80931039756492,-0.98513033439007,0.89370192113331,-0.539263699355548,0.0188007669961229,0.0188007669960347,1.15321067064163,0.50475263109615,1.17942734506132,-0.0952628689564106,0.565764251979988,-0.09526286895595,0.303790849142402,-1.58037178238055,NaN,-2.83390250200996,1.50866391858424,-1.86516284442702,-1.85306379871819,1.1074143326549,-1.85306379871926,0.0796786931466225,-1.11579395224151,-0.681558549319021,-0.0203971101249618,-1.19635898864781,NaN,NaN,0.00791154298678163,-0.590916856656916,-1.29510621097841,1.11135970770639,-0.386669645326385,0.138476460696889,-0.304488293086414,-0.0490452777505529,0.666654601169995,0.756558773165572,0.756558773165496,0.31689034332691,-0.500143440409856,-0.318642105112525,0.780689131627927,0.235401678278478,1.61117281637698,NaN,-0.0397751111411828,-1.03239741258589,-0.891980486652759,0.891980486653182,0.011499655383485
239.2064,1.8295347904249,-0.99783526445867,0.902827073831558,-0.55937422787372,-0.000267349930237317,-0.000267349930359978,1.17880749654689,0.476169751255199,1.1883322588398,-0.0717396578370107,0.577150261590928,-0.0717396578365502,0.300845271571506,-1.61794271248437,NaN,-2.84532943231846,1.4905261900635,-1.89170105338593,-1.8340836021162,1.10870389236711,-1.83408360211728,0.086011949453317,-1.11568750285931,-0.67508158177973,-0.0188044532652543,-1.19525859107313,NaN,NaN,-0.0154674349968669,-0.57153480000012,-1.31300060148907,1.11807883414596,-0.396455820678676,0.118691293269083,-0.282934870872087,-0.0559003917957056,0.686338511357597,0.765938176143896,0.765938176143818,0.313812363788923,-0.513454848728479,-0.345790419503269,0.785629118621245,0.223348751883266,1.60076745540124,NaN,-0.0409024190067159,-1.01957194155591,-0.871967834421927,0.871967834422352,0.00250220871850696
239.3088,1.84757330731104,-1.01074987698272,0.910157704901359,-0.579569821321731,-0.0196026985877809,-0.0196026985879361,1.20292061385503,0.44795641863882,1.19616212771541,-0.0485003956849357,0.588214135983081,-0.0485003956844748,0.298630028738179,-1.65543086251316,NaN,-2.85467823404878,1.47217737890901,-1.91616861353947,-1.81544262095775,1.11027057236765,-1.81544262095884,0.0914613705384038,-1.11495042405888,-0.669067613806857,-0.0170009349968887,-1.19496771928802,NaN,NaN,-0.0403043249061469,-0.551774925188658,-1.3312447613503,1.12362594892386,-0.407103871304354,0.0994690878832757,-0.261232828613555,-0.0620792991277612,0.707104211419931,0.774681783530386,0.774681783530305,0.310751102217601,-0.52602974672611,-0.371685685149712,0.790752403985266,0.209876244117272,1.58849688254722,NaN,-0.0423220936828616,-1.00737576107003,-0.851208142008072,0.851208142008496,-0.00648137663503974
239.4112,1.86339091562776,-1.02385709324204,0.915675491007,-0.599803295015202,-0.0392291211554356,-0.0392291211556225,1.22551126155101,0.420139634889043,1.20289639839677,-0.0255781137544242,0.598942005674362,-0.0255781137539634,0.297187884701279,-1.69277842306676,NaN,-2.86192388659382,1.4536159262321,-1.93853982288182,-1.79710364367338,1.11215569699844,-1.79710364367447,0.096098438029749,-1.11360458000081,-0.663459296460735,-0.0149764849898691,-1.19550935125431,NaN,NaN,-0.0665682868454956,-0.531649135937113,-1.34978692363632,1.12792600687395,-0.418614097468932,0.0808218935821029,-0.239397434819982,-0.0675791781289357,0.728895096505497,0.782771115909602,0.782771115909515,0.307686435413413,-0.537834039840145,-0.3963037819323,0.796090626105388,0.194969922998421,1.57439023143116,NaN,-0.044051765970129,-0.995809408379904,-0.829720130759614,0.829720130760038,-0.015439935003216
239.5136,1.87695894416643,-1.03713887717884,0.919367508521964,-0.620030717162567,-0.0591683878007766,-0.0591683878009938,1.24654561866508,0.392744207284483,1.20851767847124,-0.00300488466631876,0.60932394040869,-0.00300488466585927,0.296559287035008,-1.72992603592968,NaN,-2.8670471501081,1.43484003781552,-1.95879538515974,-1.77902698023844,1.1143997320432,-1.77902698023953,0.0999967690709302,-1.11167292998226,-0.658197869365429,-0.0127223164061889,-1.1969037278407,NaN,NaN,-0.0942256690006194,-0.511170510247617,-1.3685722081629,1.13090500696308,-0.430983958156832,0.0627593403833897,-0.217443790709554,-0.0723996038678615,0.751652324954263,0.790188266544012,0.79018826654392,0.304597746991142,-0.54883467009237,-0.419623114885133,0.8016739799806,0.178620061973419,1.55848117240832,NaN,-0.0461073488207042,-0.984869445133928,-0.807524670364956,0.807524670365381,-0.0243625523118583
239.616,1.88825494044168,-1.0505763014198,0.921226089682072,-0.64021122694641,-0.0794400409328642,-0.0794400409331127,1.26599467628895,0.365792757655626,1.21301163370306,0.0191881089945769,0.619353861452279,0.0191881089950367,0.296782242934583,-1.76681291825445,NaN,-2.87003447816255,1.41584776631061,-1.97692225133756,-1.76117067491344,1.11704215785291,-1.76117067491454,0.103231678084568,-1.10917948915034,-0.65322357702422,-0.0102309042288589,-1.19916833116683,NaN,NaN,-0.123240122752651,-0.490353246511696,-1.38754288092808,1.13249024344834,-0.444208133853777,0.0452888523288615,-0.195386906643864,-0.0765423759835759,0.775315033227861,0.796915937516927,0.79691593751683,0.301463973421844,-0.558999673323944,-0.44162463480486,0.807531158303166,0.160821333461847,1.54080765606221,NaN,-0.04850288429743,-0.974548672460965,-0.784644789665354,0.78464478966578,-0.0332385606550707
239.7184,1.89726251154057,-1.06414961593019,0.921248664666954,-0.660306787615361,-0.100061265689897,-0.100061265690176,1.28383410808294,0.339305749814281,1.21636689211315,0.0409705171872143,0.62902939382254,0.0409705171876752,0.297892189551332,-1.80337701237503,NaN,-2.87087792250562,1.39663710675487,-1.99291344210863,-1.74349074933661,1.12012134068134,-1.7434907493377,0.105879736062918,-1.10614928691459,-0.648476086063862,-0.0074959528852806,-1.20231785829517,NaN,NaN,-0.153572712287517,-0.46921260099407,-1.40663863215731,1.1326105805037,-0.458278591022645,0.0284158633634033,-0.173241770431894,-0.0800113385069307,0.799820552435616,0.802937483613041,0.802937483612942,0.298263660257283,-0.568298248408513,-0.462291862285929,0.813689307478174,0.141572669242584,1.52141163023544,NaN,-0.0512503961525926,-0.964836367891194,-0.76110566044786,0.761105660448288,-0.0420575453499241
239.8208,1.90397115156522,-1.07783830720305,0.919437598165066,-0.680281855340453,-0.121046778205587,-0.121046778205896,1.30004413092964,0.313301537195726,1.2185749486294,0.0623127751180604,0.638351644380394,0.0623127751185212,0.299921839365705,-1.83955516713002,NaN,-2.86957505148158,1.37720611392951,-2.0067678679561,-1.72594147934983,1.12367437818143,-1.72594147935093,0.108018315599289,-1.10260831690838,-0.643894911125586,-0.00451234843987296,-1.20636417357106,NaN,NaN,-0.185182006067721,-0.447764808912528,-1.4257968729893,1.13119676937747,-0.473184638492119,0.0121440268150373,-0.151023396325129,-0.0828121941077337,0.825104619456707,0.808236961866792,0.808236961866693,0.294975030716224,-0.576700846345633,-0.481610924801501,0.820173991873392,0.120877093304599,1.50033872838466,NaN,-0.0543597587810485,-0.955718547996634,-0.736934548779448,0.736934548779878,-0.0508093752054355
239.9232,1.90837605932145,-1.09162114009846,0.91580002726844,-0.700102960283037,-0.142408726042447,-0.142408726042784,1.31460935277367,0.287796432872746,1.21963006877996,0.0831860674971915,0.647324905231417,0.0831860674976508,0.302900995493608,-1.87528335072127,NaN,-2.86612888561084,1.35755303633654,-2.01849015463352,-1.7084757040037,1.12773690790017,-1.7084757040048,0.109725114718213,-1.09858347036244,-0.639419850864759,-0.00127609734800732,-1.21131622872635,NaN,NaN,-0.218024139738481,-0.426026990198158,-1.44495305227314,1.12818181897927,-0.488912971238937,-0.00352458564842048,-0.128746850247874,-0.0849523142196547,0.851101580826465,0.812799187524865,0.812799187524763,0.291576057836577,-0.584179277523675,-0.499570618245664,0.827009164172055,0.0987415309527379,1.47763793161112,NaN,-0.0578385963962022,-0.947178259359415,-0.712160735737925,0.712160735738357,-0.0594842555839111
240.0256,1.91047795170266,-1.1054761819383,0.910347705105309,-0.719738213014493,-0.164156599703335,-0.164156599703701,1.32751860953631,0.262804799896487,1.21952919211419,0.103562304836111,0.655956297695723,0.103562304836568,0.306856345356549,-1.91049689087625,NaN,-2.86054784006972,1.33767645593104,-2.02809047155158,-1.69104516193068,1.13234288699422,-1.69104516193179,0.111077661622214,-1.09410244676947,-0.634991427736894,0.00221574035053143,-1.21717994835692,NaN,NaN,-0.252052846999957,-0.404017048229759,-1.46404099808619,1.1235014192235,-0.505447705321525,-0.018589294162177,-0.106427251479483,-0.0864405437068643,0.877744592645875,0.81660979781433,0.816609797814227,0.288044529333281,-0.59070683164192,-0.516162501375277,0.83421714006436,0.0751765976262837,1.45336120679507,NaN,-0.061692212440693,-0.939195897245758,-0.686815413943424,0.686815413943856,-0.0680727951050732
240.128,1.91028287857513,-1.11938081229371,0.903096852937628,-0.739156755729111,-0.186297154399226,-0.186297154399621,1.33876479748814,0.238339158692538,1.2182718392463,0.123414113708626,0.664255371718556,0.123414113709083,0.311811247511463,-1.94513073619361,NaN,-2.85284566271718,1.31757542537969,-2.03558435731498,-1.67360085326213,1.13752435587577,-1.67360085326325,0.112152807669388,-1.08919363938751,-0.630551322498662,0.00596511767931113,-1.22395808203365,NaN,NaN,-0.287219458526212,-0.381753567179905,-1.48299328634753,1.11709441048975,-0.522770409138535,-0.0330506274514592,-0.0840797517012082,-0.0872869981089567,0.904965819011855,0.819655324247659,0.819655324247555,0.28435810069778,-0.596258407115214,-0.531381025102855,0.841818576069871,0.0501963667289081,1.42756311782821,NaN,-0.0659235362708811,-0.931749553420479,-0.660931564943471,0.660931564943901,-0.0765660741844863
240.2304,1.90780204217055,-1.13331172495658,0.894068019729289,-0.758328179854442,-0.208834343265424,-0.208834343265847,1.34834471148364,0.21441030970876,1.21586003040204,0.142714845511428,0.672233667507936,0.142714845511885,0.317785527811606,-1.9791197326593,NaN,-2.8430413597972,1.29724959611178,-2.04099253922583,-1.65609342637101,1.1433111971264,-1.65609342637213,0.113026218317772,-1.08388599838934,-0.626042795496282,0.00997306752090233,-1.23165003075,NaN,NaN,-0.323472872252355,-0.359255708032482,-1.50174163129948,1.10890328594817,-0.540860133961994,-0.0469101452293329,-0.0617194946986346,-0.0875028544735292,0.932696628672268,0.821923273321695,0.82192327332159,0.280494339316305,-0.600810649036389,-0.545223690597631,0.849832452637481,0.0238181136227854,1.40030040905898,NaN,-0.070533076013308,-0.924815395514115,-0.634543822503535,0.634543822503964,-0.0849557027115481
240.3328,1.90305161979665,-1.14724493262799,0.883285942888384,-0.777221936973387,-0.231769268676793,-0.231769268677246,1.3562588977713,0.191027467117226,1.21229822090169,0.161438605591254,0.679904247246982,0.161438605591712,0.324795298104398,-2.01239890962968,NaN,-2.83115910406086,1.2766993302668,-2.04434074651182,-1.63847358398971,1.14973090482891,-1.63847358399084,0.113771873843239,-1.07820888046961,-0.621411088820908,0.0142397723262073,-1.24025166702956,NaN,NaN,-0.360759505304134,-0.336543103004903,-1.52021728690127,1.09887470229194,-0.559693448220693,-0.0601702652336227,-0.0393615653529785,-0.0871001402233085,0.960867788648516,0.823402213360198,0.823402213360092,0.276430764414251,-0.604342092585131,-0.557691223220652,0.858276065839388,-0.00393795834454154,1.37163157520071,NaN,-0.0755188767497241,-0.918368072975255,-0.607688331836403,0.60768833183683,-0.0932338541579321
240.4352,1.89605258633143,-1.16115578430848,0.870779402356448,-0.795806770266321,-0.255100159991856,-0.255100159992337,1.36251152204774,0.168198394960111,1.20759325039788,0.179560298463633,0.687281211282339,0.179560298464095,0.332852802117081,-2.04490376858522,NaN,-2.81722812369923,1.25592579376971,-2.04565951772165,-1.62069249986305,1.15680838098763,-1.62069249986419,0.114461589946875,-1.07219189449961,-0.616603805651973,0.0187646382642876,-1.24975517228033,NaN,NaN,-0.399023242559853,-0.313635750702931,-1.53835144807921,1.08695996972321,-0.579244482351878,-0.0728340930703632,-0.0170209388661053,-0.0860915250740773,0.989409653864252,0.824081862900505,0.824081862900403,0.272144885516679,-0.606833304999307,-0.56878774647325,0.867165025831837,-0.0330489903545222,1.34161644432028,NaN,-0.0808764879822383,-0.912381134452813,-0.580402617071849,0.580402617072272,-0.101393270857002
240.5376,1.88683053351338,-1.17501899931928,0.85658106373171,-0.814050184038791,-0.278822382433714,-0.278822382434224,1.36711024563119,0.145929537369688,1.20175429630167,0.197055681410278,0.694379215274261,0.19705568141074,0.341966283701319,-2.076570568117,NaN,-2.80128257281464,1.23493103383432,-2.04498400047963,-1.60270223634456,1.1645657699354,-1.60270223634571,0.115164562834565,-1.06586474787705,-0.61157126532866,0.0235463720432976,-1.26014890637326,NaN,NaN,-0.438205394424079,-0.29055391652744,-1.55607564472909,1.07311550152282,-0.599484989083663,-0.0849052545153316,0.00528756356360759,-0.0844901195691696,1.01825235250065,0.823953175439544,0.823953175439443,0.267614240389376,-0.608267019572805,-0.57852094351576,0.876513252878394,-0.0634897143727188,1.31031579685918,NaN,-0.0865989393552846,-0.906827437051338,-0.552725464022633,0.552725464023052,-0.109427247771806
240.64,1.87541548577757,-1.18880871690066,0.84072731077168,-0.831917958799263,-0.302928477645735,-0.302928477646273,1.37006610084672,0.124226138261939,1.19479282198199,0.213901419021244,0.701213003350076,0.213901419021707,0.352139869964711,-2.10733660100554,NaN,-2.78336138223935,1.21371804626049,-2.04235373810438,-1.58445615016865,1.17302233247187,-1.58445615016981,0.115946940875999,-1.05925709449547,-0.606266832650225,0.0285830553910152,-1.27141731227318,NaN,NaN,-0.478244670027151,-0.267318043609228,-1.57332212715992,1.05730321800752,-0.620384420851795,-0.0963877329661791,0.027549313301274,-0.0823092825821241,1.04732596748112,0.823008417478832,0.823008417478737,0.262816433434411,-0.608628258353557,-0.586902199140405,0.886332959750837,-0.0952326550291569,1.2777910302907,NaN,-0.0926767167771667,-0.901679528951172,-0.524696817506126,0.524696817506541,-0.117329607773607
240.7424,1.86184171579343,-1.20249856021493,0.82325807030971,-0.849373717614728,-0.327408233530663,-0.32740823353123,1.37139336114045,0.103092347993589,1.18672251491595,0.23007513341336,0.707796970605153,0.230075133413824,0.363373467079744,-2.13714046057434,NaN,-2.76350808712852,1.19229083477734,-2.03781243747846,-1.56590927239104,1.18219435330121,-1.56590927239221,0.116871427318897,-1.05239838465484,-0.600647217098884,0.0338722121797479,-1.2835408520013,NaN,NaN,-0.519077168202429,-0.243948677571591,-1.59002424538375,1.03949090675581,-0.641910025162424,-0.10728571628025,0.0497499104883726,-0.0795624400105217,1.07656071456782,0.821241240428567,0.821241240428475,0.257729176661916,-0.607904442213209,-0.593946716546494,0.896634613806305,-0.128248280329383,1.24410386899274,NaN,-0.0990977306079769,-0.896909989843746,-0.496357690200307,0.496357690200718,-0.125094677765165
240.8448,1.84614756374685,-1.21606171610083,0.804216632018928,-0.866378554141351,-0.352248778992654,-0.352248778993249,1.37110940822973,0.0825313154224013,1.17755921603362,0.245555448117567,0.714144763872279,0.245555448118034,0.375662674077549,-2.1659222934941,NaN,-2.7417706282889,1.1706544583956,-2.03140771806845,-1.54701865579996,1.19209507062403,-1.54701865580113,0.117996919995193,-1.0453177179472,-0.594672736688071,0.0394108653582029,-1.296495970364,NaN,NaN,-0.560636388680997,-0.220466405195531,-1.60611682190669,1.0196525402945,-0.664026957032432,-0.117603458209721,0.0718752203367859,-0.0762629185186055,1.10588711645751,0.818646747709593,0.818646747709505,0.252330337500442,-0.606085489469481,-0.599673603972044,0.907426877616484,-0.162505101440607,1.20931611715976,NaN,-0.10584727453078,-0.892491720125923,-0.46775008515151,0.467750085151916,-0.132717267884387
240.9472,1.82837526160923,-1.22947103429765,0.783649462083874,-0.882890735726173,-0.377434699311206,-0.377434699311828,1.369234603017,0.0625452661338622,1.16732084619071,0.260322026449019,0.720268921563051,0.260322026449489,0.388998724377706,-2.19362403834824,NaN,-2.71820112554808,1.14881505923149,-2.0231908461893,-1.5277436907642,1.20273461661814,-1.52774369076539,0.119378192690394,-1.03804370354946,-0.58830754473981,0.0451955821488529,-1.31025508679308,NaN,NaN,-0.602853265213909,-0.196891805235259,-1.62153651176629,0.997768550488248,-0.686698404267986,-0.127345161202855,0.0939114107529379,-0.07242380054187,1.13523616968395,0.815221554578676,0.81522155457859,0.246598000568333,-0.603163908991755,-0.604105929503904,0.918716528743509,-0.197969722640627,1.17348945405405,NaN,-0.112907981414408,-0.888398179176824,-0.438916938902975,0.438916938903377,-0.140192648242825
241.0496,1.80857076091153,-1.24269915158954,0.761606006852734,-0.89886548960397,-0.402948172511658,-0.402948172512309,1.3657921676489,0.0431355692217152,1.15602733695256,0.274355606715297,0.726180545789226,0.274355606715767,0.403368463775548,-2.22018965404287,NaN,-2.69285562085909,1.12677986639618,-2.01321645549191,-1.50804638715783,1.2141199657582,-1.50804638715902,0.121065622074093,-1.03060433622716,-0.581519821321356,0.0512225071339195,-1.32478662067582,NaN,NaN,-0.645656221309122,-0.173245409290485,-1.63622214213596,0.973826057740598,-0.709885720871341,-0.136514886983488,0.115844991169135,-0.0680578072641576,1.16453949897635,0.810963835263665,0.81096383526358,0.240510551322024,-0.599134895535041,-0.607270744122152,0.930508359990212,-0.234606843544984,1.13668527050912,NaN,-0.120259782803645,-0.884603578535865,-0.409902088290346,0.409902088290743,-0.147516511915817
241.152,1.78678356267503,-1.25571864629631,0.738138482658344,-0.914254868127437,-0.428769135027312,-0.428769135027991,1.3608080843349,0.024302793621659,1.14370057079807,0.287638038529649,0.731888996580885,0.287638038530122,0.418754367122583,-2.24556534649729,NaN,-2.66579378889841,1.10455717613052,-2.0015422511199,-1.48789161306524,1.22625490322556,-1.48789161306644,0.123104963430249,-1.02302689506849,-0.574281930860611,0.0574873848186196,-1.3400550585676,NaN,NaN,-0.688971252150832,-0.149547671996672,-1.65011502677455,0.947819052728702,-0.733548566253117,-0.145116497568992,0.137662849017606,-0.0631772145702036,1.19372949519041,0.805873354733616,0.80587335473353,0.234046784334216,-0.593996429859915,-0.609199072771892,0.942805067963012,-0.272379222171793,1.09896454624634,NaN,-0.127879875005146,-0.881083035737896,-0.380750253037272,0.380750253037667,-0.154684913596601
241.2544,1.76306654838474,-1.26850222394507,0.713301650521937,-0.929007680075768,-0.454875486591776,-0.454875486592482,1.35431101137726,0.00604675288606668,1.13036433063717,0.300152325645441,0.737401599629421,0.300152325645911,0.435134587440297,-2.26969980212117,NaN,-2.63707861792974,1.08215630875527,-1.98822870007152,-1.46724728630411,1.23914003320479,-1.46724728630532,0.125537174625834,-1.01533786737063,-0.566570548162384,0.0639855738683495,-1.35602106835134,NaN,NaN,-0.732722037575693,-0.125818952446012,-1.66315925304531,0.919748530784025,-0.757645048508194,-0.153153624345966,0.159352276594453,-0.0577938040911693,1.22273943746188,0.799951486919765,0.79995148691968,0.227186030264292,-0.587749379337482,-0.609925875931652,0.955607146633342,-0.311247614167506,1.06038777147789,NaN,-0.135742697048898,-0.877812695176009,-0.351507018661052,0.351507018661443,-0.161694179311101
241.3568,1.73747580950923,-1.28102292693261,0.68715257748411,-0.943069474409269,-0.481243334231918,-0.481243334232649,1.34633220962536,-0.0116334625054868,1.11604425259716,0.311882677927586,0.742723363753392,0.311882677928053,0.452483026288918,-2.29254443136279,NaN,-2.60677606914913,1.05958754075857,-1.9733387179255,-1.44608452764473,1.25277283835556,-1.44608452764595,0.128398282373953,-1.00756289709919,-0.558366758440402,0.0707120538631199,-1.37264165636757,NaN,NaN,-0.776830085503943,-0.102079509157644,-1.6753019412561,0.889622583500426,-0.782131869214257,-0.160629659681293,0.180900981849318,-0.0519188477128867,1.25150360325912,0.793201221398382,0.793201221398296,0.219908290904645,-0.580397592584517,-0.609489988149233,0.968912802617665,-0.351170702612855,1.02101491769963,NaN,-0.143819931971745,-0.87476982458241,-0.322218807223323,0.322218807223712,-0.168540789067563
241.4592,1.71007047358915,-1.29325435626125,0.659750389121727,-0.956382566095247,-0.507847263605536,-0.507847263606289,1.33690547009297,-0.0287394643149168,1.10076777479355,0.322814570016708,0.747856709151683,0.32281457001717,0.470769415656132,-2.3140536193687,NaN,-2.57495472141872,1.0368620104202,-1.95693736062083,-1.42437778527522,1.2671477882315,-1.42437778527645,0.131719283096444,-0.999726753908269,-0.54965613640563,0.0776614239632915,-1.38987035640114,NaN,NaN,-0.821214899698246,-0.0783495081688082,-1.6864934795348,0.85745645459368,-0.806964468517723,-0.167547765878386,0.202297082497504,-0.0455631205588688,1.27995736858886,0.785627158338262,0.785627158338181,0.212194374349724,-0.571947983485616,-0.607934038712992,0.982717896119561,-0.392105022857198,0.980905457236702,NaN,-0.152080541163932,-0.871932891931711,-0.29293283424852,0.292932834248906,-0.175221240190411
241.5616,1.68091252851244,-1.30517089530286,0.631156019629242,-0.968886099067753,-0.534660622685982,-0.534660622686756,1.32606703726341,-0.0452735548268068,1.08456407855393,0.332934801358852,0.752801211571812,0.332934801359309,0.489959407642036,-2.33418497695007,NaN,-2.54168540340402,1.01399159886503,-1.93909152197286,-1.40210492974837,1.28225648484038,-1.40210492974961,0.135526073868576,-0.99185331307304,-0.540428802388932,0.0848278922627764,-1.40765743913681,NaN,NaN,-0.865794165802756,-0.0546490413849933,-1.69668774004426,0.823272565161541,-0.832097172153215,-0.173910898564987,0.223529087866195,-0.0387369366480655,1.30803729724991,0.777235492769632,0.77723549276955,0.204026028771288,-0.562410602601242,-0.605304353586754,0.997015895669793,-0.434004874708202,0.940118424171095,NaN,-0.160490830375878,-0.869281617596055,-0.263697058754606,0.263697058754988,-0.181731904095318
241.664,1.65006664917185,-1.31674793066173,0.601431965220693,-0.980516150332731,-0.561655806678339,-0.561655806679135,1.31385552764544,-0.0612387218439333,1.06746402277198,0.342231553697901,0.757553370682536,0.342231553698349,0.510014675620612,-2.35289958334236,NaN,-2.50704081169871,0.990988789930344,-1.9198696327445,-1.37924731570413,1.29808782950681,-1.37924731570538,0.139839414732295,-0.983965535254296,-0.530679446628747,0.0922052546615578,-1.42595013514414,NaN,NaN,-0.91048395360378,-0.0309981522349416,-1.7058422809579,0.787100508535974,-0.85748334357019,-0.179721843685257,0.244585873036939,-0.0314502034904936,1.33568121760426,0.768033992992318,0.768033992992235,0.195386076952043,-0.551798695134525,-0.601650833741685,1.01179783153168,-0.476822211590702,0.898712508160711,NaN,-0.169014537174845,-0.866796990896636,-0.234560134283767,0.234560134284147,-0.188068888428134
241.7664,1.61760002957504,-1.32796207034483,0.570642043115764,-0.99120588682349,-0.588804539696956,-0.588804539697772,1.30031184722663,-0.0766386394902684,1.04950007482193,0.350694446313757,0.762106410462562,0.350694446314196,0.530893037229253,-2.37016221313968,NaN,-2.47109510996035,0.967866507920442,-1.89934135664434,-1.35578981231208,1.31462820114295,-1.35578981231334,0.144674929728996,-0.976085442325374,-0.520407311715562,0.0997868631520114,-1.44469286997856,NaN,NaN,-0.955198937458392,-0.00741686651156741,-1.71391853407912,0.748977010555006,-0.883075543226929,-0.184983268676275,0.265456647577453,-0.0237124947727428,1.3628282881504,0.758031978517346,0.75803197851726,0.186258552104799,-0.540128743535109,-0.597026805831591,1.02705224413326,-0.520506506338122,0.856746175821677,NaN,-0.17761293282607,-0.86446124477653,-0.205571366546554,0.205571366546931,-0.194227906258782
241.8688,1.58358222017193,-1.3387913622466,0.538851154392994,-1.00088578451856,-0.616078153022285,-0.616078153023122,1.2854791132146,-0.0914776761850975,1.03070624193029,0.358314591838916,0.766450112932881,0.358314591839348,0.55254861282569,-2.38594154267449,NaN,-2.43392350076928,0.944637927280947,-1.87757727901839,-1.33172080651075,1.33186164645078,-1.33172080651202,0.150043156667863,-0.968234094529386,-0.509616126663149,0.107565587196651,-1.4638275134466,NaN,NaN,-0.999852635635947,0.0160747755573749,-1.72088197466892,0.708945851030834,-0.908825694682381,-0.18969778780277,0.286130918418726,-0.0155331413866725,1.38941905504903,0.747240300314322,0.747240300314233,0.176628833000851,-0.527420492286763,-0.59148884433279,1.04276513668085,-0.565004607226138,0.814277813665567,NaN,-0.186244944295548,-0.862257793511287,-0.176780680519411,0.176780680519786,-0.200204141102751
241.9712,1.5480849684683,-1.34921551458126,0.506125048385304,-1.00948390674157,-0.643447860576678,-0.643447860577534,1.26940258264266,-0.10576091238073,1.01111800402434,0.36508465478199,0.770570678810967,0.365084654782411,0.574932027976201,-2.4002103347326,NaN,-2.39560176350485,0.921316249621012,-1.85464858460849,-1.30703217772334,1.34977008565401,-1.30703217772462,0.155949652154034,-0.960431576342035,-0.498313991046672,0.115533776805518,-1.48329364521468,NaN,NaN,-1.04435766469749,0.03945669327514,-1.72670227136505,0.667057746139115,-0.93468525606071,-0.193868039114162,0.306598444595378,-0.00692133961921403,1.41539550340428,0.735671324107759,0.735671324107668,0.166483778175669,-0.513696955376437,-0.585096566353047,1.05891994487872,-0.610260604732435,0.771365882177323,NaN,-0.194867310092849,-0.860171144572415,-0.148238592150677,0.14823859215105,-0.205992093218852
242.0736,1.51118206268394,-1.35921611609966,0.472530089535919,-1.01692622630605,-0.670885033207648,-0.670885033208524,1.25212958494254,-0.119494169868515,0.990772244861716,0.370998913279782,0.774450608600967,0.370998913280195,0.597990654681969,-2.41294560433809,NaN,-2.35620576183142,0.897914452841618,-1.83062672450765,-1.28171923601152,1.36833353420093,-1.28171923601281,0.16239515027382,-0.952696994396883,-0.486513213121326,0.123683235133593,-1.50302883726436,NaN,NaN,-1.08862600496899,0.0627087499823759,-1.73135341795134,0.623370195350196,-0.960605396327378,-0.197496769265549,0.326849183803627,0.00211372735570209,1.44070110101249,0.723338916415908,0.723338916415813,0.155811864313922,-0.498984411447296,-0.577912399163095,1.07549753202184,-0.656215724317741,0.728069071036972,NaN,-0.203434774867461,-0.858186788435885,-0.119996171299568,0.119996171299939,-0.211585403400401
242.176,1.4729491792681,-1.3687768487961,0.438133031066983,-1.02313697442007,-0.698361468983685,-0.698361468984582,1.23370945092246,-0.132684051459521,0.9697071756623,0.376053322678153,0.778068605047208,0.376053322678556,0.62166887468147,-2.4241287667931,NaN,-2.31581094232681,0.874445030048161,-1.80558308160409,-1.25578061835455,1.38753033342862,-1.25578061835585,0.169375763683702,-0.945048485476724,-0.474230111937344,0.132005201762971,-1.52296894916408,NaN,NaN,-1.13256927506353,0.0858107460831847,-1.73481385068347,0.577947298743598,-0.98653717611403,-0.200586920849323,0.346873233765025,0.011562762107867,1.46528083200383,0.710258432739772,0.710258432739675,0.144603335558705,-0.483312392059941,-0.570001318542268,1.09247621060426,-0.702808250295499,0.684446449610461,NaN,-0.21190031304009,-0.85629106348441,-0.0921049861122232,0.0921049861125927,-0.216976666672546
242.2784,1.43346373258148,-1.37788367946461,0.40300080112097,-1.02803900376901,-0.725849643733426,-0.725849643734342,1.21419342797981,-0.145337986046687,0.947962244941184,0.380245576977436,0.781399503402493,0.380245576977832,0.645908348246265,-2.43374576033273,NaN,-2.2744918580931,0.850919742670798,-1.77958865175486,-1.22921814930826,1.40733737194877,-1.22921814930956,0.17688320894612,-0.937503228165122,-0.461484797436429,0.140490344374537,-1.54304842448631,NaN,NaN,-1.17609901079193,0.108742419641918,-1.73706655507047,0.530859552445748,-1.01243173199578,-0.203141712454938,0.366660769993998,0.0214162308327147,1.48908122069051,0.696446708467479,0.696446708467384,0.132850363627248,-0.466713662947415,-0.561430557938661,1.10983178714486,-0.74997348127395,0.640557606679771,NaN,-0.220215370745903,-0.854471002504487,-0.0646170326601382,0.0646170326605066,-0.222157257766381
