time,S1-D1,S1-D8,S1-D9,S1-D15,S2-D1,S2-D2,S2-D3,S2-D9,S3-D1,S3-D2,S3-D16,S4-D2,S4-D3,S4-D5,S5-D3,S5-D4,S5-D5,S6-D2,S6-D5,S6-D17,S7-D6,S7-D7,S8-D6,S8-D7,S8-D18,S9-D3,S9-D4,S9-D9,S9-D11,S9-D19,S10-D8,S10-D9,S10-D10,S10-D11,S11-D8,S11-D10,S11-D20,S12-D10,S12-D11,S12-D12,S13-D4,S13-D11,S13-D12,S14-D10,S14-D12,S14-D21,S15-D13,S15-D14,S16-D13,S16-D14,S16-D22
1015.0912,-1.85595161511165,0.863399446586283,-1.28499957819034,1.32897341000547,1.87141388409423,1.87141388409459,0.657823048133421,2.65842026431876,2.42255026609871,1.8595024117077,1.22434941390576,1.85950241170809,-0.996182557273095,0.0761451871087997,-0.75522647664688,0.466154465010298,-0.861164226911974,-0.0438585836110704,-0.918029939136159,NaN,0.976495410970803,0.0474303316793996,2.15894590094066,1.75712229047925,-0.153571846515281,-0.749858475246366,-0.749858475244789,2.61770593192251,-2.61770593192133,-0.598099827842461,2.44690204804863,-0.00975756822100678,1.31371585384837,-1.02578464560782,-0.192761460870111,-0.841794818278655,0.588553538236563,0.356336829343854,0.356336829343796,-1.4073305511582,1.39383632271382,-0.0157839857165177,-0.234305080100996,-0.144822538768023,-0.661134385945083,NaN,1.16102239794301,-2.76953670630653,1.23691979827775,-1.23691979827801,-1.2655280619891
1015.1936,-1.8556428464079,0.886914220226867,-1.27353927600422,1.35361702551381,1.88935044196104,1.88935044196139,0.663644593639903,2.69132350151176,2.45063452437268,1.88437646556166,1.24928499825238,1.88437646556207,-0.996628557306485,0.0870377256870675,-0.751232114156603,0.471030292186957,-0.890908901513581,-0.0602142272117853,-0.931021783736587,NaN,0.94971470886912,0.0381788622780073,2.18676458770895,1.76985619983562,-0.160609363502017,-0.742507616441973,-0.742507616440398,2.62541699534159,-2.62541699534041,-0.601412585128082,2.47258648365382,-0.0112685025583596,1.32659320759724,-1.04404196007801,-0.194652922917272,-0.856201208196179,0.593663749876053,0.340200940083854,0.340200940083795,-1.42217875502071,1.41313132176909,-0.00487661391975695,-0.227818524513591,-0.140899239047003,-0.642970836463722,NaN,1.17651013838111,-2.7341683571724,1.21682449733756,-1.21682449733779,-1.24620414890746
1015.296,-1.85371093063331,0.909606494951452,-1.26098720112009,1.37677481877057,1.90511143418455,1.90511143418489,0.669124593758309,2.72288131023804,2.47748567054023,1.90726689348349,1.27353162346551,1.90726689348391,-0.995764709556129,0.098592033430788,-0.745940737582655,0.475935621374533,-0.920232075960766,-0.0762077487549684,-0.943625349657312,NaN,0.921290677098427,0.0281585451437791,2.21383865322021,1.78122819041295,-0.168570543192082,-0.734756078007556,-0.734756078005985,2.63160164986221,-2.63160164986101,-0.604522395998884,2.49641510239469,-0.012939360059654,1.33836581080213,-1.06152172372786,-0.195650954955427,-0.869689786831108,0.59832072626422,0.323729314419135,0.323729314419075,-1.43625245027666,1.43164308086101,0.00600045490673051,-0.221508313806629,-0.136368369920155,-0.624142992184153,NaN,1.19090915534693,-2.69566939474003,1.19437877152998,-1.19437877153018,-1.225924581199
1015.3984,-1.8501962016453,0.931434941869241,-1.24739984556081,1.39839895801191,1.91869553116137,1.91869553116171,0.674300422597478,2.75307041010516,2.50311780369832,1.92813763144118,1.29707527743882,1.92813763144161,-0.99358038902561,0.110756895872562,-0.739364402255704,0.480910296320581,-0.949150602412955,-0.0917993896793613,-0.955810544218347,NaN,0.891281273418082,0.0174013419150499,2.24014493455622,1.79125202750217,-0.177425455137269,-0.726662354859709,-0.726662354858142,2.636330008147,-2.63633000814579,-0.607401395450371,2.51831333566326,-0.0147713906205959,1.34899262614792,-1.07820238226583,-0.195781852815638,-0.882254224796937,0.602507414418152,0.306944017733118,0.306944017733058,-1.44954827202899,1.4493500769949,0.0168033642028284,-0.215413155374315,-0.131215088784911,-0.60469721330937,NaN,1.20424120225663,-2.65421112370852,1.16963690056924,-1.16963690056943,-1.2047728197233
1015.5008,-1.84514548112425,0.952362964473833,-1.23283737841724,1.41844867180056,1.93010848222864,1.93010848222897,0.679210253013347,2.78186851345385,2.52754638040909,1.94695869364853,1.31990390103196,1.94695869364896,-0.99007317841115,0.123477173732454,-0.731523202233056,0.485993876151074,-0.977682022312423,-0.106950296117649,-0.967549590238548,NaN,0.859746682353059,0.00593975738781487,2.26566098684778,1.79994259056367,-0.187140092480551,-0.718285284185357,-0.718285284183793,2.63967137779898,-2.63967137779776,-0.610024055696878,2.53821271454118,-0.0167655880849619,1.35843607278876,-1.09406355857692,-0.195075449805247,-0.893890400042529,0.606210033881845,0.289868962635682,0.289868962635621,-1.46206433242975,1.46623153851017,0.0274865238294247,-0.209571237330546,-0.125424901637548,-0.584679480467034,NaN,1.21653207512958,-2.60997677026992,1.142660800919,-1.14266080091917,-1.18283403316171
1015.6032,-1.83861174985798,0.972358747577407,-1.21736332230076,1.43689018979988,1.93936294337523,1.93936294337556,0.683892841590246,2.80925421992533,2.55078796394775,1.96370632777171,1.34200749459033,1.96370632777215,-0.985249016073711,0.136694003048842,-0.722445307140644,0.491225377860105,-1.00584423513698,-0.121622605419036,-0.978817113197266,NaN,0.82674927293866,-0.00619327653218435,2.29036500521011,1.80731569484299,-0.197676654846669,-0.709683761097409,-0.709683761095851,2.64169385197167,-2.64169385197044,-0.612367355680558,2.55605130791164,-0.0189226966184105,1.36666225856889,-1.10908601145164,-0.193564929232754,-0.904596296713256,0.609418068733939,0.272529946692496,0.272529946692435,-1.47380012735956,1.48226739033053,0.0380027020290531,-0.204019994049946,-0.118983901661912,-0.5641353549806,NaN,1.22781136089652,-2.56316063302173,1.11351994738331,-1.11351994738346,-1.16019485585668
1015.7056,-1.83065380243,0.991395283457644,-1.20104422546726,1.45369666445711,1.94647830758317,1.94647830758348,0.688387316654356,2.83520693097228,2.57285999016645,1.97836315824479,1.36337822057961,1.97836315824523,-0.979122293726202,0.150345011227798,-0.712166953008023,0.496643022889425,-1.03365517860679,-0.13577953604528,-0.989590201093427,NaN,0.792353584426506,-0.0189644893684391,2.31423577021006,1.8133879592524,-0.208993862104806,-0.700916453244734,-0.700916453243185,2.64246393832881,-2.64246393832758,-0.61441094216077,2.57177411577059,-0.0212432149422849,1.37364118946068,-1.12325161183713,-0.19128662091708,-0.9143719111642,0.612124226168959,0.254954664510175,0.254954664510115,-1.48475644465339,1.49743820796968,0.0483031348011461,-0.198795866889042,-0.11187900210103,-0.543109921100832,NaN,1.23811217690664,-2.51396715407116,1.08229127893002,-1.08229127893015,-1.13694313982876
1015.808,-1.8213358840519,1.0094503806221,-1.18394932589272,1.46884809087272,1.95148053701551,1.95148053701582,0.692732965203459,2.8597067929661,2.59378055273709,1.99091831167201,1.38401049551719,1.99091831167246,-0.971715900031248,0.164364558802626,-0.700732380189121,0.502283985433672,-1.06113251640829,-0.149385480947708,-0.999848422935786,NaN,0.756626335975971,-0.0323403272804838,2.33725260109724,1.81817671388263,-0.221047286140107,-0.692041510015646,-0.692041510014104,2.64204622751734,-2.6420462275161,-0.616137276766078,2.58533342696589,-0.0237274054483808,1.37934695665113,-1.13654333761136,-0.188279775160773,-0.92321916343575,0.614324361045586,0.23717269546527,0.237172695465211,-1.49493527624289,1.5117251824242,0.058337652144432,-0.193934049068957,-0.104098176426573,-0.521647711252852,NaN,1.24747090322406,-2.46260991151005,1.04905907348267,-1.04905907348278,-1.11316768623502
1015.9104,-1.81072730305786,1.02650664513004,-1.16615020616134,1.48233122127949,1.95440197958725,1.95440197958754,0.696969011271553,2.8827346749929,2.61356820596546,2.00136750630612,1.40390106351234,2.00136750630658,-0.963061204129647,0.178684011586879,-0.688193711784353,0.508184142642085,-1.08829332958474,-0.162406101247747,-1.0095738009836,NaN,0.719636451800256,-0.0462869806314395,2.35939530483607,1.82169993195396,-0.233789688696507,-0.68311626838815,-0.683116268386613,2.64050310414742,-2.64050310414618,-0.617531760150002,2.59668913816084,-0.0263753139838911,1.38375789579841,-1.14894528078742,-0.184586310747106,-0.931141808332357,0.616017366800027,0.219215473775555,0.219215473775497,-1.50433973268914,1.52511009473693,0.0680548218950995,-0.18946820813788,-0.095630716978064,-0.499792620438243,NaN,1.25592690170813,-2.40931053818152,1.01391478531806,-1.01391478531815,-1.08895794884297
1016.0128,-1.79890201346738,1.04255141524161,-1.14772044319726,1.49413945400291,1.95528114562925,1.95528114562953,0.701134382991733,2.90427217890271,2.63224178121034,2.00971308652263,1.42304904415635,2.00971308652308,-0.953197973165338,0.193232045016922,-0.674610767167601,0.514377828613197,-1.11515381422886,-0.174808419733828,-1.01875074517746,NaN,0.681455091505007,-0.0607703989859246,2.38064412053924,1.82397617075229,-0.247171359789275,-0.674196960146972,-0.67419696014545,2.63789450187881,-2.63789450187756,-0.618582824622387,2.60580902050786,-0.0291868014776712,1.38685671040937,-1.1604426600821,-0.180250537655878,-0.938145341063196,0.617205038617904,0.201116244529538,0.201116244529481,-1.51297395923152,1.53757530115944,0.0774021155005936,-0.185430189912525,-0.0864675117891867,-0.477587816428392,NaN,1.26352221243226,-2.35429757849595,0.976956836016087,-0.976956836016145,-1.06440371054314
1016.1152,-1.78593816533004,1.05757663521943,-1.12873525749014,1.50427267595277,1.954162427596,1.95416242759627,0.705267477361631,2.92430166831428,2.64982021485549,2.0159639927072,1.44145595082472,2.01596399270766,-0.942174219827169,0.207934983556793,-0.660050806333376,0.520897592992814,-1.14172899429907,-0.18656091986595,-1.02736596366468,NaN,0.642155679769481,-0.0757563078786541,2.40097966531053,1.82502451190258,-0.261140459300249,-0.665338423865309,-0.6653384238638,2.63427769786642,-2.63427769786516,-0.619281992115577,2.61266892101927,-0.0321615850828753,1.38863055382385,-1.17102183450084,-0.175318857043349,-0.944236895135102,0.61789191620377,0.182910003889094,0.182910003889037,-1.52084305546706,1.54910373471883,0.0863261046607389,-0.181849715160104,-0.0766013298841188,-0.45507565048323,NaN,1.27030122081716,-2.29780529716784,0.938290344783326,-0.938290344783358,-1.03959473981964
1016.2176,-1.77191762548099,1.07157866676836,-1.10927116493539,1.5127370505373,1.95109576016733,1.95109576016759,0.709405936237985,2.94280630210724,2.66632238865481,2.0201356669974,1.4591256802582,2.02013566699787,-0.930045978668169,0.222717174226115,-0.644588204461668,0.527773963874884,-1.1680324602927,-0.197633658913032,-1.0354083601063,NaN,0.601813933486908,-0.0912102324687038,2.42038288770702,1.82486450075866,-0.275643368200968,-0.656593823347032,-0.656593823345537,2.62970714244392,-2.62970714244266,-0.619623901061423,2.61725289239467,-0.0352992829975172,1.38907107022091,-1.1806703177221,-0.169839441091299,-0.949425133310274,0.618085110048291,0.164633419616919,0.164633419616865,-1.527953000909,1.55967892933313,0.0947726982632371,-0.178754079800383,-0.0660271037487593,-0.432297569893854,NaN,1.27631029589199,-2.24007245103396,0.898026789551672,-0.898026789551678,-1.01462043530856
1016.32,-1.75692547688331,1.08455804833258,-1.08940563390051,1.51954476064753,1.94613623320208,1.94613623320233,0.713586442358922,2.95977006753136,2.68176698620265,2.02224990173727,1.47606447853879,2.02224990173774,-0.916877012597368,0.237501387704466,-0.62830406041261,0.535035215577802,-1.1940761417909,-0.207998400610252,-1.04286892377281,NaN,0.560507882274807,-0.107097523348154,2.43883503543905,1.8235160949025,-0.290625053727111,-0.648014371581566,-0.648014371580077,2.62423432800337,-2.62423432800211,-0.619606306337772,2.61955325333651,-0.0385994544096566,1.38817440128341,-1.18937679965807,-0.163861894151653,-0.953720136947113,0.617794112150974,0.146324726570285,0.146324726570233,-1.53431058744662,1.56928506950491,0.102687424469546,-0.176167865721483,-0.0547421965530806,-0.409294025111081,NaN,1.28159740595421,-2.18134103211327,0.856283599734896,-0.856283599734875,-0.989569462580201
1016.4224,-1.74104950638358,1.09651921917184,-1.06921674844959,1.52471372808444,1.93934367950589,1.93934367950613,0.71784453982809,2.97517781719984,2.69617237218327,2.02233464143659,1.49228089070677,2.02233464143707,-0.902738453345019,0.252209244322111,-0.611285743221767,0.54270714267979,-1.21987011629151,-0.217628767359171,-1.04974061621269,NaN,0.518317874573759,-0.123383376885233,2.45631764437317,1.82099963500161,-0.306029447726296,-0.639649055664532,-0.639649055663049,2.61790770240313,-2.61790770240186,-0.619230050048167,2.61957058883244,-0.0420616283431212,1.38594116766578,-1.19713118636589,-0.157436895368331,-0.957133302176103,0.617030591206798,0.128023589563764,0.128023589563715,-1.53992336021956,1.57790706665694,0.110015756885301,-0.174112665463672,-0.0427466415345858,-0.38610435696679,NaN,1.28621171870978,-2.12185498813725,0.813183682446217,-0.81318368244617,-0.964529380855403
1016.5248,-1.72437968511186,1.1074702211663,-1.04878287543568,1.52826732507218,1.93078225364034,1.93078225364058,0.722214480678058,2.989015317726,2.70955650122267,2.02042374807162,1.50778569850037,2.02042374807211,-0.887708381675326,0.266761671355048,-0.593626378588862,0.550812840000801,-1.24542245114114,-0.226500409939497,-1.0560182570391,NaN,0.475326561287563,-0.140032850263397,2.47281255202762,1.81733584038795,-0.321799833126854,-0.631544358792334,-0.631544358790862,2.61077262218529,-2.61077262218403,-0.618498995761574,2.61731370199217,-0.0456853237412521,1.38237643000229,-1.20392466375665,-0.150615821689194,-0.959677246591097,0.615808171599061,0.109770929426592,0.109770929426545,-1.5447995669918,1.58553066100574,0.116703481946426,-0.172606818557514,-0.0300433506937176,-0.36276665534057,NaN,1.29020319075435,-2.06185892472151,0.768854876830681,-0.768854876830611,-0.939586253737346
1016.6272,-1.70700763632221,1.1174223783912,-1.02818233068739,1.53023407339272,1.92052000096355,1.9205200009638,0.726729095682162,3.0012693187192,2.72193686102068,2.01655673355711,1.52259184445139,2.01655673355761,-0.871871353394141,0.281079400209298,-0.575424276703744,0.559372486580659,-1.27073907270386,-0.234591192816823,-1.06169840742499,NaN,0.431618852342038,-0.157010883863499,2.48830193296666,1.81254581460032,-0.337879232804096,-0.623743980576463,-0.623743980575001,2.60287133041537,-2.60287133041411,-0.617419920764061,2.61279952323088,-0.0494700710733918,1.37748962591871,-1.20974977809624,-0.143450346484653,-0.961365719408725,0.614142194617135,0.0916087184896443,0.0916087184896002,-1.54894811201502,1.5921425447467,0.122697106951169,-0.171665153958512,-0.0166383022960209,-0.339317594554751,NaN,1.29362214968326,-2.00159679191395,0.723429323885331,-0.723429323885238,-0.914824240777443
1016.7296,-1.68902608193378,1.12638994792366,-1.00749303941373,1.53064731443767,1.90862840716338,1.90862840716363,0.73141968640354,3.01192764929372,2.73333045236788,2.01077845829082,1.5367143374764,2.01077845829133,-0.855317875083793,0.295083506039717,-0.556782303494972,0.568403134461607,-1.29582365938728,-0.241881391387178,-1.0667792454114,NaN,0.387281847562348,-0.174282347179931,2.50276835102588,1.8066510406135,-0.354210797126912,-0.616288561356481,-0.61628856135503,2.59424294480953,-2.59424294480827,-0.616002367394537,2.60605297417585,-0.0534154454570228,1.3712944751591,-1.21460052087357,-0.135992006997969,-0.962213503238174,0.612049460088395,0.0735797601354257,0.073579760135384,-1.55237850866904,1.5977305014224,0.127944310079783,-0.171298737061574,-0.00254071651371001,-0.315792257870874,NaN,1.29651887266719,-1.9413105596753,0.677042742646854,-0.677042742646749,-0.890325173833884
1016.832,-1.67052826674055,1.13438974278101,-0.986792189456746,1.52954484189074,1.89518192338715,1.89518192338741,0.736315936014446,3.02097934176945,2.74375380380008,2.00313879421324,1.55017013761255,2.00313879421376,-0.838143830238823,0.308695982236939,-0.537807198851411,0.577918508048964,-1.320677558608,-0.248353893588094,-1.0712604301427,NaN,0.342404746589061,-0.1918121146314,2.51619482303248,1.7996733551396,-0.370738188037184,-0.609215419442823,-0.609215419441377,2.58492345290416,-2.5849234529029,-0.614258463459038,2.59710677986345,-0.0575211138207579,1.36380884772199,-1.21847240852304,-0.128291743565889,-0.962236301423549,0.609547949130459,0.0557274666880265,0.0557274666879879,-1.55510082614895,1.6022835563728,0.132394431449825,-0.17151462747613,0.0122367790259205,-0.292223965199098,NaN,1.298943166806,-1.88123889225482,0.629833623974327,-0.629833623974207,-0.866168128542357
1016.9344,-1.65160737147677,1.14144073866049,-0.966155882064163,1.52696850547225,1.88025746904292,1.88025746904319,0.74144583574523,3.02841477170652,2.75322301062439,1.99369225252125,1.56297802211726,1.99369225252178,-0.820449854765905,0.321840330427875,-0.518608848721571,0.58792882005095,-1.34529972487679,-0.253994395780492,-1.07514296223683,NaN,0.297078737672715,-0.209565164063506,2.5285648869957,1.79163490367469,-0.387405957559509,-0.602558312810508,-0.602558312809072,2.57494572019731,-2.57494572019605,-0.61220273037697,2.58600122375156,-0.0617868892957706,1.35505459646484,-1.22136255079474,-0.120399432149573,-0.961450614364612,0.606656534756839,0.0380956427402016,0.0380956427401667,-1.55712562822774,1.60579213175851,0.135998994234451,-0.172315657752125,0.0276779939855932,-0.268644122236649,NaN,1.30094395589928,-1.82161583729433,0.581942375713222,-0.58194237571309,-0.842429004043804
1017.0368,-1.63235593131642,1.14756367988345,-0.945658788004084,1.52296380333243,1.86393391892555,1.86393391892583,0.746835623254807,3.03422579863487,2.76175378419765,1.98249757971129,1.57515843838259,1.98249757971182,-0.802340662542355,0.334442139388375,-0.499299522252254,0.598440604611095,-1.36968667000975,-0.258791585196029,-1.07842905379154,NaN,0.251396858430149,-0.22750668313748,2.53986266638652,1.78255808452706,-0.40415991706559,-0.59634723534634,-0.596347235344908,2.56433951692352,-2.56433951692227,-0.609851897169341,2.57278384312097,-0.0662127790150444,1.34505736182012,-1.2232697052372,-0.112363441557458,-0.959873614660224,0.603394692209358,0.0207282727693279,0.0207282727692969,-1.55846390834721,1.60824820064957,0.138712232341864,-0.1737002428057,0.0437630306676772,-0.245082108268497,NaN,1.30256887514112,-1.76266954710738,0.53351045682252,-0.533510456822373,-0.819180123263347
1017.1392,-1.61286526979952,1.15278069911462,-0.925373811224212,1.51757948141049,1.84629158747315,1.84629158747345,0.752509729770403,3.03840589721223,2.76936150160099,1.96961733408403,1.58673334924951,1.96961733408456,-0.783924324368607,0.346429632118939,-0.479993084875654,0.609456564209593,-1.3938324156234,-0.262737305931397,-1.08112201816684,NaN,0.205453824740889,-0.245602168464607,2.55007292542435,1.77246549301187,-0.420947490738841,-0.590608251327301,-0.590608251325877,2.55313156380905,-2.55313156380779,-0.607224726588609,2.55750906826989,-0.070799011349599,1.33384635950863,-1.22419432078363,-0.104230239407173,-0.957523032319579,0.599782220112868,0.00366930681476089,0.00366930681473367,-1.55912703032442,1.60964543877405,0.140491598964269,-0.175662227657421,0.0604681548240453,-0.221565208608389,NaN,1.30386387411206,-1.70462104439325,0.484679525966211,-0.484679525966051,-0.79648986212342
1017.2416,-1.59322494544445,1.15711496452178,-0.905371751055371,1.51086715634414,1.82741172752453,1.82741172752485,0.758490732755074,3.04095027944281,2.77606125350458,1.95511746461549,1.59772607418197,1.95511746461603,-0.765311503125606,0.357734177255811,-0.460804191088886,0.620975428018177,-1.41772844221161,-0.26582670717966,-1.08322618147493,NaN,0.159345832782931,-0.263817506730615,2.55918111639884,1.76137987743032,-0.437718046413247,-0.585363364834972,-0.585363364833555,2.54134559284484,-2.54134559284359,-0.604341848962284,2.54023781587102,-0.0755460371417327,1.32145416036808,-1.22413857515425,-0.0960440568162275,-0.954417057316241,0.595838978743082,-0.0130375626952039,-0.0130375626952274,-1.55912668187265,1.60997937425564,0.141298239504638,-0.178190776700281,0.0777656885014953,-0.198118586872267,NaN,1.30487283199789,-1.64768303649148,0.435590619916278,-0.43559061991609,-0.774422311171532
1017.344,-1.57352220260562,1.16059036479344,-0.885720950296732,1.50288097267189,1.80737605642005,1.80737605642037,0.764799311210124,3.04185601379694,2.78186789199333,1.93906691223405,1.60816112813346,1.9390669122346,-0.746614647406282,0.368290773942801,-0.441847455074468,0.632991823170585,-1.44136363429893,-0.268058371378143,-1.08474681092183,NaN,0.113170340971787,-0.282119035163661,2.56717342342967,1.74932411297824,-0.454423202374872,-0.580630419658754,-0.580630419657347,2.52900241784503,-2.52900241784379,-0.601225599335901,2.52103704731571,-0.0804545130481445,1.30791646288124,-1.22310640643529,-0.087846610712978,-0.950574259340707,0.591584647472782,-0.0293491346736683,-0.0293491346736877,-1.55847484167342,1.60924753384261,0.141097423499527,-0.18127030329912,0.0956239272173773,-0.174765291182921,NaN,1.30563719495351,-1.59205877956483,0.386383374325485,-0.386383374325267,-0.753036969444402
1017.4464,-1.55384142480351,1.16323123743975,-0.86648692498393,1.49367729151201,1.7862663134232,1.78626631342353,0.771454205385203,3.04112214026585,2.78679607912042,1.92153723624846,1.61806405902185,1.92153723624902,-0.72794715195773,0.378038519657011,-0.423236601948504,0.645496166786538,-1.46472422812661,-0.269434416859715,-1.085690052269,NaN,0.0670258366717171,-0.300473587671821,2.57403680773037,1.73632119124061,-0.471017115329552,-0.576423030103666,-0.576423030102273,2.51612001196726,-2.51612001196602,-0.59789986076672,2.49997929338065,-0.0855252872075349,1.29327184603036,-1.22110353566923,-0.0796768722616497,-0.946013518069535,0.587038499449586,-0.0452229338873745,-0.0452229338873903,-1.5571837544095,1.60744958065975,0.139858936970426,-0.184880441044759,0.114007083751635,-0.151526293006705,NaN,1.30619565069375,-1.53794100043673,0.337195298949098,-0.33719529894886,-0.732388469952409
1017.5488,-1.53426359905026,1.16506214253203,-0.847731982601544,1.48331439359949,1.7641638494457,1.76416384944605,0.778472188035875,3.03874977155969,2.79086033509431,1.90260225110362,1.62746128402826,1.90260225110418,-0.709422503052557,0.386921063490014,-0.405083612926867,0.658474594896662,-1.48779377499678,-0.26996056372088,-1.08606287028407,NaN,0.0210115946422692,-0.318848535191232,2.57975905828002,1.72239421978368,-0.487456756842464,-0.572750545913567,-0.572750545912185,2.50271359399135,-2.50271359399012,-0.594389921603558,2.47714213639563,-0.0907594085750761,1.2775614838947,-1.21813747856501,-0.0715708628788467,-0.940753955598918,0.582219188476212,-0.0606174280053273,-0.0606174280053396,-1.5552659046348,1.60458743433748,0.137557435043606,-0.188996063283175,0.132875266387655,-0.128420557967798,NaN,1.30658385470649,-1.4855108929742,0.288161117370935,-0.288161117370672,-0.712526340672957
1017.6512,-1.51486580650554,1.16610767746094,-0.82951484484962,1.47185217533323,1.74114924930015,1.74114924930051,0.785868050592765,3.03474217156373,2.79407508255686,1.88233765399593,1.63637992607214,1.8823376539965,-0.691153432018433,0.394887035133237,-0.387497886619091,0.671908945058342,-1.51055313185762,-0.269646149588008,-1.08587298999246,NaN,-0.0247725654551649,-0.337211821379611,2.58432884632279,1.70756642945366,-0.503702182599955,-0.56961805300521,-0.569618053003841,2.48879573011829,-2.48879573011707,-0.590722350806459,2.45260764172729,-0.096158165744279,1.26082881380517,-1.21421754610103,-0.0635614665939424,-0.934814866662241,0.577144547091767,-0.0754922149431804,-0.0754922149431902,-1.5527339821454,1.60066536323484,0.134172747637715,-0.1935873549298,0.152184498849578,-0.105465144184509,NaN,1.30683421286341,-1.43493721068637,0.23941217604319,-0.239412176042892,-0.693494810696827
1017.7536,-1.49572075932032,1.16639231807353,-0.811890300063533,1.45935182459632,1.71730198417961,1.71730198417999,0.793654597733498,3.02910480817664,2.79645467958545,1.86082063041149,1.64484765440456,1.86082063041207,-0.673251098755124,0.401890424143531,-0.370585443808997,0.685776797359363,-1.53298047980112,-0.268504089586717,-1.08512883839886,NaN,-0.0702265189131927,-0.355531984680385,2.58773577696839,1.6918611930708,-0.519716791826328,-0.567026411890386,-0.567026411889029,2.47437646146658,-2.47437646146536,-0.586924886270706,2.42646174050638,-0.101723139950363,1.2431191690104,-1.20935483357532,-0.0556782636707607,-0.928215648137776,0.571831403821626,-0.089808183011868,-0.0898081830118743,-1.54960083600602,1.59569004311444,0.129690131437869,-0.198619935291,0.171886782950874,-0.082675324156967,NaN,1.30697571460165,-1.38637547573676,0.191075921009297,-0.19107592100896,-0.675332670742734
1017.856,-1.47689640419077,1.16594027168767,-0.794908910928338,1.44587547792844,1.69270009662421,1.6927000966246,0.801842642638744,3.0218453802162,2.79801343487703,1.83812943765826,1.65289253426681,1.83812943765884,-0.655824320193487,0.407890879534762,-0.354448199466984,0.70005156506855,-1.5550513621131,-0.266550785661872,-1.08383948561022,NaN,-0.115250072518639,-0.373778151060661,2.58997043439888,1.6753020685194,-0.535467565111434,-0.5649723356047,-0.564972335603357,2.45946346510275,-2.45946346510154,-0.583026325700606,2.39879357552171,-0.107456247832488,1.22447939810572,-1.20356219869793,-0.0479473974971135,-0.920975732787257,0.566295429999835,-0.103527655301816,-0.103527655301819,-1.5458794184334,1.58967058393095,0.124100469281138,-0.204055030841054,0.191930203024807,-0.0600647297996474,NaN,1.30703380844731,-1.33996731538078,0.143275437097608,-0.14327543709723,-0.658073190553488
1017.9584,-1.458455604756,1.16477534168513,-0.778616788713709,1.43148587370782,1.66741993039328,1.66741993039369,0.810441004000597,3.01297381860278,2.79876560613759,1.81434298159562,1.66054288893781,1.81434298159622,-0.638978847347914,0.41285391582606,-0.339183310407558,0.714702622892225,-1.57673873569125,-0.263805996426737,-1.08201458493121,NaN,-0.159743201561356,-0.391919981713035,2.59102442468096,1.65791288518147,-0.550925264772821,-0.563448502686273,-0.563448502684947,2.44406224756248,-2.44406224756128,-0.579056410736532,2.36969482828105,-0.11335975687716,1.20495749199781,-1.19685423151157,-0.0403914826873936,-0.913114532289559,0.560551021072077,-0.116614530362918,-0.116614530362918,-1.54158272608689,1.58261853271158,0.117400418076046,-0.209849695778126,0.212259071401991,-0.0376455178500725,NaN,1.30703031514294,-1.29583992106752,0.0961290447288474,-0.0961290447284345,-0.641744089948839
1018.0608,-1.44045589946368,1.16292081564798,-0.763055425257902,1.41624601867294,1.64153591654666,1.64153591654708,0.819456511899515,3.00250226414802,2.79872538915261,1.78954040911487,1.66782717470287,1.78954040911547,-0.622816685549638,0.416751036058076,-0.324882590129554,0.729695466243766,-1.59801303896088,-0.260292678656879,-1.07966431327964,NaN,-0.203606298233505,-0.409927572358414,2.59089042239492,1.63971788200987,-0.566064589074346,-0.562443693905441,-0.562443693904132,2.4281763611303,-2.42817636112911,-0.575045700548265,2.33925904799451,-0.119436271450946,1.18460223095692,-1.18924721743872,-0.0330295564910685,-0.904651391326889,0.554611211891162,-0.129034427198287,-0.129034427198284,-1.53672375238262,1.57454786337653,0.109592498738902,-0.215957073290418,0.23281411017095,-0.0154285505170357,NaN,1.30698337736359,-1.2541056131078,0.0497499530194169,-0.0497499530189734,-0.626367558632218
1018.1632,-1.42294932013695,1.1603993873832,-0.748261564293638,1.40021887569183,1.61512041265256,1.615120412653,0.82889402816016,2.99044502724371,2.79790690588397,1.763800732429,1.6747738665424,1.7638007324296,-0.607435451156572,0.419559794414967,-0.311631976519564,0.744991901445227,-1.61884228532288,-0.256036807461664,-1.07679931099335,NaN,-0.24674044288083,-0.427771320103535,2.5895622241802,1.62074188366994,-0.580864282893086,-0.561942943357554,-0.561942943356267,2.41180763346068,-2.4118076334595,-0.57102543699447,2.30758099922823,-0.125688696979632,1.16346285589647,-1.18075908939328,-0.0258770719394887,-0.895605549089116,0.548487622627814,-0.140754834832375,-0.140754834832369,-1.53131546156233,1.56547496086681,0.100685120157388,-0.222326690606866,0.253532660371489,0.00657640688249605,NaN,1.30690744707174,-1.21486149470942,0.00424597148872325,-0.00424597148825335,-0.611960319718093
1018.2656,-1.40598225699138,1.15723311239568,-0.734267099306286,1.38346706835014,1.58824358046689,1.58824358046734,0.838756482662657,2.97681853560351,2.79632419716257,1.7372024882128,1.68141135096509,1.7372024882134,-0.592927760870932,0.42126381371268,-0.299511043278614,0.760550269418645,-1.63919218985398,-0.251067177669978,-1.0734306164238,NaN,-0.28904770170493,-0.445421781295029,2.58703480911676,1.60101049113794,-0.595307209443793,-0.561927703410876,-0.561927703409609,2.39495641090022,-2.39495641089906,-0.567027404141808,2.27475603391531,-0.132120188501998,1.1415887629141,-1.17140936266617,-0.018945930725726,-0.885996102725841,0.542190430002555,-0.15174526037144,-0.151745260371431,-1.52537078539518,1.5554185992606,0.0906925343036419,-0.228904787214623,0.274348912911761,0.0283604631646067,NaN,1.30681331204787,-1.17818918972587,-0.0402807205266878,0.0402807205271893,-0.598533732449772
1018.368,-1.38959536337412,1.1534433882535,-0.721098995845691,1.36605259083766,1.56097328609345,1.56097328609392,0.849044924809157,2.96164127294627,2.7939912213687,1.70982342524618,1.68776782458984,1.70982342524679,-0.579380652039065,0.421852759183065,-0.28859255321989,0.776325707940685,-1.65902633492375,-0.245415184064753,-1.06956959523682,NaN,-0.330431451774501,-0.46284953545502,2.5833044047804,1.5805502706831,-0.609380382903196,-0.562376029590237,-0.562376029588998,2.37762182085353,-2.37762182085238,-0.563083781367282,2.24087948406705,-0.138734084206075,1.11902921872722,-1.16121905059099,-0.012244555442149,-0.875841971109679,0.535728358154093,-0.16197737025485,-0.161977370254839,-1.51890263603799,1.54439990841048,0.0796347248489599,-0.235634682236428,0.295194165435392,0.049915349346449,NaN,1.30670816391156,-1.14415466733566,-0.0837337562801401,0.0837337562806756,-0.586093931082287
1018.4704,-1.37382350038901,1.14905095266242,-0.70877924185586,1.34803651034943,1.53337501194551,1.53337501194599,0.859758591522843,2.94493370713203,2.79092185917262,1.68174021198374,1.69387120324305,1.68174021198435,-0.566875033728948,0.42132226481898,-0.278942054766236,0.792270462381469,-1.67830638126524,-0.239114572361004,-1.06522787333331,NaN,-0.370796742906346,-0.480025060141301,2.57836855950129,1.55938893678764,-0.623074961041518,-0.563262790074412,-0.563262790073191,2.35980204734464,-2.3598020473435,-0.559226987096873,2.20604606992327,-0.145533820083433,1.09583309666822,-1.15021056496438,-0.0057780019926921,-0.865161862198755,0.529108685064182,-0.171425125095836,-0.171425125095822,-1.51192392569407,1.53244232222911,0.0675372351709973,-0.242457189753135,0.315997118312533,0.0712331429174105,NaN,1.30659571057371,-1.11280815895082,-0.126022724211199,0.126022724211765,-0.574641999169005
1018.5728,-1.35869572675313,1.1440758988162,-0.697324831111677,1.32947865522186,1.50551177932326,1.50551177932375,0.870894996260765,2.92671820681079,2.78712992733793,1.6530281611343,1.69974905235522,1.6530281611349,-0.555485168150828,0.419673809379044,-0.2706175224625,0.808334251966863,-1.69699232825613,-0.232201154500774,-1.06041728122888,NaN,-0.41005071270174,-0.496918613947448,2.57222622411291,1.53755553440467,-0.636386197630838,-0.564559897845983,-0.564559897844772,2.34149460059815,-2.34149460059703,-0.55548950762201,2.17034932292729,-0.152522816928454,1.07204863859037,-1.13840760861661,0.000451884054232338,-0.853974250956806,0.522337264289077,-0.180064915327155,-0.180064915327138,-1.50444758398204,1.51957150082479,0.0544309387580897,-0.249311085704699,0.336684222507424,0.0923059823805241,NaN,1.30647633312451,-1.08418416999778,-0.167063263842382,0.167063263842975,-0.564174181578918
1018.6752,-1.34423534127708,1.13853771015959,-0.686747785499887,1.31043729550261,1.47744408753525,1.47744408753576,0.882450039868827,2.90701895029941,2.78262920489901,1.62376097868622,1.70542854893033,1.62376097868682,-0.545278179833106,0.416914538454539,-0.263669040897183,0.824464683885149,-1.71504281818568,-0.224712494412374,-1.055149807061,NaN,-0.448103061776764,-0.513500118108544,2.56487784498953,1.51508063155516,-0.649313350061624,-0.566236559836628,-0.566236559835427,2.32269656623436,-2.32269656623324,-0.551903700525237,2.13388103167363,-0.159704329938881,1.04772325339145,-1.12583506767613,0.00644625892534556,-0.84229737657791,0.51541856649341,-0.187875710064362,-0.187875710064342,-1.49648656737085,1.50581521868227,0.0403517467288939,-0.256133618233484,0.357180081430855,0.113125790286257,NaN,1.30634728241263,-1.05830158398284,-0.206777098856429,0.206777098857032,-0.554682137132917
1018.7776,-1.33045997904615,1.13245531183945,-0.677055218423406,1.29096883410514,1.44922987166365,1.44922987166417,0.894418137238369,2.88586182999176,2.77743346910944,1.59401055029244,1.71093647711588,1.59401055029305,-0.536313591250368,0.413057031927108,-0.258138531273638,0.840607693716154,-1.7324154695241,-0.216687581201608,-1.04943754852019,NaN,-0.48486657392105,-0.529739030702775,2.5563254626997,1.4919965238093,-0.661859536373296,-0.568259540640514,-0.568259540639328,2.30340483645231,-2.30340483645121,-0.548501564952424,2.09673072755253,-0.167081263893189,1.02290335925003,-1.11251890592111,0.0122090141287612,-0.830149262976846,0.508355744845772,-0.19483922718639,-0.194839227186367,-1.48805385535714,1.49120321198366,0.0253402485883304,-0.262861045048362,0.377407897191071,0.133684019093074,NaN,1.30620290859292,-1.03516384888801,-0.245092002235227,0.245092002235845,-0.546153228242712
1018.88,-1.31738174978481,1.12584712970124,-0.66824943315372,1.27112752599513,1.42092447206767,1.42092447206821,0.906792356581423,2.86327434665381,2.77155653455277,1.56384677226474,1.71629925003107,1.56384677226534,-0.528642892108467,0.408119026455483,-0.254059522467131,0.856707987606296,-1.74906721714797,-0.208166505367295,-1.04329265466936,NaN,-0.520257645692781,-0.545604223509165,2.54657280319069,1.46833743018564,-0.67403154606053,-0.570593443067153,-0.570593443065977,2.28361633381857,-2.28361633381749,-0.545314487050718,2.058985225837,-0.174655979261137,0.997634261644405,-1.0984860546798,0.0177464580873875,-0.817547755348705,0.501150719857612,-0.200940115532814,-0.200940115532788,-1.47916242133977,1.47576697742765,0.00944129670193945,-0.269429182396171,0.397289948091075,0.153971426573498,NaN,1.30603491773785,-1.01475923019966,-0.281941705564009,0.281941705564633,-0.538570834928092
1018.9824,-1.30500740009195,1.11873114664839,-0.660328044243194,1.25096523287459,1.39258060823958,1.39258060824014,0.919564578873027,2.83928548173787,2.76501229318611,1.53333742329713,1.72154294612553,1.53333742329774,-0.522309158687593,0.402123110871642,-0.251456972367573,0.872709467208092,-1.76495463695152,-0.199190145834141,-1.0367272514969,NaN,-0.554196785256455,-0.561063882164361,2.53562534850858,1.44413964944211,-0.685839620099293,-0.57320100575298,-0.573201005751815,2.26332823239387,-2.2633282323928,-0.542372984003105,2.02072822436409,-0.182430124733396,0.97196004532922,-1.08376428800111,0.023066963883263,-0.804510558361743,0.493804271494656,-0.206166124738172,-0.206166124738144,-1.46982516469016,1.45953951759953,-0.00729644503178491,-0.275773953681868,0.416748085189587,0.17397788277033,NaN,1.30583265016867,-0.997061117962583,-0.317265769819591,0.317265769820217,-0.531914678912929
1019.0848,-1.29333848667247,1.11112495031344,-0.653284113112795,1.23053121298507,1.36424835692711,1.36424835692769,0.932725683058461,2.81392554383064,2.75781475714603,1.50254806711604,1.72669334817815,1.50254806711665,-0.517346741346467,0.395096411207482,-0.250347147112818,0.888555625440171,-1.78003424119974,-0.189799873134672,-1.0297533481794,NaN,-0.586609052038605,-0.576085443859967,2.52349038096103,1.41944165762855,-0.697297214072259,-0.576043408142426,-0.57604340814127,2.24253817120794,-2.24253817120688,-0.539706467615515,1.98203994894091,-0.190404515193784,0.945923462084066,-1.06838207907294,0.0281806054554284,-0.791055264602365,0.486316129288632,-0.210508240153417,-0.210508240153386,-1.46005480493165,1.44255504227631,-0.0248209678585198,-0.281831923054116,0.435704230406709,0.193692206812429,NaN,1.30558337006115,-0.982028387525234,-0.351009429515795,0.351009429516412,-0.526161149226058
1019.1872,-1.28237155929309,1.10304576976086,-0.64710629773698,1.20987194444531,1.33597513731325,1.33597513731384,0.94626574283651,2.78722600047853,2.74997810066857,1.47154197758025,1.73177597545166,1.47154197758086,-0.513781033249617,0.387070274705139,-0.2507375647815,0.904189905192488,-1.79426274390213,-0.180037278599333,-1.02238272504497,NaN,-0.617424427952803,-0.590635573446824,2.51017699977849,1.39428414528289,-0.708420748603463,-0.579080564755048,-0.579080564753902,2.22124445308124,-2.2212444530802,-0.537343032304207,1.94299683581139,-0.198579046344723,0.91956581471341,-1.05236844368979,0.0330988010133895,-0.777199370602415,0.478685061409911,-0.21396077613256,-0.213960776132527,-1.44986375715688,1.42484865261333,-0.0430773811034134,-0.287540793822785,0.454080849573626,0.213102027090492,NaN,1.30527254558482,-0.969605825364168,-0.383123416340057,0.38312341634066,-0.521283625438955
1019.2896,-1.2720983611632,1.09451049995227,-0.641779024063991,1.18903097949136,1.30780570158264,1.30780570158324,0.960174207510614,2.75921931231258,2.74151669059559,1.44038008045475,1.73681610523819,1.44038008045535,-0.511628325344029,0.378079953669552,-0.252627007166674,0.919556018037627,-1.80759730458872,-0.169943939865732,-1.01462680899109,NaN,-0.646578127804103,-0.60468017058966,2.49569610921977,1.36871000082604,-0.719229346149672,-0.582271395304242,-0.582271395303111,2.19944622938119,-2.19944622938016,-0.535309259898472,1.90367125236658,-0.206952625469072,0.89292685122582,-1.03575278093512,0.0378339732216935,-0.762960284499131,0.470908969434647,-0.216521434774375,-0.216521434774341,-1.43926401177011,1.40645603718228,-0.0620083568928556,-0.292839855982451,0.471801378597187,0.232193658010581,NaN,1.30488409851798,-0.959724633770038,-0.413563767231684,0.413563767232262,-0.517252795456822
1019.392,-1.26250605616752,1.08553571385069,-0.637282687841728,1.16804882175332,1.27978212654031,1.27978212654092,0.974440046920624,2.72993878053477,2.73244509694344,1.40912090946056,1.74183878600494,1.40912090946117,-0.510895743141103,0.368164283956202,-0.256005598203218,0.934598228698091,-1.81999576090206,-0.159561223088255,-1.00649654734768,NaN,-0.674010865385538,-0.618184398760984,2.48006037901791,1.34276425011761,-0.72974455410396,-0.585574072624436,-0.585574072623317,2.17714367834923,-2.17714367834823,-0.533630032935345,1.86413126473966,-0.215523106409602,0.866044681574154,-1.01856471788973,0.042399227609569,-0.748355329894047,0.462984992552065,-0.218191338951875,-0.218191338951839,-1.42826703291679,1.3874131962714,-0.0815545515487859,-0.2976703844616,0.48879060521874,0.250951994398578,NaN,1.30440062107149,-0.952303021455458,-0.442291624643881,0.442291624644439,-0.51403696662253
1019.4944,-1.25357748778254,1.07613766566654,-0.633593889597955,1.14696281634476,1.25194380639555,1.25194380639618,0.989051853544951,2.69941841233604,2.72277808111563,1.37782058209336,1.74686884571514,1.37782058209396,-0.511581253997495,0.357365351272019,-0.260854942854452,0.949261615853887,-1.83141685661582,-0.148930112922084,-0.998002292998714,NaN,-0.699669094983132,-0.631112728293737,2.46328418689217,1.31649396768935,-0.739990054155655,-0.588946260197358,-0.588946260196255,2.15433818236092,-2.15433818235993,-0.532328350959193,1.82444046055494,-0.224287225058209,0.838955723819775,-1.0008339592933,0.0468080474102889,-0.733401747278441,0.454909620440188,-0.218975043491154,-0.218975043491116,-1.41688368293961,1.36775620223429,-0.101655002488706,-0.301976004221475,0.504975031849756,0.269360435537432,NaN,1.30380357907061,-0.947246877173469,-0.469273039878056,0.469273039878586,-0.511602374884676
1019.5968,-1.24529146852561,1.06633229225021,-0.630685698393666,1.12580705138854,1.22432745187624,1.22432745187689,1.00399790076923,2.66769280556495,2.71253056187229,1.34653280862369,1.75193089561474,1.34653280862429,-0.513673733699416,0.345728140566212,-0.267148319513642,0.96349231457308,-1.84182046635212,-0.138091064272764,-0.989153706753226,NaN,-0.723505246733116,-0.643428989235939,2.44538356015881,1.28994817741846,-0.749991354122444,-0.592345347231617,-0.592345347230531,2.13103250239541,-2.13103250239444,-0.531425142737966,1.78465783068351,-0.233240528081972,0.811694686509843,-0.982590140163976,0.051073999714412,-0.718116693443356,0.446678815359859,-0.218880528192725,-0.218880528192686,-1.40512417901676,1.34752100295339,-0.122247498361388,-0.305703034433739,0.520283243913464,0.287400856197622,NaN,1.30307352353668,-0.944450516068157,-0.494478790503174,0.494478790503685,-0.50991350132829
1019.6992,-1.23762309499,1.05613521900916,-0.62852793679858,1.10461228421846,1.19696709977909,1.19696709977975,1.01926615901311,2.63479705120043,2.70171755941631,1.31530894473096,1.75704932464718,1.31530894473155,-0.517153087727723,0.33330016877913,-0.274850922167898,0.977237736676421,-1.85116781462247,-0.127083878867507,-0.979959672514274,NaN,-0.745477961220604,-0.655096434167662,2.42637612798286,1.2631777516195,-0.759775455902371,-0.595728680808545,-0.595728680807474,2.10723094439136,-2.10723094439042,-0.53093906730973,1.74483770880274,-0.242377286081075,0.784294592322371,-0.963862679773352,0.0552104449169579,-0.702517240673606,0.438288148488443,-0.217919179508216,-0.217919179508176,-1.39299808495636,1.32674327092188,-0.143268923517627,-0.308800808693273,0.534646287855698,0.30505363694914,NaN,1.30219031782353,-0.943797486787467,-0.517884219202489,0.517884219202978,-0.508933400949888
1019.8016,-1.23054408243052,1.04556177226485,-0.627087480665159,1.08340590946862,1.1698941326408,1.16989413264149,1.03484427420603,2.60076665148202,2.6903541197514,1.28419808228127,1.76224827649022,1.28419808228186,-0.521990431391592,0.320131108087694,-0.283920152778761,0.990446762557853,-1.85942168556442,-0.115947612432049,-0.970428217998833,NaN,-0.765552308592508,-0.666077814384228,2.40628108039002,1.23623530206231,-0.769370497807674,-0.599053790649987,-0.599053790648938,2.08293951283098,-2.08293951283006,-0.530886306434492,1.70502976288397,-0.251690394459604,0.756786837683939,-0.944680636947407,0.059230246327607,-0.686620376875626,0.429732954977566,-0.216105763025915,-0.216105763025873,-1.38051433210894,1.30545829033263,-0.16465558068407,-0.31122196075733,0.547998046783547,0.322297753350765,NaN,1.30113337202051,-0.945161430750247,-0.539469093974652,0.539469093975128,-0.508624037112131
1019.904,-1.22402311424835,1.03462699515664,-0.626328570826951,1.0622119743031,1.14313730550586,1.14313730550656,1.05071951468414,2.56563745444441,2.67845522481237,1.25324715590469,1.76755160317295,1.25324715590528,-0.528148337157338,0.306272410978937,-0.294305965924704,1.00306990138488,-1.86654662031358,-0.104720514193712,-0.960566439313137,NaN,-0.783699970705025,-0.676335474300429,2.38511912029156,1.20917504715433,-0.778805378999583,-0.602278601857269,-0.602278601856243,2.05816604860297,-2.05816604860207,-0.531280363180627,1.66527903112704,-0.261171278852663,0.729201273413939,-0.925072568693853,0.0631454859830762,-0.670443005879598,0.421008505675989,-0.213458378941679,-0.213458378941636,-1.36768125526136,1.2837008694193,-0.186343488674711,-0.312922669217953,0.56027559930491,0.339110912619921,NaN,1.29988187105327,-0.948406990874015,-0.559217482817045,0.559217482817501,-0.508946605923308
1020.0064,-1.2180262049235,1.02334566200817,-0.626213137812524,1.04105123277892,1.11672277665147,1.1167227766522,1.06687869188546,2.52944560867771,2.66603569547838,1.22250103962289,1.77298279491318,1.22250103962347,-0.535581153021063,0.291776945376957,-0.305951265458914,1.01505941967181,-1.87250910059018,-0.0934399976308303,-0.95038043278541,NaN,-0.79989937860281,-0.685831467766089,2.36291239807547,1.1820526433084,-0.788109378935994,-0.605361631950219,-0.605361631949211,2.03292034947188,-2.03292034947101,-0.532131882348179,1.62562599848026,-0.270809820727864,0.701566294195807,-0.905066397079997,0.0669671953021965,-0.654001948376172,0.412110188634479,-0.209998391270191,-0.209998391270148,-1.35450663058045,1.26150526935188,-0.20826864507735,-0.313862857680969,0.571419550623793,0.355469726270683,NaN,1.29841498413049,-0.953390772298921,-0.577117637690079,0.577117637690523,-0.50986183502583
1020.1088,-1.21251707859472,1.01173228786545,-0.626701143148696,1.01994122840419,1.09067414152362,1.09067414152436,1.08330805783752,2.49222754224613,2.65311009270719,1.19200261910834,1.77856489153879,1.19200261910893,-0.544235387837317,0.276698639892006,-0.318792349931032,1.02636943982356,-1.87727772074992,-0.0821426420807056,-0.939875238142356,NaN,-0.814135816878327,-0.69452769529144,2.33968442765904,1.15492498062723,-0.797311782663887,-0.608262170690885,-0.608262170689897,2.00721427335191,-2.00721427335106,-0.53344849846887,1.58610671426857,-0.280594305061873,0.673908935926145,-0.884689291629093,0.0707051050199939,-0.637313947280387,0.403033695253439,-0.205750330026225,-0.205750330026181,-1.3409977122297,1.23890514762569,-0.230367250780377,-0.314006346899705,0.581374329893786,0.371349915457765,NaN,1.29671204720027,-0.959962357892533,-0.593161889726573,0.593161889727009,-0.511330250924159
1020.2112,-1.20745756736407,0.999801135198543,-0.627750940030869,0.998896396872865,1.06501247505459,1.06501247505535,1.09999318197292,2.45401996774085,2.63969262026655,1.16179284039096,1.78432038442348,1.16179284039155,-0.554050154563155,0.261092134482428,-0.332759401522454,1.0369560129317,-1.88082335322642,-0.0708642233227776,-0.929054796194623,NaN,-0.826401511312126,-0.702386055682941,2.31545999189978,1.12784995568621,-0.806441518705996,-0.610940443117446,-0.610940443116484,1.98106182738654,-1.98106182738571,-0.535234708393436,1.54675295131738,-0.290511380106957,0.646254987618394,-0.863967573213746,0.0743674153949021,-0.62039568163637,0.393775209721869,-0.200741772509495,-0.200741772509451,-1.32716127301883,1.21593351761464,-0.252575905177798,-0.313320959289156,0.590088454211484,0.38672654887069,NaN,1.29475271803454,-0.967965375101579,-0.607346557282776,0.607346557283193,-0.513312420113474
1020.3136,-1.20280802967181,0.987566226200544,-0.629319649667008,0.977928185547822,1.03975639521968,1.03975639522046,1.11691881313386,2.41485991444514,2.62579703455424,1.13191074696587,1.79027111772719,1.13191074696645,-0.564957659760997,0.245012436992889,-0.347777009117488,1.04677717214908,-1.88311930637781,-0.0596397640157057,-0.917921921923102,NaN,-0.836695702920443,-0.709368602870687,2.29026505120181,1.10088624163144,-0.815526814134756,-0.613357754927639,-0.613357754926702,1.95447924614845,-1.95447924614764,-0.537491763867024,1.50759240551273,-0.300546018412652,0.618629124307883,-0.84292664063041,0.0779605875879802,-0.603263789614747,0.384331600289507,-0.195003210203159,-0.195003210203115,-1.31300365566348,1.19262272621179,-0.274831783204887,-0.311778581632261,0.597514761386386,0.401574306068538,NaN,1.29251711137726,-0.977238601385561,-0.619671859268069,0.61967185926848,-0.515769173288373
1020.416,-1.19852777879599,0.975041371583634,-0.631363539028468,0.957045192400367,1.0149221621443,1.0149221621451,1.13406873691017,2.37478478874941,2.6114365706181,1.1023935218727,1.79643819370056,1.10239352187328,-0.576883725197794,0.228514597663363,-0.363764709516017,1.05579297313778,-1.88414146399816,-0.0485035871694243,-0.906478290788607,NaN,-0.84502469805366,-0.715437700414728,2.26412666594609,1.07409307155512,-0.824594870696225,-0.615476616499332,-0.615476616498418,1.92748505845167,-1.92748505845088,-0.54021758170723,1.46864893522364,-0.310681475845154,0.591055062758296,-0.821590916077147,0.0814891583749915,-0.585934896959436,0.374700608720664,-0.188567905715159,-0.188567905715114,-1.29853083579759,1.16900444720747,-0.297072802618163,-0.30935519356655,0.603610611140988,0.415867751887,NaN,1.28998592448182,-0.987617087492887,-0.630141822070025,0.630141822070424,-0.518661819045531
1020.5184,-1.194575503414,0.962240220980218,-0.633838381078908,0.936253328252305,0.990523816308654,0.990523816309467,1.15142563980702,2.33383246240293,2.59662389349517,1.07327654531655,1.80284188143211,1.07327654531713,-0.589748327903068,0.211653419463679,-0.380637528908916,1.06396552834068,-1.88386839775578,-0.0374893570286927,-0.894724437764351,NaN,-0.851401884833927,-0.720556173005334,2.23707293262024,1.04753003573812,-0.833671565603594,-0.617260843528009,-0.617260843527112,1.90010013929406,-1.90010013929329,-0.543406672087267,1.429942836354,-0.320899252958428,0.563555734866038,-0.79998380356009,0.0849555819710737,-0.56842564498637,0.364881034974937,-0.181471741870453,-0.181471741870408,-1.28374849195908,1.14510968202962,-0.319237790253565,-0.306030871313262,0.608338057226381,0.429581608731716,NaN,1.28714056199607,-0.998933276393499,-0.63876417699427,0.638764176994661,-0.521952349525073
1020.6208,-1.19090966523114,0.949176331044886,-0.636699785639126,0.915555999611983,0.966573344846071,0.966573344846896,1.16897098710145,2.29204138499214,2.58137107792666,1.04459346466279,1.80950152431806,1.04459346466337,-0.603466151015421,0.194483216178185,-0.39830651380925,1.07125904044654,-1.8822814568291,-0.0266301035431482,-0.882659772615421,NaN,-0.855847712894023,-0.724687462527558,2.20913292738018,1.02125688019219,-0.84278118078842,-0.618675637811355,-0.618675637810482,1.87234774584478,-1.87234774584403,-0.547050087919015,1.39149113997756,-0.331179065624746,0.53615346724988,-0.778127655238694,0.0883601037888522,-0.550752712585727,0.354872916871624,-0.173753061760955,-0.17375306176091,-1.26866207701135,1.1209687593893,-0.341266654374285,-0.301789776680308,0.611663997095266,0.442691019275667,NaN,1.28396326321446,-1.01101810372108,-0.645550258444231,0.645550258444621,-0.525603637214471
1020.7232,-1.18748886817366,0.935863243133901,-0.6399034997229,0.894954303796247,0.943080859589305,0.943080859590137,1.18668491238386,2.24945071410978,2.5656896101768,1.01637626518829,1.81643543985532,1.01637626518888,-0.617947143788147,0.177057620051017,-0.416679249432086,1.07763983564458,-1.87936484577145,-0.0159582380917345,-0.870282615686524,NaN,-0.858389634962866,-0.727795799206566,2.18033665263587,0.995333292447923,-0.851946164018178,-0.619687654233038,-0.619687654232189,1.8442535405649,-1.84425354056417,-0.55113540018096,1.35330791660646,-0.341498830117714,0.508870155057707,-0.756043742713815,0.0917006700575438,-0.532932828509718,0.344677705164375,-0.165452495500649,-0.165452495500603,-1.25327688845884,1.09661133107937,-0.363100563645499,-0.296620137087788,0.613560302044595,0.455171793822962,NaN,1.28043722576913,-1.02370207729382,-0.650514918744744,0.650514918745129,-0.529579618973423
1020.8256,-1.18427220051033,0.922314561969654,-0.643405682674393,0.874447227605631,0.920054773422736,0.92005477342358,1.20454611148235,2.20610045292961,2.54959039868798,0.988655330434319,1.82366080770604,0.988655330434901,-0.633097089535725,0.159429432543146,-0.435660367135108,1.08307639320495,-1.8751056951647,-0.00550556853695777,-0.857590260151065,NaN,-0.859062008691454,-0.72984639443842,2.15071498508366,0.969818666704641,-0.861186923518972,-0.620265059369777,-0.620265059368944,1.81584560370372,-1.81584560370301,-0.555646704988277,1.3154045780278,-0.351834665199662,0.481727423446994,-0.733752232710118,0.0949728747843479,-0.51498277297993,0.334298432995874,-0.156612769578016,-0.15661276957797,-1.23759813830749,1.07206636631579,-0.38468212853336,-0.29051422048615,0.614003929383053,0.467000637819441,NaN,1.27654671527391,-1.03681634038028,-0.653676469878945,0.653676469879329,-0.533845461950798
1020.928,-1.18121955495947,0.908544027009897,-0.647163164663042,0.854031842871047,0.897501965598127,0.897501965598983,1.22253173529181,2.16203158109879,2.53308377910356,0.961459483927141,1.83119354851178,0.961459483927722,-0.648818179255233,0.141650503933923,-0.455152044825757,1.08753936583786,-1.86949411798442,0.00469668448301788,-0.844579067734566,NaN,-0.857905961565095,-0.730805654562053,2.12029962449922,0.944771848546942,-0.870521655942167,-0.620377586501436,-0.620377586500624,1.78715443379461,-1.78715443379391,-0.560564666489057,1.27779017593327,-0.362160910923293,0.454746776508647,-0.711272170387345,0.09816994218064,-0.496919371743827,0.323739878083507,-0.147278499421292,-0.147278499421244,-1.2216310275209,1.0473621523289,-0.405955578656968,-0.28346831107716,0.61297702484948,0.478155362094809,NaN,1.2722771536363,-1.05019372368542,-0.65505665266162,0.65505665266201,-0.538367707965427
1021.0304,-1.17829193393167,0.894565572320933,-0.651133697064498,0.833703496630538,0.875427933409741,0.875427933410607,1.24061728085747,2.11728616648692,2.51617950429498,0.93481600932707,1.83904820193486,0.934816009327651,-0.665009592965646,0.123771623315924,-0.475054509307935,1.09100158425627,-1.86252323973893,0.0146178704823045,-0.831244599722138,NaN,-0.854969227033313,-0.730641407913214,2.08912304391541,0.92025086741577,-0.879966206743238,-0.619996589344747,-0.619996589343952,1.75821293430762,-1.75821293430694,-0.56586659512318,1.24047170028413,-0.372450160975111,0.427949737276635,-0.688621476361904,0.101282739580112,-0.478759489004708,0.31300871670597,-0.137495971733995,-0.137495971733946,-1.20538083376509,1.02252631476171,-0.42686692425297,-0.275482688451423,0.610467022872425,0.488615083387991,NaN,1.26761518600703,-1.06366978606082,-0.654680627574604,0.654680627575002,-0.54311439685223
1021.1328,-1.17545174418341,0.880393379443884,-0.655276196499263,0.813455999013908,0.853836938742424,0.853836938743302,1.25877648548841,2.07190745404567,2.49888672064784,0.90875065604648,1.84723781266663,0.908750656047062,-0.681568095189492,0.105842408022602,-0.49526655000796,1.09343804455215,-1.85418919969261,0.0242278914997646,-0.817581779630129,NaN,-0.850305957169935,-0.729323134164682,2.05721844448404,0.896312670491728,-0.8895339610882,-0.619095091977966,-0.619095091977191,1.72905638254383,-1.72905638254316,-0.571526556313894,1.20345438019631,-0.382673306356085,0.401357981753497,-0.66581696234365,0.104299816305911,-0.46052002460567,0.302113668167471,-0.127312924907073,-0.127312924907024,-1.18885301881165,0.99758586932444,-0.447364089419321,-0.266561606125372,0.606466743127538,0.498360419962206,NaN,1.2625487334311,-1.07708383621055,-0.652576978534405,0.652576978534813,-0.548055173035037
1021.2352,-1.17266307556972,0.866041933300219,-0.659550972900766,0.79328181413191,0.832732163840617,0.832732163841507,1.27698123374929,2.02593993614071,2.4812139417608,0.883287645807398,1.85577382823601,0.88328764580798,-0.698388644983441,0.087911197203643,-0.515686042519103,1.09482588758105,-1.8444911348176,0.0334971871459232,-0.803585081655619,NaN,-0.843976506873183,-0.726822186326221,2.02461971875855,0.873012870619599,-0.899235761894466,-0.617647828718041,-0.617647828717285,1.69972237092031,-1.69972237091966,-0.57751550301433,1.16674198905336,-0.392799593362248,0.374993465954055,-0.642874364607634,0.107207467787188,-0.442217915144041,0.291065626545847,-0.116778332715388,-0.116778332715338,-1.17205335529911,0.972567303306114,-0.467397019794232,-0.256713263356973,0.600974478976879,0.50737368628607,NaN,1.25706704111425,-1.09027991990977,-0.648777721065939,0.648777721066343,-0.553161381520951
1021.3376,-1.16989195024724,0.851526085889056,-0.663919926885633,0.77317225760496,0.812115881314331,0.812115881315235,1.29520148812633,1.97942940772375,2.4631690307827,0.858449691761278,1.86466600748158,0.858449691761857,-0.715365010085888,0.0700249615163639,-0.53621046896271,1.09514438435585,-1.83343116091882,0.0423967297614114,-0.789248736662884,NaN,-0.836047179134699,-0.723112001404528,1.99136142185558,0.850405511862563,-0.909079851502713,-0.615631268775787,-0.61563126877505,1.67025071133194,-1.6702507113313,-0.583801428676876,1.13033715350426,-0.402796701859176,0.348878541899825,-0.619808387826516,0.109989827317053,-0.42387013251301,0.279877775456266,-0.1059421915269,-0.10594219152685,-1.15498806611452,0.94749667235071,-0.4869177837035,-0.245949764197617,0.593994075361455,0.515639093836938,NaN,1.25116072826208,-1.10310775290725,-0.643318311018174,0.643318311018574,-0.558406158417551
1021.44,-1.16710652937154,0.836861121297098,-0.668346707670313,0.753117700219707,0.791989628281847,0.791989628282762,1.31340525059767,1.93242300353332,2.44475919531456,0.834258026985955,1.87392233728567,0.834258026986531,-0.732390373065617,0.0522292339373024,-0.556737423614277,1.09437493718044,-1.82101435771865,0.0508980373497557,-0.774566946215535,NaN,-0.826589925568959,-0.718168302622961,1.95747874582121,0.828542846072362,-0.919071835931314,-0.613023626134205,-0.613023626133487,1.64068330185233,-1.64068330185171,-0.59034954408488,1.09424166038893,-0.412630847642342,0.323036056893984,-0.59663274947822,0.112628988781583,-0.405493671282154,0.268565681433366,-0.0948553062679461,-0.0948553062678949,-1.13766396501796,0.922399694208505,-0.505880683591398,-0.234287056711045,0.585534989738423,0.523142960497235,NaN,1.24482183762904,-1.11542358226879,-0.636237652929074,0.63623765292947,-0.563764517127066
1021.5424,-1.16427727063957,0.822062809941904,-0.672796831202404,0.733107771788215,0.77235437033888,0.772354370339803,1.33155855793079,1.88496921308831,2.42599099418541,0.810732429130987,1.88354895683494,0.810732429131559,-0.749357923391136,0.0345680585217445,-0.577165100265137,1.0925011003333,-1.80724876009388,0.058973207640722,-0.759534096412812,NaN,-0.815682000989946,-0.711969298300986,1.92300749235822,0.807475111516965,-0.929214673780841,-0.609804859777195,-0.609804859776485,1.61106396132111,-1.61106396132051,-0.597122485134241,1.05845675104287,-0.422266908761566,0.297489430465376,-0.573360217436785,0.115105162207386,-0.387105518679115,0.257147360832484,-0.0835690673196232,-0.0835690673195716,-1.12008858628307,0.897301826159193,-0.524242380478478,-0.221744844336313,0.575612321092661,0.529873918867843,NaN,1.23804387626385,-1.12709096730257,-0.6275781031585,0.627578103158898,-0.569213426928117
1021.6448,-1.16137703737265,0.807147442232859,-0.677237763807846,0.713131554317126,0.753210646024885,0.753210646025815,1.34962551087088,1.83711787072531,2.40687035428797,0.787891229785566,1.89355009052783,0.787891229786139,-0.766161433806389,0.0170839516994106,-0.597392762206011,1.08950862113575,-1.79214535885064,0.0665949717924227,-0.744144967714451,NaN,-0.803405569310733,-0.704495878120821,1.88798403911551,0.787250309035352,-0.939508692810415,-0.605956668839196,-0.605956668838498,1.5814382386833,-1.58143823868271,-0.604080554457989,1.02298339649355,-0.431668573003451,0.272262707299206,-0.550002638124128,0.117396859579381,-0.368722606158789,0.245643315503551,-0.0721352121829302,-0.0721352121828774,-1.10227029511401,0.872228320003608,-0.541962026389194,-0.208346463260508,0.564246790522317,0.535823107904752,NaN,1.23082183670275,-1.13798148098706,-0.617385459231897,0.617385459232289,-0.574731877970401
1021.7472,-1.1583811679241,0.792131837078387,-0.681638981551571,0.693177752959769,0.734558687202887,0.734558687203824,1.3675683378086,1.78892011584118,2.38740259452693,0.76575130291209,1.90392799210209,0.76575130291266,-0.782695822151236,-0.000182132166778342,-0.61732119903105,1.08538550092356,-1.77571811370604,0.0737367650499853,-0.728394943664247,NaN,-0.789847257675794,-0.695731800833466,1.8524452931515,0.767913976635715,-0.949951635197962,-0.601462483093941,-0.601462483093247,1.55185320323363,-1.55185320323306,-0.611181992329807,0.987822555457722,-0.440798500663772,0.247380590985442,-0.526570960235155,0.119481104187521,-0.350361748844158,0.234076536339583,-0.0606055729322804,-0.0606055729322276,-1.08421837646252,0.847204253762372,-0.559001401122659,-0.194118726292761,0.55146466683157,0.540984336337069,NaN,1.22315219177963,-1.14797534075638,-0.605708930898568,0.605708930898959,-0.580300926255617
1021.8496,-1.15526752029754,0.777033327034952,-0.685972018056588,0.67323484076741,0.716398516538782,0.716398516539724,1.3853474942712,1.74042831800866,2.36759245420113,0.744328031804066,1.91468290345185,0.744328031804637,-0.798857703190878,-0.0171908429155347,-0.636853178632466,1.08012207412822,-1.75798397542951,0.0803728143252985,-0.712280223773307,NaN,-0.775097658563419,-0.685663862175955,1.81642862687809,0.749508970099754,-0.960538728014051,-0.596307445755364,-0.596307445754671,1.52235721888778,-1.52235721888722,-0.618383266271288,0.952975419688603,-0.449618492829346,0.22286846737408,-0.50307526726524,0.121333654948655,-0.332039585966196,0.222472478283812,-0.0490318191690691,-0.0490318191690161,-1.06594310410453,0.822254541499579,-0.57532505440965,-0.179091738043379,0.537297640812329,0.545354215095687,NaN,1.21503286443839,-1.15696197938297,-0.592601092837608,0.592601092838007,-0.585903714865973
1021.952,-1.15201650555863,0.761869727625188,-0.690210509611258,0.653291185222064,0.698730029902766,0.698730029903711,1.40292179722751,1.69169596746558,2.34744412534803,0.723635260408088,1.92581302992634,0.723635260408658,-0.814545936278956,-0.033904492355564,-0.655893902147263,1.0737111029421,-1.73896291138819,0.086478243770599,-0.695798042237307,NaN,-0.759250779566563,-0.674282030433368,1.77997179645988,0.732075262196154,-0.971262771043321,-0.590478385453208,-0.590478385452512,1.49299970141014,-1.4929997014096,-0.625639365105389,0.918443647433531,-0.458089655641982,0.198752424118941,-0.479524832956417,0.122929238243584,-0.313772535686625,0.210859010558328,-0.0374652088436156,-0.0374652088435621,-1.04745579313604,0.79740392212027,-0.59090045899424,-0.163298682039748,0.521782653675835,0.548932266458001,NaN,1.20646318178454,-1.16484055746963,-0.578117814353309,0.57811781435371,-0.591525473814722
1022.0544,-1.14861111216135,0.746659298057056,-0.69433023606469,0.633335169336873,0.681553070270325,0.681553070271271,1.42024859415542,1.6427775340525,2.3269612911874,0.703685239191681,1.93731453074112,0.70368523919225,-0.829662170837199,-0.0502871244050177,-0.674351462118068,1.06614788656801,-1.71867793667513,0.0920291953542301,-0.678946890855824,NaN,-0.742403438657419,-0.66157954213791,1.74311284120605,0.715649766886727,-0.982114235139769,-0.583963776272356,-0.583963776271659,1.46383085551127,-1.46383085551075,-0.632904086534765,0.884229581593634,-0.4661725579598,0.175059266245382,-0.455928203464206,0.124241786384405,-0.295576767487301,0.199266341122474,-0.0259563531496676,-0.0259563531496134,-1.02876883705149,0.772676925431978,-0.605698181559172,-0.14677557728873,0.504961683297512,0.551721020379756,NaN,1.19744382677767,-1.17152040257664,-0.562318156200525,0.562318156200937,-0.597153504428591
1022.1568,-1.14503690993647,0.731420693975174,-0.698309146930792,0.613355313622168,0.664867490584253,0.664867490585197,1.4372839738646,1.59372829298851,2.30614717524812,0.684488571125653,1.94918152180793,0.684488571126223,-0.844111384400421,-0.0663045865923716,-0.692137295334058,1.0574303861982,-1.6971551618183,0.0970029575217064,-0.661726741811132,NaN,-0.724654606790016,-0.647552958884322,1.7058899562273,0.700266181422813,-0.993081370095403,-0.576753687052439,-0.576753687051741,1.43490139211103,-1.43490139211053,-0.640130318561948,0.85033644786994,-0.473827387630284,0.151816521820475,-0.43229329762087,0.125244688443118,-0.277468183510371,0.187726909775324,-0.0145549945319321,-0.014554994531877,-1.00989572691953,0.748097812276936,-0.619692073233425,-0.12956100750464,0.486881491527421,0.553726097430464,NaN,1.18797679884259,-1.17692135329031,-0.545264230196848,0.545264230197265,-0.602777148755309
1022.2592,-1.14128202123791,0.716172909503891,-0.702127362581277,0.593340398522585,0.648673198940601,0.648673198941542,1.453983023285,1.54460411812291,2.28500460507683,0.666054153012907,1.96140608646795,0.666054153013475,-0.857802402035295,-0.0819245917398539,-0.709166617065795,1.04755936345457,-1.6744238625422,0.101378094748342,-0.644139261268373,NaN,-0.706104713852152,-0.632202192409388,1.66834133399767,0.685954835699403,-1.00415032294433,-0.56883972458864,-0.568839724587942,1.40626223635285,-1.40626223635236,-0.647270322771959,0.816768529097936,-0.481014115613241,0.129052429692844,-0.408627514296122,0.125911054796142,-0.259462400089672,0.176275246774113,-0.00330979691435536,-0.00330979691429916,-0.990851049497708,0.723690489678867,-0.63285946982066,-0.111695834351302,0.467593338567877,0.554956267415408,NaN,1.17806538669427,-1.18097399979567,-0.527021025882759,0.527021025883171,-0.6083877356735
1022.3616,-1.13733705718022,0.700935211337152,-0.705767147329448,0.573279587716251,0.63297018543079,0.632970185431725,1.47030011665948,1.49546125597044,2.26353608885711,0.648389101472216,1.97397828588575,0.648389101472783,-0.870648384873346,-0.0971167610833917,-0.72535882353617,1.03653852029917,-1.6505165601735,0.105134570876233,-0.626188002527721,NaN,-0.686854947855481,-0.615530508514106,1.63050498535483,0.672742546581226,-1.01530526440476,-0.560214979936773,-0.560214979936078,1.37796424642112,-1.37796424642064,-0.654276025703157,0.78353131195385,-0.487692679901727,0.10679589950386,-0.384937842307288,0.126213987609742,-0.241574728971238,0.164947800669751,0.00773185027585167,0.00773185027590858,-0.971650465805162,0.699478410451858,-0.645181382598477,-0.0932229119128665,0.447152680093792,0.555423477780072,NaN,1.1677141505816,-1.18361983161716,-0.507656209079478,0.507656209079899,-0.613978494432816
1022.464,-1.1331950262175,0.685727074643483,-0.709212856384936,0.553162553745661,0.617758537211069,0.617758537211995,1.48618921269909,1.44635609947702,2.24174389835641,0.63149865462063,1.98688616185699,0.631498654621196,-0.882567279037954,-0.111852643273944,-0.740637853534057,1.02437462329593,-1.62546908965663,0.108253861260172,-0.607878571973754,NaN,-0.667006575033698,-0.597544521414312,1.59241856177727,0.660652482854737,-1.02652852050693,-0.550873988624043,-0.550873988623351,1.35005795949749,-1.35005795949702,-0.661099320849129,0.750631598996116,-0.493823201078969,0.0850764325062711,-0.361230973990447,0.126126850781669,-0.22382016148417,0.153782740248261,0.0185240162459005,0.0185240162459575,-0.95231067810835,0.67548447183697,-0.656642663642037,-0.0741868216452004,0.425618873396349,0.55514285938172,NaN,1.15692891251353,-1.18481130942459,-0.487239894527802,0.487239894528226,-0.619544435084134
1022.5664,-1.12885122490994,0.670568130909287,-0.712450860861292,0.532979603115717,0.603038449825081,0.603038449826,1.50160414133063,1.39734497330329,2.21963015151498,0.615386048715034,2.00011573270892,0.615386048715598,-0.893482219729744,-0.126105709475371,-0.754932505127696,1.01107760324057,-1.59932063823523,0.110719054835077,-0.589218768989966,NaN,-0.646660297037852,-0.578254185982017,1.55411920005488,0.649704050030194,-1.03780070973901,-0.540812710875402,-0.540812710874701,1.32259336675748,-1.32259336675703,-0.6676923811324,0.718077578518182,-0.499366230601259,0.0639239984253309,-0.337513424541997,0.125623539374909,-0.206213357231158,0.142819732501264,0.0290224068421369,0.0290224068421942,-0.932849394964813,0.651730925377529,-0.667232139365254,-0.0546336399780728,0.403054914120913,0.554132722461256,NaN,1.14571675667628,-1.18451187212503,-0.465844399402788,0.465844399403211,-0.62508220491928
1022.6688,-1.1243031198042,0.655478132952254,-0.715469456503937,0.512721794203671,0.588810239620942,0.588810239621854,1.51649886960248,1.34848393578428,2.19719688979019,0.600052381127572,2.01365099051878,0.600052381128134,-0.903321884988679,-0.139851331787412,-0.768176706038893,0.996660634352815,-1.57211375543711,0.112514951161326,-0.570218705020549,NaN,-0.625915658305265,-0.557672787414772,1.51564340359288,0.639912806734062,-1.04910088659315,-0.530028531031952,-0.53002853103124,1.29561971045049,-1.29561971045005,-0.674007975190849,0.685878853487819,-0.504283014533564,0.0433688802388447,-0.313791658143446,0.124678746594228,-0.188768638788156,0.132099700780454,0.0391845363031053,0.039184536303162,-0.913285298966678,0.628239303630749,-0.676942709917418,-0.0346107369695808,0.379527205379455,0.55241454861036,NaN,1.13408604346718,-1.18269588350481,-0.4435439940243,0.443543994024727,-0.630589933804569
1022.7712,-1.11955022691068,0.640476937246177,-0.71825876199339,0.492381046026653,0.575074359267089,0.575074359267994,1.53082773768,1.29982860326113,2.17444614686831,0.585496479719921,2.02747390904377,0.585496479720482,-0.912020792515237,-0.15306675670131,-0.780309737130635,0.98114020101365,-1.54389434361137,0.113628155911956,-0.550890902030184,NaN,-0.604870517430346,-0.535816920827398,1.47702696709757,0.631290425574731,-1.0604066865672,-0.518520273083721,-0.518520273082992,1.26918529901769,-1.26918529901726,-0.679999771130993,0.654046441480344,-0.508535745829764,0.023441510729365,-0.290072221538195,0.123268219608294,-0.171499996170482,0.121664573782359,0.0489698822670946,0.0489698822671509,-0.893638016973974,0.60503036468703,-0.685771411587362,-0.0141665933458588,0.355105344136404,0.550012977295439,NaN,1.12204644069424,-1.1793485175457,-0.420414665074323,0.42041466507475,-0.636067081706357
1022.8736,-1.11459399003734,0.625584499136104,-0.720810610076339,0.471950246460678,0.561831417664665,0.561831417665565,1.54454565875811,1.25143400244024,2.15138000769867,0.571714796934489,2.04156446562178,0.571714796935051,-0.919519534533078,-0.165731082836807,-0.791276408741288,0.96453615457918,-1.51471163431175,0.114047174090322,-0.531250360633501,NaN,-0.583620587291553,-0.512706450606054,1.43830494128286,0.623844706026244,-1.07169446119307,-0.506288231579326,-0.506288231578576,1.2433373397785,-1.24333733977808,-0.685622607333956,0.622592758657892,-0.512087787870025,0.00417231904756145,-0.266361884796574,0.121368994702445,-0.154421104428901,0.111557038139872,0.0583400115124534,0.0583400115125091,-0.873928092026312,0.582124054549411,-0.693719440140106,0.00664938078295294,0.329861903893509,0.54695578333057,NaN,1.10960897279978,-1.17446557775437,-0.396533889568221,0.396533889568639,-0.641514298996994
1022.976,-1.10943765239305,0.610820871770879,-0.723118430781154,0.451423371034349,0.549082202548674,0.549082202549561,1.55760828884609,1.20335444863959,2.12800066120855,0.558701333194266,2.05590067096954,0.558701333194826,-0.925764949324959,-0.177825241961135,-0.801027188387697,0.946871759957304,-1.48461815542486,0.11376249680802,-0.511314584765828,NaN,-0.562259031253445,-0.488364445248032,1.39951162370078,0.617579632622165,-1.08293939504093,-0.493334219380744,-0.493334219379976,1.21812178527446,-1.21812178527405,-0.690832720855691,0.591531592562434,-0.514903875259096,-0.0144084140301517,-0.24266778466861,0.118959609442875,-0.137545351792088,0.101820299548592,0.0672586750880729,0.0672586750881272,-0.854176953968378,0.559539485087339,-0.700792133483526,0.02778703530027,0.303872196497339,0.543273835224699,NaN,1.09678608293463,-1.16805324580256,-0.371980402732981,0.371980402733399,-0.646933298549555
1023.0784,-1.1040861133904,0.596206198260215,-0.725177124333785,0.430795612594906,0.536827699090241,0.536827699091117,1.56997218712268,1.15564343776365,2.1043104550274,0.546447575571406,2.07045859626649,0.546447575571968,-0.930710232713106,-0.189331972687671,-0.809518278186487,0.928173734334532,-1.45366969828611,0.112766677694066,-0.49110355794998,NaN,-0.540876088800076,-0.462817095697303,1.36068056061903,0.612495458475455,-1.09411560928036,-0.479661633401406,-0.479661633400613,1.19358318603267,-1.19358318603226,-0.695587944228122,0.560878056529627,-0.516950317486357,-0.0322707126126535,-0.218997561971314,0.116020300449871,-0.120885868719855,0.0924978431053294,0.0756918873150807,0.0756918873151339,-0.834406881302294,0.537294921330956,-0.706998910730475,0.0491956710391774,0.277214008340061,0.539001014880618,NaN,1.08359169921963,-1.16012775990511,-0.346833945911853,0.346833945912257,-0.652326725144115
1023.1808,-1.09854576788799,0.58176069090827,-0.726982924175403,0.410063511260769,0.525069097530603,0.525069097531463,1.5815949900619,1.10835353755333,2.08031196097123,0.534942428747737,2.08521239027419,0.5349424287483,-0.934314997047489,-0.200235776312131,-0.816711643752165,0.908472279981283,-1.42192528910302,0.111054398173225,-0.470639678469418,NaN,-0.519558705745386,-0.436093630305774,1.32184455193093,0.608588794588945,-1.10519626422942,-0.465275536180571,-0.465275536179763,1.16976454487847,-1.16976454487807,-0.699847890689658,0.530648509718452,-0.51819523082085,-0.0493850990434182,-0.195359486678306,0.112533200710019,-0.104455547902034,0.0836331762331344,0.0836080087755859,0.0836080087756382,-0.81464094650829,0.515407772048551,-0.712353163643663,0.0708242180216353,0.249967316352767,0.534174081390468,NaN,1.070041295657,-1.15071503110465,-0.321174990795356,0.32117499079574,-0.657698007775034
1023.2832,-1.09282433348175,0.567504595660997,-0.728533256091588,0.38922507277474,0.513807785458967,0.51380778545981,1.59243561042938,1.06153626927975,2.05600805411582,0.52417212267962,2.10013428633341,0.524172122680183,-0.936545285703976,-0.210522851575613,-0.822574999601264,0.887801106500749,-1.38944715662566,0.108622521664627,-0.449947668047112,NaN,-0.498390163518592,-0.40822623059262,1.28303565466694,0.605852697256798,-1.1161536703428,-0.450182746935602,-0.450182746934767,1.14670717252853,-1.14670717252813,-0.703574138612848,0.500860428371099,-0.518608804203313,-0.0657228355809418,-0.171762569370981,0.108482542338038,-0.0882670519846494,0.0752695447751153,0.0909778441684976,0.090977844168549,-0.794902941403481,0.493894581645613,-0.716872096960363,0.0926213967029792,0.222213986391749,0.52883247536074,NaN,1.05615193582793,-1.13985021073369,-0.29508443824447,0.295084438244829,-0.663051191683616
1023.3856,-1.08693067635981,0.553458140579861,-0.729826603622716,0.368279866100007,0.503045320504427,0.503045320505254,1.60245445657901,1.01524197943832,2.03140200140275,0.514120096460001,2.11519460494701,0.514120096460564,-0.937373546837382,-0.220181011734878,-0.827081755364834,0.866197432366251,-1.35630068103984,0.105470134792255,-0.429054467012546,NaN,-0.477449720371761,-0.379249939893631,1.24428518153755,0.604276758673888,-1.12695941093458,-0.434391934761648,-0.434391934760791,1.12445054821717,-1.12445054821678,-0.706730411966433,0.471532224963687,-0.518163582274098,-0.0812562052902209,-0.148216659089063,0.103854855894657,-0.0723328123806892,0.067449624967619,0.0977747517966609,0.0977747517967106,-0.775217284623345,0.472771027028426,-0.720576513811682,0.114535868349536,0.194037451477064,0.523018070796716,NaN,1.04194228880585,-1.12757722154634,-0.268643289787382,0.268643289787724,-0.668390755205236
1023.488,-1.08087464604687,0.53964147003535,-0.730862388383394,0.347229093957788,0.492783382430348,0.492783382431149,1.61161365673456,0.969519709366398,2.00649755285514,0.504766871234642,2.13036176038086,0.504766871235205,-0.936778565947724,-0.229199590471019,-0.830210925066825,0.843701955639978,-1.32255430875295,0.101598573996558,-0.407989119291382,NaN,-0.456812278048863,-0.349202552829662,1.20562369738168,0.603847215154255,-1.13758447523047,-0.417913708893032,-0.417913708892147,1.10303218942288,-1.1030321894225,-0.709282747385992,0.442683024834755,-0.516834738377247,-0.0959588093809392,-0.124732526463141,0.0986391510026697,-0.0566650240382284,0.0602151999545771,0.103974753108778,0.103974753108826,-0.755608918754537,0.45205192886877,-0.723490541542702,0.13651637823984,0.1655223720171,0.516774884720644,NaN,1.0274326159354,-1.1139482599007,-0.241932295326272,0.241932295326604,-0.673721420162945
1023.5904,-1.07466692570887,0.526074572309196,-0.731640867729787,0.326075636502732,0.48302371338276,0.483023713383535,1.61987727082268,0.924417075438736,1.98129903009815,0.496089933604468,2.14560228024898,0.496089933605034,-0.934745356788925,-0.237569345952195,-0.831947002813999,0.820358786981184,-1.28827942037263,0.0970114381711051,-0.386782639833086,NaN,-0.436548082097836,-0.318124475612343,1.16708102322037,0.604547090665847,-1.14799939445694,-0.400760702922001,-0.400760702921096,1.08248752997813,-1.08248752997775,-0.711199637877101,0.414332418651108,-0.514600314045223,-0.109805855868973,-0.101321930637121,0.0928270685121681,-0.0412756386955376,0.0536068319800726,0.109556629468674,0.109556629468721,-0.736103206263997,0.431751285549962,-0.725641299911122,0.158511891810143,0.136754284655285,0.510148755503667,NaN,1.01264473588684,-1.09902326953719,-0.215031583115438,0.215031583115748,-0.679047969508247
1023.6928,-1.06831889862163,0.512777207971581,-0.732163046824407,0.304824077671013,0.473768059871475,0.473768059872222,1.62721148000045,0.879980168957438,1.95581141057568,0.488063650959932,2.16088084473334,0.488063650960501,-0.931265011874959,-0.245282374752206,-0.832279810556073,0.796215342056297,-1.25355014682209,0.0917145873824097,-0.365467852689633,NaN,-0.41672246628836,-0.28605855136513,1.12868625376517,0.606356386161565,-1.15817436797067,-0.382947651777581,-0.382947651776656,1.06284980214121,-1.06284980214084,-0.712452143214385,0.386500208344305,-0.511441412708234,-0.122774422109758,-0.0779976683865194,0.0864130009916288,-0.0261763566336595,0.0476635440412377,0.114501996228818,0.114501996228863,-0.716725827352183,0.41188232602335,-0.727058528274034,0.18047172856619,0.107819241068002,0.50318700083972,NaN,0.997601975587624,-1.08286938118167,-0.188020271562257,0.188020271562545,-0.684375086992953
1023.7952,-1.06184252419875,0.499768838231284,-0.732430599446391,0.283480727517463,0.465018121522933,0.46501812152365,1.63358475537711,0.836253475078622,1.93004040822475,0.480659229085597,2.17616034474539,0.480659229086169,-0.926334514058428,-0.252332042603936,-0.831204321863936,0.771322196848206,-1.21844314144977,0.085716126273377,-0.344079190204636,NaN,-0.397395650046048,-0.253049852124913,1.09046778214105,0.609252308092668,-1.16807936879063,-0.36449146247192,-0.364491462470976,1.04414991829423,-1.04414991829386,-0.713013960642277,0.359206154249559,-0.50734234972584,-0.134843688391243,-0.0547736037880589,0.0793941795298314,-0.0113786164468012,0.0424225205553511,0.11879534978369,0.118795349783734,-0.697502673863196,0.392457565808347,-0.72777419572127,0.2023457008375,0.0788034337498666,0.49593806343082,NaN,0.982329109065312,-1.06556031095289,-0.160976055615585,0.160976055615852,-0.689707221548748
1023.8976,-1.05525021369598,0.487068547224044,-0.732445791387731,0.262053647371811,0.456775500527085,0.456775500527777,1.63896801359155,0.793279803487286,1.90399255171466,0.473844706793887,2.19140195028345,0.473844706794462,-0.919956511833766,-0.258712927736085,-0.828720462121113,0.745732916109721,-1.18303732450109,0.0790263731475406,-0.322652449826688,NaN,-0.378622585509998,-0.219145448847134,1.05245331851252,0.613209514190496,-1.17768422830662,-0.345411278457813,-0.345411278456847,1.0264163477603,-1.02641634775993,-0.712861458815167,0.332469720014125,-0.502290772038076,-0.145995153051501,-0.0316646782867063,0.0717707258654627,0.00310641691690177,0.0379188254372606,0.12242408940445,0.122424089404492,-0.678459729609157,0.373488849501112,-0.727822111142948,0.22408425726642,0.0497928099193635,0.488451146024799,NaN,0.966852280596366,-1.04717571805603,-0.133974764348642,0.133974764348874,-0.695048462328088
1024,-1.04855470024493,0.474694954693069,-0.732211403236627,0.240552674944763,0.449041644880239,0.449041644880903,1.64333476568095,0.75110022379489,1.8776752605407,0.467584973790796,2.20656517935937,0.467584973791373,-0.912139064929012,-0.264420767069066,-0.824832886425024,0.719503863019345,-1.14741360941059,0.0716578181373879,-0.301224512302626,NaN,-0.360452843841683,-0.184394174928391,1.01466989294398,0.618200353276516,-1.18695870670792,-0.325728533323719,-0.325728533322735,1.00967498374176,-1.0096749837414,-0.71197368568712,0.306309805787519,-0.496277761868428,-0.156212843587715,-0.00868690278318769,0.0635456729396882,0.0172678657850763,0.0341851308729154,0.125378519687003,0.125378519687045,-0.659622928681022,0.354987368957757,-0.727237539138205,0.245638625459653,0.0208726765635064,0.480775830561412,NaN,0.951198905669007,-1.02780053363974,-0.107089898466419,0.107089898466633,-0.700402406865059
1024.1024,-1.04176890555528,0.462666118848731,-0.731730654786025,0.218989442058517,0.441817783734048,0.44181778373469,1.64666126052914,0.709754000041548,1.85109691604577,0.461841801090601,2.22160796411447,0.46184180109118,-0.902895369433964,-0.269452400827226,-0.819550740718387,0.692693987261307,-1.11165460492229,0.0636250713772275,-0.27983302906958,NaN,-0.342930536496735,-0.148846393478439,0.977143839934987,0.624195086795927,-1.19587255360998,-0.305466988330218,-0.305466988329216,0.993948999162669,-0.993948999162315,-0.710332359841483,0.280744462699535,-0.489297932359314,-0.165483532634286,0.014142666574772,0.054724958795273,0.0310951556412584,0.0312514544213909,0.127651840043419,0.12765184004346,-0.641017986261053,0.336963652010351,-0.726056821002751,0.266960953095087,-0.00787270646891044,0.472961675129255,NaN,0.935397543942706,-1.00752427794941,-0.080392162868097,0.0803921628682756,-0.705772014893845
1024.2048,-1.03490580976954,0.45099942884839,-0.731007137256269,0.19737737735687,0.435104855431569,0.435104855432185,1.64892661796024,0.669278518692839,1.82426691935445,0.456573883765664,2.23648671762839,0.456573883766245,-0.892243470515949,-0.273805719840131,-0.812887414204897,0.665364582682575,-1.07584428107298,0.0549447986562735,-0.25851608605139,NaN,-0.326094274823168,-0.11255376869745,0.939900766268708,0.631162093014744,-1.20439555871758,-0.284652751124966,-0.284652751123948,0.979258699747306,-0.979258699746956,-0.707921846127998,0.255790590613594,-0.481349514616318,-0.173796957398503,0.0368059677932582,0.0453173940724059,0.0445780325206338,0.0291449075018826,0.12924012389237,0.12924012389241,-0.622670203305631,0.319427524209421,-0.724316998064166,0.288004454325437,-0.0363605523203251,0.465057789839453,NaN,0.919477742510003,-0.986440379446605,-0.0539490053336889,0.0539490053338345,-0.711159452396108
1024.3072,-1.0279783297862,0.439711486712453,-0.730044758275498,0.175731686720886,0.428903429968232,0.428903429968822,1.65011294267974,0.629709206404905,1.79719572637586,0.451736906727639,2.25115640875512,0.451736906728223,-0.880205966948377,-0.277479625342476,-0.80486029029524,0.637579010181325,-1.04006759444798,0.0456356423256123,-0.2373118501906,NaN,-0.309977173020891,-0.0755690352783869,0.902965507045152,0.639068063845241,-1.21249759052833,-0.263314275623411,-0.26331427562237,0.965621389591875,-0.965621389591525,-0.704729109543396,0.231463626979785,-0.472434427457702,-0.181146032695271,0.059283987756273,0.0353345980785693,0.0577065801398222,0.0278894605087502,0.130142285249669,0.130142285249708,-0.604604255266826,0.302388054367531,-0.722055435781041,0.308723568371924,-0.0645099925369366,0.457112403163785,NaN,0.903469856200415,-0.964645501920582,-0.0278241689240513,0.0278241689241713,-0.716565939534306
1024.4096,-1.02099920510157,0.428817982169651,-0.728847697089647,0.154069307183621,0.423213630469088,0.423213630469649,1.65020541310238,0.591079438090997,1.76989485537362,0.447283649616363,2.26557065316174,0.447283649616949,-0.866809707823023,-0.280474010613872,-0.79549050010306,0.609402392777711,-1.00441008207672,0.0357181294679903,-0.216258206901971,NaN,-0.294606895873231,-0.037945762754772,0.866362078462768,0.64787820417413,-1.22014862307223,-0.241482343737274,-0.241482343736205,0.95305125869269,-0.953051258692342,-0.700743644377706,0.207777234978992,-0.462558318440797,-0.187527045759133,0.0815568355512095,0.0247909017608677,0.0704712385945559,0.027505728035735,0.130360030767531,0.13036003076757,-0.586843978206753,0.285853496848454,-0.719309449434893,0.329074130848877,-0.0922425323430166,0.449172435445879,NaN,0.887404861017951,-0.94223887632475,-0.00207726819671417,0.0020772681968181,-0.721991619652527
1024.512,-1.01398088229914,0.418333566426288,-0.727420359048519,0.132408837542657,0.418035059214861,0.418035059215395,1.64919234786256,0.553420439906231,1.7423768726631,0.443164142842882,2.27968182620998,0.44316414284347,-0.852085482327692,-0.28278976769094,-0.784802680475951,0.580901302148536,-0.968957446847675,0.0252145752831328,-0.195392399159713,NaN,-0.280005746396147,0.000261877340717176,0.830113636400955,0.657556432960452,-1.22731875372766,-0.219190030615528,-0.219190030614442,0.941559289116917,-0.941559289116567,-0.695957385829697,0.184743001078668,-0.451730573178902,-0.192939825439535,0.10360383968949,0.0137032255373759,0.0828628315753568,0.0280107724135615,0.129897800846583,0.129897800846622,-0.569412163371548,0.269831240230005,-0.716115934754759,0.349013552243897,-0.119482501476895,0.441283092628219,NaN,0.871314178970847,-0.919321626129516,0.0232366006871459,-0.0232366006870625,-0.727435460944644
1024.6144,-1.00693538723954,0.408271729495831,-0.725767317163685,0.110770455274445,0.413366731434195,0.413366731434705,1.64706525965191,0.516761193911149,1.71465536912355,0.43932587523252,2.29344119789184,0.439325875233112,-0.836067708441556,-0.284428816127889,-0.772824739970169,0.552143458467713,-0.933795158609812,0.0141489920395276,-0.174750680405776,NaN,-0.266190786433286,0.0389993254697989,0.794242445737382,0.668065573900469,-1.23397821521318,-0.196472657762523,-0.196472657761427,0.931153171389793,-0.931153171389443,-0.690364617114537,0.162370154133804,-0.439964303395161,-0.19738788600013,0.125403671468411,0.00209094503642495,0.0948726086707271,0.0294179203428775,0.128762707236001,0.12876270723604,-0.552330368937856,0.254327768532502,-0.712511009453722,0.368500994167815,-0.146157487153378,0.43348748490268,NaN,0.855229525876101,-0.895996075869937,0.0480672128670607,-0.0480672128669874,-0.732895192657703
1024.7168,-0.999874180557282,0.398644682995668,-0.723893235817954,0.0891758279910069,0.409207017117426,0.409207017117913,1.64381890345304,0.481128351073352,1.68674493803142,0.4357140427053,2.30679908551232,0.435714042705892,-0.818794129777808,-0.285394148477931,-0.759587637922005,0.523197454899343,-0.899008082869137,0.0025470094652238,-0.154367993130644,NaN,-0.253173985623037,0.0782118153822354,0.758769860791791,0.67936752205506,-1.24009738360131,-0.173367740890729,-0.173367740889631,0.921837226974327,-0.921837226973976,-0.683961880536608,0.140665313604169,-0.427276330423943,-0.200878552261826,0.146934490254067,-0.0100242445790332,0.106492303588031,0.0317365899308869,0.126964472981596,0.126964472981635,-0.535618754965258,0.239348637847423,-0.708529673324435,0.3874975322527,-0.172198737306194,0.425826269257304,NaN,0.839182782581744,-0.872365044467848,0.0723695332046264,-0.0723695332045713,-0.738367273283383
1024.8192,-0.992808002282949,0.389463250101884,-0.721802781138197,0.0676480201090836,0.405553589591788,0.405553589592257,1.63945131691639,0.4465461585088,1.65866115655299,0.432271823996813,2.31970501893698,0.432271823997407,-0.800305530344809,-0.285689887893807,-0.745125182485557,0.494132507648294,-0.864680140842198,-0.00956419510984011,-0.134277679730708,NaN,-0.240962393510573,0.117844516558781,0.723716316617676,0.691423380040499,-1.24564678411438,-0.149914938417103,-0.149914938416004,0.91361233652448,-0.913612336524128,-0.676747891486006,0.11963226731928,-0.413687177187345,-0.203423074295352,0.168174101203938,-0.0226184596507121,0.117714203443246,0.0349721294943799,0.12451537661493,0.124515376614969,-0.519295943071662,0.224898467399182,-0.704205492869813,0.405966294652378,-0.197541523110111,0.418337313658921,NaN,0.823205881076063,-0.848531138147625,0.0961040002212661,-0.0961040002212255,-0.743846889512895
1024.9216,-0.985746718531067,0.38073676739148,-0.719500527604135,0.0462113881605213,0.402403380809705,0.402403380810154,1.63396384537495,0.41303640548435,1.630420567956,0.428940673773273,2.33210791588339,0.42894067377387,-0.780645475862511,-0.285321355932225,-0.729473853683744,0.465018228917366,-0.830894004818756,-0.0221559633944396,-0.114511224678934,NaN,-0.229558328193456,0.157842638563697,0.689101333428706,0.704193566357007,-1.25059709612502,-0.126156000162207,-0.126156000161105,0.906475873370146,-0.906475873369792,-0.66872344931868,0.0992717771807568,-0.39922107146589,-0.205036734358016,0.189100115094225,-0.0356657531534213,0.128531221842359,0.0391256702022331,0.121430198242344,0.121430198242383,-0.503378898130227,0.210980941652801,-0.699570312156013,0.423872565948299,-0.222125449372048,0.411055382820217,NaN,0.807330698193124,-0.824596062243118,0.119236769896782,-0.119236769896763,-0.74932798543478
1025.024,-0.978699181500484,0.372473003342747,-0.71699086889955,0.0248914546074265,0.399752545565203,0.399752545565631,1.62736114709952,0.380618387514133,1.60204066046752,0.425660632503933,2.34395627085728,0.425660632504531,-0.759860082775741,-0.284295151493067,-0.712672652744363,0.435924415231255,-0.797730824645071,-0.0351982263170225,-0.0950980274611232,NaN,-0.218959576537318,0.198151504153175,0.654943537535388,0.717637905405194,-1.25491915996275,-0.102134706883067,-0.102134706881965,0.900421643247815,-0.900421643247459,-0.659891341527685,0.0795814140659894,-0.383905949288718,-0.205738938154602,0.209690105031875,-0.0491382381492851,0.138936970252043,0.0441939948330587,0.11772615997543,0.117726159975467,-0.487882826251598,0.197598817581265,-0.69465399031794,0.44118385216251,-0.245894704028216,0.404011851939463,NaN,0.791588958368313,-0.800659965928144,0.141739911070354,-0.141739911070335,-0.754803320765419
1025.1264,-0.971673102793216,0.364678091031461,-0.714277934181761,0.00371475331459528,0.397596436186326,0.397596436186735,1.61965117900159,0.349308881147999,1.5735398377019,0.422370662576525,2.35519836743137,0.422370662577124,-0.737997803016421,-0.282619242203293,-0.69476296882144,0.406920835926979,-0.765269964587543,-0.0486595819440523,-0.0760652113987937,NaN,-0.209159598620168,0.238716601310217,0.621260699713689,0.731715710136576,-1.258583990495,-0.077896788007734,-0.0778967880066327,0.895439835895306,-0.895439835894946,-0.650256242526359,0.0605554282485871,-0.367773436996037,-0.205553273123106,0.229921763896414,-0.0630062169972521,0.148925827763646,0.0501694283773244,0.113422848917867,0.113422848917902,-0.472821082526349,0.184753928426894,-0.689484170960445,0.457869917530491,-0.268798251441235,0.397234460184203,NaN,0.776012151097648,-0.776820822854171,0.163591543932765,-0.163591543932751,-0.760264558840901
1025.2288,-0.96467492873779,0.357356465517177,-0.711365503952696,-0.0172913485056199,0.395929585486089,0.395929585486482,1.61084516336292,0.319122121338503,1.54493737538286,0.419009024592417,2.36578252234533,0.419009024593019,-0.715109206467008,-0.28030306817703,-0.675788448841755,0.3780770054361,-0.733588724994529,-0.0625073831735982,-0.0574374699895533,NaN,-0.200147722818181,0.279483620879917,0.588069788933694,0.74638586240175,-1.26156279945587,-0.0534898116290579,-0.0534898116279628,0.891516995144251,-0.891516995143887,-0.639824610992982,0.042184666582353,-0.35085879381556,-0.204507515916209,0.249773072840098,-0.0772383212167617,0.158493015166274,0.0570397601647937,0.108542112373598,0.108542112373631,-0.458205086239666,0.172447177482093,-0.684086093585074,0.473902815272858,-0.290789989238363,0.390747112372719,NaN,0.760631465113082,-0.753173839874405,0.184775915016767,-0.184775915016748,-0.765702387969172
1025.3312,-0.957709707262849,0.350510798092728,-0.708256919702182,-0.0380988368195155,0.3947456928276,0.394745692827979,1.60095753507855,0.290069779168485,1.51625336236771,0.415513699601299,2.37565736043671,0.415513699601903,-0.691246752937747,-0.277357656395798,-0.655794863319187,0.349461931044301,-0.702762036164459,-0.0767078365438528,-0.0392369434179036,NaN,-0.191909318986402,0.320398478485621,0.555387037922078,0.761606886878623,-1.26382702229928,-0.0289630512505395,-0.0289630512494533,0.888636010018115,-0.888636010017748,-0.628604589937833,0.0244565466615806,-0.333200813341313,-0.202633582525037,0.269222489021226,-0.0918016606493202,0.16763467997017,0.0647882059617516,0.103107923456586,0.103107923456618,-0.444044247751842,0.160678522834454,-0.6784824548315,0.489256927289232,-0.311828885595927,0.38456972859468,NaN,0.745477735726159,-0.729810883355586,0.205283407110883,-0.205283407110861,-0.771106676551967
1025.4336,-0.950780948971897,0.344141927674472,-0.704954989613099,-0.0586792329096105,0.39403760896115,0.394037608961517,1.59000586939598,0.262160945066721,1.48750862959353,0.41182284723434,2.38477210916149,0.411822847234946,-0.666464563887841,-0.273795741235504,-0.63482997441963,0.321143838556712,-0.67286212887836,-0.0912261123635374,-0.0214831187084011,NaN,-0.184425949044077,0.361407313442537,0.523228016787975,0.777337008278907,-1.26534834506142,-0.00436733983882671,-0.00436733983774771,0.886776126410625,-0.886776126410251,-0.616605911238866,0.0073550882022385,-0.314841699147566,-0.199967430780188,0.288249149359842,-0.106661976162592,0.176347992125657,0.0733934111341894,0.0971462248914404,0.097146224891469,-0.430345913059151,0.14944695896859,-0.672693319756645,0.5039090112759,-0.331879099772337,0.378718134500981,NaN,0.730581398679228,-0.706819921446957,0.225110487380329,-0.225110487380298,-0.776466651979542
1025.536,-0.943890497443676,0.338248795911295,-0.701461900926472,-0.0790037672076981,0.393797318484684,0.393797318485039,1.57801079027502,0.235402127673154,1.45872467424821,0.407875280212953,2.39307689698376,0.407875280213561,-0.640818214678847,-0.269631883729878,-0.612943419713865,0.293189884512173,-0.643958194914668,-0.106026464946437,-0.00419275535078668,NaN,-0.177675508686904,0.402456457118127,0.491607711572542,0.793534181762093,-1.26609873122604,0.0202450780534171,0.0202450780544868,0.885912978737736,-0.885912978737354,-0.603839801091685,-0.00913900919920362,-0.295826933683442,-0.196548933480844,0.306833073781782,-0.121783791271624,0.184631239763496,0.0828294881929149,0.0906847609612812,0.0906847609613069,-0.417115327833688,0.138750499262932,-0.666736077725833,0.517838249875945,-0.350910085884435,0.373203982461737,NaN,0.715972443410322,-0.684284494240122,0.244259600836805,-0.244259600836755,-0.781771084161889
1025.6384,-0.937038425355735,0.332828392984039,-0.697779150814454,-0.0990435447747831,0.394015920590089,0.39401592059043,1.56499585994855,0.209797276588143,1.42992358547756,0.403610937067799,2.40052304226657,0.403610937068408,-0.614364562623925,-0.264882582107887,-0.59018662067803,0.26566586241198,-0.616116050084247,-0.121072362691327,0.0126201583699889,NaN,-0.171632380571971,0.443492368922879,0.46054060417758,0.810156091925586,-1.26605045096562,0.044820688898886,0.0448206888999426,0.88601863882597,-0.88601863882558,-0.590318879968567,-0.0250482551427403,-0.276205150402543,-0.192421735728237,0.32495534733244,-0.137130562610056,0.192483909511739,0.0930660795103029,0.0837529019866372,0.0837529019866599,-0.404355617472435,0.128586159457533,-0.660625434401031,0.53102630376257,-0.368896686062149,0.368034697103277,NaN,0.701680360000304,-0.662283230855428,0.262739019834184,-0.262739019834117,-0.787008454540306
1025.7408,-0.930222966690466,0.327875718851914,-0.693907502872041,-0.11876970193295,0.394683608351206,0.394683608351535,1.55098745416126,0.185347827635119,1.40112797432204,0.398971342136763,2.40706332545853,0.398971342137371,-0.587161610065916,-0.259566369573597,-0.566612713728304,0.238635905545761,-0.589397807251247,-0.136326630315843,0.0289444163941085,NaN,-0.166267614584266,0.484461548196795,0.430040746827987,0.827160123253566,-1.2651761151392,0.0693048463220734,0.0693048463231246,0.887061676124629,-0.887061676124228,-0.576057054904874,-0.0403982315463512,-0.256028006149303,-0.187633098423113,0.342598268127488,-0.152664832239381,0.199906740492167,0.104068439046354,0.0763814594984745,0.0763814594984943,-0.392067778604818,0.118949942392033,-0.654373428177481,0.543457371866227,-0.385819217438097,0.363213443839455,NaN,0.687734077169587,-0.640889430264944,0.280562657063067,-0.280562657062983,-0.792167097696201
1025.8432,-0.923440488993309,0.323383765253732,-0.689846970330688,-0.138153554922971,0.395789647518339,0.395789647518656,1.53601463054104,0.162052762118208,1.37236090794951,0.393900052313701,2.41265224403082,0.393900052314312,-0.559268386860426,-0.253703898203967,-0.542276491019778,0.212162186618766,-0.563861564373756,-0.151751606833225,0.0447715755823204,NaN,-0.161549141010165,0.525310440486362,0.400121821066343,0.844503312683348,-1.26344871703395,0.0936419066069531,0.0936419066079997,0.889007225204874,-0.889007225204465,-0.561069409094218,-0.0552174295021395,-0.235350039983037,-0.182233718808918,0.359745458240306,-0.16834838588096,0.206901748291323,0.11579753233028,0.0686024870659275,0.0686024870659441,-0.380250681472257,0.109836828091888,-0.647989459819761,0.555118254644512,-0.401663548154795,0.358739120746632,NaN,0.674161892777133,-0.620170716439602,0.29774983962882,-0.297749839628716,-0.797235307458367
1025.9456,-0.916685505991051,0.319343528578641,-0.685596821466914,-0.157166741878626,0.397322360256481,0.397322360256786,1.52010899359088,0.139908674903426,1.34364584737429,0.388343101618749,2.41724625516027,0.388343101619362,-0.530744832321676,-0.247318006892683,-0.517234334456144,0.186304616031151,-0.539561115193915,-0.16730932267408,0.0600959110447814,NaN,-0.157442016285577,0.565985360259656,0.370797174754507,0.862142301269818,-1.26084168400837,0.1177753756482,0.11777537564925,0.891817062437994,-0.891817062437579,-0.54537209724616,-0.0695370536730384,-0.214228496784347,-0.176277510692186,0.376381939739829,-0.184142422045734,0.213472218704943,0.128210157552423,0.0604490604908659,0.0604490604908788,-0.368901088530143,0.101240777402654,-0.641480328357843,0.565998411773804,-0.416421151850184,0.354606375185776,NaN,0.660991402236896,-0.600188770917143,0.314325039209013,-0.314325039208892,-0.802201401752705
1026.048,-0.909950726675808,0.315744068560752,-0.68115559653939,-0.175781353060915,0.399269124677032,0.399269124677329,1.50330455228557,0.118909854305928,1.31500658748884,0.382249461267377,2.42080401282891,0.382249461267992,-0.501651664700018,-0.240433770045117,-0.491544132186338,0.161120544495579,-0.516545694787643,-0.182961697795486,0.0749143510710335,NaN,-0.153908701075006,0.606432443641069,0.342079841864996,0.880033302377789,-1.25732893502252,0.141648081748616,0.141648081749663,0.895449695607446,-0.895449695607022,-0.528982251912995,-0.0833907842910933,-0.192723092599258,-0.169821324051368,0.392494178891677,-0.200007734825662,0.219622672481718,0.141259090058975,0.051955031676271,0.0519550316762811,-0.358013698888643,0.0931547608941739,-0.634850268047938,0.576090008916601,-0.430089134332545,0.350805645641832,NaN,0.648249433147438,-0.580999137223777,0.330317562640216,-0.33031756264009,-0.807053745090166
1026.1504,-0.903227131590083,0.312572624463919,-0.676521122245429,-0.193970036613503,0.401616400399326,0.401616400399612,1.48563756240273,0.0990483807733685,1.28646719791822,0.375571526889227,2.42328660150018,0.375571526889844,-0.472050241101635,-0.233078526839791,-0.465265179809837,0.136664479274615,-0.494859773682188,-0.198670759015013,0.0892263944756749,NaN,-0.150909375940414,0.646597628394154,0.313982558567741,0.898132094312137,-1.25288493337918,0.165202383977732,0.165202383978779,0.89986046592776,-0.89986046592733,-0.511917898080614,-0.096814489452573,-0.170895710399887,-0.162924592760257,0.408070101627068,-0.215904906526499,0.225358804825676,0.154893250336862,0.0431547545690539,0.0431547545690606,-0.347581226363379,0.0855708221723011,-0.628100983007848,0.585387952641439,-0.442670235563692,0.347323222043769,NaN,0.635961993442835,-0.562651085537377,0.345761216133976,-0.345761216133848,-0.811780735719312
1026.2528,-0.896504067355853,0.309814787080733,-0.67169051631115,-0.211706070326063,0.40434978185659,0.404349781856871,1.46714634952213,0.0803142480432821,1.25805196397501,0.368265625367863,2.42465776068411,0.36826562536848,-0.442002423782285,-0.225281893844498,-0.438458079967184,0.112987821694549,-0.474542906553253,-0.21439887105539,0.103034013697488,NaN,-0.148402304526431,0.686426647215367,0.286517783600533,0.916394029710806,-1.24748472770063,0.188380414966227,0.18838041496727,0.905001659381192,-0.905001659380757,-0.494197869714761,-0.109845891920471,-0.148810038892963,-0.155648920879243,0.423099084949389,-0.23179450213731,0.230687406157171,0.169057895854136,0.034082789690138,0.034082789690142,-0.337594507842518,0.0784801706976969,-0.621231683443847,0.593889911109426,-0.454172810166654,0.344141315009054,NaN,0.624154234951318,-0.545187526767662,0.360693953928403,-0.360693953928266,-0.816370771210466
1026.3552,-0.889769358653871,0.30745471218801,-0.666660188315417,-0.228963402503641,0.407454073094872,0.407454073095145,1.44787111823852,0.0626955020773768,1.22978532892585,0.360292514941644,2.42488408903721,0.360292514942263,-0.411570471494934,-0.21707576052688,-0.411184654863457,0.0901386258818816,-0.455629626343901,-0.230108974350636,0.116341550778734,NaN,-0.146344244890573,0.725865022005597,0.25969771716096,0.934774044749333,-1.24110398697852,0.211124346831296,0.211124346832339,0.910822628406307,-0.910822628405866,-0.475841728012543,-0.122524207089568,-0.126531186949491,-0.14805763759844,0.437571930987462,-0.247637260184641,0.235616271206999,0.183694838908096,0.0247736024375452,0.0247736024375467,-0.328042625793655,0.0718732848742971,-0.614239131047818,0.601596314074838,-0.46461077943766,0.341238133655293,NaN,0.612850428431291,-0.528644971903204,0.375157509843264,-0.375157509843108,-0.820812206479852
1026.4576,-0.883009443370004,0.305475359026964,-0.661425849781153,-0.245716671527125,0.410913377490336,0.410913377490605,1.4278537589106,0.0461783873608874,1.20169183946032,0.351617849370524,2.4239352160743,0.351617849371144,-0.380816964666737,-0.20849426250613,-0.383507876588953,0.0681613737201678,-0.438149366813435,-0.245764823201451,0.129155613601903,NaN,-0.14469088828817,0.764858055450125,0.233534308745547,0.953226656889904,-1.23371904237444,0.23337666617132,0.233376666172372,0.917269928311041,-0.917269928310594,-0.456869688069843,-0.13488977191433,-0.10412530513403,-0.140215351904218,0.451480829362448,-0.263394279122669,0.240154101013185,0.198742691220775,0.0152612725578036,0.0152612725578027,-0.318913028082258,0.0657400093094869,-0.607117692003041,0.608510326906818,-0.474003544174609,0.338587979678582,NaN,0.602073943335495,-0.513053540240776,0.389196999248695,-0.389196999248533,-0.825093311798896
1026.56,-0.876209536425513,0.303858742873723,-0.655982543771641,-0.26194120942181,0.414711198631179,0.41471119863144,1.40713765976332,0.0307474920782066,1.17379609474619,0.342212588367929,2.42178393424565,0.34221258836855,-0.349804757739957,-0.199573728863875,-0.355491808511565,0.0470967647769809,-0.422126404585513,-0.261331219086577,0.141484973828608,NaN,-0.143397295323657,0.803350823857037,0.208039253568946,0.971705954852104,-1.22530694273668,0.255080449333947,0.255080449334999,0.924287468402656,-0.924287468402202,-0.437302560305977,-0.14698367866061,-0.0816592259823147,-0.13218752199205,0.464819308957548,-0.279027200777738,0.244310398069293,0.214137131365337,0.00557922435695926,0.00557922435695555,-0.310191639090839,0.0600696459586104,-0.599859383859338,0.614637798220631,-0.482375853934301,0.336161364064276,NaN,0.591847227426334,-0.498437023963333,0.402860480812896,-0.402860480812729,-0.829202228834875
1026.6624,-0.869353825402288,0.302586196544226,-0.650324699284763,-0.277613031228261,0.418830549863657,0.418830549863915,1.38576752678988,0.0163858881490659,1.1461226982279,0.332053350000196,2.41840629303972,0.332053350000819,-0.318596940522792,-0.190352603870125,-0.327201543566231,0.0269815262370518,-0.4075798242696,-0.276774235211856,0.153340459984562,NaN,-0.142418312194625,0.841288181408118,0.183223983601912,0.990165595786772,-1.21584552395166,0.276179637623777,0.276179637624836,0.931816674574881,-0.931816674574419,-0.417161709880215,-0.158847418637505,-0.0592001134100692,-0.124040035978047,0.477582176774764,-0.294498393372258,0.248095351941651,0.229811188360054,-0.00424002430080105,-0.00424002430080713,-0.301862962315867,0.0548510446995843,-0.592453903320349,0.619987183426861,-0.489757632806606,0.333925150487128,NaN,0.582191786178819,-0.484813014296697,0.416198478355429,-0.416198478355254,-0.833126916131831
1026.7648,-0.862425697536224,0.301638640318859,-0.644446210299912,-0.292708814781391,0.423254072557051,0.423254072557305,1.36378921239529,0.00307526369291161,1.11869621121554,0.321122712147502,2.41378166627439,0.321122712148124,-0.287256787205435,-0.180871342102083,-0.298703122200833,0.00784824806408678,-0.394523512316952,-0.292061429732159,0.164734834361372,NaN,-0.141708964551494,0.878614791517143,0.159099654527437,1.00855882644761,-1.20531349450343,0.296619318358754,0.296619318359832,0.93979666620179,-0.939796666201323,-0.396469036064287,-0.170522533227793,-0.036815101147991,-0.115838789439656,0.489765443165651,-0.309771137506508,0.251519713555857,0.245695536999563,-0.0141651018003095,-0.0141651018003178,-0.29391017197324,0.0500726913466887,-0.584888633818321,0.624569448811326,-0.496183763525226,0.331842730843265,NaN,0.573128164259269,-0.472193088449214,0.429263469172511,-0.429263469172321,-0.836855077728427
1026.8672,-0.855407990911181,0.300996864361069,-0.638340530993189,-0.307205876082975,0.427964168201861,0.427964168202107,1.34124955194244,-0.00920395310650482,1.09154110684898,0.309409479414304,2.40789280734625,0.309409479414926,-0.255847676951967,-0.171172271424753,-0.270063415083163,-0.0102747584734291,-0.382966176598642,-0.307162047802115,0.175682644360544,NaN,-0.141224827686821,0.9152751998978,0.135677124671773,1.02683853990635,-1.19369054360408,0.316346020297295,0.316346020298385,0.948164454336237,-0.948164454335761,-0.375246970731197,-0.182050265152273,-0.0145708995431829,-0.107649242592292,0.501366237771838,-0.324809817940825,0.25459466034173,0.261718806533697,-0.02416601732974,-0.0241660173297505,-0.286315192001177,0.0457227894364707,-0.577148637856663,0.628397964020139,-0.501693836599431,0.329874236402696,NaN,0.564675931028248,-0.460583050549646,0.442109345605928,-0.442109345605726,-0.840374078951199
1026.9696,-0.848283256780223,0.300641829787081,-0.632000772251275,-0.321082138513784,0.432943152762806,0.432943152763043,1.31819620381483,-0.0204724755354272,1.06468172311483,0.296908933137428,2.40072590070935,0.296908933138052,-0.224432982022337,-0.161299417814863,-0.241349964977192,-0.0273635892339672,-0.372911379548155,-0.322047216781934,0.186200045376894,NaN,-0.140922371167916,0.951213952825435,0.112966924540108,1.04495737022648,-1.18095747317194,0.33530803108312,0.335308031084226,0.956855160881485,-0.956855160881004,-0.353518489173829,-0.193471204887698,0.00746664206727156,-0.0995359460737768,0.512382723799264,-0.339580119927877,0.257331658424924,0.277807909219499,-0.034214391405221,-0.0342143914052342,-0.279058768087832,0.0417893405631034,-0.569216636104227,0.63148838931081,-0.506331874853665,0.327976779313936,NaN,0.55685367209369,-0.449983215431358,0.454790860401524,-0.454790860401305,-0.843670862524077
1027.072,-0.841034022112038,0.300554989708782,-0.625419788896376,-0.334316089207282,0.438173437962119,0.438173437962346,1.29467748910686,-0.0307520392591004,1.03814221600172,0.283623069022837,2.39227060495545,0.283623069023461,-0.193075933274493,-0.151298289132976,-0.212630794401317,-0.0433988744923983,-0.364357571163254,-0.33669013982512,0.196304598368315,NaN,-0.14075928422077,0.986375751426704,0.0909792178827009,1.06286781662131,-1.16709634742543,0.35345573768174,0.353455737682865,0.965802250811721,-0.965802250811234,-0.331307123705334,-0.204824935138567,0.0292330113861256,-0.0915620408035119,0.522814016207191,-0.354049222808836,0.259742328779928,0.293888393293117,-0.044283678303428,-0.0442836783034432,-0.272120539161818,0.0382602285071284,-0.561072976046274,0.633858557403561,-0.510146039422163,0.326104714353804,NaN,0.549678987629866,-0.440388722518978,0.46736306922504,-0.467363069224806,-0.846731877855445
1027.1744,-0.833643050566086,0.300718621822381,-0.618590259987257,-0.346886720992967,0.443637734366558,0.443637734366774,1.27074223295056,-0.0400652795047261,1.0119465166358,0.269560806664549,2.38252007429227,0.269560806665174,-0.161839480689837,-0.141215618058703,-0.183974193068158,-0.0583659078547833,-0.357298114706184,-0.351066286017667,0.206015050530574,NaN,-0.140694793801632,1.02070562882813,0.0697237510267132,1.0805223812827,-1.15209065563494,0.370741980438277,0.370741980439418,0.974937772190033,-0.974937772189542,-0.308636975909731,-0.216149685238268,0.0506655212595115,-0.0837887553776492,0.532660104470673,-0.368185981552354,0.261838321327607,0.309884817167158,-0.0543493721971685,-0.0543493721971855,-0.26547910593608,0.0351233004723836,-0.552695600538313,0.635528347069079,-0.513188316061128,0.324209917556261,NaN,0.543168494679164,-0.431789870276187,0.479880777901412,-0.479880777901172,-0.849543028920438
1027.2768,-0.826093606151554,0.301116158398124,-0.611504772807428,-0.358773466353141,0.449319264629278,0.449319264629482,1.24643961268811,-0.0484356064191331,0.986118295314494,0.254738145793067,2.3714709485145,0.254738145793691,-0.130786163543923,-0.131099068468125,-0.155448498344319,-0.072254765571281,-0.351721308206846,-0.365153564605258,0.21535111226865,NaN,-0.140689979326266,1.05414914076419,0.0492097851948228,1.09787370725896,-1.13592549015875,0.387122405394404,0.38712240539556,0.984192604346998,-0.984192604346502,-0.285532731504612,-0.22748201053149,0.0717037788283989,-0.0762749292169443,0.541921778709616,-0.381961090325454,0.263631198284289,0.325721134934918,-0.064389186095722,-0.0643891860957409,-0.259112090442535,0.0323664333446449,-0.544060030870942,0.636519549335971,-0.515514179739699,0.322242086632953,NaN,0.537337828777807,-0.42417246761263,0.492397995171513,-0.492397995171267,-0.852089641880092
1027.3792,-0.818369722281128,0.301732501901501,-0.604155918611934,-0.36995613410143,0.455201976188319,0.455201976188509,1.22181901290008,-0.0558870816504083,0.960680930285465,0.239178251323276,2.35912331168726,0.239178251323902,-0.0999779954501921,-0.120996916245582,-0.127121877238685,-0.0850603976018836,-0.347610413230512,-0.378932467443907,0.224333243179423,NaN,-0.140708074441183,1.08665256341487,0.0294460142324274,1.11487471204108,-1.11858774262674,0.402555799887423,0.402555799888598,0.993496711875653,-0.993496711875153,-0.26201968458744,-0.238856506342791,0.0922901157703516,-0.0690765795762921,0.55060056051358,-0.39534722618158,0.265132328476331,0.341321081844478,-0.0743831914356881,-0.0743831914357085,-0.252996188954788,0.0299775833093615,-0.535139374113985,0.636855728262029,-0.517182236814969,0.320149067849439,NaN,0.532201641522046,-0.4175182021934,0.504967392524594,-0.504967392524341,-0.854356456783429
1027.4816,-0.810456474910204,0.302554320483886,-0.596536401675731,-0.380414861479531,0.461270745780034,0.461270745780213,1.19692987924116,-0.0624442969413731,0.935657474123522,0.222911462005146,2.34548062628851,0.222911462005773,-0.0694763630214323,-0.110957721604374,-0.0990621157420468,-0.0967826763989126,-0.344943704979155,-0.392386171902253,0.232982451084182,NaN,-0.140714742395399,1.11816309223874,0.0104404812508704,1.1314787212908,-1.1000663149202,0.417004399653092,0.41700439965428,1.00277939453808,-1.00277939453757,-0.238123773926485,-0.250305556131421,0.11236997378898,-0.0622465159845312,0.558698641918163,-0.408319173961077,0.266352794803121,0.356608552898728,-0.0843139112279616,-0.084313911227984,-0.247107229490772,0.0279448303944468,-0.525904353703748,0.636562071389774,-0.518253839955062,0.317877208320143,NaN,0.527773593801997,-0.411805026229561,0.517639776962982,-0.517639776962726,-0.856327651340001
1027.584,-0.802340254779135,0.303570322265071,-0.588639157604371,-0.390130091515833,0.467511571238299,0.467511571238465,1.17182156131491,-0.0681322549634623,0.911070609546173,0.205975228763042,2.33054965067553,0.205975228763671,-0.0393419349982684,-0.101030009164913,-0.0713364195163594,-0.1074264000286,-0.343694555474706,-0.40550060875598,0.241320100806765,NaN,-0.140678320092864,1.14862903874374,-0.00779948989952616,1.14763961223939,-1.08035233401828,0.430434161762415,0.430434161763618,1.01196952455562,-1.01196952455511,-0.213871625746681,-0.261859104573374,0.131892249850763,-0.0558339942050957,0.56621883562577,-0.420853936703402,0.267303315559784,0.371507975194864,-0.0941663717594404,-0.0941663717594646,-0.241420245449215,0.0262564331837875,-0.516323354227208,0.635665221168757,-0.518792669522071,0.315371728056842,NaN,0.524066347009193,-0.407007558714915,0.530463585732186,-0.53046358573192,-0.857986902957455
1027.6864,-0.794009028910485,0.304771508368342,-0.580457471929463,-0.399082575447962,0.473911749742321,0.473911749742475,1.14654314105933,-0.072976255176832,0.886942589804991,0.18841399775495,2.31434034696821,0.188413997755581,-0.00963457623951842,-0.0912619631429473,-0.0440112244470748,-0.117001253571632,-0.343831556815152,-0.418264505642481,0.249367735430388,NaN,-0.140570034281383,1.17800002960314,-0.0252673425267409,1.16331197577709,-1.05943935688983,0.442815005835298,0.442815005836519,1.02099577265591,-1.0209957726554,-0.189290591344762,-0.27354444126072,0.150809609326524,-0.0498843967137482,0.573164539532185,-0.432930836859039,0.267994179937199,0.385944678413539,-0.103928126028467,-0.103928126028493,-0.23590957234752,0.0249009036559451,-0.506362473112564,0.634193088426705,-0.51886428601901,0.312577106274145,NaN,0.521091553126122,-0.403097496356368,0.543484416282665,-0.543484416282398,-0.859317488286231
1027.7888,-0.785452578527058,0.306151401441818,-0.571985088817302,-0.407253392013349,0.480460041065617,0.48046004106576,1.12114325012421,-0.077001787983663,0.86329516418744,0.170279051614245,2.29686578259325,0.170279051614877,0.0195867392944887,-0.0817011359964564,-0.0171520117712291,-0.125521733471154,-0.345318684824753,-0.430669412494197,0.257146922262869,NaN,-0.140364192829078,1.2062272135673,-0.0419573202451014,1.17845129805209,-1.03732355579527,0.454121029318083,0.454121029319323,1.02978682798203,-1.02978682798152,-0.164408770165622,-0.28538598296404,0.169078769423635,-0.0444389316450302,0.579539718559665,-0.444531611050124,0.268435198921837,0.399845264464753,-0.113589259084381,-0.113589259084408,-0.230548968687174,0.0238671026263553,-0.495985580535818,0.632174661639326,-0.518535670424753,0.309437479689934,NaN,0.518859840632393,-0.400044016876307,0.556744608852669,-0.556744608852389,-0.860302409179969
1027.8912,-0.776662703977391,0.307706241918695,-0.563216304974428,-0.414623977351078,0.487146808883908,0.487146808884041,1.09566988095598,-0.0802344369228946,0.840149492668155,0.151628307720382,2.27814202172934,0.151628307721015,0.0482640153042496,-0.0723941670142972,0.00917687262712302,-0.133007036962162,-0.348115496574025,-0.44270970677043,0.264679130605843,NaN,-0.140038348682965,1.23326347146032,-0.0578644917231733,1.1930141518197,-1.01400388191134,0.464330697684823,0.46433069768608,1.03827161436629,-1.03827161436578,-0.139255018319058,-0.297405054548045,0.186660745215379,-0.0395343552394349,0.585348904745742,-0.455640497796253,0.268635672525952,0.413137972037507,-0.12314237671209,-0.123142376712119,-0.22531175492647,0.0231443464400508,-0.485154395657251,0.629639824438715,-0.517874768062534,0.305897050086035,NaN,0.517380792158377,-0.397814158354407,0.570282894031325,-0.570282894031034,-0.860924527562895
1027.9936,-0.767633394511885,0.309435143408894,-0.554146050871524,-0.421176165504765,0.49396413147738,0.493964131477504,1.07017019378174,-0.08269978772895,0.81752605233853,0.132526060089862,2.25818799945302,0.132526060090496,0.0763403115049624,-0.0633865095377293,0.0349123888459529,-0.139480917324221,-0.352177351360395,-0.454382571489015,0.271985635986101,NaN,-0.139573429582897,1.25906361517215,-0.0729847662410599,1.20695838401452,-0.989482210490969,0.473427003083399,0.473427003084677,1.04637950712695,-1.04637950712644,-0.113858949889392,-0.30961968208747,0.203521045845207,-0.0352027331459279,0.590597214373007,-0.46624431512518,0.268604373589741,0.425753031335667,-0.132582571525105,-0.132582571525136,-0.220170960486128,0.0227225109618068,-0.473828588667436,0.626619181657318,-0.516950040283713,0.301900494727041,NaN,0.516662912750041,-0.396373168369883,0.584134101820529,-0.584134101820226,-0.861166697151421
1028.096,-0.758360966385906,0.311340202200056,-0.544769964848725,-0.426892243130732,0.500905878579608,0.500905878579722,1.04469032074118,-0.0844233466612747,0.795444534931134,0.113042652779946,2.23702537520041,0.113042652780581,0.103759806411269,-0.0547221664228117,0.0599929580280927,-0.144971505428115,-0.357455644840423,-0.465687938777199,0.279087442310693,NaN,-0.138953827216852,1.28358456450423,-0.0873148954429567,1.22024329200685,-0.963763471428683,0.481397583243487,0.481397583244784,1.05404055581908,-1.05404055581857,-0.0882509377255345,-0.322044413782611,0.219629811346813,-0.031471255187123,0.595290379646235,-0.476332523221927,0.268349548098556,0.437623006566921,-0.141907357235459,-0.141907357235491,-0.215099473862463,0.0225921251243154,-0.461965915491858,0.623143885319687,-0.515830017907824,0.297393373836369,NaN,0.516713591926808,-0.395684827056226,0.598328917194666,-0.598328917194342,-0.861011891294802
1028.1984,-0.748844175222395,0.313426560812695,-0.535084465547948,-0.431755023604019,0.507967757287254,0.507967757287359,1.01927516861457,-0.0854304712141475,0.773923734421017,0.0932540813225328,2.21467836926685,0.0932540813231694,0.130467841446442,-0.0464434338299138,0.0843585993736772,-0.14951109699703,-0.363898049584054,-0.476628393016915,0.286005217306387,NaN,-0.138167448954474,1.30678550254167,-0.100852457506788,1.23282979221114,-0.936855766455078,0.488234798494861,0.488234798496176,1.06118571236764,-1.06118571236713,-0.0624621147119881,-0.334690175949302,0.234961888809973,-0.0283621083342352,0.59943479070224,-0.485897268023396,0.267878930384967,0.448683124819125,-0.151116565571306,-0.151116565571339,-0.210070202049243,0.0227444591183686,-0.449522387776064,0.619245451293313,-0.514582847042336,0.292322533432788,NaN,0.517539065512265,-0.395711752496069,0.612893671929866,-0.612893671929526,-0.860443332017261
1028.3008,-0.739084307671536,0.315702428995948,-0.525086825664371,-0.435747946117683,0.515147331811915,0.515147331812012,0.993968219818901,-0.0857463120791655,0.75298142523443,0.0732415272445615,2.19117359232221,0.0732415272452003,0.156410947554129,-0.0385906547018184,0.107951049488093,-0.153135905422437,-0.371448760754375,-0.487209032379212,0.292759239971218,NaN,-0.137205747205767,1.32862801993599,-0.11359582201015,1.24468059283964,-0.908770471874838,0.493935774752181,0.493935774753508,1.06774706046064,-1.06774706046014,-0.0365243708777949,-0.347564163312082,0.249496860004341,-0.0258923996302429,0.603037542651076,-0.494933406752831,0.267199768865874,0.458871591872005,-0.160212211882566,-0.1602122118826,-0.205056250573998,0.0231716183239067,-0.436452478515767,0.614955563326861,-0.513275823572221,0.286636503590153,NaN,0.519144379857041,-0.396415696373802,0.627850173985523,-0.627850173985166,-0.859444624780814
1028.4032,-0.729085251527522,0.318179065890465,-0.514775244478183,-0.438855201660653,0.522444021264584,0.522444021264675,0.96881132964384,-0.0853957619414882,0.732634232536172,0.0530908390831781,2.1665398800549,0.0530908390838159,0.181536863220745,-0.0312019831617866,0.130713870599136,-0.155885782504866,-0.380048751531,-0.497437295421712,0.299369362142874,NaN,-0.136063744828331,1.34907626039711,-0.125544096789448,1.25576038212895,-0.879522324989503,0.498502426988737,0.498502426990086,1.07365804867482,-1.07365804867431,-0.0104703373832805,-0.360669759047258,0.263219044008169,-0.0240741113526236,0.606106484088636,-0.503438521914943,0.266318857202876,0.468129898538172,-0.169198346514602,-0.169198346514636,-0.200031130702141,0.0238666490878557,-0.422709364333496,0.610305872320952,-0.511974925341855,0.280285891764686,NaN,0.521533352636983,-0.39775783282921,0.64321557979082,-0.643215579790449,-0.857999901125539
