time,S1-D1,S1-D8,S1-D9,S1-D15,S2-D1,S2-D2,S2-D3,S2-D9,S3-D1,S3-D2,S3-D16,S4-D2,S4-D3,S4-D5,S5-D3,S5-D4,S5-D5,S6-D2,S6-D5,S6-D17,S7-D6,S7-D7,S8-D6,S8-D7,S8-D18,S9-D3,S9-D4,S9-D9,S9-D11,S9-D19,S10-D8,S10-D9,S10-D10,S10-D11,S11-D8,S11-D10,S11-D20,S12-D10,S12-D11,S12-D12,S13-D4,S13-D11,S13-D12,S14-D10,S14-D12,S14-D21,S15-D13,S15-D14,S16-D13,S16-D14,S16-D22
346.5216,0.152476649212552,-0.286305994793694,0.0122070192547437,-0.236279469654465,-0.564088818457403,-0.564088818458662,NaN,-0.237682566945592,-0.305880187172267,-0.395038942702903,-0.784215525420766,-0.395038942703319,0.490172119623116,NaN,-0.173698593342436,NaN,NaN,-0.161396936144164,NaN,0.559253895320271,-0.131702492100191,NaN,1.19294445909091,NaN,0.366233908804846,-1.59060187814387,NaN,NaN,-0.0539698617762414,0.668063115606799,0.599588499832382,-0.91714370560379,-0.884098895533417,-1.17154311449883,-0.221669449629379,-1.05188776244541,1.83074575726424,2.05186677779688,2.05186677780626,NaN,NaN,-0.502471666263887,NaN,1.4184755558023,-0.182869587111503,-0.634441316500116,0.251183298884594,0.25118329888425,0.221529946849264,-0.221529946849486,0.686166064893403
346.624,0.14658061323062,-0.266083121877993,0.0154208138987208,-0.242280753602288,-0.563184779263979,-0.563184779265223,NaN,-0.275548745317556,-0.349367223810408,-0.444434086937124,-0.783474264304702,-0.444434086937557,0.493886836789685,NaN,-0.200728371030586,NaN,NaN,-0.213958181822922,NaN,0.567557368184038,-0.148443723050234,NaN,1.18018914579172,NaN,0.420893383075237,-1.59664717372568,NaN,NaN,-0.0557316873472519,0.678371161039008,0.631616743063641,-0.947122070612113,-0.888216433720407,-1.1721594228066,-0.199013160832729,-1.04094545278781,1.86913040198683,2.04577679094879,2.04577679095822,NaN,NaN,-0.505582122324629,NaN,1.40729490421792,-0.200806581324217,-0.646970923861806,0.221969228001845,0.221969228001525,0.238983777657162,-0.238983777657387,0.696070648966182
346.7264,0.140536550484491,-0.246670463395861,0.0181845102868739,-0.248011490073124,-0.56199587994113,-0.561995879942359,NaN,-0.313334141153396,-0.393187990545096,-0.493056766269488,-0.782573544177243,-0.493056766269937,0.497608683427683,NaN,-0.227724206616027,NaN,NaN,-0.26566645330531,NaN,0.57623318912997,-0.16407904529836,NaN,1.16639401719535,NaN,0.47632238526061,-1.60184501212191,NaN,NaN,-0.0570479474164138,0.68832104555407,0.663784434981837,-0.977245787422042,-0.892385519859129,-1.17037552106753,-0.176558008689281,-1.0281788629332,1.9062726435669,2.0392743346819,2.03927433469137,NaN,NaN,-0.509820428735813,NaN,1.39538633635253,-0.219700610768285,-0.658701729158185,0.191336731841756,0.191336731841462,0.257405110150924,-0.257405110151153,0.706124496410003
346.8288,0.134307236930258,-0.228119003383297,0.0204464452118151,-0.25347804384463,-0.560482431636199,-0.560482431637414,NaN,-0.35097048268725,-0.437267665316685,-0.540762760926952,-0.781466042028598,-0.540762760927418,0.501408048566071,NaN,-0.254597775906162,NaN,NaN,-0.316277355927937,NaN,0.585282171801047,-0.17855857851247,NaN,1.1516087860132,NaN,0.532282615139622,-1.60626475128094,NaN,NaN,-0.0578925169273461,0.697914571578592,0.696057698446881,-1.0074889701453,-0.896615001550553,-1.16620682653144,-0.154310539936329,-1.01360366770925,1.94219015088319,2.03249632911193,2.03249632912146,NaN,NaN,-0.515112276949019,NaN,1.38278849163933,-0.239491635691989,-0.669597475177706,0.159354735655819,0.159354735655549,0.276782744676594,-0.276782744676828,0.716319221013833
346.9312,0.127854428227702,-0.210476920195455,0.0221552321677957,-0.258687519435683,-0.558604409285941,-0.55860440928714,NaN,-0.388393762030956,-0.481534567627072,-0.587412158094128,-0.780100665541393,-0.587412158094608,0.505354993917398,NaN,-0.281259487717931,NaN,NaN,-0.365553499213266,NaN,0.594703170553092,-0.191832482080499,NaN,1.13588359861077,NaN,0.588533594423802,-1.60997497404365,NaN,NaN,-0.0582413089035677,0.707153735887223,0.728402521253109,-1.03782473813165,-0.900911740204575,-1.15967515628693,-0.132276871429943,-0.99724045986435,1.97690395425722,2.02557504795464,2.0255750479642,NaN,NaN,-0.52138016256268,NaN,1.36954137278783,-0.260115146304085,-0.679622433362908,0.126095035764634,0.12609503576439,0.297103406035071,-0.29710340603531,0.726645978882545
347.0336,0.121139035486717,-0.193789432096304,0.0232599705119645,-0.263647684747502,-0.556321525051068,-0.556321525052251,NaN,-0.425544044834421,-0.525919911181385,-0.632870065255935,-0.778422740467836,-0.632870065256431,0.509518722223849,NaN,-0.30761907995925,NaN,NaN,-0.413265494900314,NaN,0.604492968822529,-0.203851126609078,NaN,1.11926887930494,NaN,0.644833883220519,-1.61304295417362,NaN,NaN,-0.0580724049679879,0.716040759977555,0.760784876315832,-1.06822527259009,-0.905280499807489,-1.15080848632879,-0.110462671577279,-0.979114547381958,2.01043821673865,2.01863742978305,2.01863742979267,NaN,NaN,-0.528543816400279,NaN,1.35568619640308,-0.28150242735846,-0.688741497860588,0.0916319389433227,0.0916319389431004,0.318351785060567,-0.31835178506081,0.737095590073818
347.136,0.114121315675695,-0.178098642608755,0.0237104669836754,-0.26836691281329,-0.553593320317714,-0.553593320318882,NaN,-0.462365265759897,-0.570357542613015,-0.677007271569519,-0.776374238518718,-0.677007271570027,0.513967061863821,NaN,-0.333586211529122,NaN,NaN,-0.459192931625923,NaN,0.61464617858784,-0.214565289018943,NaN,1.10181520733803,NaN,0.700942307755257,-1.61553415629234,NaN,NaN,-0.0573661808828621,0.724578118755745,0.793170847239784,-1.09866188530437,-0.909723852381749,-1.13964070783214,-0.0888731255876638,-0.95925574038559,2.04282002612622,2.0118044274779,2.01180442748757,NaN,NaN,-0.536520646663919,NaN,1.34126524345569,-0.303580838994644,-0.696920289875577,0.0560418923838016,0.0560418923836037,0.34051060139361,-0.340510601393855,0.747658654386778
347.2384,0.106761076715201,-0.163443384289856,0.02345747013916,-0.272854134470268,-0.550379284567642,-0.550379284568795,NaN,-0.498805038569112,-0.614783697118066,-0.719700862689242,-0.773894048154787,-0.719700862689763,0.518765966961929,NaN,-0.359071050921446,NaN,NaN,-0.503125331514499,NaN,0.625155153349042,-0.223926376850994,NaN,1.08357321981322,NaN,0.756619191138683,-1.61751178439454,NaN,NaN,-0.0561054245701546,0.732768560971025,0.825526749339126,-1.12910509291639,-0.914242105138211,-1.1262113952873,-0.067512894106558,-0.937698144219968,2.07407920624349,2.00519040037823,2.00519040038797,NaN,NaN,-0.545226197583579,NaN,1.32632170867316,-0.326274125632174,-0.70412526819509,0.019403110763041,0.0194031107628674,0.363560691859216,-0.363560691859465,0.75832566441043
347.3408,0.0990178969825063,-0.149859064294389,0.0224529161175218,-0.277118800832862,-0.546639006821434,-0.546639006822571,NaN,-0.534814502711907,-0.659136797456554,-0.760834797908811,-0.770918284604007,-0.760834797909345,0.523979026535943,NaN,-0.383984864065934,NaN,NaN,-0.544863092976871,NaN,0.636009912957198,-0.231886685708358,NaN,1.0645935278691,NaN,0.811627573205402,-1.61903638410908,NaN,NaN,-0.0542754447208376,0.740615120394118,0.857819238482489,-1.15952469176242,-0.918833253154415,-1.11056559371089,-0.0463860837378612,-0.914479973839198,2.10424815673606,1.99890254361351,1.99890254362331,NaN,NaN,-0.554574622333851,NaN,1.31089954461842,-0.349502760147091,-0.710323846073496,-0.0182047939989357,-0.0182047939990864,0.387481122782762,-0.387481122783015,0.769087119956737
347.4432,0.0908513572692941,-0.137377520157964,0.0206501807053279,-0.281170856516518,-0.542332356866526,-0.542332356867648,NaN,-0.570348212711942,-0.703357307629022,-0.800300459980508,-0.76738063424709,-0.800300459981053,0.529666979504404,NaN,-0.408240603752777,NaN,NaN,-0.584218416668515,NaN,0.647198079802547,-0.23839969217886,NaN,1.04492662601426,NaN,0.865734407536719,-1.62016549413976,NaN,NaN,-0.0518641715585137,0.748121121891884,0.890015408396468,-1.18988983348504,-0.923492956821976,-1.09275362171831,-0.0254962458332116,-0.889643395190445,2.13336173519049,1.99304034573663,1.99304034574648,NaN,NaN,-0.564479162732271,NaN,1.29504329171162,-0.373184322427244,-0.715484512949757,-0.056701180571914,-0.0567011805720474,0.412249321010371,-0.412249321010628,0.779933646293166
347.5456,0.0822212818195345,-0.126026893156546,0.018004331916074,-0.285020721849923,-0.537419686469728,-0.537419686470838,NaN,-0.60536405749656,-0.747387629477967,-0.837997183575218,-0.763212729965471,-0.837997183575775,0.535887243647885,NaN,-0.43175349816483,NaN,NaN,-0.621016201116953,NaN,0.658704830660967,-0.243420381649018,NaN,1.02462277775668,NaN,0.918711733876218,-1.62095334243181,NaN,NaN,-0.0488622538472504,0.755290184321943,0.922082886294334,-1.22016910900126,-0.9282145415792,-1.07283088543565,-0.00484640690624551,-0.863234391258789,2.16145717744501,1.98769507248021,1.9876950724901,NaN,NaN,-0.57485263242293,NaN,1.27879788204243,-0.397233910290511,-0.719576956770241,-0.0960047546864488,-0.0960047546865595,0.437841219272566,-0.437841219272827,0.790856113415759
347.648,0.0730879854385425,-0.11583151967435,0.0144723803941986,-0.288679280043968,-0.531862040803547,-0.531862040804643,NaN,-0.639823186975196,-0.791172015652763,-0.873832755460593,-0.758344554179854,-0.873832755461159,0.54269347462044,NaN,-0.454441627156473,NaN,NaN,-0.655094888330449,NaN,0.670512870758118,-0.246905606538683,NaN,1.00373187893896,NaN,0.970337829921394,-1.62145058919073,NaN,NaN,-0.0452631546211792,0.762126215764931,0.953989939419093,-1.25033065106085,-0.932989018034361,-1.05085770322935,0.0155608777777335,-0.835302648490577,2.18857403197747,1.98294928480015,1.98294928481007,NaN,NaN,-0.585607902116366,NaN,1.26220840907896,-0.421564580597719,-0.722572185743517,-0.136033967066506,-0.136033967066594,0.46423141343512,-0.464231413435385,0.801845747349633
347.7504,0.0634125266878054,-0.106811835780223,0.0100135295889476,-0.292157869150038,-0.525621374549216,-0.525621374550296,NaN,-0.673689928873538,-0.834656477117864,-0.907723866958929,-0.7527048672115,-0.907723866959505,0.550135169320664,NaN,-0.476226470811488,NaN,NaN,-0.686307240219133,NaN,0.682602433653405,-0.248814465513454,NaN,0.982303316982492,NaN,1.02039834033464,-1.62170411916315,NaN,NaN,-0.0410632433810552,0.768633395071561,0.985705602059438,-1.28034226264653,-0.937805119865305,-1.02689914327338,0.035723457627036,-0.805901460071793,2.21475408193723,1.9788764030099,1.97887640301987,NaN,NaN,-0.596658381473095,NaN,1.24531986587235,-0.446087814674306,-0.72444265374365,-0.176707433231205,-0.176707433231265,0.49139333102594,-0.491393331026209,0.812894222312577
347.8528,0.0531569683589633,-0.0989842912453095,0.00458942821329822,-0.295468286650555,-0.518660770354597,-0.518660770355661,NaN,-0.706931688019551,-0.877788675938759,-0.939596499289396,-0.746221658366895,-0.93959649928998,0.55825731990678,NaN,-0.497033420016845,NaN,NaN,-0.714521030559253,NaN,0.694951306057537,-0.249108690269145,NaN,0.960385843754237,NaN,1.06868736995841,-1.62175687708051,NaN,NaN,-0.0362618805085587,0.774816139730785,1.0171998278533,-1.31017157371813,-0.942649355569578,-1.00102487130575,0.0556395139175024,-0.775087640527428,2.24004123691904,1.97554032363138,1.97554032364138,NaN,NaN,-0.607918492766177,NaN,1.22817686127985,-0.470714000831588,-0.725162392307452,-0.217944364755131,-0.217944364755164,0.519299410576866,-0.519299410577137,0.823993725984425
347.9552,0.0422846394421282,-0.0923612734187083,-0.00183558001762696,-0.298622814411838,-0.51094465850992,-0.510944658510969,NaN,-0.73951881863518,-0.920517795093505,-0.96938623345222,-0.738822612248275,-0.96938623345281,0.567100114983988,NaN,-0.51679224648367,NaN,NaN,-0.739619640906902,NaN,0.707534876418986,-0.247753029142692,NaN,0.938027468592081,NaN,1.1150085215557,-1.62164773339695,NaN,NaN,-0.0308614917847412,0.780679068251389,1.04844366551237,-1.33978622220376,-0.947506068496826,-0.97330899749367,0.0753074861411427,-0.742921440032363,2.26448138837408,1.97299509029305,1.97299509030308,NaN,NaN,-0.619304133275374,NaN,1.21082332700421,-0.495352923795429,-0.724707147037238,-0.259664998444472,-0.259664998444479,0.547921287957184,-0.547921287957459,0.835136994828288
348.0576,0.0307603831007282,-0.0869510436701649,-0.00929422341192855,-0.301634259773847,-0.502439037309971,-0.502439037311005,NaN,-0.771424453744307,-0.962794369717711,-0.997038485591412,-0.730435580136829,-0.997038485592007,0.576698677802492,NaN,-0.535437532629707,NaN,NaN,-0.761502553118687,NaN,0.720326208587064,-0.244715626516592,NaN,0.915275370170602,NaN,1.15917585914127,-1.62141136881036,NaN,NaN,-0.0248676310115696,0.786226968244238,1.07940944838099,-1.36915404703402,-0.952357496606236,-0.94382990556301,0.0947260031519254,-0.709466442070394,2.28812223867136,1.97128462143304,1.97128462144308,NaN,NaN,-0.630733116208005,NaN,1.19330223464274,-0.519914239849062,-0.723054518227009,-0.30179100508716,-0.30179100508714,0.577229981455931,-0.577229981456206,0.846317319379545
348.16,0.0185507761073873,-0.0827576890444205,-0.0178160993193348,-0.304515997639051,-0.49311169400196,-0.493111694002977,NaN,-0.802624283407958,-1.00457007106103,-1.02250867149594,-0.720989052243323,-1.02250867149654,0.587082831419952,NaN,-0.552909060943682,NaN,NaN,-0.780085737744647,NaN,0.733296139936664,-0.239968404348538,NaN,0.892175820955691,NaN,1.20101478710228,-1.62107817126609,NaN,NaN,-0.018289025543384,0.791464775644071,1.11007098410142,-1.39824327645491,-0.957183821306664,-0.912670051433779,0.113893821829884,-0.674789432831134,2.3110131264703,1.970442500589,1.97044250059907,NaN,NaN,-0.642125572137973,NaN,1.17565534387287,-0.544307912012754,-0.720184111994061,-0.344245857200907,-0.344245857200867,0.60719606562486,-0.607196065625138,0.857528522580834
348.2624,0.00562431725839883,-0.0797810922546902,-0.0274275044782362,-0.307281998081267,-0.482932427446404,-0.482932427447405,NaN,-0.833096294749655,-1.04579745778222,-1.04576230626329,-0.710412633751147,-1.04576230626389,0.598276884686221,NaN,-0.569152163187283,NaN,NaN,-0.795301943102798,NaN,0.746413397876266,-0.233487449477115,NaN,0.868774111001294,NaN,1.24036284707635,-1.62067414363058,NaN,NaN,-0.0111376003303479,0.7963975614103,1.14040373087404,-1.42702269643803,-0.961963197896012,-0.879915731244544,0.132809767830423,-0.638960244993471,2.33320486839168,1.97049183229245,1.97049183230255,NaN,NaN,-0.653404296883868,NaN,1.15792298941094,-0.568444594391859,-0.716077707616447,-0.386955145505171,-0.386955145505106,0.637789825986152,-0.637789825986431,0.868764916661903
348.3648,-0.0080484091017817,-0.0780169241566406,-0.0381512952316254,-0.309946831149942,-0.471873275960999,-0.471873275961983,NaN,-0.862820501544425,-1.08642972544447,-1.06677504760764,-0.698637527243959,-1.06677504760825,0.610299438687172,NaN,-0.584118031378093,NaN,NaN,-0.807100889284971,NaN,0.759644729146416,-0.225253401718314,NaN,0.845114454902693,NaN,1.27707043785295,-1.62022082454106,NaN,NaN,-0.00342848295500957,0.801030519082896,1.17038495104981,-1.45546179173042,-0.96667176915714,-0.84565682771744,0.151472664782363,-0.602051589961604,2.3547496235879,1.97144516109633,1.97144516110644,NaN,NaN,-0.664495041534112,NaN,1.14014389416021,-0.592235973683313,-0.710719441310793,-0.429846849458291,-0.429846849458205,0.668981391540803,-0.668981391541085,0.880021239179396
348.4672,-0.0224945908042479,-0.0774566610206897,-0.0500067754998594,-0.312525651043366,-0.459908754470881,-0.459908754471851,NaN,-0.89177869251974,-1.12642048494914,-1.08553268729772,-0.685597020317535,-1.08553268729833,0.623163221364017,NaN,-0.597763989842022,NaN,NaN,-0.815449366536753,NaN,0.772955044503137,-0.215251832081349,NaN,0.821239872617214,NaN,1.31100145706948,-1.61973522849925,NaN,NaN,0.00482000269131148,0.805368951725851,1.1999938423032,-1.48353086498142,-0.971283673943934,-0.809986541217328,0.169881239099528,-0.564138890130554,2.37570078196014,1.97330445012962,1.97330445013974,NaN,NaN,-0.675326744456238,NaN,1.12235498694168,-0.615595079266168,-0.70409600669647,-0.472851575096305,-0.472851575096201,0.700740847235993,-0.700740847236276,0.891292557592587
348.5696,-0.0377390681145916,-0.0780876247445774,-0.0630096128382631,-0.315034172653266,-0.447016102761441,-0.447016102762396,NaN,-0.919954222022168,-1.16572359382393,-1.10203108923723,-0.671226976158122,-1.10203108923784,0.636874959230733,NaN,-0.610053726464933,NaN,NaN,-0.820331236358007,NaN,0.78630758662266,-0.203473600586568,NaN,0.797192044268313,NaN,1.3420338575961,-1.61922981128563,NaN,NaN,0.0135863481464797,0.809418263753677,1.22921165357397,-1.51120114791718,-0.975771068102701,-0.77300110472945,0.188033999251306,-0.525300111141696,2.39611288308267,1.97606111860343,1.97606111861356,NaN,NaN,-0.685831706653682,NaN,1.10459121148816,-0.638436566430879,-0.696196873996874,-0.515902770512699,-0.515902770512577,0.733038330546321,-0.733038330546606,0.902574129551119
348.672,-0.0538042356984068,-0.0798930424081205,-0.0771717804374592,-0.317488657510542,-0.433175544060976,-0.433175544061917,NaN,-0.947331855714421,-1.2042930538334,-1.11627607526754,-0.655466323926028,-1.11627607526816,0.651435283266606,NaN,-0.620957490090509,NaN,NaN,-0.821747339256741,NaN,0.799664122977266,-0.189915185890547,NaN,0.773011142795993,NaN,1.37006011329416,-1.61871246597575,NaN,NaN,0.0228458767773418,0.813183964734324,1.25802178776743,-1.53844491295782,-0.9801041727961,-0.734799481841572,0.20592910061872,-0.485615587778267,2.41604157547222,1.97969614119345,1.97969614120356,NaN,NaN,-0.695945719318815,NaN,1.08688533015112,-0.660676976041682,-0.687014521916374,-0.558936919545682,-0.558936919545541,0.765844112365586,-0.765844112365871,0.913861222822411
348.7744,-0.0707099586927774,-0.0828521231646444,-0.0925015179024927,-0.319905919106906,-0.418370552234503,-0.418370552235431,NaN,-0.973897671308145,-1.24208297557389,-1.12828326552183,-0.638257543051093,-1.12828326552244,0.666838656476956,NaN,-0.630452268521366,NaN,NaN,-0.819715318505096,NaN,0.812985153651913,-0.174578983173277,NaN,0.748735649269958,NaN,1.39498759418458,-1.61818655657209,NaN,NaN,0.0325707689636551,0.816671687827047,1.28640988328525,-1.56523558154626,-0.984251357576641,-0.695483053036621,0.223564208727577,-0.445167841301013,2.43554361603682,1.98418021578262,1.98418021579273,NaN,NaN,-0.70560816027638,NaN,1.0692677364322,-0.682234978762211,-0.676544663286503,-0.601893704713536,-0.601893704713377,0.799128656994834,-0.79912865699512,0.925148920154428
348.8768,-0.0884734923902184,-0.0869401519597455,-0.109003301830031,-0.322303345968664,-0.402588124950894,-0.402588124951811,NaN,-0.999639008390015,-1.27904760292553,-1.1380778775208,-0.619547135319265,-1.13807787752141,0.683073317921223,NaN,-0.638521953470985,NaN,NaN,-0.81426936783344,NaN,0.826230119812852,-0.157473572527925,NaN,0.724402157428166,NaN,1.41673885269179,-1.61765099402776,NaN,NaN,0.0427301038594284,0.819887221093732,1.31436386618503,-1.59154782198134,-0.988179258218816,-0.655155298131394,0.240936366601187,-0.404041391612118,2.45467689671878,1.98947400882312,1.9894740088332,NaN,NaN,-0.714762073376866,NaN,1.05176628899958,-0.70303161237017,-0.664786444591147,-0.644716129043569,-0.64471612904339,0.832862655913208,-0.832862655913495,0.936431938144613
348.9792,-0.10710939937884,-0.0921285999716044,-0.126677820992681,-0.324698934307612,-0.38581905694362,-0.385819056944528,NaN,-1.02454446071001,-1.31514138861719,-1.14569448199176,-0.599286080624939,-1.14569448199237,0.700121250333066,NaN,-0.64515748581786,NaN,NaN,-0.805459903631097,NaN,0.839357605699626,-0.138613960817659,NaN,0.700045173535822,NaN,1.43525182113024,-1.61710034869268,NaN,NaN,0.0532899267680314,0.822836548423613,1.34187397236706,-1.61735763500602,-0.991852926544026,-0.613921478393068,0.258041867777352,-0.362322566301288,2.47350047535785,1.99552848542094,1.99552848543101,NaN,NaN,-0.723354235360856,NaN,1.03440617457261,-0.722990514105148,-0.651742610112834,-0.687350592883365,-0.687350592883164,0.867017031855745,-0.867017031856033,0.947704474033302
349.0816,-0.12662946541986,-0.098385251926391,-0.145521957263644,-0.327111321926811,-0.368058202437896,-0.368058202438794,NaN,-1.048603901976,-1.35031911098428,-1.15117671446111,-0.577430272139256,-1.15117671446172,0.717958177923215,NaN,-0.650356973235991,NaN,NaN,-0.793353154031195,NaN,0.852325536515056,-0.118021794420451,NaN,0.675696915966967,NaN,1.45047992188296,-1.61652498363668,NaN,NaN,0.0642133501078461,0.825525895957738,1.36893274108208,-1.64264242720557,-0.995236009782847,-0.571888317207752,0.274876139872234,-0.320099303206037,2.49207457872122,2.002285322693,2.00228532270304,NaN,NaN,-0.731335210314743,NaN,1.0172098053612,-0.742038144355811,-0.637419628673602,-0.729746928892737,-0.729746928892517,0.90156291096784,-0.901562910968129,0.958960080091368
349.184,-0.147042619864594,-0.105674349340165,-0.165528776751897,-0.329559816475606,-0.349304715452542,-0.349304715453435,NaN,-1.07180853212821,-1.38453601907538,-1.1545769476868,-0.553940927090634,-1.15457694768741,0.736553591851958,NaN,-0.654125778098645,NaN,NaN,-0.778030655842051,NaN,0.865091378102976,-0.0957255385240393,NaN,0.651387120647211,NaN,1.46239209694852,-1.61591119591461,NaN,NaN,0.0754606918576032,0.827961779018103,1.39553497600675,-1.66738106658279,-0.998290954185806,-0.529163677264065,0.291433645725544,-0.277460941300834,2.5104605447725,2.00967739637284,2.00967739638286,NaN,NaN,-0.738659396389674,NaN,1.00019675269833,-0.760104001469017,-0.621827781905074,-0.771858404785298,-0.771858404785058,0.936471568018267,-0.936471568018557,0.970191562964053
349.2864,-0.16835486594594,-0.113956746149856,-0.186687534184854,-0.332064411465586,-0.329562266482055,-0.329562266482943,NaN,-1.09415092886168,-1.41774799063104,-1.15595593183785,-0.528784972664841,-1.15595593183845,0.755870798769724,NaN,-0.656476573360761,NaN,NaN,-0.759588659867328,NaN,0.877612341815714,-0.0717606221002312,NaN,0.627142860893378,NaN,1.47097276784555,-1.61524136764363,NaN,NaN,0.086989644996387,0.830151043763326,1.4216776702596,-1.69155391118106,-1.00097921941498,-0.485856235005201,0.307707802487282,-0.234498000337789,2.52872068714476,2.01762933114607,2.01762933115607,NaN,NaN,-0.745285075365517,NaN,0.983383708067109,-0.777120837312273,-0.604981216455369,-0.813641708413258,-0.813641708413003,0.971714359273725,-0.971714359274013,0.981390904539743
349.3888,-0.190569223736288,-0.123190072875442,-0.208983691319601,-0.334645783937285,-0.308839243373391,-0.308839243374275,NaN,-1.11562509143284,-1.44991168818214,-1.15538240311619,-0.50193540543629,-1.15538240311679,0.775866996528178,NaN,-0.65742935587325,NaN,NaN,-0.738137455643827,NaN,0.889845593432624,-0.0461695482935323,NaN,0.60298839117438,NaN,1.47622173352071,-1.61449414502581,NaN,NaN,0.0987554615717722,0.832100897290226,1.44735989974928,-1.71514280649604,-1.00326148530378,-0.442075159006953,0.323690911570176,-0.191301958152349,2.54691808599784,2.02605811451226,2.02605811452226,NaN,NaN,-0.751174471913184,NaN,0.966784457328266,-0.793024884499729,-0.586897967991224,-0.855056925571419,-0.855056925571145,1.00726265806665,-1.00726265806694,0.992549195716907
349.4912,-0.213685686567519,-0.133328909001191,-0.232398949922429,-0.337325271410256,-0.287148938397889,-0.287148938398769,NaN,-1.13622647091458,-1.48098470433141,-1.15293265157945,-0.473371616304924,-1.15293265158005,0.796493389961235,NaN,-0.657011400732859,NaN,NaN,-0.713800623302525,NaN,0.901748462925799,-0.0190019652406112,NaN,0.578945026814557,NaN,1.47815400092694,-1.61364466393123,NaN,NaN,0.110711139645524,0.833818922063492,1.47258269464129,-1.73813105582184,-1.00509784087427,-0.397929801279249,0.339374096385726,-0.147965034409114,2.56511631860715,2.0348737804615,2.03487378047146,NaN,NaN,-0.756293816194374,NaN,0.950409861725712,-0.807756091993184,-0.567599965630603,-0.896067508278856,-0.896067508278567,1.04308780023204,-1.04308780023233,1.00365657369728
349.5936,-0.237701189366811,-0.144324967340831,-0.25691129953978,-0.340124834077538,-0.264509711705797,-0.264509711706676,NaN,-1.15595198880907,-1.51092569541999,-1.1486900364531,-0.443079671028577,-1.1486900364537,0.817695357430619,NaN,-0.655257148181494,NaN,NaN,-0.686714207065018,NaN,0.913278653765523,0.00968531405517665,NaN,0.555031071217124,NaN,1.47679953005986,-1.61266482250102,NaN,NaN,0.122807617261009,0.835313075964141,1.49734889535377,-1.76050337239255,-1.00644796292237,-0.353529403314625,0.354747255689804,-0.104579978300194,2.58337914069311,2.04398016467121,2.04398016468111,NaN,NaN,-0.760613396755679,NaN,0.934267850207891,-0.821258352832,-0.547113020122764,-0.936640223622463,-0.936640223622158,1.07916103855087,-1.07916103855116,1.01470216148645
349.696,-0.262609584458081,-0.156127295370191,-0.282495078346057,-0.343067013880613,-0.240945121450271,-0.240945121451151,NaN,-1.17480004938961,-1.5396945083912,-1.14274444724057,-0.41105254200746,-1.14274444724116,0.839412668740897,NaN,-0.652208030611436,NaN,NaN,-0.657025801325786,NaN,0.924394452856941,0.0398283536628878,NaN,0.531261793761364,NaN,1.47220287648878,-1.61152358792601,NaN,NaN,0.134993985402946,0.836591684639182,1.52166299302672,-1.78224582107139,-1.0072713018586,-0.308982810498769,0.36979904171497,-0.0612398504406843,2.60177012363652,2.05327572283411,2.05327572284398,NaN,NaN,-0.764107599523641,NaN,0.918363430511772,-0.833479712912461,-0.525466789178633,-0.976745075634799,-0.976745075634483,1.11545350043666,-1.11545350043695,1.02567401740801
349.7984,-0.288401620028652,-0.168682496220556,-0.309121044138494,-0.346174895594013,-0.216484018270145,-0.216484018271026,NaN,-1.19277054964408,-1.56725230651925,-1.13519172114213,-0.377290294363972,-1.13519172114272,0.861579748994321,NaN,-0.647912253815542,NaN,NaN,-0.624893552621114,NaN,0.935054943056402,0.0713561993992096,NaN,0.507649449138549,NaN,1.46442272925757,-1.61018732976002,NaN,NaN,0.14721772417629,0.837663434007501,1.54553095311001,-1.80334575381537,-1.00752728709149,-0.264398187922267,0.384516860204036,-0.0180377948327289,2.62035224671127,2.06265439831093,2.06265439832075,NaN,NaN,-0.766754937929875,NaN,0.902698721922388,-0.844372562798233,-0.502694707083362,-1.01635520015087,-1.01635520015055,1.151936140899,-1.15193614089929,1.03655910063482
349.9008,-0.315064920860199,-0.181934969557814,-0.336756455234397,-0.34947206309575,-0.191160601752523,-0.191160601753407,NaN,-1.2098648866317,-1.59356169726507,-1.1261330305638,-0.34180023059895,-1.12613303056438,0.884125984695346,NaN,-0.642424540132076,NaN,NaN,-0.590485091491693,NaN,0.945220220365094,0.10419104317067,NaN,0.484203319005106,NaN,1.45353135333445,-1.60862017605377,NaN,NaN,0.159424956686817,0.838537365632281,1.56896002497165,-1.82379174159815,-1.00717555225137,-0.219882730886073,0.398886880379641,0.0249331984435775,2.63918744307456,2.07200652569575,2.0720065257055,NaN,NaN,-0.768538074251213,NaN,0.887273007057931,-0.85389381658787,-0.478833872257774,-1.05544674004167,-1.05544674004134,1.18857968331998,-1.18857968332027,1.04734324643681
350.0032,-0.342583978194428,-0.195827173996745,-0.365365167680692,-0.352982542636428,-0.165014430432156,-0.165014430433044,NaN,-1.22608596011287,-1.61858686403729,-1.11567424980555,-0.304596987508832,-1.11567424980613,0.906976072769368,NaN,-0.635805834448304,NaN,NaN,-0.553976402699974,NaN,0.954851618058039,0.13824845300158,NaN,0.460929758161848,NaN,1.43961394192835,-1.60678437899653,NaN,NaN,0.171560717241015,0.839222870476236,1.59195854433339,-1.84357350713382,-1.00617617653007,-0.175542359302607,0.412894050296787,0.0675805461779757,2.65833610789244,2.08121975688195,2.08121975689164,NaN,NaN,-0.769443824341681,NaN,0.872082797294688,-0.862005076019388,-0.453924897603669,-1.09399871095582,-1.09399871095548,1.22535454678916,-1.22535454678946,1.05801113979005
350.1056,-0.370940161792658,-0.210299914496698,-0.394907761084893,-0.356730732508161,-0.138090376438958,-0.138090376439851,NaN,-1.24143817067275,-1.64229370417271,-1.10392530332604,-0.265702566532291,-1.10392530332661,0.930050416331853,NaN,-0.628122973874195,NaN,NaN,-0.515550631195313,NaN,0.963911942306588,0.173437679626932,NaN,0.437832242792296,NaN,1.42276787317764,-1.60464067239712,NaN,NaN,0.183569239873375,0.839729674366727,1.61453573622796,-1.86268186527758,-1.00448994238681,-0.131481384610157,0.42652212744415,0.109812354729331,2.67785658973637,2.09017999522797,2.09017999523761,NaN,NaN,-0.769463142482203,NaN,0.857121904260594,-0.868672778492532,-0.42801173120852,-1.13199286697259,-1.13199286697224,1.26223077125481,-1.26223077125511,1.06854628493873
350.208,-0.400111767056549,-0.22529265373806,-0.425341703425202,-0.36074132020182,-0.110438522771926,-0.110438522772825,NaN,-1.2559274155356,-1.66464997398847,-1.09099949217036,-0.22514628279182,-1.09099949217093,0.953265571582827,NaN,-0.619448320218286,NaN,NaN,-0.475396822944413,NaN,0.972365724797924,0.209662042742033,NaN,0.414911433438171,NaN,1.40310186431895,-1.60214861436757,NaN,NaN,0.195394274540473,0.840067809875054,1.63670152510444,-1.88110867610416,-1.00207860774796,-0.0878021450007897,0.439753737951619,0.151537742588966,2.6978046889774,2.09877232728671,2.09877232729629,NaN,NaN,-0.768591092973131,NaN,0.842381508004175,-0.873868333059929,-0.401141452507818,-1.16941357458333,-1.16941357458297,1.29917795946505,-1.29917795946536,1.07893097505057
350.3104,-0.430074100943312,-0.240743838626081,-0.45662155439622,-0.365039182450805,-0.0821140069320568,-0.0821140069329609,NaN,-1.26956108314068,-1.68562543832294,-1.07701279222147,-0.182964638093193,-1.07701279222203,0.976534745647776,NaN,-0.609859345750599,NaN,NaN,-0.43370861506028,NaN,0.980179489651705,0.246819390908707,NaN,0.392165267833628,NaN,1.3807350285415,-1.59926691876508,NaN,NaN,0.206979426128998,0.840247567934629,1.65846635471361,-1.89884680677831,-0.998905178643205,-0.0446046129214663,0.452570468515274,0.192667201706253,2.7182331739449,2.10688194955021,2.10688194955971,NaN,NaN,-0.766826816679622,NaN,0.827850217066849,-0.877568248308815,-0.373364049326693,-1.20624769623633,-1.20624769623595,1.3361652437373,-1.33616524373762,1.08914626005309
350.4128,-0.460799600028441,-0.256591230212558,-0.488699197015652,-0.369649260837678,-0.0531768139816594,-0.0531768139825696,NaN,-1.28234804665935,-1.70519202108372,-1.06208312040917,-0.139201139211658,-1.06208312040973,0.99976833663132,NaN,-0.599438157016428,NaN,NaN,-0.39068290439849,NaN,0.98732202294814,0.284802623519639,NaN,0.369589092542072,NaN,1.35579585079336,-1.59595377884425,NaN,NaN,0.218268497421019,0.840279422005587,1.67984101440224,-1.91589009043876,-0.994934162293269,-0.00198598253942745,0.46495298619673,0.233112988960831,2.73919130876224,2.11439509225522,2.11439509226465,NaN,NaN,-0.764173495173064,NaN,0.813514125441902,-0.879754249933364,-0.344732182827108,-1.24248447150299,-1.2424844715026,1.3731612639815,-1.37316126398182,1.0991719025473
350.5152,-0.4922579720671,-0.272772229318132,-0.52152408715105,-0.374596409296449,-0.0236915173364728,-0.0236915173373904,NaN,-1.29429865688332,-1.72332395454076,-1.04632957094211,-0.0939060828500412,-1.04632957094267,1.02287450293356,NaN,-0.588270947956271,NaN,NaN,-0.346518524884472,NaN,0.99376463737894,0.323500259111682,NaN,0.347175836153397,NaN,1.32842109555062,-1.59216718439955,NaN,NaN,0.229205816670659,0.840173924955911,1.70083646647466,-1.93223327330172,-0.990131791358965,0.0399597545731953,0.476881182175002,0.27278953917825,2.76072438198562,2.12119994087319,2.12119994088255,NaN,NaN,-0.76063830862079,NaN,0.799356877644942,-0.880413378073419,-0.315300946241166,-1.2781153784436,-1.27811537844319,1.41013413328895,-1.41013413328928,1.10898631267317
350.6176,-0.524416356216664,-0.289224196242981,-0.55504351627174,-0.379905215477669,0.00627303728602852,0.00627303728510333,NaN,-1.30542473627406,-1.73999792729222,-1.02987162817915,-0.0471363165238233,-1.0298716281797,1.04575975471211,NaN,-0.576447384401057,NaN,NaN,-0.301414950192949,NaN,0.999481430237312,0.362797037449031,NaN,0.324916225014641,NaN,1.29875465181295,-1.58786523271682,NaN,NaN,0.239736544086245,0.839941585674969,1.72146367216733,-1.94787194927901,-0.984466222647355,0.0811422379237399,0.488334342733907,0.311613895238991,2.78287323038285,2.12718755121652,2.12718755122583,NaN,NaN,-0.756232377585607,NaN,0.785359754429042,-0.879538048042091,-0.285127619524823,-1.31313396333663,-1.31313396333622,1.44705137205198,-1.44705137205232,1.11856646150805
350.72,-0.557239498938279,-0.305884766264947,-0.589202885616314,-0.38559980014608,0.0366441060636108,0.0366441060626775,NaN,-1.31573958018059,-1.75519323626719,-1.01282836577272,0.00104503008611282,-1.01282836577326,1.06832956860203,NaN,-0.564059926871715,NaN,NaN,-0.255571022120531,NaN,1.00444952270407,0.402574554662923,NaN,0.302799043634643,NaN,1.2669463252074,-1.58300642912935,NaN,NaN,0.249806966645031,0.839592726422187,1.74173341421021,-1.96280248146424,-0.977907712847809,0.12147516410977,0.499291354475752,0.349506153480089,2.80567375456689,2.13225274904036,2.13225274904962,NaN,NaN,-0.750970676027944,NaN,0.771501790474344,-0.877126058497313,-0.254271416304803,-1.34753563332716,-1.34753563332673,1.48387980004438,-1.48387980004472,1.12788778292958
350.8224,-0.590689942019487,-0.322692161487375,-0.623945989026664,-0.391703595180881,0.0673454736396975,0.0673454736387545,NaN,-1.32525797415711,-1.7688919526877,-0.995317644783101,0.0505688546139063,-0.99531764478364,1.09048902618032,NaN,-0.551203100526594,NaN,NaN,-0.209183700967587,NaN,1.00864925677202,0.442711936972808,NaN,0.280811439483222,NaN,1.23315059893784,-1.57754996625078,NaN,NaN,0.259364795948233,0.839137311298903,1.76165611149442,-1.97702190485544,-0.970428767461989,0.160876704774083,0.509730947153116,0.386389921622687,2.82915642234709,2.13629500178871,2.1362950017979,NaN,NaN,-0.744871906519434,NaN,0.757759930691937,-0.873180540801683,-0.22279321479593,-1.38131740972556,-1.38131740972511,1.52058538301377,-1.52058538301412,1.13692408015257
350.9248,-0.624728218902385,-0.339585496624176,-0.659215300286084,-0.398239098439607,0.0982979224385173,0.0982979224375649,NaN,-1.33399623179636,-1.78107910746335,-0.977455325459225,0.101360435660458,-0.977455325459758,1.11214346925581,NaN,-0.537972724222058,NaN,NaN,-0.162446845419511,NaN,1.01206433580469,0.483086549579846,NaN,0.25893926461285,NaN,1.19752538811966,-1.57145596946091,NaN,NaN,0.268359476873639,0.838584738466526,1.7812416240203,-1.9905278073037,-0.96200425974265,0.199269913480397,0.519631970433215,0.4221927849391,2.85334576077394,2.13921924949228,2.13921924950142,NaN,NaN,-0.737958337072553,NaN,0.744109224400418,-0.867709855107042,-0.190755268943446,-1.4144776442533,-1.41447764425284,1.55713303626794,-1.5571330362683,1.14564744971942
351.0272,-0.659313055062703,-0.35650507521439,-0.694952259990668,-0.405227613114914,0.129419737186971,0.12941973718601,NaN,-1.34197224887474,-1.7917428906021,-0.959354508589187,0.153339823238831,-0.959354508589714,1.13319916089056,NaN,-0.524465112557758,NaN,NaN,-0.11555004301094,NaN,1.01468191509621,0.52357472488069,NaN,0.23716744177475,NaN,1.16023080434387,-1.56468570376977,NaN,NaN,0.276742504700747,0.837943604458657,1.80049905424994,-2.00331819573409,-0.952611523407786,0.23658312211551,0.528973695849388,0.456846776730784,2.87825984991797,2.14093668338904,2.14093668339813,NaN,NaN,-0.73025560467096,NaN,0.730523050980906,-0.860727443388607,-0.158220908746052,-1.44701570763408,-1.44701570763361,1.59348639858005,-1.59348639858041,1.15402822708096
351.1296,-0.694401567170696,-0.373392673585824,-0.731097556468025,-0.412688994397964,0.160627240102153,0.160627240101179,NaN,-1.34920556436079,-1.80087485218899,-0.941124823862997,0.206422257403464,-0.941124823863517,1.15356394255525,NaN,-0.51077626608711,NaN,NaN,-0.0686775145939545,NaN,1.01649265583192,0.564052492087773,NaN,0.215480344631412,NaN,1.1214279384771,-1.55720174820977,NaN,NaN,0.284467746912332,0.837221463227464,1.81943655540135,-2.01539136118893,-0.942230428845249,0.272750328673341,0.537736133995222,0.490288849585951,2.90390983982424,2.14136546360685,2.14136546361589,NaN,NaN,-0.721792488614951,NaN,0.716973369923289,-0.852251645491377,-0.125254244384929,-1.4789316626792,-1.47893166267873,1.62960760634273,-1.6296076063431,1.16203495679595
351.232,-0.729949456040005,-0.390191810431497,-0.767591395706672,-0.420641427020474,0.191835351055744,0.191835351054761,NaN,-1.35571741780492,-1.80847009287818,-0.922871783127959,0.260518610003381,-0.922871783128473,1.17314788089937,NaN,-0.497001067690301,NaN,NaN,-0.0220071094445845,NaN,1.01749074976947,0.604396296069294,NaN,0.193862185309789,NaN,1.08127766553357,-1.54896814803205,NaN,NaN,0.291491771083965,0.836424603195543,1.83806115319246,-2.02674575289519,-0.930843452963851,0.307711575977024,0.545900356153307,0.522461341604936,2.93029950826839,2.1404313700963,2.14043137010532,NaN,NaN,-0.71260065314144,NaN,0.703430990766251,-0.842305478969854,-0.0919198816564402,-1.51022592861653,-1.51022592861605,1.66545710400353,-1.66545710400391,1.16963439722178
351.3344,-0.765911189422153,-0.406848000057781,-0.804373756217413,-0.429101239481266,0.222958164564087,0.222958164563094,NaN,-1.36153079402165,-1.81452743656028,-0.904696212669905,0.315535841687105,-0.904696212670413,1.19186390021202,NaN,-0.483232502127036,NaN,NaN,0.024290598000955,NaN,1.01767391751085,0.644483697319021,NaN,0.172297403611991,NaN,1.03993947641303,-1.53995055005422,NaN,NaN,0.297774181862717,0.835557855260532,1.85637858128306,-2.03737986380987,-0.918435747759582,0.341413317375257,0.553448807553808,0.553312427949055,2.95742486529162,2.13806838381337,2.13806838382239,NaN,NaN,-0.702714359785463,NaN,0.689865861108925,-0.83091638299967,-0.0582826485990898,-1.54089893725697,-1.54089893725648,1.70099351296925,-1.70099351296964,1.17679157080537
351.4368,-0.8022401698965,-0.423308988935595,-0.84138462470577,-0.438082746150024,0.253909538204943,0.253909538203943,NaN,-1.36667045131903,-1.81904958512537,-0.886693769977925,0.371377460585774,-0.886693769978428,1.20962839757876,NaN,-0.469560907115246,NaN,NaN,0.070053103072763,NaN,1.01704338232656,0.684194048259732,NaN,0.150771052820626,NaN,0.997570343997131,-1.53011631930121,NaN,NaN,0.303277967178034,0.83462443498003,1.87439312988438,-2.04729212629252,-0.904995205591851,0.373808762913857,0.560365601911498,0.582796547273173,2.98527380041391,2.1342191971787,2.13421919718769,NaN,NaN,-0.692170150965854,NaN,0.676247373339324,-0.818115927547004,-0.02440733280405,-1.5709507822946,-1.5709507822941,1.73617356295166,-1.73617356295205,1.18346986266044
351.5392,-0.838888882430006,-0.439524977908694,-0.878564208966108,-0.447598111873168,0.284603695211955,0.284603695210944,NaN,-1.37116293760245,-1.82204326264509,-0.868954543389224,0.427943973847049,-0.868954543389722,1.22636183453439,NaN,-0.456073256347275,NaN,NaN,0.115126658510067,NaN,1.01560381656455,0.723409149803642,NaN,0.129269178520173,NaN,0.954323631535493,-1.51943462855465,NaN,NaN,0.307969853484892,0.833625817942634,1.89210750692003,-2.0564808149438,-0.890512515684254,0.404858199830728,0.566636796310293,0.610874797636092,3.01382576421088,2.12883565107343,2.12883565108241,NaN,NaN,-0.681006505349198,NaN,0.662544692618672,-0.80393948933815,0.00964157192109492,-1.60038086810193,-1.60038086810143,1.77095208366882,-1.77095208366922,1.18963116583577
351.6416,-0.875809018630354,-0.455448832562498,-0.915853126516555,-0.457657244750541,0.314955849108048,0.314955849107027,NaN,-1.37503660243094,-1.82351935769376,-0.851562732561774,0.485133335624554,-0.851562732562265,1.24198929436187,NaN,-0.442852475725238,NaN,NaN,0.159366863404941,NaN,1.01336324850945,0.762013899721921,NaN,0.107779187418924,NaN,0.910348050439768,-1.50787650688153,NaN,NaN,0.311820673007463,0.832561646054222,1.90952270531107,-2.06494394982471,-0.874981209278858,0.434529285216642,0.572250655614009,0.637515304791026,3.04305147930263,2.1218790890855,2.12187908909447,NaN,NaN,-0.669263467102605,NaN,0.648727109609168,-0.788425896437801,0.0438001164215207,-1.62918756420476,-1.62918756420427,1.80528205475784,-1.80528205475824,1.19523607875578
351.744,-0.912951577390773,-0.47103627945904,-0.953192567798393,-0.468267726959666,0.344882850330538,0.344882850329508,NaN,-1.37832160829992,-1.8234930644259,-0.834596407760746,0.542841397520263,-0.834596407761232,1.25644099393695,NaN,-0.4299768002915,NaN,NaN,0.202639163119915,NaN,1.01033291360825,0.799896938525883,NaN,0.0862902017287215,NaN,0.865786677389699,-1.49541483755241,NaN,NaN,0.314805744134411,0.831429661994645,1.92663786591895,-2.07267919175364,-0.858397695485147,0.46279731169499,0.577197917479637,0.662693569131913,3.07291268616795,2.11332061531763,2.11332061532658,NaN,NaN,-0.656982254552275,NaN,0.634764419364752,-0.771617043739802,0.0780051518828375,-1.65736786442255,-1.65736786442205,1.83911470504986,-1.83911470505028,1.20024416407985
351.8464,-0.950266942760173,-0.486246079973444,-0.990524431308548,-0.479434786448335,0.374303833555524,0.374303833554484,NaN,-1.38104993476584,-1.82198400975452,-0.818127341958278,0.600962355800453,-0.818127341958759,1.26965274187512,NaN,-0.417519185785438,NaN,NaN,0.244819265537974,NaN,1.0065270462814,0.836951283348234,NaN,0.0647933920284338,NaN,0.820776047958334,-1.48202431874675,NaN,NaN,0.316905252409096,0.830225668957879,1.94345013386548,-2.07968372906778,-0.840761290979592,0.489645442877506,0.581472056827464,0.686392788115259,3.1033619385231,2.10314124924544,2.10314124925437,NaN,NaN,-0.644204860418158,NaN,0.620627315782105,-0.753557490990973,0.112194586344346,-1.68491705018177,-1.68491705018128,1.8723996442021,-1.87239964420253,1.20461426494661
351.9488,-0.987704941400915,-0.501040171666555,-1.02779142858706,-0.491161296273542,0.403140826638418,0.403140826637368,NaN,-1.383255362441,-1.81901634526611,-0.802220905806117,0.659389177441308,-0.802220905806594,1.28156633793139,NaN,-0.405546791873558,NaN,NaN,0.285793473866108,NaN,1.00196263296412,0.873074930990656,NaN,0.0432822814770399,NaN,0.775445349950071,-1.46768142832153,NaN,NaN,0.318104603206925,0.828943513029587,1.95995452274787,-2.08595416995226,-0.822074246589153,0.515064905655421,0.585069529056753,0.708604133319641,3.13434246283501,2.09133198773701,2.0913319877459,NaN,NaN,-0.630973667832489,NaN,0.606287773619279,-0.734294073623377,0.146307626877069,-1.71182837187991,-1.71182837187942,1.90508501318903,-1.90508501318947,1.20830485458722
352.0512,-1.02521488366265,-0.515383771325875,-1.0649371600652,-0.503447776392954,0.431319288830699,0.43131928882964,NaN,-1.38497342732566,-1.81461878745026,-0.786936015402762,0.718013988089612,-0.786936015403235,1.29212991299437,NaN,-0.394120548745237,NaN,NaN,0.32545893312855,NaN,0.996659160810403,0.908171412879402,NaN,0.0217530183216176,NaN,0.729915737227147,-1.45236443650346,NaN,NaN,0.318394716185794,0.827575085691929,1.97614381083473,-2.09148646304323,-0.80234177422191,0.539055120220509,0.587989963184473,0.72932695226403,3.16578808950259,2.07789379581021,2.07789379581909,NaN,NaN,-0.617331111185145,NaN,0.591719386907636,-0.713875563196913,0.180284994291534,-1.73809277307387,-1.73809277307338,1.93711765404965,-1.9371176540501,1.21127438917978
352.1536,-1.06274559426892,-0.529245442767621,-1.10190616803483,-0.5162923811589,0.458768573431315,0.458768573430249,NaN,-1.38624134765367,-1.80882460609172,-0.772325128132082,0.776728422824633,-0.772325128132553,1.3012982102421,NaN,-0.383294808700663,NaN,NaN,0.363723787711144,NaN,0.990638387883733,0.942150290789792,NaN,0.000204616194281105,NaN,0.684299772692038,-1.43605348126678,NaN,NaN,0.317772246926861,0.82611034374531,1.99200848615898,-2.09627586102759,-0.781572073801775,0.561623753591408,0.590236287063716,0.748568874564482,3.1976232580332,2.06283754351461,2.06283754352347,NaN,NaN,-0.603319396494147,NaN,0.576897647124732,-0.692352397795101,0.214069106271867,-1.76369867906741,-1.76369867906692,1.96844331046534,-1.9684433104658,1.21348164481263
352.256,-1.10024544040656,-0.542597140323492,-1.13864397765295,-0.529690879077374,0.485422329771545,0.485422329770468,NaN,-1.3870979336817,-1.80167157285668,-0.758434290025195,0.835423960064445,-0.758434290025664,1.30903280244755,NaN,-0.373117081201265,NaN,NaN,0.400507250597474,NaN,0.983924142943461,0.974927588534872,NaN,-0.0213608399704067,NaN,0.638700995210421,-1.41873069124447,NaN,NaN,0.316239737067369,0.824537345296165,2.00753674226841,-2.10031692516415,-0.759776351991425,0.582786694062936,0.591814784264126,0.76634582014654,3.22976309762075,2.04618389181339,2.04618389182224,NaN,NaN,-0.588980274931942,NaN,0.561800159795112,-0.669776481065187,0.247604229967639,-1.78863186140146,-1.78863186140097,1.99900687239301,-1.99900687239348,1.21488603519566
352.3584,-1.13766236184833,-0.555414237762161,-1.1750971337807,-0.543636643740646,0.511218855742447,0.511218855741361,NaN,-1.38758348816176,-1.79320188010609,-0.745303239118917,0.893992257164001,-0.745303239119384,1.315302237312,NaN,-0.36362785374136,NaN,NaN,0.435739590072838,NaN,0.976542149885441,1.00642616199087,NaN,-0.0429380242531792,NaN,0.593213600466336,-1.4003803377966,NaN,NaN,0.313805701251912,0.82284230476878,2.02271451886464,-2.10360356092224,-0.736968821976724,0.602567950459374,0.592735090568729,0.782681916642498,3.26211358329546,2.02796311912179,2.0279631191306,NaN,NaN,-0.574354856480913,NaN,0.546406806373391,-0.646201039135828,0.280836607928437,-1.8128753776153,-1.81287537761481,2.02875267144017,-2.02875267144065,1.21544791839296
352.4608,-1.17494389940542,-0.567675543341159,-1.21121323083968,-0.558120664582333,0.536101398068702,0.536101398067608,NaN,-1.38773969724321,-1.78346203044215,-0.73296555935186,0.95232548357975,-0.732965559352327,1.32008211250218,NaN,-0.354860500699034,NaN,NaN,0.469362045431691,NaN,0.968519865299274,1.03657601593246,NaN,-0.0645182349187811,NaN,0.54792223134497,-1.38098901319408,NaN,NaN,0.310484659066534,0.821009673839536,2.03752558614565,-2.10612908150499,-0.713166679344679,0.620999478044692,0.593010134270177,0.797609329571938,3.29457176373018,2.00821487975993,2.00821487976874,NaN,NaN,-0.559483458119864,NaN,0.530699861853027,-0.621680525233107,0.313714564028292,-1.83640957524383,-1.83640957524333,2.05762482145221,-2.05762482145269,1.21512890493847
352.5632,-1.21203721287029,-0.57936329564612,-1.24694092614163,-0.573131569971952,0.560018392614622,0.56001839261352,NaN,-1.38760950824163,-1.77250269266929,-0.721448871881752,1.0103166312998,-0.721448871882218,1.32335509669988,NaN,-0.346841276910671,NaN,NaN,0.501326686432848,NaN,0.959886318198721,1.06531457686878,NaN,-0.08608929614445,NaN,0.502901880836525,-1.36054584010268,NaN,NaN,0.306297117164297,0.819022253006992,2.05195167921371,-2.10788630537242,-0.688390055236869,0.638120929701534,0.592656018114601,0.811168003105401,3.32702605357774,1.9869878925241,1.98698789253289,NaN,NaN,-0.544405484972566,NaN,0.514664075297058,-0.596270563603107,0.346188595760926,-1.8592121501775,-1.859212150177,2.08556759021764,-2.08556759021813,1.21389217424695
352.6656,-1.24888908398965,-0.590463137357536,-1.28222993180946,-0.588655652290777,0.582923645348776,0.582923645347671,NaN,-1.38723699413323,-1.76037852351413,-0.710775056887236,1.06785979041206,-0.710775056887699,1.32511091271477,NaN,-0.339589391384662,NaN,NaN,0.531596227751223,NaN,0.950671948884952,1.09258692553179,NaN,-0.107635507104894,NaN,0.458217912546859,-1.33904270909565,NaN,NaN,0.301269504101643,0.816861330293544,2.06597268704979,-2.10886769322499,-0.662661950185875,0.653979332663005,0.591691842047917,0.82340531121256,3.35935658551719,1.96433956229299,1.96433956230175,NaN,NaN,-0.529159338012946,NaN,0.498286712722847,-0.570027924606012,0.378211456369109,-1.88125826096785,-1.88125826096735,2.11252579052625,-2.11252579052674,1.2117027943726
352.768,-1.28544590927317,-0.600964067764425,-1.31703098963871,-0.604676893125005,0.604776464211029,0.604776464209918,NaN,-1.38666720695289,-1.7471479592796,-0.700960508577084,1.12485039476682,-0.700960508577546,1.32534628214187,NaN,-0.333117159153233,NaN,NaN,0.560143800931545,NaN,0.940908451963573,1.11834598462791,NaN,-0.129137649285459,NaN,0.413926199659943,-1.31647452947518,NaN,NaN,0.295434058511749,0.814506836455236,2.07956688567982,-2.10906551734487,-0.636008153213659,0.668628696382283,0.590139474227239,0.834375627443072,3.39143562373011,1.94033553623136,1.9403355362401,NaN,NaN,-0.513782340344717,NaN,0.481557560662973,-0.543010522395101,0.409738226847527,-1.90252070364142,-1.90252070364091,2.13844518058267,-2.13844518058316,1.20852803059679
352.8704,-1.32165369104243,-0.610858373049061,-1.3512958355347,-0.621176992281608,0.625541752026601,0.625541752025488,NaN,-1.38594601911187,-1.73287298059079,-0.692016424451216,1.18118544481902,-0.692016424451677,1.32406481937349,NaN,-0.327430228143141,NaN,NaN,0.586952679566765,NaN,0.930628629163983,1.14255265390163,NaN,-0.15057304966923,NaN,0.370073375847468,-1.29283947941276,NaN,NaN,0.28882867173521,0.811937506175369,2.09271118944518,-2.10847204380113,-0.608457154003171,0.682129559258598,0.588023284560865,0.844139826733348,3.4231280441732,1.91504919638254,1.91504919639124,NaN,NaN,-0.49831068169092,NaN,0.464468896522082,-0.515277426245773,0.440726374326347,-1.92297013728548,-1.92297013728496,2.1632728572558,-2.1632728572563,1.20433762856151
352.9728,-1.35745803136329,-0.620141530796273,-1.38497715598045,-0.63813540021258,0.645190064298675,0.645190064297559,NaN,-1.3851199507775,-1.71761885159905,-0.683949121820432,1.23676370459871,-0.683949121820892,1.32127686763389,NaN,-0.322527873910139,NaN,NaN,0.612015952158139,NaN,0.919866252210047,1.16517588756362,NaN,-0.171915686200044,NaN,0.326697186867435,-1.26813925141707,NaN,NaN,0.281496689792063,0.809131041754788,2.1053813945469,-2.10707971050564,-0.580040061065913,0.694548477669971,0.58536985459744,0.852764728984142,3.45429188538041,1.88856109716801,1.88856109717668,NaN,NaN,-0.482779386795909,NaN,0.447015438558064,-0.486888877325941,0.471135790584572,-1.94257533689291,-1.94257533689238,2.18695762480208,-2.18695762480258,1.19910406625237
353.0752,-1.39280413151902,-0.628812087611991,-1.41802853830805,-0.655529347584343,0.663697631494754,0.663697631493635,NaN,-1.38423598855771,-1.7014538403709,-0.676760373888345,1.29148586876976,-0.676760373888805,1.31699927911607,NaN,-0.318403353501643,NaN,NaN,0.635336138911984,NaN,0.90865593176229,1.18619271137412,NaN,-0.193136324373802,NaN,0.283826931029996,-1.242379294373,NaN,NaN,0.273486680550871,0.806064283189682,2.11755240345528,-2.10488129761618,-0.550790540705547,0.705957457236778,0.582207671982804,0.860322488496794,3.48477897306125,1.86095836081603,1.86095836082467,NaN,NaN,-0.467222308483208,NaN,0.429194287971704,-0.457906303248838,0.500928805543327,-1.96130345425451,-1.96130345425397,2.209450332461,-2.2094503324615,1.19280277610519
353.1776,-1.42763680270485,-0.636871513577921,-1.45040442102554,-0.67333387065599,0.681046346190329,0.681046346189207,NaN,-1.3833414088622,-1.68444893566758,-0.670447764706506,1.34525470842173,-0.670447764706965,1.31125514239288,NaN,-0.315044310953744,NaN,NaN,0.656924750990572,NaN,0.897032989827546,1.20558817328238,NaN,-0.214202683241695,NaN,0.241483975255541,-1.21556904669868,NaN,NaN,0.264852167441936,0.802713390330399,2.12919842959047,-2.10187009304143,-0.520744784209476,0.716433331409699,0.578566814210783,0.86688993574069,3.51443562406984,1.83233403602421,1.83233403603283,NaN,NaN,-0.45167213665962,NaN,0.411004871991331,-0.428392321539714,0.53007017700018,-1.97912028241406,-1.97912028241351,2.23070418241735,-2.23070418241786,1.18541233871177
353.28,-1.46190049355086,-0.644324039528738,-1.48206005129883,-0.691521844693344,0.697223720787237,0.697223720786115,NaN,-1.38248361983462,-1.66667757639586,-0.665005066091362,1.39797521115652,-0.665005066091821,1.30407345770248,NaN,-0.312433227906294,NaN,NaN,0.676801792248707,NaN,0.885033337297058,1.22335521877405,NaN,-0.235079633008118,NaN,0.19968233018324,-1.18772214253914,NaN,NaN,0.255651329816493,0.799054041312658,2.14029318172769,-2.09804004985571,-0.489941497119067,0.726057101843997,0.57447862873299,0.872547886621979,3.5431034327555,1.80278640894037,1.802786408949,NaN,NaN,-0.436160412971869,NaN,0.392448893311514,-0.398410723283248,0.558527064416175,-1.99599052880441,-1.99599052880386,2.25067500780875,-2.25067500780925,1.17691465020068
353.3824,-1.49553933236844,-0.651176481108034,-1.51295144942207,-0.710064042849607,0.712222825221159,0.712222825220035,NaN,-1.38171002730642,-1.64821539971393,-0.660422634065471,1.44955471868023,-0.66042263406593,1.29548876498591,NaN,-0.310547911062572,NaN,NaN,0.694995205742321,NaN,0.872693357402662,1.2394944886256,NaN,-0.255729423260251,NaN,0.15842926919439,-1.15885656764674,NaN,NaN,0.245946675393365,0.795061650812798,2.15081002557437,-2.09338592703378,-0.458421896192498,0.734913257752706,0.569975418631707,0.877380437694177,3.57062013353619,1.77241824669936,1.772418246708,NaN,NaN,-0.420717548179112,NaN,0.373530286841298,-0.368026432606061,0.586268994586204,-2.01187810290432,-2.01187810290375,2.26932151568967,-2.26932151569017,1.16729507097841
353.4848,-1.52849717449082,-0.657438049128826,-1.54303537203245,-0.728929227554981,0.726042208741106,0.72604220873998,NaN,-1.38106791782795,-1.62913999863028,-0.656687812688758,1.49990304662119,-0.656687812689214,1.28554073830153,NaN,-0.309362004512814,NaN,NaN,0.711540272680619,NaN,0.860049787519878,1.25401404733714,NaN,-0.276111937860762,NaN,0.11772598390304,-1.12899475176947,NaN,NaN,0.235804693052645,0.790711609949501,2.16072212286543,-2.08790340842132,-0.426229701841748,0.743089085013303,0.565090138575054,0.881474258337922,3.59682052707521,1.74133596395578,1.74133596396444,NaN,NaN,-0.405372846440745,NaN,0.354255181649467,-0.337305443013965,0.613267820121913,-2.026746417333,-2.02674641733243,2.28660549088311,-2.28660549088362,1.15654256441715
353.5872,-1.56071764771934,-0.663120143701185,-1.57226926720313,-0.748084267286971,0.738685801612858,0.738685801611734,NaN,-1.3806043444116,-1.60953067202885,-0.653785328601071,1.54893256986349,-0.653785328601529,1.27427376345544,NaN,-0.308845513606019,NaN,NaN,0.726478976404372,NaN,0.847139586169504,1.26692905098016,NaN,-0.296184973243396,NaN,0.0775682765943528,-1.09816360219161,NaN,NaN,0.225295490300228,0.785979545686092,2.17000255362121,-2.08158920324745,-0.393411122287194,0.750673965425281,0.559856099482532,0.88491787943525,3.62153746001862,1.70964872590141,1.70964872591011,NaN,NaN,-0.390154541761153,NaN,0.334631867310444,-0.306314734404234,0.639497664329751,-2.04055869247441,-2.04055869247385,2.30249196827929,-2.3024919682798,1.1446498235487
353.6896,-1.59214420004255,-0.668236133025549,-1.60061122526128,-0.767494267644019,0.750162792119944,0.750162792118821,NaN,-1.3803660028102,-1.58946815419986,-0.651697663906844,1.59655827662137,-0.651697663907304,1.26173651063252,NaN,-0.30896533126969,NaN,NaN,0.739859343764464,NaN,0.833999778292703,1.27826135675572,NaN,-0.315904539125033,NaN,0.037947291490321,-1.06639449115466,NaN,NaN,0.214492413984785,0.780841595317604,2.17862442936236,-2.07444113741359,-0.360014834827776,0.757758659336182,0.554306680846402,0.887800972564161,3.64460285401085,1.67746751906527,1.67746751907401,NaN,NaN,-0.375089848344964,NaN,0.3146707653523,-0.275122175542145,0.664934846930757,-2.05327825640983,-2.05327825640926,2.31694939446616,-2.31694939446667,1.13161337299292
353.792,-1.62272016235431,-0.672801123338011,-1.62801993858597,-0.787122715108572,0.760487479213939,0.760487479212817,NaN,-1.38039909316316,-1.56903431970054,-0.65040540299185,1.64269781588973,-0.65040540299231,1.24798150469754,NaN,-0.309685764953862,NaN,NaN,0.751734772120512,NaN,0.820667284403373,1.2880390752129,NaN,-0.335225181019595,NaN,-0.00114972250672998,-1.03372320149483,NaN,NaN,0.203471648793309,0.775274691450844,2.18656100176038,-2.066458242038,-0.326091969988698,0.764434568901779,0.5484750571886,0.890213620790531,3.66584878092932,1.64490422046407,1.64490422047282,NaN,NaN,-0.360205021668095,NaN,0.294384403249493,-0.243796415446339,0.689557795249909,-2.06486884425613,-2.06486884425556,2.32994979691672,-2.32994979691724,1.11743363290079
353.8944,-1.65238883797003,-0.676831726945312,-1.65445468304771,-0.806931644393083,0.769679102799357,0.769679102798239,NaN,-1.38074916782871,-1.54831186548751,-0.649887551870806,1.68727156344092,-0.649887551871268,1.23306468889053,NaN,-0.310969066296218,NaN,NaN,0.762163344849453,NaN,0.807178745205083,1.29629606478427,NaN,-0.354100320172442,NaN,-0.0397386387008733,-1.00018982315646,NaN,NaN,0.192311787896473,0.769256852961737,2.19378576389168,-2.05764083504119,-0.291696094636491,0.770792992815703,0.542393951866403,0.892245596421012,3.68510858158145,1.61207067963378,1.61207067964249,NaN,NaN,-0.345525423452594,NaN,0.273787383933939,-0.212406762115643,0.713346954902752,-2.07529490704059,-2.07529490704002,2.34146896262768,-2.3414689626282,1.10211493886929
353.9968,-1.68109362364091,-0.680345829181683,-1.67987532535497,-0.826881840867312,0.777761648889638,0.777761648888526,NaN,-1.38146096942921,-1.5273839749286,-0.650121824810939,1.73020271272808,-0.650121824811404,1.21704497788529,NaN,-0.312775962120381,NaN,NaN,0.771207135511703,NaN,0.793570346700975,1.30307136477162,NaN,-0.372482603077372,NaN,-0.0778376944637463,-0.965838594391748,NaN,NaN,0.181093375332193,0.762767479525535,2.20027253505375,-2.04799058394937,-0.256883185280706,0.776924391535018,0.536095428939868,0.893985666390888,3.70221802966069,1.57907781335133,1.57907781335998,NaN,NaN,-0.331075585516163,NaN,0.252896343638148,-0.181023043590095,0.736284712720388,-2.08452193247233,-2.08452193247177,2.3514866192057,-2.35148661920623,1.08566552192185
354.0992,-1.70877816052707,-0.683362351018357,-1.70424235370411,-0.846933079366319,0.784763621471175,0.784763621470066,NaN,-1.38257826250059,-1.50633396697155,-0.651084890397354,1.77141738190803,-0.651084890397821,1.19998380111132,NaN,-0.31506617837129,NaN,NaN,0.77893150362724,NaN,0.779877640594214,1.3084085687124,NaN,-0.390324257562346,NaN,-0.115466766633774,-0.930717689909665,NaN,NaN,0.169898425252952,0.755787649361881,2.20599552137046,-2.03751054092467,-0.221711586672441,0.782917678227089,0.52961072315286,0.895520937528963,3.71701654424068,1.54603470934084,1.54603470934942,NaN,NaN,-0.316879273635294,NaN,0.231729894633043,-0.149715449146892,0.758355334638211,-2.09251676973044,-2.09251676972988,2.3599866145394,-2.35998661453993,1.06809745974747
354.2016,-1.73538651123837,-0.685901008907311,-1.72751692911531,-0.867044395319688,0.790717776652972,0.79071777665187,NaN,-1.38414365913499,-1.48524492989135,-0.652752575523407,1.81084472989427,-0.652752575523876,1.18194463832158,NaN,-0.31779894713019,NaN,NaN,0.785404388706024,NaN,0.766135354612908,1.31235514909049,NaN,-0.407577462635482,NaN,-0.152646692439223,-0.89487895550604,NaN,NaN,0.158809924072861,0.748300418477526,2.21092935097594,-2.02620514786521,-0.18624195322305,0.788859545083517,0.522970100113295,0.896936245443807,3.72934844669216,1.51304773688612,1.51304773689463,NaN,NaN,-0.302959553118112,NaN,0.210308555004124,-0.11855435064218,0.779544913512603,-2.09924794711858,-2.09924794711802,2.3669570924065,-2.36695709240704,1.04942660718123
354.304,-1.76086336030494,-0.687982081344862,-1.74966095906889,-0.887174388540564,0.795660826320976,0.795660826319882,NaN,-1.38619843747647,-1.46419933767449,-0.655100036486219,1.84841708493172,-0.655100036486691,1.16299254494642,NaN,-0.320933492403693,NaN,NaN,0.790695608004366,NaN,0.752377195513192,1.3149617405193,NaN,-0.424194743471146,NaN,-0.189398644504555,-0.858377576977129,NaN,NaN,0.147911320222273,0.740291119409121,2.21504908501012,-2.01408021128663,-0.150537170130386,0.794833834637415,0.516202739151908,0.898313590966502,3.73906424963652,1.48021966278884,1.48021966279729,NaN,NaN,-0.28933884803642,NaN,0.188654672293879,-0.0876100997752692,0.799841322361776,-2.10468597488414,-2.10468597488359,2.37239065780773,-2.37239065780828,1.02967250509126
354.4064,-1.78515423908455,-0.689626192425765,-1.77063719842046,-0.90728156316412,0.799633123587458,0.799633123586374,NaN,-1.38878235181081,-1.44327864830584,-0.658101909203545,1.88407009713213,-0.658101909204022,1.14319366428031,NaN,-0.324429493556612,NaN,NaN,0.794876161132651,NaN,0.738635650033229,1.31628138146682,NaN,-0.44012939549531,NaN,-0.22574356377997,-0.821271669914507,NaN,NaN,0.137286005001101,0.731747660263711,2.21833020328878,-2.00114284419903,-0.114662250163074,0.80092096734539,0.509336635349535,0.899731631413689,3.74602196197783,1.44764877457169,1.44764877458005,NaN,NaN,-0.276038976308555,NaN,0.166792346734394,-0.0569527931916297,0.819234171246823,-2.10880363236479,-2.10880363236423,2.37628452431594,-2.3762845243165,1.0088582627541
354.5088,-1.80820577814647,-0.690854116911044,-1.79040938195873,-0.927324700091651,0.802678336020188,0.802678336019113,NaN,-1.39193343296264,-1.42256288397753,-0.661732442963684,1.91774292637974,-0.661732442964164,1.12261473130272,NaN,-0.328247522102252,NaN,NaN,0.798017548505657,NaN,0.724941785065128,1.31636872408308,NaN,-0.455335926460807,NaN,-0.261701648981161,-0.78362179153508,NaN,NaN,0.127016788060167,0.722660823187359,2.22074856480708,-1.98740137290633,-0.0786842010855763,0.807197433897575,0.502398519287478,0.901265232731839,3.75008838789371,1.41542802425961,1.41542802426789,NaN,NaN,-0.263081144115352,NaN,0.144747353337635,-0.0266520013462944,0.837714762783293,-2.11157624170439,-2.11157624170383,2.37864063360291,-2.37864063360348,0.987010410743531
354.6112,-1.8299659862936,-0.691686607417508,-1.80894238814973,-0.947263244560658,0.804843106134807,0.804843106133739,NaN,-1.39568777971597,-1.40213019610672,-0.665965615609979,1.94937846894958,-0.665965615610462,1.10132258035118,NaN,-0.332349446008346,NaN,NaN,0.800191121854742,NaN,0.711325052231652,1.31527924694677,NaN,-0.469770493747908,NaN,-0.297291897970716,-0.745490395788058,NaN,NaN,0.117185375259671,0.713024548621701,2.22228035244121,-1.97286521573397,-0.0426718609386621,0.813735350528306,0.495413791322538,0.902985079522198,3.75114038259391,1.38364422047995,1.38364422048813,NaN,NaN,-0.250485893857592,NaN,0.122547055644656,0.00322353288178651,0.855276033852725,-2.11298192558964,-2.11298192558908,2.3794657321576,-2.37946573215817,0.96415872536051
354.7136,-1.85038454828089,-0.692144244934351,-1.82620242791122,-0.967057682215774,0.806176698498416,0.806176698497353,NaN,-1.40007934640172,-1.38205642443142,-0.670775229735566,1.9789236167337,-0.670775229736052,1.07938367047325,NaN,-0.336698800249656,NaN,NaN,0.801467496685897,NaN,0.697813116407535,1.31306852734333,NaN,-0.483391314733483,NaN,-0.332531697095756,-0.706941266813088,NaN,NaN,0.10787186155909,0.702836173863427,2.22290202232245,-1.95754475351401,-0.00669570531622538,0.820602063648171,0.488406462903438,0.904957328193317,3.74906601311314,1.35237730178699,1.35237730179502,NaN,NaN,-0.238273009767941,NaN,0.100220300126917,0.032606211783235,0.871912469534239,-2.11300184073943,-2.11300184073888,2.37877139022211,-2.37877139022269,0.940336027638396
354.816,-1.8694131317352,-0.692247314471235,-1.84215725120362,-0.986669880465781,0.806730635276034,0.806730635274977,NaN,-1.40513973480476,-1.36241466273523,-0.676134992944413,2.00632954119177,-0.6761349929449,1.05686363942372,NaN,-0.341261127426817,NaN,NaN,0.801916057011573,NaN,0.684431734855862,1.30979162485179,NaN,-0.496159037993876,NaN,-0.367436461395316,-0.668038963229996,NaN,NaN,0.0991542490734935,0.692096590165067,2.22259027928613,-1.94145121571046,0.0291723618812597,0.827859789330124,0.481399095943657,0.907243287097675,3.74376557721903,1.32169971385959,1.32169971386749,NaN,NaN,-0.226461387181865,NaN,0.0777972817141292,0.0614299040392394,0.887619985647338,-2.11162037944214,-2.11162037944159,2.37657395706356,-2.37657395706415,0.915577957689562
354.9184,-1.88700569964239,-0.69201570538779,-1.85677636821685,-1.00606338786527,0.806558323809636,0.806558323808588,NaN,-1.41089799531318,-1.34327483852217,-0.682018584413552,2.03155199888423,-0.682018584414041,1.0338268895561,NaN,-0.346004292043712,NaN,NaN,0.801604567481425,NaN,0.671204702216348,1.30550259393726,NaN,-0.508037073632332,NaN,-0.402019337753254,-0.62884828893902,NaN,NaN,0.0911079926265309,0.680810302330925,2.22132208643456,-1.92459659498494,0.0648592212209507,0.835565284381755,0.474412737613153,0.909899119698975,3.73515246213244,1.29167589457644,1.2916758945842,NaN,NaN,-0.215068867828107,NaN,0.0553093799228851,0.0896302668789682,0.902395789851624,-2.10882533584706,-2.1088253358465,2.3728944581529,-2.3728944581535,0.889922723361097
355.0208,-1.90311882822988,-0.691468832933947,-1.87003128361181,-1.02520370089014,0.805714680078344,0.805714680077303,NaN,-1.4173804329023,-1.32470330436493,-0.688399705064108,2.05455165475248,-0.688399705064599,1.01033620146333,NaN,-0.350898766096059,NaN,NaN,0.80059888786707,NaN,0.658153855711089,1.30025410760356,NaN,-0.518991886827243,NaN,-0.436290983541249,-0.589433793411223,NaN,NaN,0.0838055723583307,0.668985403962338,2.21907470115642,-1.90699358640872,0.100290747375607,0.843769552328845,0.467466858933512,0.912975577670585,3.72315385821709,1.26236185771154,1.26236185771918,NaN,NaN,-0.204112041622357,NaN,0.0327889765238965,0.117145075030905,0.916238233408886,-2.10460803474699,-2.10460803474642,2.36775844827041,-2.36775844827102,0.863410827940378
355.1232,-1.91771202581616,-0.690625575289638,-1.88189573781274,-1.04405850761815,0.804255750679836,0.804255750678801,NaN,-1.42461040837705,-1.30676243522334,-0.695252100745377,2.07529440905448,-0.69525210074587,0.986452374007406,NaN,-0.35591787517259,NaN,NaN,0.798962773412462,NaN,0.645299119862727,1.29409716046523,NaN,-0.528993258107934,NaN,-0.470259422563917,-0.549859305925163,NaN,NaN,0.0773160973886553,0.656633496963342,2.21582572612967,-1.8886555409389,0.135392016292057,0.852517581083713,0.460579312209736,0.916517768924928,3.7077113572797,1.2338048649546,1.2338048649621,NaN,NaN,-0.193606020228318,NaN,0.0102692707059779,0.143914560813517,0.929146657070191,-2.09896341815682,-2.09896341815625,2.36119583938646,-2.36119583938709,0.836084791808814
355.2256,-1.93074804353426,-0.689504218089325,-1.89234594451829,-1.06259790446779,0.802238334479866,0.802238334478836,NaN,-1.43260813292365,-1.28951023365832,-0.702549541687737,2.09375170542303,-0.702549541688231,0.962233899399644,NaN,-0.361037988828876,NaN,NaN,0.796757745389806,NaN,0.632658568699757,1.28708082396741,NaN,-0.538014508830741,NaN,-0.503929968060479,-0.510187512330326,NaN,NaN,0.0717049472022446,0.643769578662814,2.2115531717134,-1.86959642942894,0.170087511180207,0.861848102701195,0.453766319763343,0.920564959165764,3.68878145536398,1.20604318055554,1.20604318056287,NaN,NaN,-0.183564197234105,NaN,-0.0122158973515216,0.169881760109412,0.941121228456923,-2.09189008737887,-2.09189008737829,2.35324072149985,-2.35324072150049,0.807988884464797
355.328,-1.94219316915712,-0.688122397935991,-1.901360813674,-1.0807945795842,0.799719604021072,0.79971960402005,NaN,-1.44139046371024,-1.27299995306518,-0.710265744946489,2.10990080071911,-0.710265744946982,0.937736687174082,NaN,-0.366238641268273,NaN,NaN,0.794043022822255,NaN,0.620248491844684,1.27925203720546,NaN,-0.546032685879635,NaN,-0.537305198201848,-0.470479579417604,NaN,NaN,0.0670334520860671,0.630411906709204,2.2062355338884,-1.84983082168154,0.204301325395251,0.871793372015021,0.447042497387987,0.925150406116937,3.66633596420288,1.17910590527408,1.17910590528126,NaN,NaN,-0.173998015454723,NaN,-0.0346322131069309,0.194992852365436,0.952162770160281,-2.08339030551659,-2.083390305516,2.34393118806565,-2.34393118806631,0.779168871952566
355.4304,-1.95201749769212,-0.686497040779528,-1.90892215294892,-1.0986239691748,0.796756726762478,0.796756726761464,NaN,-1.45097070476709,-1.25727974558774,-0.718374239167315,2.12372498828319,-0.718374239167809,0.913013847853193,NaN,-0.371502577474013,NaN,NaN,0.790875509795487,NaN,0.608083458251263,1.27065542830706,NaN,-0.553028698489185,NaN,-0.570384973429121,-0.430794827175955,NaN,NaN,0.0633586068996022,0.616581846339096,2.19985189203427,-1.82937388462448,0.237957361508781,0.882378972222293,0.440420907678582,0.930301230453051,3.64036233057921,1.15301288923886,1.15301288924586,NaN,NaN,-0.164916759598415,NaN,-0.0569450466662486,0.2191974839908,0.962272583276146,-2.07346996741575,-2.07346996741515,2.33330916921529,-2.33330916921596,0.749671774990236
355.5328,-1.9601951753001,-0.684644297434742,-1.91501484575179,-1.11606439733969,0.793406489033953,0.793406489032949,NaN,-1.46135840843813,-1.24239233317064,-0.726848182273438,2.13521377528395,-0.726848182273933,0.888115541369615,NaN,-0.376815729189653,NaN,NaN,0.787309830916956,NaN,0.596176374644681,1.2613331674598,NaN,-0.558987401180293,NaN,-0.603166491980908,-0.391190450669517,NaN,NaN,0.0607328120889387,0.602303706135241,2.1923820276266,-1.80824139753571,0.270979533431117,0.893623658250361,0.43391313623854,0.936038328593697,3.61086386130557,1.12777472898888,1.12777472899576,NaN,NaN,-0.156327387808212,NaN,-0.0791196019650798,0.242449067092637,0.971452275955659,-2.06213854076254,-2.06213854076194,2.3214202669604,-2.32142026696107,0.719545635575684
355.6352,-1.96670461597794,-0.682579481079734,-1.91962700726757,-1.13309719760334,0.789724929726631,0.789724929725638,NaN,-1.47255917504231,-1.22837470118101,-0.735660145006054,2.14436301699013,-0.73566014500655,0.863088891133439,NaN,-0.382167128494916,NaN,NaN,0.783398405260798,NaN,0.58453853839704,1.2513248493251,NaN,-0.563897619725244,NaN,-0.635644383755117,-0.351721296170093,NaN,NaN,0.0592036402562717,0.587604565987219,2.18380656367117,-1.78644977805183,0.303291985426879,0.905539243456517,0.427529385835806,0.942376329326327,3.57785984248166,1.10339285578277,1.10339285578952,NaN,NaN,-0.148234409430977,NaN,-0.101121051414619,0.26470504713495,0.9797036061807,-2.04940898223708,-2.04940898223648,2.30831357810645,-2.30831357810714,0.688839294012975
355.7376,-1.97152868896137,-0.680317009837829,-1.92275011805491,-1.14970680574478,0.785766989435469,0.785766989434488,NaN,-1.48457445711863,-1.21525782008303,-0.744781870040663,2.15117500634442,-0.74478187004116,0.837977960024391,NaN,-0.387548766442693,NaN,NaN,0.779191550616905,NaN,0.573179684721606,1.24066739739213,NaN,-0.567752122831362,NaN,-0.6678108407167,-0.312439692100537,NaN,NaN,0.0588136299751997,0.57251409498675,2.17410712226913,-1.76401611188648,0.334819338865919,0.918130529308943,0.421278585128719,0.949323592270008,3.54138553528684,1.07985971714207,1.0798597171487,NaN,NaN,-0.140639805117193,NaN,-0.122914655846124,0.285927139120553,0.987028340499661,-2.03529763379642,-2.0352976337958,2.29404149074816,-2.29404149074887,0.657602175311445
355.84,-1.97465486925413,-0.677870355515963,-1.92437912928632,-1.16588082038597,0.781586172945025,0.781586172944055,NaN,-1.49740137406516,-1.20306639848837,-0.754184014285533,2.15565851134771,-0.75418401428603,0.812823777126439,NaN,-0.392955405516355,NaN,NaN,0.774737613592881,NaN,0.562108023744048,1.22939498404188,NaN,-0.570547549198039,NaN,-0.699655778495922,-0.273395327223716,NaN,NaN,0.0596001091107504,0.557064355851156,2.16326649370856,-1.74095818039718,0.365486966832498,0.931395273922971,0.415168509415022,0.956882243584067,3.50149203944968,1.0571590451328,1.05715904513931,NaN,NaN,-0.133542975575101,NaN,-0.144465873710884,0.306081540912409,0.993428123649256,-2.01982409922984,-2.01982409922921,2.27865945123086,-2.27865945123157,0.625884080701322
355.9424,-1.97607534269314,-0.675251998597505,-1.92451253248636,-1.18161003692299,0.777234219192448,0.777234219191491,NaN,-1.51103253408083,-1.19181866179878,-0.76383588099788,2.15782875120675,-0.763835880998378,0.787664400136716,NaN,-0.398384355183144,NaN,NaN,0.770083121879622,NaN,0.551330259615691,1.21753896424489,NaN,-0.572284302986259,NaN,-0.731167023265456,-0.234635164971912,NaN,NaN,0.0615950478205667,0.541289594992085,2.15126881323833,-1.71729448402097,0.395221293417122,0.945324195158583,0.409205913527957,0.965048245538791,3.45824603081569,1.03526619678964,1.035266196796,NaN,NaN,-0.126940708049594,NaN,-0.165740461858881,0.325139135709482,0.99890435579594,-2.00301109482966,-2.00301109482902,2.26222570825334,-2.26222570825406,0.593734981444946
356.0448,-1.97578706265897,-0.672473388308446,-1.92315239087479,-1.19688845944303,0.772760778515788,0.772760778514841,NaN,-1.52545585728117,-1.18152614789655,-0.773705146954204,2.15770730419025,-0.773705146954702,0.762535003989224,NaN,-0.403835217608463,NaN,NaN,0.765272950457188,NaN,0.540851586369208,1.2051278236608,NaN,-0.572966426909389,NaN,-0.762330518037435,-0.196203385205659,NaN,NaN,0.0648249378975399,0.525226017350653,2.13809975047943,-1.69304426456397,0.423950120802021,0.959901008128768,0.403396680262552,0.973811501535352,3.41172938448691,1.01414854943361,1.01414854943985,NaN,NaN,-0.120827163218178,NaN,-0.186704567676887,0.34307568901066,1.00345808042783,-1.98488426871722,-1.98488426871656,2.24480103957919,-2.24480103957993,0.561204813764582
356.1472,-1.97379176035831,-0.669544904967616,-1.92030433280259,-1.21171328928332,0.768213101740887,0.768213101739953,NaN,-1.54065440381047,-1.17219352072788,-0.783757590395621,2.1553219425689,-0.783757590396119,0.737467992676938,NaN,-0.409309610947034,NaN,NaN,0.760350487910759,NaN,0.530675661739685,1.19218714261392,NaN,-0.572601451691131,NaN,-0.793130538272651,-0.158141352454206,NaN,NaN,0.0693106928982047,0.508911543052533,2.12374671746713,-1.66822753053001,0.451602986599573,0.97510249956301,0.397745987126321,0.983155999946588,3.36203868954845,0.993765939648324,0.993765939654448,NaN,NaN,-0.115193896318092,NaN,-0.207324811890289,0.359872033390984,1.00708988792643,-1.96547198867868,-1.96547198867802,2.2264484602138,-2.22644846021455,0.528343272857768
356.2496,-1.97009591223533,-0.666475821223526,-1.91597750888709,-1.22608488575622,0.763635742943594,0.763635742942672,NaN,-1.55660622470041,-1.16381841601788,-0.793956828018522,2.15070639631865,-0.79395682801902,0.712493131087924,NaN,-0.414810878960291,NaN,NaN,0.755357788127981,NaN,0.520804565771815,1.17873957415747,NaN,-0.571200211383111,NaN,-0.82354990219047,-0.1204876203721,NaN,NaN,0.0750675657253715,0.492385543516429,2.10819908993598,-1.64286508496256,0.478111541894147,0.990898638304063,0.392258488565871,0.993059994761582,3.30928465647805,0.974071145979293,0.974071145985276,NaN,NaN,-0.110029923848022,NaN,-0.227568359617734,0.375514226799002,1.00979983623343,-1.94480510106713,-1.94480510106645,2.20723291040408,-2.20723291040484,0.495199604913594
356.352,-1.96471067166205,-0.66327426144099,-1.91018451852906,-1.24000669452987,0.759070276279035,0.759070276278129,NaN,-1.57328425663696,-1.15639133995914,-0.804264071398466,2.14390006202134,-0.804264071398964,0.687637696208458,NaN,-0.420343788305446,NaN,NaN,0.750335699324816,NaN,0.511238753919373,1.1648048325352,NaN,-0.56877661748037,NaN,-0.853570167203318,-0.0832779842965957,NaN,NaN,0.0821050868836506,0.475688560363866,2.09144842448011,-1.61697854874215,0.503409931364695,1.00725271986932,0.386938503337301,1.00349621615861,3.25359141858045,0.955010425499153,0.955010425504994,NaN,NaN,-0.105321831015686,NaN,-0.247402975639233,0.389993672560583,1.01158738593158,-1.92291666509397,-1.92291666509329,2.18722092869139,-2.18722092869216,0.461822401854208
356.4544,-1.9576517779029,-0.659947164399871,-1.9029413187584,-1.25348514050725,0.754555032709453,0.754555032708564,NaN,-1.59065627342786,-1.14989563849817,-0.814637913760084,2.13494768885332,-0.814637913760582,0.662926655968966,NaN,-0.425914202021168,NaN,NaN,0.745323974616569,NaN,0.501977015743248,1.15039969475578,NaN,-0.565347398782748,NaN,-0.883171820305275,-0.0465455813013937,NaN,NaN,0.0904270308138498,0.458862016641495,2.07348865393933,-1.59059037074096,0.527435159795847,1.02412155061792,0.381790194078944,1.01443210891957,3.19509573085311,0.936524116966104,0.936524116971818,NaN,NaN,-0.101053896025182,NaN,-0.266797062650582,0.403307200715932,1.01245134624885,-1.8998416724532,-1.89984167245252,2.16648031952076,-2.16648031952154,0.428259406627196
356.5568,-1.9489394570074,-0.65650025749336,-1.89426713096094,-1.26652948497826,0.750124867994422,0.750124867993549,NaN,-1.60868489739784,-1.1443075456885,-0.825034155475504,2.12389907443433,-0.825034155476003,0.638382885849982,NaN,-0.431528715475758,NaN,NaN,0.740361377782316,NaN,0.493016449483984,1.13553802529159,NaN,-0.56093182239309,NaN,-0.912334482448887,-0.0103210204813915,NaN,NaN,0.100031414155219,0.441947929727896,2.05431625483447,-1.5637238213669,0.550127440526494,1.04145568773657,0.376817733491494,1.02583010887018,3.13394606969473,0.918547315353002,0.918547315358574,NaN,NaN,-0.0972082000281842,NaN,-0.285719685342001,0.415457124589888,1.01238983093775,-1.87561676548292,-1.87561676548223,2.14507982045303,-2.14507982045382,0.394557330453252
356.6592,-1.93859832327877,-0.652938046761506,-1.8841843544641,-1.27915165165588,0.745810972867521,0.745810972866668,NaN,-1.627327669011,-1.13959631090294,-0.835405672203204,2.1108087887602,-0.835405672203701,0.614027424213318,NaN,-0.437194252410271,NaN,NaN,0.735485795356922,NaN,0.48435245607124,1.12023083113997,NaN,-0.555551408228415,NaN,-0.941037144115989,0.02536748084792,NaN,NaN,0.110910524037687,0.424988632169173,2.03393039328264,-1.53640297198381,0.571430533017905,1.05919975533645,0.372025459518592,1.03764797483548,3.07030163372675,0.901010607847992,0.901010607853444,NaN,NaN,-0.093764702315034,NaN,-0.304140584009498,0.426451291685748,1.01140022832504,-1.85027996131597,-1.85027996131528,2.12308876751954,-2.12308876752034,0.360761678355881
356.7616,-1.92665727933883,-0.649263820687689,-1.87271848449182,-1.29136602931849,0.741640729844581,0.741640729843744,NaN,-1.64653717184576,-1.13572440125968,-0.845702327519745,2.09573592612087,-0.845702327520239,0.589879759405327,NaN,-0.442917629625174,NaN,NaN,0.730734351938016,NaN,0.475978743394062,1.10448634422338,NaN,-0.549229644518605,NaN,-0.969258432967042,0.060493970935208,NaN,NaN,0.123050974544057,0.408026505311094,2.01233305874059,-1.50865266238398,0.591292083244726,1.07729284966377,0.367418016488954,1.04983918500931,3.00433124289888,0.883840849653805,0.883840849659141,NaN,NaN,-0.0907012810435182,NaN,-0.322030182627636,0.436303135580296,1.00947919558498,-1.82387038347236,-1.82387038347167,2.10057675652572,-2.10057675652654,0.326916586155825
356.864,-1.91314940446703,-0.645479661499352,-1.85989802333537,-1.30318925455014,0.73763761228531,0.73763761228449,NaN,-1.66626121259837,-1.13264777853731,-0.855870933384029,2.07874386929287,-0.855870933384521,0.56595814032941,NaN,-0.448705099940467,NaN,NaN,0.726143511753243,NaN,0.467887322054427,1.08831012011513,NaN,-0.54199171312403,NaN,-0.99697689514928,0.0950346454491591,NaN,NaN,0.136433792977238,0.391103726333084,1.98952918640799,-1.48049845156166,0.60966397933992,1.09566903005405,0.363000466894644,1.06235338729763,2.93621213666797,0.866961957575511,0.866961957580702,NaN,NaN,-0.0879937543200877,NaN,-0.339359599328519,0.445031717265915,1.00662268665465,-1.79642800426933,-1.79642800426865,2.07761329939158,-2.0776132993924,0.293064678299371
356.9664,-1.89811182240492,-0.641586457979747,-1.84575437496009,-1.31463996896566,0.733821119225179,0.733821119224376,NaN,-1.68644306100413,-1.13031625687085,-0.865855266968699,2.05990004476279,-0.86585526696919,0.542279902369831,NaN,-0.454561879489915,NaN,NaN,0.721749148942225,NaN,0.460068478607134,1.07170514215187,NaN,-0.533864239060716,NaN,-1.02417126510033,0.128967726072427,NaN,NaN,0.151034537673995,0.374262022914879,1.96552675876969,-1.4519665425342,0.626502724492865,1.11425788032494,0.358778355756065,1.07513688224439,2.86612868397324,0.850295709742741,0.850295709747787,NaN,NaN,-0.0856158923389873,NaN,-0.356100665641551,0.452661742964556,1.00282601351,-1.76799340219221,-1.76799340219153,2.05426747243416,-2.05426747243499,0.259246947222388
357.0688,-1.88158555061067,-0.637583919254784,-1.83032172449177,-1.32573854111297,0.730206746762535,0.730206746761753,NaN,-1.70702175728164,-1.12867395131087,-0.875596158149429,2.03927565868045,-0.875596158149917,0.518861799757609,NaN,-0.460491665123757,NaN,NaN,0.717586581590374,NaN,0.452510730205522,1.05467192967435,NaN,-0.524875080090136,NaN,-1.05082071051931,0.162273332448167,NaN,NaN,0.166823445554838,0.357542429374359,1.94033687640055,-1.42308367765825,0.641769815464689,1.13298512749096,0.35475771839653,1.08813312338304,2.79427103086197,0.833762550962843,0.833762550967738,NaN,NaN,-0.0835394151122453,NaN,-0.372225955415185,0.459223560234931,0.998083928361585,-1.73860753243519,-1.73860753243451,2.03060755296161,-2.03060755296245,0.225502638949358
357.1712,-1.86361534212986,-0.633470594729254,-1.81363691400471,-1.33650675007879,0.726806000492157,0.726806000491392,NaN,-1.72793249178154,-1.12765982168835,-0.885031656997098,2.01694541924998,-0.885031656997583,0.495720333779347,NaN,-0.466496151916968,NaN,NaN,0.713690580165115,NaN,0.445200781759315,1.03720866542237,NaN,-0.51505316558525,NaN,-1.07690505811337,0.194933354067061,NaN,NaN,0.183765604901387,0.340985043189867,1.91397379580308,-1.393877010686,0.655432108116645,1.15177330939391,0.350945037214921,1.10128323109011,2.72083372122632,0.817282405741742,0.817282405746482,NaN,NaN,-0.0817339647802754,NaN,-0.387708823348574,0.464753140593335,0.992390708720633,-1.70831150715915,-1.70831150715848,2.0067006475385,-2.00670064753935,0.191869120560632
357.2736,-1.84424953188152,-0.629243905726898,-1.79573932671583,-1.34696744171209,0.723626446365737,0.723626446364991,NaN,-1.74910705604242,-1.1272083057679,-0.894097275122282,1.99298725848674,-0.894097275122764,0.472872063283336,NaN,-0.472574567102726,NaN,NaN,0.710095368288806,NaN,0.438123510993201,1.0193113677781,NaN,-0.504428383482894,NaN,-1.10240501738506,0.22693132539769,NaN,NaN,0.201821149016776,0.32462878514703,1.88645493595309,-1.36437396555895,0.66746215062288,1.17054247903283,0.347347167264147,1.11452652013798,2.64601433082988,0.80077549438496,0.800775494389542,NaN,NaN,-0.0801670533386845,NaN,-0.402523454677678,0.469292046852756,0.985740232040563,-1.67714638728035,-1.67714638727969,1.9826123246872,-1.98261232468806,0.158381708164745
357.376,-1.82353989432685,-0.624900191185472,-1.77667078635839,-1.3571441764937,0.720671790218135,0.720671790217405,NaN,-1.77047436100003,-1.12725002949847,-0.902726285867564,1.9674820657802,-0.902726285868043,0.450333883530445,NaN,-0.478723241166121,NaN,NaN,0.706834626674671,NaN,0.43126199788701,1.0009741263042,NaN,-0.493031505548705,NaN,-1.12730241856394,0.258252299551779,NaN,NaN,0.220945467996371,0.308511165976038,1.85780085472611,-1.33460209077825,0.677838466665082,1.18921093123122,0.34397125341967,1.12780104092479,2.5700121482802,0.784163138986175,0.784163138990592,NaN,NaN,-0.0788039973892066,NaN,-0.416644925388641,0.472887374889049,0.978126038374223,-1.64515298874503,-1.64515298874437,1.95840626618422,-1.95840626618509,0.125073447097894
357.4784,-1.80154151287913,-0.620434766928014,-1.75647547184245,-1.36706088300552,0.71794197687787,0.717941976877156,NaN,-1.79196101823115,-1.12771258319523,-0.910850071055501,1.94051344063685,-0.910850071055976,0.42812326580856,NaN,-0.484935233975085,NaN,NaN,0.703941496934647,NaN,0.424597602798974,0.982189400131061,NaN,-0.480894137485253,NaN,-1.15158047015109,0.28888271565073,NaN,NaN,0.241089438601641,0.292668057953867,1.82803519779309,-1.30458891592418,0.686545778866983,1.20769594359379,0.340824650733782,1.14104413377765,2.49302691830261,0.767368542664273,0.767368542668552,NaN,NaN,-0.0776078518822481,NaN,-0.430049271389976,0.475591660661564,0.969541390565702,-1.61237170385813,-1.6123717038575,1.93414394164292,-1.9341439416438,0.0919748536343488
357.5808,-1.77831265461752,-0.615841996609648,-1.73519984105304,-1.37674152098336,0.715433304248457,0.71543330424776,NaN,-1.81349198076507,-1.12852135613817,-0.918398504019274,1.91216746367274,-0.918398504019745,0.406258458646312,NaN,-0.491200023435031,NaN,NaN,0.701448573899421,NaN,0.418110091115977,0.962948365067124,NaN,-0.468048681822708,NaN,-1.17522403127065,0.31881025879142,NaN,NaN,0.26219967719661,0.277133469372852,1.79718462269775,-1.27436181100823,0.693575176326946,1.22591452649701,0.337914846210079,1.15419299122104,2.41525764661464,0.7503175282865,0.750317528290648,NaN,NaN,-0.0765393548128659,NaN,-0.442713570862265,0.477462744279697,0.959979345488207,-1.5788423409997,-1.57884234099908,1.90988430090729,-1.90988430090818,0.0591136425777553
357.6832,-1.75391463994129,-0.611115372267051,-1.71289255428445,-1.38620975347313,0.713138553269178,0.713138553268495,NaN,-1.83499123601616,-1.12960042058997,-0.925300355494043,1.88253247894521,-0.925300355494509,0.38475865296816,NaN,-0.49750325425362,NaN,NaN,0.69938787637353,NaN,0.411777800231029,0.943241292694535,NaN,-0.454528304429426,NaN,-1.19821989170713,0.348023713771306,NaN,NaN,0.284218824602811,0.261939326349257,1.76527869551271,-1.24394784143619,0.698924237432994,1.24378417198973,0.335249374747873,1.16718521642782,2.33690146420843,0.732939227381697,0.732939227385701,NaN,NaN,-0.0755568969483396,NaN,-0.454616048420509,0.478563582372911,0.949432846746337,-1.54460398981251,-1.54460398981191,1.88568347863253,-1.88568347863343,0.0265144722061973
357.7856,-1.72841169766856,-0.606247603250608,-1.6896043888781,-1.39548862859681,0.711047141085317,0.711047141084653,NaN,-1.85638253548994,-1.13087344828043,-0.931483708880864,1.85169887998993,-0.931483708881326,0.363644107803164,NaN,-0.503826543182094,NaN,NaN,0.69779079162583,NaN,0.405577841435878,0.923057948713661,NaN,-0.440366898435959,NaN,-1.22055705562528,0.376512818903963,NaN,NaN,0.307085869124691,0.247115270447164,1.73234975181774,-1.2133736085945,0.702597114144911,1.26122359182897,0.332835721676802,1.17995936618347,2.25815255717939,0.715166711597639,0.715166711601533,NaN,NaN,-0.0746165284751164,NaN,-0.46573620433608,0.478962004980828,0.937894845755433,-1.50969491608662,-1.50969491608605,1.86159451072577,-1.86159451072668,-0.00580126479601047
357.888,-1.70187079925241,-0.601230713671335,-1.66538813982573,-1.40460027493931,0.709145308584517,0.70914530858387,NaN,-1.87759013785002,-1.13226463334918,-0.936876379418305,1.81975889420391,-0.93687637941876,0.342936229769467,NaN,-0.510147342957398,NaN,NaN,0.696687991002435,NaN,0.399486324563828,0.902388000999248,NaN,-0.425599044538437,NaN,-1.24222702614834,0.404268133264515,NaN,NaN,0.330736505721175,0.232688476402536,1.69843271403633,-1.1826650705204,0.704604574426333,1.27815344356331,0.330681206089203,1.19245547456717,2.17920117422775,0.696937561302201,0.696937561305954,NaN,NaN,-0.0736720101381362,NaN,-0.476054961239351,0.478730420806615,0.925358457181808,-1.47415248304723,-1.47415248304668,1.83766706434431,-1.83766706434524,-0.0378155853466938
357.9904,-1.6743614680603,-0.596056148062442,-1.64029850282691,-1.41356562051872,0.707416351116462,0.707416351115831,NaN,-1.89853953370045,-1.13369958810098,-0.941406341605535,1.78680636261815,-0.941406341605984,0.322657604832646,NaN,-0.516438870784686,NaN,NaN,0.696109309536707,NaN,0.393478588983621,0.881221424681032,NaN,-0.4102599708305,NaN,-1.26322408414737,0.431280930036675,NaN,NaN,0.355103522142789,0.218683490560644,1.66356486524933,-1.15184734708487,0.704963993021088,1.29449704817885,0.328792847702236,1.20461556154896,2.10023272666467,0.678194374230001,0.678194374233617,NaN,NaN,-0.0726749146131738,NaN,-0.485554813459481,0.477945477641368,0.911817149261994,-1.43801308933755,-1.43801308933701,1.81394718522907,-1.81394718523002,-0.0695139869772343
358.0928,-1.64595556225849,-0.590714880969847,-1.61439193685498,-1.42240414869069,0.705840891710737,0.705840891710123,NaN,-1.91915811951095,-1.13510617783965,-0.94500217189545,1.75293651193426,-0.945002171895894,0.302831988845398,NaN,-0.522670103342003,NaN,NaN,0.69608357837818,NaN,0.387529424966108,0.859548887637226,NaN,-0.394385512242388,NaN,-1.28354554851153,0.45754311839137,NaN,NaN,0.380117200531431,0.205122093556295,1.6277855919023,-1.12094452567145,0.703699279089813,1.31018109784104,0.327177232201759,1.21638413287387,2.02142699664435,0.658885224396496,0.658885224399975,NaN,NaN,-0.0715747827909277,NaN,-0.494219966433536,0.476687681594633,0.897264956675462,-1.40131211609251,-1.40131211609201,1.79047707217278,-1.79047707217374,-0.100885450048413
358.1952,-1.61672703441373,-0.585197522354219,-1.58772650556536,-1.43113369786326,0.704397182517482,0.704397182516887,NaN,-1.93937580552486,-1.13641527735648,-0.947593507635801,1.71824571343067,-0.947593507636235,0.283484266038484,NaN,-0.528805832059556,NaN,NaN,0.696638404062518,NaN,0.381613279310206,0.837362105337556,NaN,-0.378012061014172,NaN,-1.30319200206796,0.483047184757725,NaN,NaN,0.405705722851367,0.192023193747235,1.59113611444729,-1.08997948632869,0.700840735638181,1.32513634375821,0.325840391442,1.2277086714958,1.94295745853808,0.63896407716698,0.638964077170336,NaN,NaN,-0.0703193382162346,NaN,-0.502036464923258,0.47504097140052,0.881696694161324,-1.36408388773163,-1.36408388773115,1.76729489146474,-1.76729489146572,-0.131922388995012
358.2976,-1.58675167317987,-0.579494412091069,-1.56036169933086,-1.43977030113732,0.703061412821359,0.70306141282078,NaN,-1.95912556437077,-1.13756145128519,-0.949111513225149,1.68283122326627,-0.949111513225575,0.264640382459317,NaN,-0.534806766612878,NaN,NaN,0.697799900423059,NaN,0.375704451349733,0.814654166324283,NaN,-0.361176494071208,NaN,-1.32216747062525,0.507786139548691,NaN,NaN,0.431795569034441,0.179402754942533,1.55365921912718,-1.05897375513471,0.696424857256708,1.33929824739066,0.324787704121595,1.23854010993814,1.86499069620728,0.618391158057313,0.618391158060547,NaN,NaN,-0.0688547618905363,NaN,-0.508992318285303,0.473092238517908,0.865108152071796,-1.32636165923348,-1.32636165923302,1.74443463718941,-1.7444346371904,-0.162620578465734
358.4,-1.55610682844603,-0.573595702566929,-1.53235823865218,-1.44832806029131,0.701808009729113,0.70180800972855,NaN,-1.97834392744798,-1.13848355940224,-0.949489337499331,1.64679090271071,-0.949489337499748,0.246327256127545,NaN,-0.540629677077431,NaN,NaN,0.699592387524873,NaN,0.369777287271444,0.791419837626755,NaN,-0.343916066845905,NaN,-1.34047955187054,0.531753460614875,NaN,NaN,0.458311901409387,0.167273756689523,1.51539899260453,-1.02794738205717,0.690494077991855,1.35260757703549,0.32402381380423,1.2488332675818,1.78768588550463,0.597133273641165,0.597133273644291,NaN,NaN,-0.0671260281165646,NaN,-0.5150776312313,0.470930786438972,0.847496267425247,-1.28817763678912,-1.28817763678869,1.72192603354754,-1.72192603354854,-0.19297907479631
358.5024,-1.52487111475987,-0.567491433408748,-1.5037778562318,-1.45681905791558,0.700609934517816,0.700609934517273,NaN,-1.99697141751281,-1.13912527012708,-0.948662547767025,1.6102229211563,-0.948662547767432,0.228572656565407,NaN,-0.546227576169458,NaN,NaN,0.702038071839795,NaN,0.363806372594091,0.767655859536861,NaN,-0.326268272844891,NaN,-1.35813950202523,0.55494303675635,NaN,NaN,0.485178938888908,0.155646183410986,1.4764005545901,-0.996918835142358,0.683096478205529,1.36501093985068,0.323552559726888,1.2585472426081,1.71119431797238,0.575164086615104,0.575164086618114,NaN,NaN,-0.0650772999130902,NaN,-0.520284746235055,0.468647730670824,0.828859276916238,-1.24956302950436,-1.24956302950395,1.69979447795492,-1.69979447795594,-0.223000138015296
358.6048,-1.49312408465717,-0.561171603621214,-1.47468305283708,-1.46525331940548,0.699438988225532,0.699438988225007,NaN,-2.01495289142446,-1.13943545471635,-0.946569534358589,1.57322544324832,-0.946569534358986,0.21140504052623,NaN,-0.551549953968195,NaN,NaN,0.705156713584325,NaN,0.357766715316701,0.743361232969895,NaN,-0.308270675324875,NaN,-1.3751622930825,0.577349124155111,NaN,NaN,0.512320332465687,0.144527039980931,1.4367097818101,-0.965904903056059,0.674285455230386,1.37646125105526,0.323376917859268,1.26764575870946,1.63565895896502,0.552464343598486,0.552464343601373,NaN,NaN,-0.0626523794028148,NaN,-0.524608402971527,0.466335348565095,0.809196863476885,-1.21054812577758,-1.21054812577719,1.6780610337428,-1.67806103374384,-0.252689145935355
358.7072,-1.46094586653807,-0.554626243954905,-1.4451368236073,-1.47363882960291,0.698266136510945,0.698266136510439,NaN,-2.03223776891251,-1.13936844140741,-0.943151889250975,1.53589629413996,-0.943151889251363,0.194853337948918,NaN,-0.556543077286123,NaN,NaN,0.708965277189293,NaN,0.351633913066727,0.718537490936145,NaN,-0.289960718744239,NaN,-1.3915666462832,0.598966327762944,NaN,NaN,0.539659550361837,0.133920393956138,1.39637301585379,-0.934920598300612,0.664119360355022,1.38691814555635,0.323498953265019,1.27609747131125,1.56121404506406,0.529022050453776,0.529022050456545,NaN,NaN,-0.0597952017784554,NaN,-0.528045914830964,0.464086395372414,0.788510301968535,-1.17116238564372,-1.17116238564336,1.65674247662605,-1.6567424766271,-0.282054488166165
358.8096,-1.42841677010508,-0.547845488801377,-1.41520235704247,-1.48198159047497,0.697061851175299,0.697061851174812,NaN,-2.04878013908259,-1.13888412785458,-0.938354768492547,1.49833259384495,-0.938354768492924,0.178946696174514,NaN,-0.56115035422175,NaN,NaN,0.713477559959578,NaN,0.345384304916025,0.693188936703662,NaN,-0.271375528324263,NaN,-1.40737503509772,0.619789610881673,NaN,NaN,0.567120266932611,0.123827448328455,1.35543675118436,-0.903979056426248,0.652661105343291,1.39634833126195,0.323919786321574,1.28387623400097,1.48798472165579,0.504832593040621,0.504832593043254,NaN,NaN,-0.0564503542273102,NaN,-0.530597353660489,0.461993405756838,0.76680259831451,-1.13143454141459,-1.13143454141424,1.63585138139727,-1.63585138139833,-0.311107434375759
358.912,-1.39561687189924,-0.540819646306011,-1.38494271663087,-1.49028569521658,0.695796454490555,0.695796454490083,NaN,-2.06453875477218,-1.13794796861726,-0.932127246758792,1.46063036141942,-0.932127246759157,0.163714198679482,NaN,-0.565312752822044,NaN,NaN,0.718703805153698,NaN,0.338995113720447,0.667322835898446,NaN,-0.252551709814138,NaN,-1.42261364558464,0.639814327724469,NaN,NaN,0.594626738409938,0.114246650489769,1.31394731011489,-0.873091434053361,0.639977745662604,1.40472587770229,0.324639572150501,1.2909613197206,1.41608670993781,0.479898805447656,0.479898805450162,NaN,NaN,-0.0525636019158816,NaN,-0.532265730743889,0.460147992510949,0.744078608841789,-1.09139270691834,-1.09139270691801,1.61539623069085,-1.61539623069193,-0.339861979661579
359.0144,-1.36262559867581,-0.533539268011502,-1.35442052048067,-1.49855340185975,0.694440450288888,0.694440450288435,NaN,-2.07947693147033,-1.13653085824778,-0.924422662552094,1.42288410533752,-0.92442266255245,0.14918457709868,NaN,-0.568969257823153,NaN,NaN,0.724650318034613,NaN,0.332444581827077,0.640949563563835,NaN,-0.233525162889822,NaN,-1.43731228540445,0.65903626895006,NaN,NaN,0.622104153054441,0.105173839886681,1.27195052083492,-0.842266815630878,0.626140049986224,1.41203243340553,0.325657489969652,1.29733758980347,1.34562599420023,0.454230988941338,0.454230988943709,NaN,NaN,-0.0480824087827828,NaN,-0.533057165844307,0.458640144663348,0.72034512499174,-1.05106450233523,-1.05106450233492,1.59538154294586,-1.59538154294694,-0.368334671236943
359.1168,-1.32952132400702,-0.525995220317716,-1.32369763274481,-1.50678520484564,0.692964833666172,0.692964833665736,NaN,-2.09356236092695,-1.13460892042232,-0.915198942797443,1.38518642163921,-0.91519894279779,0.135385934381222,NaN,-0.572057350625518,NaN,NaN,0.731319105589457,NaN,0.325712095225432,0.614082715197099,NaN,-0.21433091468671,NaN,-1.45150423858389,0.677451708294521,NaN,NaN,0.649478956940189,0.0966024314704644,1.22949141343027,-0.811512138961755,0.611222063016781,1.41825736715589,0.326971741720544,1.30299560662008,1.27669853792615,0.427846886019122,0.427846886021348,NaN,NaN,-0.0429564431516109,NaN,-0.532981039198389,0.457557528146887,0.695610913152748,-1.01047719897911,-1.01047719897881,1.57580803285977,-1.57580803286086,-0.396544414786342
359.2192,-1.29638098656583,-0.51817875772212,-1.29283487389431,-1.51497990741168,0.691341381885886,0.691341381885466,NaN,-2.10676684372394,-1.13216320587928,-0.904418896322553,1.34762761317385,-0.904418896322891,0.122345489219714,NaN,-0.574513504306662,NaN,NaN,0.738707553146998,NaN,0.318778288216552,0.586739186297475,NaN,-0.195002972343201,NaN,-1.46522606815626,0.695057440255505,NaN,NaN,0.676679163726747,0.0885236285873926,1.18661394086214,-0.780832144070381,0.595300665146063,1.42339782963594,0.328579562809271,1.30793168845888,1.20939005057691,0.400771613001144,0.40077161300323,NaN,NaN,-0.0371380599393907,NaN,-0.532050121679446,0.456984798661813,0.669886711921608,-0.969657882578774,-0.969657882578484,1.55667281841694,-1.55667281841804,-0.424512254113946
359.3216,-1.26327973280455,-0.510081596664618,-1.2618917516362,-1.5231346901534,0.689542932977281,0.689542932976879,NaN,-2.11906594871333,-1.12917930608777,-0.892050474138241,1.31029533347982,-0.892050474138571,0.110089340472963,NaN,-0.576273692126225,NaN,NaN,0.74680814158816,NaN,0.311625125577215,0.558939213520023,NaN,-0.175574193908663,NaN,-1.47851737395855,0.711850805316068,NaN,NaN,0.703634652663999,0.0809266571656062,1.14336072765014,-0.750229346145682,0.578455132759475,1.4274587353827,0.330477245532806,1.31214790687422,1.14377582332527,0.373037548578506,0.373037548580444,NaN,NaN,-0.0305827542482101,NaN,-0.530280680089761,0.457002938916625,0.643185202267367,-0.928633631357462,-0.928633631357181,1.53796967334396,-1.53796967334508,-0.452261120706897
359.424,-1.23029058210368,-0.501695991085514,-1.2309262113128,-1.53124516645922,0.687543655850647,0.687543655850264,NaN,-2.13043861360293,-1.12564689680074,-0.878066998694882,1.27327425172954,-0.878066998695206,0.0986422435388517,NaN,-0.577273907636207,NaN,NaN,0.755608203557415,NaN,0.304235963455938,0.530706364728095,NaN,-0.156076180258781,NaN,-1.49142051791832,0.727829711054725,NaN,NaN,0.730277452754276,0.0737990129081127,1.09977285021545,-0.719704032392547,0.560766707451873,1.43045267095101,0.33266017026753,1.31565202874491,1.07992063756189,0.344684169672915,0.344684169674731,NaN,NaN,-0.0232495810708252,NaN,-0.527692555896676,0.457688633200919,0.615520967670534,-0.887431702365926,-0.887431702365657,1.51968930645696,-1.51968930645809,-0.479815557894827
359.5264,-1.19748410774652,-0.493014813527087,-1.19999440176854,-1.53930542048966,0.685319315208575,0.685319315208209,NaN,-2.14086670117709,-1.12155922540745,-0.862447362946124,1.23664572838542,-0.86244736294644,0.088027391828581,NaN,-0.577450690617936,NaN,NaN,0.765089717982188,NaN,0.296595588318833,0.502067472801159,NaN,-0.136539192905531,NaN,-1.50398033145297,0.742992671527061,NaN,NaN,0.756542010898391,0.0671267168666686,1.05588965363182,-0.689254281672062,0.542318186158588,1.43239973976607,0.33512283861548,1.31845740852347,1.01787873728763,0.315757824123871,0.315757824125543,NaN,NaN,-0.0151015370267245,NaN,-0.524309213466781,0.459113690573987,0.586910452294886,-0.846079716208216,-0.846079716207957,1.50181964795342,-1.50181964795456,-0.507201427125718
359.6288,-1.16492812703005,-0.484031645692539,-1.16915045266611,-1.54730803117015,0.682847537443966,0.682847537443617,NaN,-2.15033451952984,-1.11691254983067,-0.845176201534402,1.20048749028196,-0.845176201534709,0.0782662025483866,NaN,-0.576741654595545,NaN,NaN,0.775229145516048,NaN,0.288690231959825,0.473052518504945,NaN,-0.116992107291773,NaN,-1.5162438158044,0.757338891546162,NaN,NaN,0.782365445336415,0.0608945805807481,1.01174860626698,-0.658876005529201,0.523193538334664,1.43332735427897,0.337858906431795,1.32058283814376,0.957693858207809,0.286311430352396,0.286311430353925,NaN,NaN,-0.00610590693307843,NaN,-0.520157752846501,0.461344519266201,0.557371916607833,-0.804605834533627,-0.80460583453338,1.48434613721985,-1.484346137221,-0.534445598223915
359.7312,-1.13268740091416,-0.474740878593908,-1.13844626364132,-1.55524408852017,0.680108081480781,0.680108081480452,NaN,-2.1588283101748,-1.1117055331493,-0.826244039686907,1.16487330240936,-0.826244039687206,0.0693781111544987,NaN,-0.575086017429148,NaN,NaN,0.785997308357529,NaN,0.280507565912843,0.443694466564486,NaN,-0.0974624109896331,NaN,-1.5282598358007,0.770868405827879,NaN,NaN,0.807687784321877,0.0550864823106373,0.967385188863234,-0.628563011665229,0.503477540904442,1.43326998194311,0.340861217198051,1.32205236005148,0.899399319353735,0.256404098383092,0.25640409838449,NaN,NaN,0.00376541774591808,NaN,-0.515268886307974,0.464441646868577,0.526925388426611,-0.763038932783255,-0.763038932783023,1.46725201716682,-1.46725201716799,-0.561575623566549
359.8336,-1.10082335266806,-0.4651378159761,-1.10793131066433,-1.56310320633016,0.677083107409805,0.677083107409494,NaN,-2.16633571337788,-1.10593860327118,-0.805647422688291,1.12987264679928,-0.805647422688581,0.0613803800392868,NaN,-0.57242513666907,NaN,NaN,0.79735931739945,NaN,0.272036686258358,0.414029052983781,NaN,-0.077976242595254,NaN,-1.54007879671778,0.783582251688508,NaN,NaN,0.832452182669313,0.049685647910412,0.922832814771912,-0.598307095000883,0.483255412764048,1.43226884413228,0.344121835492578,1.32289504252617,0.843018185460286,0.226100677121973,0.226100677123242,NaN,NaN,0.0145356483062978,NaN,-0.509676882552942,0.468459283707062,0.495592612910178,-0.721408768803961,-0.721408768803743,1.45051863499061,-1.45051863499179,-0.58861940619594
359.936,-1.06939381909638,-0.455218770813247,-1.07765247685686,-1.57087353293238,0.673757424274487,0.673757424274193,NaN,-2.17284523026737,-1.09961329581598,-0.783389021175811,1.09555042900896,-0.783389021176093,0.0542879267004961,NaN,-0.568703043980067,NaN,NaN,0.809274552532462,NaN,0.263268102682321,0.384094524662742,NaN,-0.0585584513929788,NaN,-1.55175229165199,0.79548263137502,NaN,NaN,0.856605104479569,0.044674922370936,0.878122783996882,-0.56809816381485,0.462612437160038,1.43037155992361,0.347632078316856,1.32314470968318,0.788563494323457,0.195471245326742,0.195471245327877,NaN,NaN,0.0262228487782848,NaN,-0.503419482591925,0.473444936317874,0.463397009106999,-0.679746136617339,-0.679746136617141,1.4341257388933,-1.43412573889449,-0.615604883292612
360.0384,-1.03845284510008,-0.444981147294163,-1.04765391370536,-1.57854176155792,0.670118697168951,0.670118697168674,NaN,-2.17834570201856,-1.09273159885694,-0.759477700365307,1.06196673269904,-0.75947770036558,0.0481131784332151,NaN,-0.563866966120593,NaN,NaN,0.821696707737428,NaN,0.254193742309391,0.353931340113343,NaN,-0.0392326543598264,NaN,-1.56333271650147,0.806573024982825,NaN,NaN,0.880096464658659,0.0400370187728095,0.833284277328273,-0.537924406405022,0.441633572115671,1.42763172618489,0.351382543191046,1.32283961873847,0.736038532799681,0.164590571054373,0.16459057105537,NaN,NaN,0.0388397459963889,NaN,-0.496537787803998,0.479439084125965,0.430363633907263,-0.638082989223962,-0.63808298922378,1.41805175831368,-1.41805175831488,-0.642559746985345
360.1408,-1.00805052751602,-0.434423506998521,-1.01797693711832,-1.58609314039964,0.66615760320184,0.666157603201578,NaN,-2.18282581783791,-1.08529531046323,-0.733928538575566,1.02917663525832,-0.733928538575831,0.0428659618484091,NaN,-0.557867819401751,NaN,NaN,0.834573914022874,NaN,0.24480697368469,0.323581841343467,NaN,-0.0200212738135885,NaN,-1.57487286476471,0.816858240535204,NaN,NaN,0.902879729060828,0.0357547371442435,0.788344394694802,-0.507772498413594,0.420403056815526,1.42410843284401,0.355363137325886,1.32202208580994,0.685437149085677,0.133537562137718,0.133537562138586,NaN,NaN,0.0523936140348765,NaN,-0.489076117064716,0.486474931397789,0.396519144681619,-0.596452520326186,-0.59645252032602,1.40227406115892,-1.40227406116013,-0.669511214595432
360.2432,-0.978232911093669,-0.4235456223012,-0.988659961941147,-1.59351147998232,0.661867936642383,0.661867936642131,NaN,-2.18627365927707,-1.07730541742395,-0.706762784969519,0.997230090967068,-0.706762784969776,0.0385534301850732,NaN,-0.550660669047654,NaN,NaN,0.847848945558469,NaN,0.235102653066654,0.293089901679775,NaN,-0.00094554956727469,NaN,-1.58642552278623,0.82634440882947,NaN,NaN,0.924911975926631,0.0318111512107649,0.743328237643067,-0.477627846548512,0.399004023441655,1.41986572072762,0.359563114283705,1.32073806941955,0.636744099851479,0.102394718923907,0.102394718924625,NaN,NaN,0.0668862355559811,NaN,-0.481081828893994,0.494578240137493,0.361891755733487,-0.554889202423336,-0.554889202423187,1.38676918598982,-1.38676918599104,-0.696485846942801
360.3456,-0.949041935098476,-0.412348519394534,-0.95973847462826,-1.60077915481416,0.657246667364635,0.657246667364396,NaN,-2.1886762944437,-1.06876151104776,-0.678007753876703,0.966171880858067,-0.678007753876951,0.0351800217632492,NaN,-0.542205150441685,NaN,NaN,0.861459502168319,NaN,0.225077192211385,0.262500546329152,NaN,0.0179744696606625,NaN,-1.59804308110291,0.835038931361537,NaN,NaN,0.946153919893296,0.0281897641727958,0.698259031448397,-0.447474862733127,0.377518119030721,1.414971992243,0.36397111830281,1.31903672002761,0.589935441219181,0.0712475879728184,0.0712475879733932,NaN,NaN,0.0823139346585689,NaN,-0.472605106404591,0.503767243623925,0.326511196343637,-0.513428779126945,-0.513428779126812,1.37151304721423,-1.37151304721545,-0.723509405779571
360.448,-0.920515423424817,-0.400834508931218,-0.931245037315745,-1.60787709646994,0.652293951770287,0.652293951770061,NaN,-2.19001944273861,-1.05966126204156,-0.647696656682638,0.936041617314238,-0.647696656682878,0.0327474379107333,NaN,-0.532465851714794,NaN,NaN,0.875338552309339,NaN,0.214728641369213,0.231859533196818,NaN,0.0367199453818721,NaN,-1.60977716505737,0.842950377552687,NaN,NaN,0.966569898223838,0.0248746332172436,0.653158277768817,-0.417297260649466,0.356025137450015,1.40949938131638,0.368575229034145,1.31696989708436,0.54497897937618,0.0401842097573179,0.0401842097577599,NaN,NaN,0.0986676770352289,NaN,-0.463698703799074,0.514052639630353,0.290408680865086,-0.47210820394652,-0.4721082039464,1.35648111159796,-1.3564811115992,-0.750606744856495
360.5504,-0.892687109367929,-0.389007199451024,-0.90320931394526,-1.61478477435015,0.647013088629763,0.64701308862955,NaN,-2.19028722854732,-1.04999997234449,-0.615868373461772,0.906873785881539,-0.615868373462003,0.0312546305913031,NaN,-0.521412655167566,NaN,NaN,0.889414719824454,NaN,0.204056775884418,0.201212877039994,NaN,0.0552732694135298,NaN,-1.62167828013846,0.850088321001734,NaN,NaN,0.986127820267307,0.0218504582707069,0.608045925580104,-0.387078362648877,0.334602664313482,1.40352308273982,0.37336299862588,1.31459164965039,0.501834796712863,0.00929455321334858,0.00929455321365703,NaN,NaN,0.115933238995644,NaN,-0.454417651893944,0.525437663653494,0.253616889991481,-0.430965514591282,-0.430965514591177,1.34164854582736,-1.3416485458286,-0.777801735408433
360.6528,-0.865586688339432,-0.376871491758232,-0.875658112084772,-1.62148016122798,0.641410415063691,0.641410415063487,NaN,-2.18946203360675,-1.03977021478459,-0.582567169064568,0.878697812529121,-0.582567169064788,0.0306977947386198,NaN,-0.509021033361105,NaN,NaN,0.90361270631646,NaN,0.193063174964758,0.170606309173876,NaN,0.0736180744030652,NaN,-1.63379546933315,0.856463112021851,NaN,NaN,1.0047990848068,0.0191026309787644,0.562940549403725,-0.356801404715401,0.313325740852496,1.39712063928721,0.37832147569635,1.31195765651417,0.460455862136212,-0.0213300700808466,-0.0213300700806908,NaN,NaN,0.13409144782259,NaN,-0.444818921014711,0.537918239524302,0.21616995107606,-0.390039637568464,-0.390039637568377,1.32699033395658,-1.32699033395782,-0.805117226771184
360.7552,-0.839239894344407,-0.364433558517798,-0.848615438667733,-1.6279396867601,0.635495151565131,0.63549515156494,NaN,-2.18752445015723,-1.02896156953497,-0.547842362743526,0.851538154904594,-0.547842362743738,0.031070364576153,NaN,-0.495272299661132,NaN,NaN,0.91785375143995,NaN,0.181751287611981,0.140084685100804,NaN,0.0917392214228345,NaN,-1.64617598339657,0.862085595083228,NaN,NaN,1.02255847227597,0.0166172479409621,0.517859531192891,-0.326449835479809,0.292266548568879,1.39037118893366,0.383437211152722,1.30912462513432,0.420788723278368,-0.0515976185395995,-0.0515976185396068,NaN,NaN,0.153118487036813,NaN,-0.434961046849739,0.55148319641712,0.17810340733618,-0.349370131117387,-0.349370131117312,1.3124813602901,-1.31248136029136,-0.8325750370372
360.8576,-0.813668598936711,-0.351700815497152,-0.822102571165813,-1.63413819135416,0.629279218124844,0.629279218124664,NaN,-2.18445333096393,-1.0175604656651,-0.51174796532416,0.82541442328345,-0.511747965324362,0.0323630142567839,NaN,-0.48015381924813,NaN,NaN,0.932056134387316,NaN,0.170126488124406,0.109691369634638,NaN,0.10962275453772,NaN,-1.65886496264986,0.866966782289502,NaN,NaN,1.03938402034189,0.0143811020633627,0.472819250834686,-0.296007615794247,0.271494109794448,1.38335467935681,0.388696241492055,1.30614965296365,0.382774269208224,-0.081415961241846,-0.0814159612420034,NaN,NaN,0.17298624361927,NaN,-0.424903737325202,0.566114529520769,0.139454178204146,-0.308996889970316,-0.308996889970252,1.29809645337829,-1.29809645337956,-0.860195959743976
360.96,-0.788890933995424,-0.338681887550099,-0.796138146565326,-1.64004889674853,0.622777045119369,0.6227770451192,NaN,-2.18022592741654,-1.00555013235071,-0.474342300404618,0.800341536714854,-0.474342300404809,0.0345636609319561,NaN,-0.463659187750537,NaN,NaN,0.946135711190087,NaN,0.158196126059553,0.079467633628574,NaN,0.127255822570315,NaN,-1.6719051242471,0.871117492028268,NaN,NaN,1.05525689366449,0.0123816687107057,0.427835291137655,-0.265459526278567,0.251073999055217,1.37615106060648,0.394084049238207,1.30308955971478,0.346348547423407,-0.110693539008021,-0.110693539008327,NaN,NaN,0.193662663806125,NaN,-0.414707486387242,0.58178767522059,0.100260521781624,-0.268959844064419,-0.268959844064372,1.28381039431613,-1.2838103943174,-0.887999765890477
361.0624,-0.764921438714257,-0.325386569366953,-0.770738268484728,-1.64564340286047,0.616005391356878,0.616005391356721,NaN,-2.17481810637881,-0.992910661151092,-0.435687624773589,0.776329912896858,-0.435687624773771,0.037657467284352,NaN,-0.445788380019561,NaN,NaN,0.960006475874517,NaN,0.145969570971092,0.0494520912554074,NaN,0.144626577128103,NaN,-1.68533644899373,0.874547964732258,NaN,NaN,1.07016125841484,0.0106070951548899,0.382922655112254,-0.234791479625351,0.231068068153886,1.36883946921692,0.399585502919576,1.30000020243205,0.311443616488387,-0.139340030442004,-0.13934003044246,NaN,NaN,0.215112095714987,NaN,-0.404433213336245,0.598471781118045,0.0605620066862158,-0.229298676454074,-0.229298676454039,1.26959790182274,-1.26959790182402,-0.916005184388478
361.1648,-0.741771227035599,-0.311825781834222,-0.74591662962145,-1.65089171140281,0.608983166823822,0.608983166823678,NaN,-2.16820464053939,-0.979619181601923,-0.395849759372265,0.753385684746743,-0.395849759372436,0.0416268426324835,NaN,-0.426547865547863,NaN,NaN,0.973581137067582,NaN,0.133458243830811,0.0196802000607816,NaN,0.16172405744546,NaN,-1.69919586719867,0.877267471686434,NaN,NaN,1.08408416816334,0.00904619049846423,0.338095984449546,-0.203990822510396,0.211534197209258,1.36149741535204,0.405184777282942,1.29693578302014,0.277988415626259,-0.167267006869466,-0.167267006870066,NaN,NaN,0.237295621711165,NaN,-0.394141930977889,0.616129969282983,0.0203994908536157,-0.190052569610214,-0.190052569610193,1.25543360905905,-1.25543360906035,-0.944229855124709
361.2672,-0.719448169106914,-0.298011526601331,-0.721684645203306,-1.65576227678851,0.601731250837113,0.60173125083698,NaN,-2.16035957009862,-0.965650151995522,-0.354897734688561,0.731510938373751,-0.354897734688724,0.0464514438641119,NaN,-0.405950682435953,NaN,NaN,0.986771711015354,NaN,0.120675621206769,-0.00981615985478868,NaN,0.178538068271978,NaN,-1.71351694989299,0.879283934129252,NaN,NaN,1.09701546334387,0.00768841088506876,0.293369764469078,-0.173046608318059,0.192526084892385,1.35419998088181,0.410865253916617,1.29394815465409,0.245909638577978,-0.194388569700736,-0.194388569701463,NaN,NaN,0.260171396861182,NaN,-0.383894437998787,0.634719602617025,-0.0201848985235568,-0.151259978120098,-0.151259978120085,1.24129204307075,-1.24129204307205,-0.972690255975488
361.3696,-0.697957081092689,-0.283956840883419,-0.698051593522604,-1.66022209087845,0.594272300635573,0.59427230063545,NaN,-2.15125662992921,-0.950975758607246,-0.312903443792908,0.710703970658164,-0.312903443793059,0.0521081775418478,NaN,-0.384016459690322,NaN,NaN,0.999490138469752,NaN,0.107637197996436,-0.0390090190137103,NaN,0.195059051639686,NaN,-1.7283296168237,0.880603572601615,NaN,NaN,1.10894768334685,0.00652384202094417,0.248758503059975,-0.141949827649716,0.174093082534027,1.3470190378438,0.41660940698292,1.29108613702861,0.215132610091927,-0.220621976202487,-0.220621976203345,NaN,NaN,0.283695008797915,NaN,-0.373751032366051,0.65419256920519,-0.0611477843090376,-0.112958422475532,-0.112958422475534,1.22714761251765,-1.22714761251896,-1.00140160637763
361.472,-0.677299918443328,-0.269675753328202,-0.675024759789781,-1.66423681086472,0.58663055478222,0.586630554782106,NaN,-2.14086972716779,-0.935566404014042,-0.269941291706914,0.690959562880484,-0.269941291707056,0.0585712017498574,NaN,-0.360771380605075,NaN,NaN,1.01164893313697,NaN,0.0943603974453139,-0.0678745643927452,NaN,0.211277948611571,NaN,-1.74365987243744,0.881230609266077,NaN,NaN,1.1198759891556,0.00554318814168935,0.204276877323228,-0.110693593029295,0.156280067689916,1.3400225024535,0.422398682648345,1.28839485694858,0.185582169987714,-0.245888263293527,-0.245888263294511,NaN,NaN,0.307819868865732,NaN,-0.363771246460328,0.674495600341917,-0.102444552224921,-0.0751843008649596,-0.0751843008649783,1.21297460482171,-1.21297460482302,-1.03037774854406
361.5744,-0.65747596723884,-0.255183242770366,-0.65260957953995,-1.6677709349911,0.578831640665511,0.578831640665407,NaN,-2.12917344595888,-0.919391257184821,-0.226087840632902,0.672269263501455,-0.226087840633033,0.0658119219064331,NaN,-0.336248089723751,NaN,NaN,1.02316186201775,NaN,0.080864423650964,-0.0963933041359142,NaN,0.227186042306884,NaN,-1.75952957359746,0.881167043757451,NaN,NaN,1.12979809498881,0.00473777497002436,0.159939848144974,-0.0792732807851701,0.139127350866947,1.33327364047083,0.428213380417204,1.28591513108629,0.157183564075461,-0.270112871875852,-0.270112871876949,NaN,NaN,0.332497634339143,NaN,-0.35401360815536,0.695570628887064,-0.14402935052639,-0.0379727234928333,-0.0379727234928681,1.19874719083333,-1.19874719083465,-1.0596310043264
361.6768,-0.638482030552088,-0.240495202654962,-0.630809780157503,-1.67078801958725,0.570902391983051,0.570902391982957,NaN,-2.11614355294979,-0.902418834574672,-0.181421467922143,0.654621675195485,-0.181421467922264,0.073798976328051,NaN,-0.310485556300119,NaN,NaN,1.03394464320645,NaN,0.0671700656259665,-0.12455016160488,NaN,0.242774773625495,NaN,-1.77595622220148,0.880412516486983,NaN,NaN,1.13871420684309,0.00409956447311523,0.115762751228431,-0.0476866385394798,0.122670613295511,1.32683043308815,0.434032545386167,1.28368290281091,0.129863326412968,-0.2932262629801,-0.293226262981318,NaN,NaN,0.357678646192921,NaN,-0.344535431821638,0.717355179762767,-0.185855074032726,-0.0013573810057422,-0.0013573810057941,1.18443943471244,-1.18443943471377,-1.08917200625221
361.7792,-0.620312611908438,-0.225628410586796,-0.609627522036942,-1.67325092111872,0.562870676119228,0.562870676119142,NaN,-2.101757481337,-0.884617582520199,-0.136022057187505,0.638002745668071,-0.136022057187617,0.0824982193213879,NaN,-0.283528907308923,NaN,NaN,1.04391563498391,NaN,0.0532994763831478,-0.152334512557577,NaN,0.258035532418385,NaN,-1.79295276964838,0.878964262110993,NaN,NaN,1.14662696411843,0.00362117116783431,0.0717613855324848,-0.0159338757267486,0.106940878009953,1.32074500436051,0.439833883853047,1.28172874018568,0.103550124386146,-0.315164508794993,-0.315164508796318,NaN,NaN,0.38331235693113,NaN,-0.335392636552906,0.73978277666777,-0.227873337321882,0.0346295439147243,0.0346295439146609,1.17002530811547,-1.17002530811681,-1.11900950972226
361.8816,-0.602960099452559,-0.210600496590202,-0.589063539815686,-1.6751220486263,0.554765228786499,0.554765228786417,NaN,-2.08599478307562,-0.86595644131338,-0.0899707272786363,0.622396062822593,-0.0899707272787387,0.0918727235863572,NaN,-0.255429230750338,NaN,NaN,1.05299649289814,NaN,0.0392759502730817,-0.179740176358319,NaN,0.272959442034,NaN,-1.81052742238613,0.876817141527013,NaN,NaN,1.15354137882478,0.00329586989041741,0.027952125689461,0.0159822412600036,0.0919645182434727,1.3150631052667,0.445593714171806,1.28007739719512,0.0781755343213196,-0.335869841832318,-0.335869841833745,NaN,NaN,0.409347726836155,NaN,-0.326639582058052,0.762783350547971,-0.270034448802344,0.0699574222811847,0.0699574222811077,1.15547871018168,-1.15547871018303,-1.14915020257277
361.984,-0.586414951141617,-0.195429901948192,-0.569117280671191,-1.67636362151425,0.546615492588856,0.546615492588781,NaN,-2.06883754811358,-0.846405382048822,-0.0433495859345152,0.607783155359317,-0.0433495859346082,0.101882826158573,NaN,-0.226243338054653,NaN,NaN,1.06111278427989,NaN,0.0251237086290778,-0.206765361005272,NaN,0.287537158472039,NaN,-1.82868344779609,0.873963732823966,NaN,NaN,1.15946476274777,0.0031175897881591,-0.0156479267608886,0.0480562783286989,0.0777633078517241,1.30982364766324,0.451286958770154,1.27874743578263,0.0536747174962215,-0.355291152465871,-0.355291152467394,NaN,NaN,0.435733578481272,NaN,-0.31832891452344,0.78628363883155,-0.312287396350749,0.104597186902553,0.104597186902461,1.14077349653672,-1.14077349653807,-1.17959852908277
362.0864,-0.570665879010912,-0.1801358256687,-0.54978703685929,-1.67693793429343,0.538451455655239,0.538451455655168,NaN,-2.05027078383799,-0.825935903689531,0.00375850960954323,0.594143802420883,0.00375850960945881,0.112486230236464,NaN,-0.196033475010509,NaN,NaN,1.06819456151049,NaN,0.0108676948300023,-0.233412551301558,NaN,0.301758694486797,NaN,-1.84741899245652,0.87039446630523,NaN,NaN,1.16440662914937,0.00308089527657258,-0.0590207549757112,0.08028001117056,0.0643545191218491,1.30505828677386,0.45688717732538,1.2777509076071,0.0299869707436823,-0.373384430583656,-0.373384430585269,NaN,NaN,0.462418909273728,NaN,-0.310511421910082,0.81020756981568,-0.354579846591752,0.138521306533968,0.138521306533863,1.12588351882333,-1.1258835188247,-1.21035654051585
362.1888,-0.555700031003814,-0.164738162735293,-0.531070072906893,-1.67680763273335,0.530303489290025,0.530303489289959,NaN,-2.03028273618768,-0.804521467734436,0.05127019765871,0.581456354957792,0.0512701976586335,0.123638161738609,NaN,-0.164866979446168,NaN,NaN,1.07417690347186,NaN,-0.00346661974304844,-0.259688329031799,NaN,0.315613268689064,NaN,-1.86672693248554,0.866097800360592,NaN,NaN,1.16837856083125,0.00318096180924141,-0.1021472066774,0.11264229760022,0.0517510721932959,1.30079106092145,0.462366639145989,1.27709310151918,0.00705613482984486,-0.39011314783471,-0.390113147836422,NaN,NaN,0.489353167234793,NaN,-0.303235900627392,0.834476635760009,-0.396858154332263,0.171703731462253,0.171703731462134,1.1107826735027,-1.11078267350407,-1.24142377885462
362.2912,-0.541503169111872,-0.149257441294353,-0.512962749290584,-1.67593600600614,0.52220218891947,0.522202188919408,NaN,-2.0088651352995,-0.782137851901738,0.0991018677875686,0.569698065507798,0.0991018677875,0.135291573935649,NaN,-0.132815891613337,NaN,NaN,1.07900043530922,NaN,-0.0178534164147402,-0.28560312065736,NaN,0.329089178983656,NaN,-1.88659477203898,0.861060443706928,NaN,NaN,1.17139404826995,0.00341355780386301,-0.145006745686567,0.145128947784658,0.0399617361832361,1.29703810205216,0.467696433419388,1.27677236695221,-0.015169145139579,-0.405448577227219,-0.405448577229031,NaN,NaN,0.516486493121337,NaN,-0.296549033507194,0.859010262578995,-0.439067377821782,0.204119818332325,0.204119818332192,1.09544495930467,-1.09544495930605,-1.27279719329016
362.3936,-0.52805984263417,-0.133714764152679,-0.495460643769526,-1.67428729166352,0.514178224648585,0.514178224648526,NaN,-1.98601336260155,-0.758763422085734,0.14716992211803,0.558845417748108,0.147169922117969,0.147397389736371,NaN,-0.0999565284698171,NaN,NaN,1.08261182604405,NaN,-0.0322666961341846,-0.311170875956109,NaN,0.342173700171333,NaN,-1.90700459329157,0.85526762967295,NaN,NaN,1.17346830792405,0.0037750389123406,-0.187577185209854,0.177722599049223,0.0289913770646144,1.29380742539066,0.472846615443245,1.27678001896887,-0.0367353051120254,-0.419370049635506,-0.419370049637415,NaN,NaN,0.543769925757555,NaN,-0.290495277450192,0.883726178824858,-0.481151293975674,0.235746238514334,0.235746238514186,1.07984454341077,-1.07984454341216,-1.30447108152004
