time,S1-D1,S1-D8,S1-D9,S1-D15,S2-D1,S2-D2,S2-D3,S2-D9,S3-D1,S3-D2,S3-D16,S4-D2,S4-D3,S4-D5,S5-D3,S5-D4,S5-D5,S6-D2,S6-D5,S6-D17,S7-D6,S7-D7,S8-D6,S8-D7,S8-D18,S9-D3,S9-D4,S9-D9,S9-D11,S9-D19,S10-D8,S10-D9,S10-D10,S10-D11,S11-D8,S11-D10,S11-D20,S12-D10,S12-D11,S12-D12,S13-D4,S13-D11,S13-D12,S14-D10,S14-D12,S14-D21,S15-D13,S15-D14,S16-D13,S16-D14,S16-D22
344.9856,1.27193235944585,1.55130847346632,1.88036655335158,0.458962389518358,-0.508148218487748,-0.508148218485545,NaN,-0.739599271412367,-0.987287023975656,-0.621959902940511,-0.240077391470249,-0.62195990294017,0.654031376998869,NaN,1.00610752524957,NaN,NaN,0.966959342815393,NaN,1.0548874586807,-0.486393060179169,NaN,0.371547967169874,NaN,-0.391631965299873,0.681433655232885,NaN,NaN,-1.34701931498068,-0.402978436933369,0.195828592201549,1.209919504888,1.08880383719068,1.25072584632619,0.899787751250388,1.47191880595504,-0.102542405956372,-0.596160065506365,-0.596160065507603,NaN,NaN,0.382244213598503,NaN,0.303621358144812,1.12869454739887,-0.215897376253584,-1.79557207289414,-1.79557207289763,0.28170487322504,-0.281704873224401,0.167548096106732
345.088,1.2714631483956,1.57905691375114,1.89222075827581,0.49338961783064,-0.478794476765752,-0.478794476763588,NaN,-0.723026712918171,-1.0034454164475,-0.571196483987366,-0.216666588781988,-0.571196483987003,0.63432226950886,NaN,0.995621896100986,NaN,NaN,0.930452529584326,NaN,1.06393855222646,-0.495320997477896,NaN,0.383164444749875,NaN,-0.346075030798922,0.71134285038832,NaN,NaN,-1.33894074591642,-0.396654640532922,0.183747973472233,1.17677700345987,1.05575710922044,1.23318369936955,0.909443461137222,1.46376146467584,-0.0771519125355574,-0.59588549746987,-0.595885497471094,NaN,NaN,0.395709283664139,NaN,0.296027875830454,1.0904037186247,-0.216771544528364,-1.82336689362192,-1.8233668936254,0.28067800818141,-0.280678008180769,0.149534452507395
345.1904,1.2692658657292,1.60521883046559,1.90175114758919,0.526237099414714,-0.449746001823223,-0.449746001821092,NaN,-0.705603689813036,-1.01793975429105,-0.519020324886388,-0.193315324745222,-0.519020324885999,0.613808503558534,NaN,0.984264079494863,NaN,NaN,0.892991334496279,NaN,1.0717485124087,-0.504357932337794,NaN,0.394595270622116,NaN,-0.302788855956795,0.740843684145202,NaN,NaN,-1.32955774333509,-0.391044120153532,0.171445332482167,1.14406407422532,1.02295709597774,1.21300500950454,0.918620285295079,1.45329612525651,-0.0505371698737323,-0.595933366365668,-0.59593336636688,NaN,NaN,0.4096896589729,NaN,0.289148376754365,1.05253392520135,-0.215858342235882,-1.84814053746093,-1.84814053746442,0.278826962308145,-0.2788269623075,0.132624497611593
345.2928,1.26536013460463,1.62976469326945,1.90896304348754,0.55741922793478,-0.421026188517143,-0.421026188515046,NaN,-0.687341484608656,-1.03079660786101,-0.46552436102067,-0.170073549994691,-0.465524361020253,0.592536781454826,NaN,0.97207162919022,NaN,NaN,0.854624711255798,NaN,1.07829670009043,-0.51351171913351,NaN,0.405783484071193,NaN,-0.261812716798842,0.769903913135945,NaN,NaN,-1.31889273684167,-0.3861806477143,0.158979852236009,1.1118282615389,0.990471281225225,1.19030382490041,0.927313990127179,1.44060863860163,-0.0227292040964718,-0.596328951300039,-0.596328951301237,NaN,NaN,0.424177842912057,NaN,0.282972394893872,1.0150648310296,-0.213165682724669,-1.86993080675891,-1.8699308067624,0.276149476962759,-0.276149476962114,0.116813975498962
345.3952,1.25977134131169,1.65266953889007,1.91386919733128,0.586851374596313,-0.39265806316588,-0.392658063163804,NaN,-0.66825450109994,-1.04204785739765,-0.410810114928045,-0.146991336092199,-0.410810114927602,0.570557199023197,NaN,0.959085033534089,NaN,NaN,0.815405627182049,NaN,1.08356450706598,-0.522790538195339,NaN,0.416673727417792,NaN,-0.223176231061264,0.798490356253165,NaN,NaN,-1.30697360035244,-0.382095990713837,0.14641474120563,1.08011650288215,0.958368580736052,1.16520359815329,0.935521970439976,1.4257930434273,0.00623362244942554,-0.597097293322661,-0.597097293323846,NaN,NaN,0.439166521657198,NaN,0.277488169922739,0.977976180729417,-0.208707193819196,-1.88878593473445,-1.88878593473794,0.272644964986225,-0.27264496498558,0.102095921088977
345.4976,1.2525304018071,1.67391291529432,1.91648954592612,0.614450085951695,-0.364664356363033,-0.364664356360979,NaN,-0.648360293774496,-1.05173052986817,-0.354987160156826,-0.12411885078073,-0.354987160156359,0.547922893386715,NaN,0.945347378086516,NaN,NaN,0.775390745086587,NaN,1.08753536986065,-0.532202862893592,NaN,0.427212298068709,NaN,-0.186899379429116,0.826568952835308,NaN,NaN,-1.29383345005285,-0.378819773065619,0.133816995925628,1.04897479797596,0.92671895633629,1.13783644624797,0.943243126645673,1.4089509249537,0.0363057815510752,-0.598263096239581,-0.59826309624075,NaN,NaN,0.454648538885374,NaN,0.272682615760019,0.941247950232972,-0.202502002462338,-1.90476421255671,-1.90476421256021,0.268314559574709,-0.268314559574066,0.0884608843469639
345.6,1.24367349918612,1.69347882712651,1.91685094110398,0.640133281521249,-0.33706755588477,-0.337067555882746,NaN,-0.627679589883249,-1.05988662441277,-0.298172525027254,-0.101506302395156,-0.298172525026761,0.524689673705104,NaN,0.930903999265594,NaN,NaN,0.734640071229018,NaN,1.09019481014433,-0.541757405106703,NaN,0.437347176649087,NaN,-0.152992590652967,0.854104850300184,NaN,NaN,-1.27951041148154,-0.376379350492767,0.121257114247919,1.01844789814816,0.895593022933468,1.10834238412156,0.950477744201497,1.39019075443058,0.0674347808713114,-0.599850629863082,-0.599850629864238,NaN,NaN,0.470616870338995,NaN,0.268541267244417,0.904860463569331,-0.194574499962601,-1.9179335796099,-1.9179335796134,0.263161165775472,-0.263161165774832,0.0758971711224298
345.7024,1.23324179881535,1.71135568052333,1.91498685807464,0.663820451240964,-0.309889943874708,-0.309889943872711,NaN,-0.606236296098912,-1.06656293040559,-0.240490046966901,-0.0792038613633044,-0.240490046966383,0.500915642616996,NaN,0.915802135446198,NaN,NaN,0.693216578370342,NaN,1.09153050441957,-0.551463046912266,NaN,0.447028032444428,NaN,-0.121456885769829,0.881062515061286,NaN,NaN,-1.26404736246723,-0.374799702323062,0.108808764173604,0.988579022938535,0.865061656631726,1.07686853230992,0.957227375866039,1.36962721019317,0.0995614017966205,-0.601883636969662,-0.601883636970801,NaN,NaN,0.48706459151941,NaN,0.265048225899422,0.868794483770912,-0.184954088138053,-1.92837117719554,-1.92837117719905,0.257189508130335,-0.257189508129697,0.064391090122154
345.8048,1.22128114731539,1.72753621521285,1.91093708299496,0.685432849164956,-0.283153627841685,-0.283153627839714,NaN,-0.58405749015553,-1.07181083893807,-0.182069689185848,-0.0572615731076448,-0.182069689185309,0.476660817589331,NaN,0.900090582129721,NaN,NaN,0.651185817927464,NaN,1.09153237798752,-0.56132876749575,NaN,0.456206208788836,NaN,-0.0922840726811256,0.90740585456209,NaN,NaN,-1.24749166007812,-0.374103342220326,0.0965484168171946,0.959409597703097,0.835195602908052,1.04356830235888,0.963494724837307,1.34738048201198,0.132619972470623,-0.604385235736852,-0.604385235737977,NaN,NaN,0.503984834516388,NaN,0.262186129530859,0.833031297597613,-0.173674907184368,-1.93616286206035,-1.93616286206387,0.250406167813278,-0.250406167812641,0.0539271981708817
345.9072,1.20784176185565,1.74201741243116,1.90474738073694,0.704893680053924,-0.256880569912164,-0.256880569910218,NaN,-0.561173401903416,-1.07568614306474,-0.123046831040825,-0.0357292787113803,-0.123046831040264,0.451986760166529,NaN,0.883819357216994,NaN,NaN,0.60861553770722,NaN,1.09019271479458,-0.571363567112525,NaN,0.464834693596619,NaN,-0.0654569865959158,0.933098341151077,NaN,NaN,-1.22989485489753,-0.374310252775089,0.0845549456076133,0.930978999964017,0.806065075783494,1.00860056379465,0.969283527706041,1.3235755610737,0.166538674475797,-0.60737780302298,-0.607377803024091,NaN,NaN,0.521370735641727,NaN,0.259936160356186,0.797552811467732,-0.160775544279724,-1.94140267856967,-1.94140267857319,0.242819603021935,-0.242819603021301,0.0444885420011313
346.0096,1.19297791407414,1.75480038131668,1.89646914807836,0.722128281732616,-0.231092604243181,-0.231092604241257,NaN,-0.537617377740635,-1.07824881857759,-0.0635615383795698,-0.0146565473521784,-0.063561538378985,0.426956215020257,NaN,0.867039379285727,NaN,NaN,0.565575313216402,NaN,1.08750627416779,-0.581576383867615,NaN,0.472868085932831,NaN,-0.0409497764942331,0.958103141389949,NaN,NaN,-1.21131238785305,-0.375437846774249,0.0729091832980121,0.903324307609739,0.777739338276569,0.972128793446646,0.974598439722587,1.29834151760742,0.201239886450366,-0.610882830305748,-0.610882830306846,NaN,NaN,0.539215378269184,NaN,0.258278085632755,0.762341659308436,-0.146298723096853,-1.94419229477291,-1.94419229477644,0.234440150115621,-0.234440150114988,0.0360568975682024
346.112,1.17674760738029,1.76589024000124,1.88615905833713,0.737064309601156,-0.205811424076521,-0.205811424074618,NaN,-0.513425810433503,-1.07956278116657,-0.00375781670464405,0.00590739413333497,-0.00375781670403598,0.401632753014143,NaN,0.849802156264023,NaN,NaN,0.522136183791409,NaN,1.08347040855307,-0.591975999346018,NaN,0.480262572514808,NaN,-0.0187282383076211,0.98238326422777,NaN,NaN,-1.19180326254882,-0.377500952413214,0.0616934273854853,0.876480057114366,0.750286266347344,0.934320211393237,0.979444928130284,1.27181077268462,0.236640566002377,-0.614920759547838,-0.614920759548922,NaN,NaN,0.557511734944016,NaN,0.257190314086614,0.727381309276393,-0.130290979091377,-1.94464041371981,-1.94464041372335,0.22528000877975,-0.225280008779118,0.0286130065631859
346.2144,1.15921224141643,1.77529600613695,1.87387869814165,0.749631926704161,-0.181058527683515,-0.181058527681625,NaN,-0.488638021722506,-1.07969562253228,0.0562171472319194,0.0259137521655983,0.056217147232545,0.376080408230286,NaN,0.832159476617709,NaN,NaN,0.478370275789249,NaN,1.07808518245198,-0.602570933604438,NaN,0.486975923924132,NaN,0.00124980656741347,1.00590173856762,NaN,NaN,-1.17142969094025,-0.380511816577505,0.0509908946087633,0.850478027999414,0.723771909992194,0.895344914425945,0.983829178120806,1.24411837517503,0.272652663713564,-0.61951081674984,-0.619510816750909,NaN,NaN,0.576252611603276,NaN,0.25664995748868,0.692656158352106,-0.112802327691415,-1.9428621728624,-1.94286217286595,0.215353217023305,-0.215353217022674,0.0221368083706939
346.3168,1.14043625787232,1.78303049989362,1.85969419223583,0.759763997433804,-0.156855126628808,-0.15685512662693,NaN,-0.463296104469307,-1.07871832718009,0.116213745721776,0.0453142772561389,0.116213745722417,0.350363301050981,NaN,0.814163095148736,NaN,NaN,0.434350402425176,NaN,1.07135349438208,-0.613369335474418,NaN,0.492967513083055,NaN,0.0190340920963137,1.02862182214086,NaN,NaN,-1.15025671403659,-0.384480121522836,0.0408851340087755,0.825347060142616,0.69826006146989,0.855375016793319,0.987758011355424,1.21540129137794,0.309183561282417,-0.624670858301931,-0.624670858302987,NaN,NaN,0.595430595482863,NaN,0.256632894490999,0.658151614353022,-0.0938859301777698,-1.93897853904999,-1.93897853905354,0.204675620402475,-0.204675620401843,0.0166076674781622
346.4192,1.12048676699666,1.78911025392792,1.84367581326749,0.767396280081295,-0.133222027159122,-0.133222027157257,NaN,-0.437444745416297,-1.07670496739459,0.176080700669466,0.0640613754368572,0.176080700670124,0.324545246967407,NaN,0.795864411767449,NaN,NaN,0.390149644256699,NaN,1.06328119912268,-0.624378875072972,NaN,0.498198353183812,NaN,0.034681454081749,1.05050723731179,NaN,NaN,-1.1283518002788,-0.389413014355426,0.0314594082036213,0.801112900714973,0.673811832642182,0.81458380183005,0.991238814356603,1.185797708607,0.346136529862387,-0.630417235549443,-0.630417235550487,NaN,NaN,0.615038008421105,NaN,0.257113835482811,0.623854169612235,-0.0735977570625909,-1.93311570061627,-1.93311570061982,0.193264837385749,-0.193264837385117,0.0120045988748047
346.5216,1.09943316040487,1.79355542254995,1.82589757836734,0.772467614830668,-0.11017949556185,-0.11017949556,NaN,-0.41113104805244,-1.073732375513,0.235665790742903,0.0821082001334821,0.23566579074358,0.298689360324977,NaN,0.777314150009543,NaN,NaN,0.345840925213536,NaN,1.05387722560256,-0.635606638959544,NaN,0.502631151474946,NaN,0.0482553469088952,1.07152242401831,NaN,NaN,-1.10578442731879,-0.395315152873244,0.0227960496453454,0.777798081981816,0.650485245691315,0.77314488704994,0.994279474580728,1.15544635349609,0.383411207092777,-0.636764673831484,-0.636764673832515,NaN,NaN,0.63506686651976,NaN,0.258066391510089,0.589751470046393,-0.0519962446286693,-1.92540445663181,-1.92540445663537,0.181140220645748,-0.181140220645115,0.00830649238118255
346.624,1.07734672097546,1.79638968312198,1.80643683955554,0.774920106662706,-0.0877471158260394,-0.0877471158242016,NaN,-0.384404361120461,-1.06987979708896,0.294816541672545,0.0994087164487636,0.294816541673239,0.272857668428264,NaN,0.75856204745642,NaN,NaN,0.301496602939868,NaN,1.04315368955816,-0.647059022302411,NaN,0.506230377562981,NaN,0.0598253340198021,1.09163279636365,NaN,NaN,-1.08262565593135,-0.402188771617879,0.0149758000621893,0.755421836746946,0.628334846723894,0.731231408777866,0.996888322884488,1.12448582900403,0.420904092921143,-0.64372615653313,-0.643726156534149,NaN,NaN,0.655508841201251,NaN,0.259463157564955,0.555832383766537,-0.0291419410177221,-1.91597960367062,-1.91597960367418,0.168322812472818,-0.168322812472181,0.0054923315676721
346.7264,1.05430024116768,1.79764012653381,1.78537387720738,0.774699305219758,-0.0659436440140186,-0.065943644012195,NaN,-0.357316104920299,-1.0652285281206,0.353380874560776,0.11591774097961,0.353380874561484,0.247110749677575,NaN,0.739656569588663,NaN,NaN,0.257188087571877,NaN,1.03112600260926,-0.658741614897678,NaN,0.508962344075725,NaN,0.0694665573558191,1.11080499326321,NaN,NaN,-1.05894770226518,-0.410033767254279,0.00807714357794598,0.734000051178467,0.607411347079027,0.689015233130538,0.999074082011893,1.09305397517696,0.458509066297965,-0.651312805466396,-0.651312805467402,NaN,NaN,0.676355212346477,NaN,0.261275816413769,0.522087070605782,-0.00509714391169328,-1.90497931892326,-1.90497931892682,0.154835291864658,-0.154835291864018,0.00354139899557201
346.8288,1.03036765326263,1.7973371405272,1.76279150153461,0.771754386780929,-0.0447868573221765,-0.0447868573203691,NaN,-0.329919585768101,-1.05986153438842,0.411207720379372,0.131590967569155,0.411207720380098,0.221507400162002,NaN,0.720644652445419,NaN,NaN,0.212985491472678,NaN,1.01781297880374,-0.670659085707726,NaN,0.51079529467114,NaN,0.0772591921164301,1.12900712554702,NaN,NaN,-1.03482350808174,-0.418847797026524,0.00217563927090797,0.713545241679748,0.587761284138917,0.64666619743535,1.00084582311666,1.06128725796105,0.496117922309482,-0.659533754854052,-0.659533754855046,NaN,NaN,0.697596811326595,NaN,0.263475253919524,0.488507046159757,0.0200744630054809,-1.89254453475156,-1.89254453475513,0.140701911317733,-0.140701911317089,0.00243346134871082
346.9312,1.00562366311203,1.79551429513984,1.73877465829594,0.766038344801971,-0.0242933892349374,-0.024293389233152,NaN,-0.302269795336186,-1.05386304917154,0.468147616217859,0.146384993852681,0.468147616218598,0.19610432196521,NaN,0.70157147051827,NaN,NaN,0.168957299837522,NaN,1.00323693965816,-0.68281507746319,NaN,0.51169949773482,NaN,0.083287891253946,1.14620903282538,NaN,NaN,-1.01032630416702,-0.428626383186508,-0.00265674805318426,0.694066537562912,0.569426686053881,0.604351384347923,1.00221293540346,1.02932019066395,0.533620923784443,-0.668396022526438,-0.668396022527421,NaN,NaN,0.719223961797659,NaN,0.266031669644998,0.455085229236092,0.0463081680918639,-1.87881829725282,-1.8788182972564,0.125948422427574,-0.125948422426926,0.00214893447377859
347.0336,0.980143376077321,1.79220823913264,1.71341003204854,0.757508193518254,-0.00447854183833171,-0.00447854183656448,NaN,-0.274423193667162,-1.04731815073201,0.524053294833281,0.160257362188089,0.524053294834035,0.17095582282036,NaN,0.682480221613359,NaN,NaN,0.125170047521571,NaN,0.987423818966509,-0.695212125315341,NaN,0.51164735171977,NaN,0.0876412215683662,1.16238256226868,NaN,NaN,-0.985529164117401,-0.439363019203916,-0.00635231747736741,0.675569660768473,0.552444733851847,0.562234430959281,1.00318511449624,0.997284792981079,0.570907360883181,-0.677904386825372,-0.677904386826344,NaN,NaN,0.741226423429125,NaN,0.2689146714694,0.42181596287309,0.0735385812975766,-1.86394510443529,-1.86394510443887,0.110601990962429,-0.110601990961779,0.00266903142014906
347.136,0.954001915540698,1.78745861130605,1.68678564902905,0.746125186257782,0.0146439255792655,0.0146439255810164,NaN,-0.246437469594379,-1.04031232599532,0.578780271080343,0.173166623603561,0.578780271081112,0.146113525204849,NaN,0.663411925971836,NaN,NaN,0.0816879946592468,NaN,0.970403269312574,-0.707851606846149,NaN,0.510613508471168,NaN,0.0904110922475825,1.17750186940786,NaN,NaN,-0.960504551845667,-0.451049275715634,-0.00884828866479166,0.658056909832054,0.536847433240122,0.520474875418785,1.00377237079619,0.965310090248553,0.607866115991403,-0.688061280321605,-0.688061280322566,NaN,NaN,0.763593333083167,NaN,0.272093346674186,0.388695002099093,0.101699972191121,-1.84807022721526,-1.84807022721884,0.094691105198369,-0.0946911051977156,0.0039758932150546
347.2384,0.927274047157493,1.78130796350497,1.65899049059849,0.731855046806088,0.0330620214821969,0.033062021483938,NaN,-0.218371270707461,-1.03293102764294,0.632187426497841,0.18507242754671,0.63218742649862,0.121626093492773,NaN,0.644405245578355,NaN,NaN,0.0385728037906813,NaN,0.952208773898145,-0.720733717507135,NaN,0.508575010380335,NaN,0.0916921778627379,1.19154372971313,NaN,NaN,-0.935323870253552,-0.463674904609374,-0.0100874232350199,0.641527162281701,0.522661318502472,0.479227543471621,1.00398505192234,0.933521651467094,0.644386232655957,-0.698866710896702,-0.698866710897654,NaN,NaN,0.786313135697682,NaN,0.275536303732539,0.355719466775848,0.130726589855307,-1.83133902546365,-1.83133902546724,0.0782454851192527,-0.0782454851185952,0.0060527000090332
347.3408,0.900033822629967,1.77380168417592,1.63011412524265,0.714668208682064,0.050765743771802,0.0507657437735325,NaN,-0.19028390306529,-1.02525923170681,0.684137595832529,0.19593563138659,0.684137595833312,0.0975389897421646,NaN,0.625496331041339,NaN,NaN,-0.00411677341243512,NaN,0.932877765702631,-0.733857457568429,NaN,0.505511425123821,NaN,0.0915813408573656,1.20448784544306,NaN,NaN,-0.910057018918417,-0.477227940686429,-0.0100185903305231,0.625975902108985,0.509907203785237,0.438641976527218,1.00383386891383,0.902041161561687,0.680357487092043,-0.710318216050003,-0.710318216050946,NaN,NaN,0.809373504482245,NaN,0.279211687143574,0.322887766918273,0.160552958279235,-1.81389627604596,-1.81389627604955,0.0612960003716072,-0.0612960003709502,0.00888376339702118
347.4432,0.872354250105503,1.76498790758168,1.60024635919052,0.694540055997244,0.067747283267778,0.0677472832694995,NaN,-0.162235010490655,-1.01738100271805,0.734498159344289,0.205718417228418,0.734498159345074,0.0738942647994092,NaN,0.606718699729564,NaN,NaN,-0.0463251892575824,NaN,0.912451750238185,-0.747220618842913,NaN,0.501404961511854,NaN,0.0901770611842658,1.21631713408478,NaN,NaN,-0.884771967110346,-0.491694802317714,-0.00859726473238033,0.611395266856026,0.498599982868934,0.398861902077471,1.00332991736503,0.87098602356126,0.715670964054897,-0.722410848128781,-0.722410848129717,NaN,NaN,0.832761255969427,NaN,0.283087177507447,0.29019951546617,0.191114146559605,-1.79588552352733,-1.79588552353094,0.0438746009662204,-0.0438746009655639,0.0124546043047208
347.5456,0.844306993396816,1.75491739944946,1.56947690362582,0.671451161244583,0.0840012038092174,0.0840012038109344,NaN,-0.134284242919498,-1.00937907113275,0.783141639828016,0.214384410351708,0.783141639828806,0.0507303874216237,NaN,0.588103145972384,NaN,NaN,-0.0880003636420411,NaN,0.890976423177688,-0.760819766850083,NaN,0.496240562951334,NaN,0.0875788805016626,1.22701799148771,NaN,NaN,-0.859534345187715,-0.507060393264156,-0.005785953938309,0.597774103916141,0.488748470592587,0.360024748261847,1.0024846901149,0.84046899019451,0.750219642104665,-0.735137182573432,-0.73513718257436,NaN,NaN,0.856462264447425,NaN,0.287129988867715,0.257655442474595,0.222346018138711,-1.77744845346786,-1.77744845347147,0.0260142602474571,-0.0260142602468047,0.016752021135324
347.648,0.815962099539812,1.74364342191429,1.53789505930484,0.645387518991661,0.0995246056769712,0.0995246056786846,NaN,-0.106490912908324,-1.0013344234345,0.829946297918804,0.221898809509159,0.829946297919595,0.0280821106365358,NaN,0.569677682499105,NaN,NaN,-0.12909391688867,NaN,0.868501774413488,-0.774650220054566,NaN,0.490005986488273,NaN,0.0838868639953619,1.23658053166612,NaN,NaN,-0.83440705348412,-0.523308205889219,-0.00155455528097747,0.585098029942912,0.480355280393634,0.322261206173669,1.00131008326208,0.810597828675469,0.783898988448395,-0.748487343147197,-0.748487343148119,NaN,NaN,0.880461376285272,NaN,0.291306863469791,0.225257314468164,0.254185462869143,-1.7587242868841,-1.75872428688772,0.00774892588033363,-0.00774892587968599,0.0217641498420651
347.7504,0.787387752067134,1.73122158821883,1.50558942075641,0.616340777663054,0.114317284207924,0.114317284209646,NaN,-0.078913633587708,-0.993325903684034,0.874796717708239,0.228228544491636,0.874796717709032,0.00598037079507596,NaN,0.55146750975619,NaN,NaN,-0.169561380431948,NaN,0.845082177398396,-0.788706029287809,NaN,0.482691875469986,NaN,0.0792010771222053,1.24499881009258,NaN,NaN,-0.809449886284555,-0.540420422678403,0.00411935359761537,0.573349494700222,0.473416737468551,0.285694841957365,0.999818398235808,0.781475021794831,0.81660755593165,-0.762449045043857,-0.762449045044775,NaN,NaN,0.904742325297544,NaN,0.295584054000297,0.193007850735625,0.286570612168648,-1.73984920174733,-1.73984920175097,-0.010886527102737,0.0108865271033771,0.0274805136337593
347.8528,0.758650045816102,1.71770971558331,1.47264759986979,0.584308470356541,0.128381890645595,0.128381890647328,NaN,-0.0516099395469387,-0.985429826722378,0.917584375278564,0.233342461024558,0.917584375279351,-0.0155477882443673,NaN,0.533495006720083,NaN,NaN,-0.209362396163714,NaN,0.820776468428758,-0.802979960277311,NaN,0.474291828408719,NaN,0.0736210729810231,1.25227103647189,NaN,NaN,-0.784719169442932,-0.55837801192005,0.011250283237807,0.56250785386095,0.467922827577576,0.250441755275364,0.998022340376549,0.753197502924825,0.84824757472113,-0.777007660499771,-0.777007660500686,NaN,NaN,0.929287656526423,NaN,0.299927287538888,0.160910624957389,0.319441036058396,-1.72095578982176,-1.72095578982541,-0.0298563454317897,0.0298563454324233,0.0338920586746001
347.9552,0.72981277729427,1.70316768160144,1.43915596563741,0.549294241819601,0.14172409603971,0.141724096041451,NaN,-0.0246359030645775,-0.977719600023724,0.958208181662785,0.2372115133659,0.958208181663564,-0.0364792728748695,NaN,0.515779737261061,NaN,NaN,-0.2484609054682,NaN,0.795648011986524,-0.817463482059358,NaN,0.464802463179747,NaN,0.0672453875052421,1.25839978173283,NaN,NaN,-0.76026741091457,-0.577160816160171,0.0198446411321471,0.552549452143094,0.463857173670904,0.216610277645663,0.995935015332191,0.725856420642271,0.878725531393977,-0.792146302935301,-0.792146302936211,NaN,NaN,0.95407866782986,NaN,0.304301717957644,0.128969948930214,0.352737921585231,-1.70217254871375,-1.7021725487174,-0.0491239527491098,0.0491239527497373,0.040991171188265
348.0576,0.700937242951739,1.68765729177404,1.4051993962487,0.511308068242352,0.154352759028686,0.154352759030443,NaN,0.00195424141395179,-0.97026534400624,0.996574990018169,0.239808940691782,0.99657499001894,-0.0567949821007899,NaN,0.498338471001387,NaN,NaN,-0.286825314255602,NaN,0.769764732422153,-0.832146761592929,NaN,0.454223476222842,NaN,0.0601710400691993,1.26339218452255,NaN,NaN,-0.736142964095952,-0.596747635569651,0.0299005526259765,0.543447713011344,0.461197023732474,0.184300707400282,0.993569929882645,0.699536934162891,0.907952721486093,-0.807845909872693,-0.807845909873598,NaN,NaN,0.97909537020631,NaN,0.308671880863216,0.0971907476634866,0.386404231256626,-1.68362339871371,-1.68362339871738,-0.0686520179976439,0.0686520179982647,0.0487716670394527
348.16,0.672082039920949,1.6712421656708,1.37086104175172,0.470366469314673,0.166280098916067,0.166280098917847,NaN,0.0281084583454245,-0.963133501849928,1.03260005877103,0.241110414909977,1.03260005877179,-0.0764798318164868,NaN,0.481185222486107,NaN,NaN,-0.324428613978984,NaN,0.743199090076762,-0.847018661082325,NaN,0.442557699749587,NaN,0.0524930401179052,1.26726015975059,NaN,NaN,-0.712389706227232,-0.617116308470507,0.0414076739131233,0.535173228852704,0.459913235221568,0.153605082379907,0.990941006028499,0.674318045402602,0.935845761362605,-0.824085301090339,-0.82408530109124,NaN,NaN,1.00431645669498,NaN,0.313001662253678,0.0655784408572994,0.420384838657037,-1.66542721195989,-1.66542721196358,-0.0884025447486704,0.0884025447492835,0.057228742188373
348.2624,0.643302871020889,1.65398764053401,1.33622209844268,0.426492714830551,0.177521869812305,0.177521869814102,NaN,0.053777257550846,-0.956386440858178,1.06620746853636,0.24109416220432,1.06620746853711,-0.0955227549036259,NaN,0.46433131362901,NaN,NaN,-0.361248444557487,NaN,0.716027991789565,-0.862066733186742,NaN,0.429811161053405,NaN,0.0443039073325938,1.27002060321084,NaN,NaN,-0.689046737022184,-0.638243787485131,0.0543470009529308,0.527693846314549,0.459970253580151,0.124606990497411,0.988062611464066,0.650272469517657,0.962327057525155,-0.840841201520468,-0.840841201521365,NaN,NaN,1.02971926703158,NaN,0.317254283565633,0.0341388405852462,0.454626640332911,-1.64769734642807,-1.64769734643176,-0.108336984875184,0.108336984875784,0.0663588766396154
348.3648,0.614652361853225,1.63596068169138,1.30136159761412,0.379717029906368,0.188097525300124,0.188097525301947,NaN,0.0789140298112413,-0.950082054001854,1.09733049781805,0.239741067964457,1.09733049781879,-0.113916671741487,NaN,0.447785461719457,NaN,NaN,-0.397267095194291,NaN,0.688332631773358,-0.877277211925625,NaN,0.415993142523504,NaN,0.0356932153131879,1.27169557946833,NaN,NaN,-0.666148103091188,-0.660106206008775,0.0686906943833935,0.520974740831315,0.461326089523827,0.0973814123752686,0.984949600965885,0.627466536375045,0.987325241057134,-0.858088232954675,-0.858088232955568,NaN,NaN,1.05527974263313,NaN,0.321392301228488,0.00287806402838964,0.489078646141327,-1.63054118318371,-1.63054118318741,-0.128416378407222,0.128416378407809,0.0761596903700437
348.4672,0.586179895693866,1.61722978969387,1.26635620954381,0.330076802656826,0.198030364574752,0.198030364576602,NaN,0.10347537571355,-0.944273365200997,1.12591196900504,0.2370347752526,1.12591196900578,-0.131658430887279,NaN,0.431553891057249,NaN,NaN,-0.432471447075464,NaN,0.660198253214379,-0.892635001274988,NaN,0.401116231694734,NaN,0.0267471636518426,1.27231248394228,NaN,NaN,-0.643722551208799,-0.682678929997582,0.084401936203006,0.514978469116432,0.463932293454002,0.0719945865418739,0.981617360425259,0.605960110955938,1.01077557170203,-0.875798882278283,-0.875798882279174,NaN,NaN,1.08097237654173,NaN,0.325377620437185,-0.0281975493264766,0.523692048309465,-1.61405966818239,-1.61405966818609,-0.148601523658668,0.148601523659241,0.0866297506946284
348.5696,0.557931463612143,1.5978649025661,1.23128005960122,0.277616794531714,0.207347658324921,0.207347658326804,NaN,0.127421426603784,-0.939008134763176,1.15190457875106,0.23296178676747,1.15190457875179,-0.148748724705115,NaN,0.415640463846612,NaN,NaN,-0.46685286693684,NaN,0.631713821691348,-0.908123663616479,NaN,0.385196346264068,NaN,0.0175481768142163,1.27190418055364,NaN,NaN,-0.621793310922306,-0.705936595151661,0.101434823588443,0.509664984953402,0.467733917506562,0.0485038931008661,0.978081849830637,0.585806527460603,1.03262030646779,-0.893943448372525,-0.893943448373415,NaN,NaN,1.10677016712467,NaN,0.329171524428069,-0.0590815280856352,0.558420264336696,-1.59834685888677,-1.59834685889048,-0.168853178558275,0.168853178558834,0.0977683316575574
348.672,0.529949523549038,1.57793729524731,1.19620455151265,0.222389347444577,0.216080756416188,0.216080756418104,NaN,0.150716148953857,-0.93432846427467,1.17527122128701,0.227511578951008,1.17527122128772,-0.165191984073277,NaN,0.400046826798334,NaN,NaN,-0.50040706038304,NaN,0.602971623256142,-0.923725405901371,NaN,0.368252725805481,NaN,0.00817452568724539,1.27050911915392,NaN,NaN,-0.600377907254163,-0.729853136337725,0.119734304999631,0.504991612330241,0.472669462811091,0.0269577642018793,0.974359645230585,0.567052543574609,1.05280902236249,-0.912489966689414,-0.912489966690304,NaN,NaN,1.13264458051705,NaN,0.332734720114623,-0.0897673683936896,0.593218950044033,-1.58348947741419,-1.58348947741791,-0.189132281980696,0.189132281981239,0.109575136387709
348.7744,0.502272868342484,1.55751947249139,1.1611981961204,0.164454578118575,0.224265175684167,0.224265175686115,NaN,0.173327620468467,-0.930270411237425,1.19598530186412,0.220676730085152,1.19598530186482,-0.180996252233245,NaN,0.384772570895664,NaN,NaN,-0.533133889729993,NaN,0.574066827768113,-0.939421062389724,NaN,0.350307894366971,NaN,-0.00130003051181407,1.26817142782236,NaN,NaN,-0.5794880071552,-0.754401818701904,0.139236169802943,0.500912987705412,0.478670827040868,0.00739563937737338,0.970467976357955,0.549738327009843,1.07129888487587,-0.931404118715447,-0.931404118716335,NaN,NaN,1.1585655216076,NaN,0.336027399463352,-0.120248630955259,0.628045986877916,-1.5695664813684,-1.56956648137211,-0.209400173337156,0.209400173337682,0.122050005968356
348.8768,0.474936510983436,1.53668504593413,1.126326449289,0.103880551069727,0.231940660839365,0.231940660841347,NaN,0.195228269896461,-0.926863631204348,1.21403102845736,0.212453055408277,1.21403102845804,-0.196173036492041,NaN,0.369815400571144,NaN,NaN,-0.565037159312515,NaN,0.545097062581708,-0.955190082231674,NaN,0.331387603940891,NaN,-0.0108065806546472,1.26494096585021,NaN,NaN,-0.559129306376267,-0.779555276022103,0.159867103636748,0.497380994983991,0.485663277505409,-0.0101520166084579,0.96642475158594,0.533897483301533,1.088054858768,-0.950649144643401,-0.950649144644289,NaN,NaN,1.1845013137175,NaN,0.339009313760782,-0.150519024647049,0.662861451349976,-1.5566486730105,-1.55664867301422,-0.229618791230961,0.229618791231467,0.1351926365371
348.9792,0.447971597585674,1.51550858838047,1.09165156571326,0.0407434223041204,0.239151210982999,0.239151210985017,NaN,0.216395077072477,-0.924131063543173,1.22940366658637,0.202839738636778,1.22940366658703,-0.210737135861875,NaN,0.355171309930622,NaN,NaN,-0.596124371057046,NaN,0.516162019276476,-0.971010533473838,NaN,0.31152076563145,NaN,-0.0202813720953288,1.26087332298598,NaN,NaN,-0.539301464557584,-0.805285557010458,0.181544815436132,0.494344714895831,0.493565470460048,-0.0256636252900057,0.962248562800572,0.519557126977062,1.10304986342598,-0.970185774075014,-0.970185774075902,NaN,NaN,1.21041868999109,NaN,0.341639858405829,-0.180572473246242,0.697627570991329,-1.54479836479057,-1.5447983647943,-0.249750844275587,0.249750844276075,0.149002312231998
349.0816,0.421405355441014,1.49406546384376,1.0572324748921,-0.0248724570782449,0.24594506695388,0.245945066955934,NaN,0.236809730477725,-0.922088669743696,1.24210974164523,0.191839450080758,1.24210974164586,-0.224706439471482,NaN,0.3408347696176,NaN,NaN,-0.626406449026462,NaN,0.487363089403147,-0.986859125624228,NaN,0.290739370997737,NaN,-0.0296660891468832,1.25602975565542,NaN,NaN,-0.519998094312903,-0.83156418034045,0.204178232659081,0.491750399654364,0.502289523918938,-0.0391263383027605,0.957958668066795,0.506737992668586,1.116264881602,-0.989972171624712,-0.989972171625602,NaN,NaN,1.23628279907101,NaN,0.343878168411598,-0.210403159481672,0.732308668526906,-1.53406910604028,-1.53406910604402,-0.269759956501609,0.269759956502078,0.163477653269118
349.184,0.395261078797738,1.47243163429068,1.02312468216484,-0.0928744860814772,0.252374657567635,0.252374657569725,NaN,0.256458740909184,-0.920745225321678,1.25216717505788,0.17945844339681,1.25216717505848,-0.238101690535183,NaN,0.326798929840504,NaN,NaN,-0.655897427157784,NaN,0.458803010764355,-1.00271124558521,NaN,0.26907840494048,NaN,-0.0389080941951974,1.25047705590492,NaN,NaN,-0.501206804542593,-0.85836220033033,0.227667754023345,0.489541473433409,0.511741139284942,-0.0505358234328149,0.953574953305251,0.495454579135615,1.12768903480996,-1.00996388260625,-1.00996388260714,NaN,NaN,1.26205722499388,NaN,0.345683223986697,-0.240005535052461,0.766871098189503,-1.52450546472203,-1.52450546472577,-0.289610792591502,0.289610792591951,0.178616379675389
349.2864,0.369558152011215,1.45068344459904,0.9893801951486,-0.163161802798412,0.258496506572658,0.258496506574788,NaN,0.275333516798904,-0.9201021613285,1.25960534694043,0.165706627598948,1.259605346941,-0.250946217410556,NaN,0.313055838595135,NaN,NaN,-0.68461409767041,NaN,0.430585505447781,-1.0185410043832,NaN,0.246575750658574,NaN,-0.0479606266002792,1.24428735328956,NaN,NaN,-0.482909292320244,-0.885650280179145,0.251905550481454,0.487658555896618,0.521819765074574,-0.0598960047399294,0.949117873855768,0.485715317539901,1.13731963611282,-1.03011377230861,-1.0301137723095,NaN,NaN,1.2877040171118,NaN,0.347013961756907,-0.269374294163042,0.801283179893691,-1.51614285721762,-1.51614285722136,-0.30926917031127,0.309269170311697,0.194415090971366
349.3888,0.344312110085641,1.42889738894998,0.956047477021855,-0.235625301710867,0.264371105785786,0.264371105787951,NaN,0.293430413288374,-0.92015345223069,1.26446508439821,0.150597616472414,1.26446508439874,-0.263265640514596,NaN,0.299596666654474,NaN,NaN,-0.712575628076306,NaN,0.402814901709242,-1.03432129639844,NaN,0.223272083214413,NaN,-0.0567829540924579,1.23753785416821,NaN,NaN,-0.465081476242562,-0.913398762183235,0.276775916562942,0.486039509090549,0.532418804014989,-0.0672187625531088,0.944608376669326,0.477522759902573,1.14516221924654,-1.05037197149798,-1.05037197149888,NaN,NaN,1.31318372043932,NaN,0.347829384247747,-0.298504325399162,0.835515133237521,-1.50900742572522,-1.50900742572895,-0.328702168166857,0.328702168167266,0.210869057975942
349.4912,0.319534736384533,1.40714986446009,0.923171429017733,-0.310147673800127,0.270062760279804,0.27006276028201,NaN,0.31075076419535,-0.920885552512756,1.26679857473165,0.134148758170441,1.26679857473213,-0.27508756536964,NaN,0.286411929934226,NaN,NaN,-0.739803162052962,NaN,0.375595745713441,-1.05002387525418,NaN,0.199210744227818,NaN,-0.0653404727280663,1.23031052513796,NaN,NaN,-0.447693667806839,-0.941577724895438,0.302155684211618,0.484619510665927,0.543425871768358,-0.0725235873008881,0.940067807027864,0.470873794600067,1.15123052985914,-1.07068584868057,-1.07068584868148,NaN,NaN,1.33845539761962,NaN,0.348088661016176,-0.32739065969676,0.869539006779063,-1.50311597019185,-1.50311597019557,-0.347878230742328,0.347878230742718,0.227972023073106
349.5936,0.295234192386535,1.38551691874648,0.890793400286906,-0.386603482706908,0.275639408894563,0.275639408896808,NaN,0.327300895993631,-0.922277387350078,1.26666919926503,0.116381144480066,1.26666919926547,-0.286441268683791,NaN,0.273491704312306,NaN,NaN,-0.76631941588803,NaN,0.349032414959294,-1.06561945176139,NaN,0.174437591677197,NaN,-0.0736047559685334,1.22269172655112,NaN,NaN,-0.430710781950668,-0.970157026053204,0.327914708236902,0.483331153122958,0.554723111407995,-0.0758371758907571,0.935517807083815,0.465759901716622,1.1555464621707,-1.09100001665412,-1.09100001665503,NaN,NaN,1.36347664280234,NaN,0.347751220183357,-0.35602841911987,0.903328596576135,-1.4984759431098,-1.49847594311353,-0.366767267304451,0.366767267304822,0.245716011754031
349.696,0.271415170534264,1.36407399507714,0.85895121835126,-0.464859293516497,0.281172418944815,0.281172418947104,NaN,0.34309211477226,-0.924300399910362,1.26415128287842,0.0973195968024492,1.26415128287882,-0.29735738090694,NaN,0.260825831477914,NaN,NaN,-0.792148274291565,NaN,0.323228739375056,-1.08107781726648,NaN,0.149000824126436,NaN,-0.0815535580043068,1.21477179908422,NaN,NaN,-0.414092589771853,-0.999106337199133,0.353916422797068,0.482104564630394,0.56618755970762,-0.0771929687038183,0.930980211036841,0.462167452449917,1.15813993191622,-1.1112563670621,-1.11125636706302,NaN,NaN,1.38820359409046,NaN,0.346776835939856,-0.384412763438118,0.936859353349744,-1.4950855110696,-1.49508551107333,-0.385340740121249,0.385340740121605,0.264091160916265
349.7984,0.248079065711389,1.3428956734669,0.827679235234002,-0.54477385747939,0.286736349413135,0.286736349415471,NaN,0.358140656118118,-0.926918655926565,1.25932975668072,0.076992625854589,1.25932975668107,-0.30786756684478,NaN,0.248404114409458,NaN,NaN,-0.817314386774275,NaN,0.298287624754143,-1.09636799282097,NaN,0.122950783416177,NaN,-0.0891707769305943,1.20664460201816,NaN,NaN,-0.397794016667483,-1.02839517455066,0.380018466162537,0.480867550059492,0.577691562806423,-0.0766306399738466,0.926476934021925,0.460078041051848,1.15904868548472,-1.13139413133612,-1.13139413133704,NaN,NaN,1.41259094997823,NaN,0.345125722438061,-0.412538836902763,0.970108282287105,-1.49293368324804,-1.49293368325177,-0.403571746827229,0.40357174682757,0.283085561637916
349.9008,0.225224167343631,1.32205540335361,0.797008389203981,-0.626198347502417,0.292408675984416,0.292408675986801,NaN,0.37246759222663,-0.930089007992094,1.25229973351955,0.0554323631617412,1.25229973351985,-0.318004204585718,NaN,0.236216500796372,NaN,NaN,-0.841842767049295,NaN,0.274310666807581,-1.11145840472585,NaN,0.0963397427629566,NaN,-0.0964463782361465,1.19840699902649,NaN,NaN,-0.381765489146112,-1.05799292536474,0.406073376324263,0.47954575509907,0.589103244837076,-0.0741955594077169,0.922029847436354,0.459468831414113,1.15831805292998,-1.15134997505516,-1.15134997505609,NaN,NaN,1.43659199464573,NaN,0.342758645539301,-0.440401722154489,1.00305383845839,-1.49200050457391,-1.49200050457764,-0.421435105631517,0.421435105631846,0.302685107517051
350.0032,0.202845872156126,1.30162522532585,0.766966281044235,-0.708976648633035,0.298269475293863,0.298269475296298,NaN,0.386098692519117,-0.933761321938936,1.2431659986345,0.032674462286312,1.24316599863476,-0.327800064364175,NaN,0.224253252637006,NaN,NaN,-0.865758398893341,NaN,0.251397746348938,-1.12631708841789,NaN,0.0692216855661288,NaN,-0.103376273123702,1.19015829096542,NaN,NaN,-0.36595333092279,-1.08786886882307,0.431929361048312,0.478062850523742,0.600287028836694,-0.0699382362799629,0.917660637472771,0.46031290779707,1.15600065648326,-1.17105812832937,-1.17105812833031,NaN,NaN,1.46015864063829,NaN,0.339637060640948,-0.467996403992039,1.03567581921332,-1.49225730785004,-1.49225730785378,-0.438907448324395,0.438907448324711,0.32287334689943
350.1056,0.180936909948051,1.28167548384795,0.737577258541661,-0.792945721621892,0.30440107256443,0.304401072566917,NaN,0.399064233752292,-0.937878764157634,1.23204242139958,0.00875796833553005,1.23204242139978,-0.337287994437101,NaN,0.212505098091179,NaN,NaN,-0.889085853380284,NaN,0.229646598084188,-1.14091192131105,NaN,0.0416520743874313,NaN,-0.109962147444169,1.18199960460581,NaN,NaN,-0.350300202641824,-1.11799219595325,0.457431139018809,0.476340723548792,0.611104197585908,-0.0639137480008637,0.913390651567922,0.462579630795259,1.15215608056722,-1.19045054591538,-1.19045054591632,NaN,NaN,1.48324149939135,NaN,0.335723278954455,-0.495317742901223,1.06795525755633,-1.49366701895484,-1.49366701895858,-0.455967322506434,0.455967322506738,0.343631349347018
350.208,0.159487572341933,1.26227453757988,0.7088625027012,-0.877936054426492,0.310887662301109,0.310887662303649,NaN,0.411398759654627,-0.942378147022831,1.21905129621651,-0.0162748400309633,1.21905129621667,-0.346500623894175,NaN,0.200963360668282,NaN,NaN,-0.911848923664806,NaN,0.20915234555875,-1.15521087897103,NaN,0.0136876094769313,NaN,-0.116211243695434,1.17403325285262,NaN,NaN,-0.334745575125614,-1.1483320349724,0.482420842309681,0.474299665741166,0.621413481035593,-0.0561811493445156,0.909240741947487,0.466235006635918,1.14685049709502,-1.20945708877123,-1.20945708877217,NaN,NaN,1.50578998594922,NaN,0.330980657357609,-0.522360463800949,1.0998743214474,-1.49618451267313,-1.49618451267687,-0.472595304999084,0.472595304999376,0.364937597836032
350.3104,0.138485942632505,1.24348847676384,0.680840118122384,-0.963772195269116,0.317814909873795,0.317814909876395,NaN,0.423140793551748,-0.947190330757539,1.20432261899667,-0.042378625223906,1.20432261899678,-0.355470085806325,NaN,0.189620066686909,NaN,NaN,-0.934070281014686,NaN,0.190007005655265,-1.16918229936551,NaN,-0.0146140131615182,NaN,-0.122136099127212,1.16636208091614,NaN,NaN,-0.319226226963016,-1.17885748090777,0.506738968683035,0.471858566533883,0.631071672242881,-0.04680285839119,0.905231113050068,0.47124207666514,1.14015623391041,-1.22800572377303,-1.22800572377397,NaN,NaN,1.52775245430025,NaN,0.325373800705468,-0.549119169991385,1.13141621670249,-1.49975701650476,-1.4997570165085,-0.488774122408444,0.488774122408725,0.386767911524545
350.4128,0.117918135785117,1.22538085719112,0.653525240242009,-1.05027334402861,0.325269534077552,0.325269534080207,NaN,0.434332504746022,-0.952240680248544,1.18799330244237,-0.0695051719433563,1.18799330244242,-0.364227754722223,NaN,0.178468040060566,NaN,NaN,-0.95577115133103,NaN,0.172298983803215,-1.18279513482322,NaN,-0.0431943249223495,NaN,-0.127754237867621,1.15908880827011,NaN,NaN,-0.303676759334193,-1.20953761981739,0.530225369979699,0.468935139849246,0.639934287844532,-0.035844022406314,0.901381174087678,0.477561325233831,1.13215127919003,-1.24602274631656,-1.24602274631751,NaN,NaN,1.54907634720219,NaN,0.318868765324652,-0.575588389160545,1.162565082768,-1.50432455746593,-1.50432455746967,-0.504488762733489,0.504488762733762,0.40909540091801
350.5152,0.0977685586762235,1.20801245834331,0.626930172274074,-1.13725398480237,0.333338867577769,0.333338867580479,NaN,0.445019328497922,-0.957449574283909,1.17020633365825,-0.097603571888262,1.17020633365826,-0.372803991642801,NaN,0.167500993660425,NaN,NaN,-0.976971010616467,NaN,0.156112585738902,-1.19601917986788,NaN,-0.0719942758702328,NaN,-0.133087817159317,1.15231537309337,NaN,NaN,-0.288030121459477,-1.24034153988449,0.552720260150459,0.465446208859493,0.647856285755859,-0.0233718764463042,0.897709396065638,0.485151095709767,1.12291872282601,-1.2634330348969,-1.26343303489785,NaN,NaN,1.56970833709566,NaN,0.311433257951307,-0.601762654155566,1.19330587141309,-1.50982045103883,-1.50982045104258,-0.519726560838399,0.519726560838661,0.431890456754377
350.6176,0.0780201941673006,1.19144107082144,0.601064557481292,-1.22452456145992,0.342110395460074,0.342110395462838,NaN,0.455249543542569,-0.962732963143481,1.15110988246374,-0.126620415001771,1.15110988246369,-0.381227894071122,NaN,0.156713621780665,NaN,NaN,-0.997687299137007,NaN,0.141527562020133,-1.20882528018474,NaN,-0.100954397125764,NaN,-0.13816323415723,1.14614228465873,NaN,NaN,-0.272218141777404,-1.27123833008497,0.574065228233106,0.461308056885006,0.654692839624227,-0.00945511101677531,0.894233174452837,0.493968002654448,1.11254614283708,-1.28016034280496,-1.28016034280592,NaN,NaN,1.58959444293354,NaN,0.303036829272367,-0.627636617546695,1.22362420453378,-1.51617183724292,-1.51617183724666,-0.534477250963582,0.534477250963834,0.455120771526604
350.72,0.0586549100149386,1.17572131429651,0.575935588265141,-1.31189220643579,0.351671272787867,0.351671272790685,NaN,0.465073811380806,-0.968002966092198,1.13085637174553,-0.156499994158019,1.13085637174543,-0.389527048853292,NaN,0.14610169762927,NaN,NaN,-1.01793515290001,NaN,0.128618692325715,-1.22118553491783,NaN,-0.130014946083949,NaN,-0.143010695202842,1.14066798751676,NaN,NaN,-0.256172063234155,-1.30219706972571,0.594104245373682,0.456436841452522,0.660300162359339,0.00583673877058916,0.890968698557959,0.503967331128423,1.10112495011993,-1.29612762400578,-1.29612762400674,NaN,NaN,1.60868012981752,NaN,0.293651065010259,-0.653205188712722,1.25350621123239,-1.5233002629896,-1.52330026299334,-0.548732984352583,0.548732984352827,0.478751392794755
350.8224,0.0396537941316978,1.16090448120858,0.551548251380484,-1.39916152498991,0.362107818668753,0.362107818671624,NaN,0.474544678947161,-0.973168494466425,1.10960151801592,-0.187184531285695,1.10960151801577,-0.397727283764577,NaN,0.135662180018153,NaN,NaN,-1.03772715047532,NaN,0.117455412794205,-1.23307349437044,NaN,-0.159116044453662,NaN,-0.147663739447164,1.13598823762106,NaN,NaN,-0.239823082706982,-1.33318680815109,0.612684656335535,0.450749066835608,0.66453637030975,0.0224338751531422,0.887930824558704,0.515103415697517,1.08874970497085,-1.31125738592131,-1.31125738592228,NaN,NaN,1.62691041286209,NaN,0.28324978303724,-0.678463668921876,1.28293834803008,-1.5311222961947,-1.53112229619845,-0.562488308544932,0.562488308545166,0.502744811251587
350.9248,0.0209975141545199,1.14703839640616,0.527905603012638,-1.48613542537732,0.373504984324371,0.3735049843273,NaN,0.483716051155062,-0.978135885839792,1.08750334614346,-0.218614429090711,1.08750334614325,-0.405852416785722,NaN,0.125393328458892,NaN,NaN,-1.05707307684953,NaN,0.108101487805662,-1.24446434431161,NaN,-0.188197816772751,NaN,-0.152158709694997,1.13219548664316,NaN,NaN,-0.22310289443176,-1.3641765312245,0.629658148348329,0.444162107700416,0.66726237859106,0.0402667853561513,0.885132946194824,0.527329991583459,1.07551741608674,-1.32547206269273,-1.32547206269371,NaN,NaN,1.64422997948641,NaN,0.2718092457644,-0.703407857504358,1.31190720975026,-1.53955015123624,-1.53955015123999,-0.575740107417382,0.575740107417605,0.527061086068484
351.0272,0.00266669078181736,1.13416728211379,0.505009059129732,-1.57261598185208,0.385945796616805,0.385945796619783,NaN,0.492642646055955,-0.982809543853463,1.06472118307958,-0.250728546713707,1.06472118307933,-0.413924009130715,NaN,0.115294818095898,NaN,NaN,-1.07597971194473,NaN,0.100614727629488,-1.25533507290471,NaN,-0.21720053573975,NaN,-0.156534175213397,1.12937827114262,NaN,NaN,-0.205944237014436,-1.39513511367501,0.64488169502408,0.436594769995466,0.668342815077921,0.0592667513635784,0.882586860315867,0.540600513636633,1.06152683280771,-1.3386944045158,-1.33869440451677,NaN,NaN,1.66058333186777,NaN,0.259308387259141,-0.728034112006908,1.34039933804886,-1.54849230936938,-1.54849230937312,-0.588487506679848,0.58848750668006,0.551658003595195
351.1296,-0.0153577343729096,1.12233162072309,0.482858679727448,-1.65840532198671,0.399510780874975,0.399510780878007,NaN,0.501379440088572,-0.987092589207719,1.04141463928712,-0.283464495001169,1.04141463928682,-0.421961134517167,NaN,0.105367840601251,NaN,NaN,-1.09445065495049,NaN,0.0950467561159015,-1.26566462901455,NaN,-0.246064775464232,NaN,-0.160830323634728,1.12762060829145,NaN,NaN,-0.188281442401167,-1.42603126244757,0.658218473117737,0.42796787118884,0.667646937278123,0.0793663216956615,0.880302630868552,0.554868445043754,1.04687774053448,-1.35084787998272,-1.35084787998369,NaN,NaN,1.67591495113421,NaN,0.245729043341209,-0.752339353552361,1.3684010325146,-1.55785412337411,-1.55785412337786,-0.600731751642559,0.600731751642758,0.5764912613903
351.232,-0.033094156267439,1.11156801246445,0.461453427037314,-1.74330653262875,0.414277366751764,0.414277366754842,NaN,0.50998110316936,-0.990887529709822,1.01774258787035,-0.316758947246689,1.01774258787,-0.429980176997794,NaN,0.0956151787277049,NaN,NaN,-1.11248619294842,NaN,0.091442835238828,-1.27543408095627,NaN,-0.274731567352553,NaN,-0.165088344968602,1.12700140339687,NaN,NaN,-0.17005098353656,-1.45683346070689,0.669538745418349,0.418204825464887,0.665049537037517,0.100499746140234,0.87828845725008,0.570087519825126,1.03167026361165,-1.3618570899303,-1.36185708993128,NaN,NaN,1.69016948656445,NaN,0.231056170200831,-0.776321009888674,1.39589816928109,-1.56753840109891,-1.56753840110265,-0.61247606136238,0.612476061362567,0.601514672176086
351.3344,-0.0505599986831086,1.10190902801047,0.440791388879906,-1.82712457528999,0.430319279451917,0.430319279455036,NaN,0.518501425294501,-0.994096952558713,0.993862149672296,-0.350547962374605,0.993862149671904,-0.437994661442947,NaN,0.0860412506808542,NaN,NaN,-1.13008321525816,NaN,0.0898417515690274,-1.28462677147883,NaN,-0.303142552526791,NaN,-0.169349827194652,1.12759387262623,NaN,NaN,-0.151192018716872,-1.48750992044946,0.67872070530631,0.407232227011372,0.660431825286014,0.122603372288893,0.876550549747413,0.586211979757507,1.01600417498904,-1.37164819254925,-1.37164819255023,NaN,NaN,1.70329196502976,NaN,0.215278041800245,-0.799976890680759,1.42287602960339,-1.57744596791777,-1.57744596792151,-0.623725459371154,0.623725459371327,0.626680383820966
351.4368,-0.0677714387521042,1.09338305601528,0.42086996950125,-1.9096672004549,0.447705915700217,0.447705915703372,NaN,0.526992739633764,-0.996624238772337,0.969927690763454,-0.384767321209481,0.969927690763018,-0.446015111646902,NaN,0.0766521288701864,NaN,NaN,-1.14723517016079,NaN,0.0902757631228694,-1.29322845561162,NaN,-0.331240128970003,NaN,-0.173656173036937,1.12946498061521,NaN,NaN,-0.131646934262092,-1.51802854618416,0.685651287949209,0.39498042866608,0.653682296964413,0.145616000691086,0.875093011417046,0.60319678289543,0.999978212483305,-1.38014933864683,-1.38014933864782,NaN,NaN,1.71522800979023,NaN,0.198386423871467,-0.823304994738601,1.44931913503395,-1.58747620933881,-1.58747620934253,-0.634486580779658,0.634486580779818,0.651939106962305
351.5392,-0.0847431579912568,1.08601414424221,0.401686052706057,-1.99074585977445,0.466501702233714,0.466501702236905,NaN,0.535505344057201,-0.998374298183904,0.946089837228091,-0.41935288212811,0.946089837227616,-0.45404892817213,NaN,0.0674555401217222,NaN,NaN,-1.16393206027945,NaN,0.0927706003994085,-1.30122741060331,NaN,-0.358967595648584,NaN,-0.178048038838339,1.13267489163247,NaN,NaN,-0.111361887677463,-1.54835691026758,0.69022695534438,0.381384112699331,0.644697576939178,0.169479195201007,0.873917726024054,0.620997780827731,0.983689405675079,-1.38729111217842,-1.3872911121794,NaN,NaN,1.72592406304649,NaN,0.18037672824672,-0.8463032496453,1.47521108574767,-1.5975275908521,-1.59752759085582,-0.644767458808085,0.644767458808234,0.677240340821838
351.6416,-0.101488117901026,1.07982183315351,0.383236138609641,-2.07017662692216,0.486765438775079,0.486765438778305,NaN,0.544086920913336,-0.999254317847083,0.922494512006327,-0.45424096193235,0.922494512005809,-0.462100280654516,NaN,0.058460852769655,NaN,NaN,-1.18016047176669,NaN,0.0973455201421806,-1.30861451359719,NaN,-0.386269296631384,NaN,-0.182564793370016,1.13727643547469,NaN,NaN,-0.0902873492134742,-1.57846224337317,0.692354451424903,0.36638284790226,0.633383240296486,0.194137546213399,0.873024253582209,0.639571863751338,0.967232421192987,-1.39300696580268,-1.39300696580367,NaN,NaN,1.73532761186757,NaN,0.161248153804705,-0.868969179627648,1.50053440680267,-1.60749814646163,-1.60749814646534,-0.654577298038749,0.654577298038884,0.702532594021145
351.744,-0.118017360130822,1.07482098348088,0.365516454680428,-2.14778113270845,0.508549635310118,0.50854963531337,NaN,0.552781958904511,-0.999174507708155,0.899282001582895,-0.489368735337203,0.899282001582339,-0.470170012166129,NaN,0.0496790547579599,NaN,NaN,-1.19590362701698,NaN,0.104013417270415,-1.31538328669394,NaN,-0.413090765800987,NaN,-0.187243995346279,1.14331459335375,NaN,NaN,-0.0683786341230901,-1.60831144322121,0.691951511646089,0.349921624275331,0.619654592382202,0.219538884217529,0.872409735004647,0.658877072219852,0.950698935369276,-1.39723363752581,-1.3972336375268,NaN,NaN,1.74338741307657,NaN,0.141003821486472,-0.89129949993142,1.52527041381849,-1.61728592543584,-1.61728592543955,-0.663926245947621,0.663926245947745,0.727763600517813
351.8464,-0.134339825885346,1.07102160292742,0.348523048350027,-2.22338749295594,0.531899859465294,0.53189985946857,NaN,0.561631187695318,-0.998048821980171,0.87658606310596,-0.524674629856593,0.876586063105369,-0.478255553154647,NaN,0.0411227276654646,NaN,NaN,-1.21114144447959,NaN,0.112780991705836,-1.32152991130113,NaN,-0.439378870039739,NaN,-0.192120891166383,1.15082601118028,NaN,NaN,-0.0455964132965117,-1.6378710964076,0.688947513373366,0.331951357382478,0.603437395501625,0.245634436470008,0.872068804297949,0.678872669119252,0.934177043467934,-1.3999115357682,-1.39991153576919,NaN,NaN,1.75005370768527,NaN,0.119650909550451,-0.913289656550232,1.5493991085564,-1.62678939352977,-1.62678939353347,-0.672825176726957,0.672825176727069,0.752880529214876
351.9488,-0.150462182320872,1.06842867950926,0.332251876008739,-2.2968311805743,0.556854111690382,0.556854111693686,NaN,0.570671042548692,-0.99579563806198,0.854533080455934,-0.560098686363777,0.854533080455307,-0.486350841809827,NaN,0.0328060215442116,NaN,NaN,-1.22585059096757,NaN,0.123648944179236,-1.32705321474921,NaN,-0.465081949352355,NaN,-0.197227938373983,1.15983854573022,NaN,NaN,-0.0219071882097216,-1.66710749895464,0.683284068166679,0.312429361546598,0.584668542126602,0.272378915111566,0.871993503091298,0.699519159919736,0.917750713520811,-1.40098508851727,-1.40098508851826,NaN,NaN,1.75527841755282,NaN,0.0972007887652973,-0.934933356184698,1.57289910999288,-1.63590779730162,-1.63590779730532,-0.681285497998315,0.681285497998416,0.77783018804736
352.0512,-0.16638864633504,1.06704202870556,0.316698900563843,-2.36795579504681,0.583442243140059,0.583442243143386,NaN,0.579933178621869,-0.992338387115914,0.833241272634936,-0.595582866430765,0.833241272634278,-0.494446251079942,NaN,0.0247446311801595,NaN,NaN,-1.24000452644353,NaN,0.136612165425708,-1.33195463314412,NaN,-0.490149956231799,NaN,-0.202594361787903,1.17037084652198,NaN,NaN,0.00271627972200735,-1.69598666109309,0.674915569507335,0.291319798019411,0.563296686150866,0.299730529948203,0.872173192586091,0.720778253204233,0.901499288621532,-1.40040306402537,-1.40040306402637,NaN,NaN,1.75901532306495,NaN,0.0736691464943295,-0.956222135000109,1.59574762134113,-1.64454150639278,-1.64454150639649,-0.689318980999588,0.689318980999677,0.80255922953723
352.1536,-0.182120808599458,1.06685615996176,0.301860197344877,-2.43661371381917,0.611685424461691,0.611685424465033,NaN,0.589444046696806,-0.987606142076187,0.812819956334343,-0.631071308896644,0.812819956333654,-0.502528529157035,NaN,0.0169557681949792,NaN,NaN,-1.25357355775078,NaN,0.151659897606172,-1.33623815841804,NaN,-0.514534600884057,NaN,-0.20824574645965,1.18243197840742,NaN,NaN,0.0282945882117071,-1.72447429199512,0.663809706345494,0.268594100535152,0.539282839153249,0.327650930288238,0.872594463257274,0.742612765056424,0.885497037916816,-1.39811887403736,-1.39811887403835,NaN,NaN,1.76122022622357,NaN,0.0490760788779514,-0.977144992163444,1.61792042780226,-1.65259234470982,-1.65259234471353,-0.696937605572024,0.6969376055721,0.827014366398611
352.256,-0.197657470076834,1.06786016690978,0.287732058806835,-2.50266664003449,0.64159566810733,0.641595668110683,NaN,0.599224528588153,-0.981534168275535,0.793368869865264,-0.666510551713661,0.793368869864541,-0.510580764643328,NaN,0.00945812043619834,NaN,NaN,-1.26652492062844,NaN,0.16877586596639,-1.33991028180667,NaN,-0.538189510372911,NaN,-0.214203671696916,1.1960210956212,NaN,NaN,0.054841362038994,-1.75253577273454,0.649947936151276,0.244231369883947,0.512600921760989,0.356105084418459,0.873241047515182,0.764986476867889,0.869812756028175,-1.39409086184784,-1.39409086184884,NaN,NaN,1.76185110680465,NaN,0.0234461313166164,-0.99768808994208,1.63939191513269,-1.65996391516845,-1.65996391517216,-0.7041534114145,0.704153411414562,0.851142599133159
352.3584,-0.212994500803194,1.0700376438073,0.274311089966046,-2.56598606575361,0.673175405671356,0.673175405674719,NaN,0.609289624451555,-0.974064431999751,0.7749775710137,-0.701849729743587,0.774977571012951,-0.518582385652399,NaN,0.00227179229707181,NaN,NaN,-1.27882289944376,NaN,0.187938386328276,-1.34297994339701,NaN,-0.561070405561882,NaN,-0.220485396597834,1.21112717907693,NaN,NaN,0.0823629727716857,-1.78013613146554,0.63332589586596,0.218218727616187,0.48323825161891,0.385061100661132,0.874093740339962,0.787863952423192,0.854509409074952,-1.38828256875306,-1.38828256875405,NaN,NaN,1.76086827656858,NaN,-0.00319171821320249,-1.01783451425017,1.66013510043035,-1.66656191889623,-1.66656191889994,-0.710978355849291,0.710978355849334,0.874891447995338
352.4608,-0.228124721149711,1.07336662771419,0.26159429415392,-2.62645365676563,0.706417122904993,0.706417122908356,NaN,0.619648189315323,-0.965146055059109,0.757724918056061,-0.737040744727719,0.757724918055282,-0.526509193943403,NaN,-0.00458177429041126,NaN,NaN,-1.29042898168444,NaN,0.209120452909337,-1.34545848842737,NaN,-0.583135292127112,NaN,-0.227103610695813,1.2277288414208,NaN,NaN,0.110858314057436,-1.80724003068374,0.613953728986125,0.190551628668189,0.451195957350297,0.414489990393604,0.875130329414821,0.81121031541382,0.839643822138322,-1.3806629718084,-1.38066297180939,NaN,NaN,1.75823452649691,NaN,-0.0308041250824086,-1.03756409330515,1.6801216756119,-1.67229446741141,-1.67229446741511,-0.717424187076701,0.717424187076729,0.898209178227519
352.5632,-0.243037799751299,1.07781956304872,0.249579153053402,-2.68396155544651,0.741303055191161,0.741303055194527,NaN,0.630302722848486,-0.95473570398507,0.741678633767614,-0.772038399081321,0.741678633766812,-0.534333427887178,NaN,-0.0110798938535187,NaN,NaN,-1.30130203668073,NaN,0.232289809741078,-1.34735962383718,NaN,-0.604344658321791,NaN,-0.234066256641225,1.24579419475703,NaN,NaN,0.140318633431687,-1.83381176814451,0.591856320903163,0.16123413798639,0.416489318905445,0.444365375151354,0.87632553305948,0.834990988069378,0.82526640492594,-1.37120668956084,-1.37120668956184,NaN,NaN,1.75391525543644,NaN,-0.0593534853393673,-1.05685327497148,1.69932207430642,-1.67707238458812,-1.67707238459182,-0.723502343496962,0.723502343496973,0.921045014134329
352.6656,-0.257720164848921,1.08336328346256,0.238263701827005,-2.73841260124737,0.777804944794109,0.777804944797477,NaN,0.641249217597191,-0.942797909077967,0.726894947619036,-0.806800494169979,0.726894947618218,-0.542023848694195,NaN,-0.0171987435149418,NaN,NaN,-1.3113985093693,NaN,0.257409009836674,-1.34869936869054,NaN,-0.624661675187547,NaN,-0.241376420002918,1.26528077249054,NaN,NaN,0.170727418252977,-1.85981528876911,0.567073446986107,0.130279170399106,0.37914803583322,0.474663143310762,0.877650943547776,0.859171393803404,0.811420922211301,-1.35989415584548,-1.35989415584648,NaN,NaN,1.74787857671715,NaN,-0.0887980819565396,-1.07567505909641,1.7177055738105,-1.68080949351981,-1.68080949352349,-0.729223884293462,0.729223884293453,0.943349346327239
352.768,-0.272154932771535,1.08995900803468,0.227646594512523,-2.78972047617635,0.815883860170027,0.815883860173392,NaN,0.652477069359242,-0.929305316863133,0.713418315367377,-0.841287899529118,0.713418315366538,-0.549545849150108,NaN,-0.0229134815419953,NaN,NaN,-1.32067262640008,NaN,0.284435466197222,-1.34949599496545,NaN,-0.644052397452205,NaN,-0.249032273932611,1.28613550206415,NaN,NaN,0.20206033288566,-1.88521420555423,0.539659838161963,0.097708686231952,0.33921641958611,0.505361064988598,0.879074977354059,0.883716631421038,0.798144322830418,-1.34671176145036,-1.34671176145135,NaN,NaN,1.74009541315144,NaN,-0.119092263347947,-1.09399897367105,1.73524043255784,-1.68342288290556,-1.68342288290923,-0.734599448957811,0.734599448957781,0.965073936141678
352.8704,-0.286321862391885,1.09756235512819,0.217727152881715,-2.83780978307218,0.855490078784393,0.85549007878775,NaN,0.663969052603831,-0.914238884531433,0.7012812203773,-0.875464590979154,0.701281220376443,-0.556861586367299,NaN,-0.0281983785641916,NaN,NaN,-1.3290766155928,NaN,0.313321496165704,-1.34976995371318,NaN,-0.662485960199308,NaN,-0.257027069406987,1.30829473356037,NaN,NaN,0.234285206928354,-1.90997182797759,0.509685163712066,0.0635538366705539,0.296753504793152,0.536438375892791,0.88056284041019,0.908591133722858,0.785466636050919,-1.33165196201294,-1.33165196201394,NaN,NaN,1.73053959331627,NaN,-0.150186637422612,-1.11179108433461,1.75189405256188,-1.68483315236459,-1.68483315236825,-0.739639237850165,0.739639237850115,0.986172114463636
352.9728,-0.300197345757414,1.10612338218103,0.208505392858107,-2.88261605997531,0.896563036743929,0.896563036747278,NaN,0.67570136314633,-0.89758802574344,0.690504060827477,-0.909297646438388,0.690504060826598,-0.563930140678582,NaN,-0.033026961591634,NaN,NaN,-1.336560939985,NaN,0.34401435666286,-1.34954378133764,NaN,-0.679934762611455,NaN,-0.265349168470277,1.33168433207711,NaN,NaN,0.267362076679513,-1.93405119502906,0.477233930061223,0.0278550582344169,0.251833078390908,0.567875339611455,0.88207651934832,0.933758323996155,0.773410935262691,-1.31471335472464,-1.31471335472564,NaN,NaN,1.71918795398869,NaN,-0.182028266401571,-1.12901403918263,1.76763315801469,-1.68496464365323,-1.68496464365689,-0.744353003953672,0.744353003953604,1.00659896971985
353.0752,-0.313754442618571,1.11558665856314,0.19998202441063,-2.92408573658703,0.939031348071902,0.939031348075241,NaN,0.687643727220541,-0.879350715878309,0.681095125126747,-0.942757193677048,0.681095125125851,-0.57070770263409,NaN,-0.0373721714358943,NaN,NaN,-1.34307454774422,NaN,0.376456266861251,-1.34884198919776,NaN,-0.696374631748099,NaN,-0.273982117389306,1.35621983887225,NaN,NaN,0.301243281269185,-1.9574151101214,0.442405296834449,-0.00933788371808223,0.204543627158181,0.599652795519504,0.883574806949378,0.959180280555153,0.761993367713023,-1.29590073162581,-1.29590073162681,NaN,NaN,1.70602044834631,NaN,-0.214560864358316,-1.14562715989502,1.78242398903367,-1.68374566590278,-1.68374566590644,-0.74875004806011,0.748750048060021,1.02631152356372
353.1776,-0.326962961154979,1.12589137361233,0.192158423701375,-2.96217604862952,0.982812893083357,0.982812893086692,NaN,0.699759568740217,-0.859533561331543,0.673050659738323,-0.975816317029721,0.673050659737408,-0.577147787025305,NaN,-0.0412065317450334,NaN,NaN,-1.34856513945833,NaN,0.410584422214887,-1.34769094663914,NaN,-0.711784965132763,NaN,-0.282904751527804,1.38180670314415,NaN,NaN,0.335873612693047,-1.98002617858139,0.405312812222942,-0.0479659070402497,0.154988200862468,0.631751699863023,0.885013364976092,0.984817416960506,0.751223252076187,-1.27522511269187,-1.27522511269287,NaN,NaN,1.69102026178544,NaN,-0.247725009849188,-1.16158658215397,1.7962325097782,-1.68110871673358,-1.68110871673723,-0.752839216148516,0.752839216148406,1.04526889617949
353.28,-0.339789582812372,1.13697147724115,0.18503657828953,-2.99685493013338,1.02781497213492,1.02781497213825,NaN,0.712006218827784,-0.838151831836465,0.666355036354132,-1.00845093590384,0.666355036353202,-0.583201469841334,NaN,-0.0445023252250297,NaN,NaN,-1.3529794530668,NaN,0.446331014421449,-1.34611876132705,NaN,-0.726148856423493,NaN,-0.292091324272813,1.40834058510755,NaN,NaN,0.371190517514754,-2.00184685265934,0.366084065547079,-0.0879606893031292,0.103284182686813,0.664152667958968,0.886344823289979,1.01062818344134,0.741103246470937,-1.25270375118364,-1.25270375118464,NaN,NaN,1.67417393946345,NaN,-0.28145837843267,-1.17684543334255,1.80902462465067,-1.67699069472025,-1.67699069472391,-0.756628906984562,0.756628906984432,1.06343246059748
353.3824,-0.352198027802634,1.14875584801856,0.178619006367572,-3.02810089531139,1.07393452170441,1.07393452170774,NaN,0.724335153913918,-0.815229449969761,0.660981022259456,-1.04063966394227,0.660981022258509,-0.588817644286569,NaN,-0.0472317737910138,NaN,NaN,-1.35626356163789,NaN,0.483623272079777,-1.3441551499008,NaN,-0.739453210177498,NaN,-0.301511659296513,1.43570772817949,NaN,NaN,0.407124347178898,-2.02283948999248,0.324860249286181,-0.129244817297744,0.0495629562062581,0.696835522581451,0.887518911159065,1.03656879114827,0.731629588400036,-1.22836009976275,-1.22836009976375,NaN,NaN,1.65547152525276,NaN,-0.315695990809557,-1.19135403155615,1.82076639683905,-1.67133309476758,-1.67133309477124,-0.760127102226432,0.760127102226282,1.08076597978898
353.4848,-0.364149257962667,1.16116848343983,0.172908650786596,-3.05590290735401,1.12105839406953,1.12105839407286,NaN,0.73669226395982,-0.790798930722838,0.656890148561432,-1.07236365004918,0.656890148560477,-0.593943293768299,NaN,-0.0493672227555574,NaN,NaN,-1.35836317354824,NaN,0.522383524340912,-1.34183128987516,NaN,-0.751688848180606,NaN,-0.311131330510668,1.46378539301394,NaN,NaN,0.443598654398748,-2.04296642777967,0.281795623792953,-0.171732013356874,-0.00603053748324843,0.729778850314327,0.888482614559685,1.0625929571405,0.722792406710402,-1.20222373297327,-1.20222373297428,NaN,NaN,1.63490670299004,NaN,-0.350370474405373,-1.20506009752446,1.8314242725948,-1.66408217680183,-1.66408217680548,-0.763341425631787,0.763341425631617,1.09723572007384
353.5872,-0.375601715716464,1.17412870926913,0.167908747668191,-3.08026022338465,1.16906370605578,1.16906370605909,NaN,0.749018168629869,-0.764901267753373,0.654033163106283,-1.10360640091466,0.654033163105323,-0.598523783338299,NaN,-0.0508813332197101,NaN,NaN,-1.35922392866583,NaN,0.562529278484692,-1.33917965063017,NaN,-0.762850603737041,NaN,-0.320911871001219,1.49244234516857,NaN,NaN,0.480530535005822,-2.06219006990939,0.237056885680378,-0.215327439383772,-0.0633383527393612,0.762959569335044,0.88918035363718,1.08865166951625,0.714576105066137,-1.17433023383928,-1.17433023384029,NaN,NaN,1.61247692537205,NaN,-0.385412340568182,-1.21790897981971,1.84096532145312,-1.65518910275028,-1.65518910275392,-0.766279228580152,0.766279228579964,1.1128105407236
353.6896,-0.386511601556806,1.1875514102873,0.163622668369831,-3.10118220817919,1.21781826408861,1.21781826409192,NaN,0.761248601663217,-0.737585769275343,0.652350554531323,-1.13435359189072,0.652350554530354,-0.602503175875398,NaN,-0.0517472895253906,NaN,NaN,-1.35879169768482,NaN,0.603973302503913,-1.33623380925412,NaN,-0.772937398077471,NaN,-0.330811005123233,1.5215393953896,NaN,NaN,0.517831015862543,-2.08047298322108,0.190822446394298,-0.259928081175463,-0.122190201454539,0.796352519816538,0.88955417975553,1.11469298102085,0.706959814595189,-1.14472105807446,-1.14472105807547,NaN,NaN,1.58818351974328,NaN,-0.420750281001256,-1.2298439000256,1.84935749638309,-1.64461004442686,-1.64461004443049,-0.768947692906049,0.768947692905845,1.12746196513845
353.792,-0.396833193290686,1.20134729152972,0.160053735785988,-3.11868811908993,1.26718107209197,1.26718107209526,NaN,0.773314871054389,-0.70890984776754,0.651773139504481,-1.16459287940243,0.651773139503506,-0.605824578788331,NaN,-0.051939024796732,NaN,NaN,-1.35701289763161,NaN,0.646623713702546,-1.3330282575938,NaN,-0.781952296956593,NaN,-0.340782895737084,1.55093000103861,NaN,NaN,0.555405489623443,-2.09777800300803,0.143281625498072,-0.305423219208709,-0.182404227144385,0.829930095427877,0.889543998878414,1.14066184920822,0.699917907547126,-1.11344338014477,-1.11344338014578,NaN,NaN,1.56203177076086,NaN,-0.456311488234253,-1.24080622650824,1.85656990295883,-1.63230626702888,-1.63230626703251,-0.771353940375956,0.771353940375739,1.14116424030895
353.8944,-0.40651920687368,1.21542318138577,0.15720502018726,-3.13280687244775,1.31700292598724,1.31700292599051,NaN,0.785144388117666,-0.678938762005359,0.652222710511095,-1.19431372634162,0.652222710510116,-0.608430520340695,NaN,-0.0514314593779957,NaN,NaN,-1.35383482662434,NaN,0.690384086512258,-1.32959820055704,NaN,-0.789902549281599,NaN,-0.350778402433983,1.58046094023144,NaN,NaN,0.593154197578,-2.11406835242016,0.0946337578063583,-0.351694994783426,-0.243787898770911,0.863661934501229,0.889087830463689,1.1665000426662,0.693420557947428,-1.08054990992674,-1.08054990992775,NaN,NaN,1.53403098616713,NaN,-0.492022002109061,-1.25073577914218,1.86257305875144,-1.61824418875456,-1.61824418875819,-0.773505141551884,0.773505141551653,1.15389439085385
353.9968,-0.415521194926865,1.22968238320318,0.155079121205006,-3.1435768018517,1.36712709468353,1.36712709468679,NaN,0.796661253453975,-0.647745305533487,0.653612742236318,-1.2235072445631,0.653612742235342,-0.610263349422497,NaN,-0.0502007431539485,NaN,NaN,-1.34920600878731,NaN,0.735153596812844,-1.32597934296998,NaN,-0.796799608328043,NaN,-0.360745351792071,1.60997306463938,NaN,NaN,0.630972762113497,-2.12930778126832,0.0450872116703859,-0.398619076854535,-0.30613902997818,0.897514681799567,0.888122106655056,1.19214612444592,0.687434334746485,-1.04609866631985,-1.04609866632086,NaN,NaN,1.50419454761046,NaN,-0.527807078598639,-1.25957115993825,1.86733913215342,-1.60239541650454,-1.60239541650816,-0.775408622421756,0.775408622421512,1.1656322728844
354.0992,-0.423789976794317,1.24402507402299,0.153677941113576,-3.15104541253248,1.41739008353929,1.41739008354252,NaN,0.807786890729205,-0.615409437247966,0.655849151857426,-1.25216605077908,0.655849151856455,-0.611265650915038,NaN,-0.0482244941819027,NaN,NaN,-1.34307653745886,NaN,0.780827212202615,-1.32220766596114,NaN,-0.802659134011868,NaN,-0.370628824069211,1.63930212717811,NaN,NaN,0.668752769101273,-2.14346072657559,-0.00514167982380829,-0.44606542410442,-0.36924691841587,0.931451820308902,0.886582009325397,1.21753551087854,0.681922817175996,-1.01015270594435,-1.01015270594536,NaN,NaN,1.47253994037679,NaN,-0.563591575950619,-1.26725010630764,1.87084216551539,-1.58473676432993,-1.58473676433355,-0.777071970762083,0.777071970761831,1.1763606312995
354.2016,-0.431276093154878,1.25834874255581,0.153002452467676,-3.15526913107944,1.46762247264449,1.4676224726477,NaN,0.818440721382689,-0.582017854041457,0.658831106658975,-1.28028413099517,0.658831106658009,-0.611380668488667,NaN,-0.0454820283856007,NaN,NaN,-1.33539840802447,NaN,0.827295930687094,-1.31831919679666,NaN,-0.807500976501019,NaN,-0.380371460015674,1.66827967322337,NaN,NaN,0.706382396479807,-2.15649249347409,-0.0558297676719254,-0.493899131074009,-0.43289359256371,0.96543356498051,0.884401836424571,1.24260059474192,0.676847228162216,-0.97277981283311,-0.972779812834122,NaN,NaN,1.43908875286346,NaN,-0.599300353173702,-1.27370986792976,1.87305829471553,-1.56525026448854,-1.56525026449217,-0.778503147160264,0.778503147160002,1.18606516115397
354.304,-0.437930279915703,1.27254865583733,0.153052460360654,-3.15631305060852,1.51764982016215,1.51764982016535,NaN,0.828540869094546,-0.547663508979739,0.662451873490851,-1.30785671714085,0.662451873489894,-0.610552729139076,NaN,-0.0419545782133941,NaN,NaN,-1.32612583583118,NaN,0.874447074243063,-1.31434977689061,NaN,-0.811349145877315,NaN,-0.389913787097897,1.69673398262867,NaN,NaN,0.74374708007991,-2.16836945461018,-0.106748311162751,-0.541981351908228,-0.49685515854175,0.999416812641943,0.881515386751072,1.26727092220553,0.672167086854399,-0.934052151145441,-0.934052151146453,NaN,NaN,1.4038666422595,NaN,-0.634858673650208,-1.27888760426532,1.87396597130729,-1.54392317218632,-1.54392317218995,-0.779710609149475,0.779710609149204,1.19473456908245
354.4064,-0.443703959016919,1.28651834590782,0.153826357692484,-3.15425067260177,1.56729362261151,1.56729362261469,NaN,0.838004874413904,-0.512445079801551,0.666599707454244,-1.33488018558355,0.666599707453293,-0.608727669171403,NaN,-0.0376255023048882,NaN,NaN,-1.31521556129414,NaN,0.922164647729235,-1.31033483351642,NaN,-0.814231775092956,NaN,-0.399194562452877,1.72449105478475,NaN,NaN,0.780730207146598,-2.17905926864526,-0.15766428105869,-0.590170297376191,-0.560903245052841,1.0333551484247,0.877856355499343,1.29147341953556,0.667840880162861,-0.894045878113358,-0.894045878114368,NaN,NaN,1.36690327463354,NaN,-0.670192607358309,-1.28272079446539,1.87354618418908,-1.52074795188792,-1.52074795189155,-0.780703455062815,0.780703455062534,1.20236062869435
354.5088,-0.448549743480537,1.30015011306989,0.155320874422257,-3.14916364050646,1.61637232813456,1.61637232813773,NaN,0.846750396742893,-0.476466392459413,0.671158778043412,-1.3613519782983,0.671158778042465,-0.605853264900747,NaN,-0.032480490295071,NaN,NaN,-1.30262715336514,NaN,0.970329765490634,-1.30630915943426,NaN,-0.81618107958663,NaN,-0.408151135010467,1.75137563456895,NaN,NaN,0.817213832897085,-2.18853111886647,-0.208341745826675,-0.638322291271553,-0.624806536990095,1.06719891117932,0.87335873948738,1.31513267085727,0.663826742123914,-0.852840717988676,-0.852840717989683,NaN,NaN,1.3282322536533,NaN,-0.705229429674027,-1.28514765679143,1.87178267389446,-1.49572223137821,-1.49572223138184,-0.781491583958788,0.781491583958506,1.20893822679814
354.6112,-0.452421947581867,1.3133355465732,0.15753082973713,-3.14114144725895,1.66470239888285,1.664702398886,NaN,0.85469588848852,-0.439835805071954,0.67601012559914,-1.38727053115866,0.676010125598195,-0.601879667460301,NaN,-0.026507763640978,NaN,NaN,-1.28832332548708,NaN,1.01882113180139,-1.30230670054927,NaN,-0.817233307566823,NaN,-0.416719836662582,1.77721227393682,NaN,NaN,0.853079417475894,-2.19675596828462,-0.258543330340949,-0.686292858730064,-0.68833237005327,1.10089532109866,0.867957254497572,1.33817125083005,0.660083114697768,-0.81051950635862,-0.810519506359624,NaN,NaN,1.28789104274605,NaN,-0.739898017061014,-1.28610758611408,1.86866213270871,-1.46884872689553,-1.46884872689915,-0.782085856884317,0.782085856884033,1.21446539905025
354.7136,-0.455277083561431,1.3259660632249,0.160448904788163,-3.13028108967176,1.71209941223929,1.71209941224242,NaN,0.861761239420003,-0.402665558386199,0.681032632437956,-1.41263518568027,0.681032632437022,-0.596759831665787,NaN,-0.0196982664495652,NaN,NaN,-1.27227026996698,NaN,1.06751554897248,-1.29836034843551,NaN,-0.817428668403628,NaN,-0.424836414109796,1.80182641182121,NaN,NaN,0.888208576191849,-2.20370682143577,-0.308031716973593,-0.733937812887364,-0.75124834433377,1.13438867486718,0.861587763802464,1.3605101158285,0.656569355482436,-0.767167720718887,-0.767167720719887,NaN,NaN,1.2459208698905,NaN,-0.774129237958016,-1.28554162203698,1.86417438523581,-1.44013516567444,-1.44013516567805,-0.782498240415447,0.782498240415161,1.21894335171105
354.816,-0.457074322414046,1.33793346141878,0.164065455952288,-3.11668664929026,1.75837918498844,1.75837918499156,NaN,0.86786839845431,-0.365071097227445,0.686103992062082,-1.43744606544109,0.686103992061155,-0.590449923841099,NaN,-0.0120458360587672,NaN,NaN,-1.25443800600056,NaN,1.11628842942595,-1.29450173389015,NaN,-0.816811228849218,NaN,-0.43243650751788,1.82504544830354,NaN,NaN,0.922483832489221,-2.20935898224434,-0.356571152722092,-0.781114312157277,-0.813323916638141,1.16762061167033,0.85418771080837,1.38206905224699,0.653246262739765,-0.722873014193769,-0.722873014194764,NaN,NaN,1.20236659905888,NaN,-0.807856335027936,-1.28339295480492,1.85831254605072,-1.40959423778191,-1.40959423778552,-0.782741916805774,0.782741916805488,1.22237646687135
354.9184,-0.4577759021567,1.34913048785674,0.168368382981269,-3.1004688004215,1.80335890558046,1.80335890558354,NaN,0.872941979499582,-0.327170364091743,0.691101668639787,-1.46170391226201,0.691101668638867,-0.582909696557815,NaN,-0.00354734316272006,NaN,NaN,-1.23480073160293,NaN,1.16501430483113,-1.29076101693428,NaN,-0.815428773651062,NaN,-0.43945617278036,1.84669979757886,NaN,NaN,0.955789365899054,-2.2136903025675,-0.403928937125281,-0.827681874502742,-0.874331948232632,1.20053044594426,0.845696548021047,1.40276717437081,0.65007650232586,-0.677724761583581,-0.67772476158457,NaN,NaN,1.15727656029038,NaN,-0.841015295076881,-1.27960746753349,1.85107314978658,-1.3772435919525,-1.3772435919561,-0.78283135501119,0.782831355010907,1.2247722913428
355.0208,-0.457347478004005,1.35945141731544,0.173343057419665,-3.08174426416818,1.8468582651465,1.84685826514955,NaN,0.87690985279221,-0.289083064461214,0.69590384576335,-1.48540989016738,0.695903845762435,-0.574102823795454,NaN,0.00579720677739647,NaN,NaN,-1.21333716871824,NaN,1.21356734017722,-1.28716666706185,NaN,-0.813332630655016,NaN,-0.445832435882434,1.86662391822246,NaN,NaN,0.988011751797843,-2.21668142117318,-0.449876879189053,-0.873503347612978,-0.934050201465315,1.23305555781806,0.836056160669379,1.42252346388176,0.647024934919826,-0.631813613268859,-0.631813613269845,NaN,NaN,1.11070234225124,NaN,-0.873545201263477,-1.27413430346946,1.84245624450203,-1.3431058689226,-1.34310586892621,-0.782782347069934,0.782782347069655,1.22614150864243
355.1232,-0.455758417052098,1.36879264735103,0.178972309690906,-3.06063523089971,1.88870058393264,1.88870058393567,NaN,0.879703725195961,-0.250929906201708,0.700390360422721,-1.50856536537197,0.700390360421814,-0.563997193917172,NaN,0.0159846153585203,NaN,NaN,-1.19003089159684,NaN,1.26182185928472,-1.28374523050969,NaN,-0.810577459425432,NaN,-0.451503864389572,1.88465732360524,NaN,NaN,1.0190406910404,-2.21831599380553,-0.494192713737809,-0.918445835215959,-0.992262780856729,1.2651318345196,0.825211289001457,1.44125734804357,0.644058849657317,-0.585231046159279,-0.585231046160259,NaN,NaN,1.06269855662533,NaN,-0.90538855840469,-1.26692643865664,1.83246544047892,-1.30720875697103,-1.30720875697462,-0.782612014875804,0.782612014875527,1.22649789218838
355.2256,-0.452982040874453,1.37705330732356,0.185236471385147,-3.03726876770216,1.92871393238574,1.92871393238874,NaN,0.881259719525389,-0.21283182135018,0.704443611475347,-1.53117166109209,0.704443611474443,-0.55256515913514,NaN,0.0270084769216537,NaN,NaN,-1.16487063082359,NaN,1.3096528753284,-1.28052108993285,NaN,-0.807221001473847,NaN,-0.456411140242033,1.90064556918092,NaN,NaN,1.04876972571948,-2.21858091255476,-0.536661464702952,-0.96238157087734,-1.04876150555654,1.29669416123931,0.813109952946191,1.45888931747239,0.641148115028954,-0.538068907256469,-0.538068907257442,NaN,NaN,1.01332258029343,NaN,-0.936491583187424,-1.2579412387158,1.82110791607805,-1.26958505652619,-1.26958505652979,-0.782338785735294,0.78233878573502,1.22585823977052
355.328,-0.448995817452206,1.38413587754562,0.192113469555658,-3.01177621916445,1.96673224295312,1.96673224295609,NaN,0.881518958032749,-0.174909183161348,0.707949429749088,-1.55322978459344,0.707949429748187,-0.539783740550606,NaN,0.0388592064718554,NaN,NaN,-1.1378505465228,NaN,1.35693661111992,-1.27751622680293,NaN,-0.803323793401251,NaN,-0.46049761586831,1.91444120818479,NaN,NaN,1.07709693532458,-2.21746650871493,-0.577076748024714,-1.00518872495222,-1.10334719786721,1.32767696277258,0.799703879256974,1.47534158457941,0.638265261824835,-0.490418953744053,-0.490418953745018,NaN,NaN,0.962634279071969,NaN,-0.966804458840078,-1.24714098365088,1.80839438860614,-1.23027274545258,-1.23027274545618,-0.781982333896097,0.781982333895825,1.22424228963037
355.4304,-0.443781505675715,1.38994681361387,0.199578967798525,-2.98429260199967,2.00259640336117,2.00259640336411,NaN,0.880428137602665,-0.137281031803929,0.710797897641806,-1.57474013615905,0.710797897640901,-0.52563479004026,NaN,0.0515241062770395,NaN,NaN,-1.10897046270054,NaN,1.40355099537664,-1.27474999376042,NaN,-0.798948848888951,NaN,-0.46370983492309,1.9259047095352,NaN,NaN,1.1039256076536,-2.21496673017387,-0.615242016316435,-1.04675213577873,-1.15583088153841,1.35801479556032,0.784948929788697,1.49053878163533,0.635385511310039,-0.442372394656503,-0.442372394657457,NaN,NaN,0.910695722869322,NaN,-0.996281562564073,-1.23449335314927,1.79433905576881,-1.18931504013203,-1.18931504013563,-0.781563491054746,0.781563491054472,1.22167261521245
355.5328,-0.43732525763988,1.39439717243649,0.207606547672086,-2.95495599043179,2.03615532020636,2.03615532020926,NaN,0.87794007187549,-0.100064320503566,0.712884106007383,-1.59570222094785,0.712884106006477,-0.510105112099362,NaN,0.0649874664242311,NaN,NaN,-1.0782360534203,NaN,1.44937612519744,-1.27223889964088,NaN,-0.794161315109591,NaN,-0.46599800389517,1.93490533537391,NaN,NaN,1.12916488075833,-2.21107928496466,-0.650971748083678,-1.08696396357263,-1.20603488990474,1.38764298265076,0.76880552989218,1.50440869210321,0.632486755341723,-0.394019436779754,-0.394019436780696,NaN,NaN,0.857570907537197,NaN,-1.02488167485061,-1.21997187231697,1.77895951115118,-1.14676044896812,-1.14676044897173,-0.781104132456659,0.781104132456385,1.21817449506201
355.6352,-0.429617679718259,1.39740323662698,0.216167928056882,-2.92390689160475,2.06726694315193,2.0672669431548,NaN,0.874014180030889,-0.0633731929610529,0.714108838478973,-1.61611438280394,0.714108838478068,-0.493186547295594,NaN,0.0792306957559407,NaN,NaN,-1.04565897406091,NaN,1.49429468754745,-1.26999640902423,NaN,-0.789028105515906,NaN,-0.467316408436402,1.94132197379956,NaN,NaN,1.15273035275273,-2.20580574582267,-0.684092575524708,-1.12572426448177,-1.25379387891186,1.4164982747518,0.751239093583381,1.51688300034608,0.629549493271977,-0.345448840228137,-0.345448840229067,NaN,NaN,0.80332549565818,NaN,-1.052568168141,-1.20355631952892,1.76227663924081,-1.10266281502299,-1.1026628150266,-0.780627043145269,0.780627043144996,1.21377575730554
355.7376,-0.420653847386234,1.39888713140949,0.225233224580025,-2.89128761208284,2.09579924036611,2.09579924036895,NaN,0.868616914411841,-0.0273183019184832,0.714379179360238,-1.63597356828108,0.714379179359328,-0.474876016100386,NaN,0.0942324815324025,NaN,NaN,-1.01125693423525,NaN,1.53819233841483,-1.26803275926812,NaN,-0.783617511145195,NaN,-0.467623772999595,1.94504391670429,NaN,NaN,1.17454465338341,-2.19915161229948,-0.714444336742279,-1.16294147874705,-1.29895573325614,1.44451951693719,0.732220436783389,1.52789803902109,0.626556734179934,-0.296747494665922,-0.296747494666842,NaN,NaN,0.748026581440347,NaN,-1.07930915951483,-1.18523309578548,1.74431449541804,-1.05708134582111,-1.05708134582472,-0.780155765901884,0.78015576590161,1.20850659829109
355.84,-0.410433268464904,1.39877742495604,0.234771250078725,-2.85724161480592,2.12163111432318,2.121631114326,NaN,0.861722125118975,0.0079938256775939,0.713609045454063,-1.65527512077172,0.713609045453146,-0.45517551959284,NaN,0.109968977879422,NaN,NaN,-0.975053706870302,NaN,1.58095804730058,-1.26635479658228,NaN,-0.777998795317605,NaN,-0.466883563849475,1.94597156941275,NaN,NaN,1.19453796857802,-2.19112632731701,-0.741881037794869,-1.19853283178757,-1.34138235767563,1.47164830623427,0.711726166045313,1.53739551567857,0.623493872808604,-0.248000022586337,-0.248000022587246,NaN,NaN,0.691742476214931,NaN,-1.10507761103805,-1.16499555324729,1.72510017307193,-1.01008063015657,-1.01008063016018,-0.779714432514561,0.779714432514283,1.20239937291203
355.9424,-0.398959792408867,1.39700970254725,0.244749854075469,-2.82191286667992,2.14465324913795,2.14465324914074,NaN,0.853311359509894,0.0424613804981991,0.711719643637712,-1.6740126034565,0.711719643636792,-0.434092091601415,NaN,0.12641402588127,NaN,NaN,-0.937079062990484,NaN,1.62248442071249,-1.26496582838104,NaN,-0.772241777443029,NaN,-0.465064236818158,1.94401708181566,NaN,NaN,1.21264851128138,-2.18174324830825,-0.766271717944865,-1.23242465618659,-1.38095035676478,1.49782963326039,0.689739031065484,1.54532320672005,0.62034854309683,-0.199288402051646,-0.199288402052543,NaN,NaN,0.634542500893065,NaN,-1.12985136556907,-1.14284427764313,1.70466365741448,-0.961730637815538,-0.961730637819158,-0.7793275819193,0.779327581919019,1.19548835603492
356.0448,-0.386241464252908,1.39352710772342,0.255136299536253,-2.78544517853972,2.16476888823798,2.16476888824075,NaN,0.84337409818609,0.0759878321410161,0.708639857611091,-1.69217765051057,0.708639857610169,-0.411637696544304,NaN,0.143539410482508,NaN,NaN,-0.897368622089611,NaN,1.66266801658569,-1.26386548805555,NaN,-0.766416410782299,NaN,-0.462139432523469,1.93910489782972,NaN,NaN,1.22882293675713,-2.17101957785208,-0.787501222504793,-1.26455264520847,-1.41755161416474,1.52301250254344,0.666248234006497,1.55163561065692,0.617110452422714,-0.150691593427739,-0.150691593428623,NaN,NaN,0.576496768657149,NaN,-1.1536131081684,-1.11878731644877,1.68303766464675,-0.91210668890094,-0.912106688904567,-0.779019968995453,0.77901996899517,1.18780947807171
356.1472,-0.372290323624907,1.38828084731571,0.265897675151911,-2.74798153339121,2.18189454765902,2.18189454766177,NaN,0.831907936596991,0.108482472396157,0.704306568305762,-1.70975984105724,0.704306568304838,-0.387829071533915,NaN,0.161315156530403,NaN,NaN,-0.855963616132481,NaN,1.70140965277753,-1.26304961355681,NaN,-0.760592355699881,NaN,-0.45808812086623,1.93117222645727,NaN,NaN,1.24301670354875,-2.15897625826246,-0.805470892339142,-1.29486204370319,-1.45109378028993,1.5471505220147,0.641249694264632,1.55629455254519,0.61377120264656,-0.102285160330633,-0.102285160331503,NaN,NaN,0.517675949081621,NaN,-1.17635025047909,-1.09284035152122,1.66025746581114,-0.861289375663735,-0.861289375667361,-0.778816365533167,0.778816365532882,1.17940003671979
356.2496,-0.357122156050336,1.38123065940707,0.277001335944146,-2.70966339440483,2.19596066741094,2.19596066741366,NaN,0.818918723093251,0.139860938898552,0.698664911174651,-1.72674658468804,0.698664911173732,-0.362687520334309,NaN,0.179709857091945,NaN,NaN,-0.812910580045562,NaN,1.73861470323533,-1.26251014806637,NaN,-0.754838545922117,NaN,-0.452894694204757,1.92016944021763,NaN,NaN,1.25519438077496,-2.14563783005651,-0.820099170523854,-1.32330777407915,-1.48150066692454,1.57020245082316,0.614746271317693,1.55926973267993,0.610324104697882,-0.0541408908152601,-0.0541408908161179,NaN,NaN,0.45815101442385,NaN,-1.19805474848017,-1.0650268287765,1.6363606965989,-0.809364428021343,-0.80936442802497,-0.778741352781064,0.778741352780776,1.17029838357951
356.352,-0.340756212051283,1.37234524075595,0.288415356118947,-2.67062999765489,2.20691219131281,2.20691219131551,NaN,0.804420657312244,0.170045699118802,0.691668470407142,-1.74312301593283,0.691668470406231,-0.336238675227504,NaN,0.198691017103108,NaN,NaN,-0.768260999034359,NaN,1.77419337021995,-1.26223507527226,NaN,-0.749222747492051,NaN,-0.446549007533542,1.90606040360372,NaN,NaN,1.26532989888396,-2.13103225472399,-0.831322110854282,-1.34985448826008,-1.50871253387567,1.59213270009976,0.586747949214874,1.56053921739098,0.606763990506585,-0.00632644401931586,-0.0063264440201603,NaN,NaN,0.397992975928395,NaN,-1.21872287403347,-1.03537806130958,1.61138715702957,-0.756422529235548,-0.756422529239168,-0.77881910511598,0.778819105115692,1.16054358741867
356.4544,-0.323214911849113,1.36160262474529,0.300108973502916,-2.63101765873499,2.21470905604673,2.2147090560494,NaN,0.788436345151858,0.198966469370781,0.68327940740358,-1.7588719143029,0.68327940740268,-0.308512243578236,NaN,0.218225393313479,NaN,NaN,-0.72207095008374,NaN,1.80806092262302,-1.26220840240734,NaN,-0.743811117672303,NaN,-0.439046365175619,1.88882272831863,NaN,NaN,1.27340673753729,-2.11519070937338,-0.839093765792328,-1.37447653702957,-1.53268624986486,1.61291178783736,0.557271984583992,1.56008987389267,0.603087022777284,0.0410949445667085,0.0410949445658767,NaN,NaN,0.337272625969437,NaN,-1.23835496166641,-1.00393331023072,1.58537860652956,-0.702559098136235,-0.702559098139844,-0.779073163565124,0.779073163564831,1.15017508676302
356.5568,-0.304523547639536,1.34899050034963,0.312053010124009,-2.59095913291917,2.21932657373456,2.21932657373721,NaN,0.770996804599724,0.226560555353842,0.673468521884532,-1.77397367200942,0.673468521883636,-0.279541747429465,NaN,0.238279320610384,NaN,NaN,-0.674400761539319,NaN,1.84013790023376,-1.26241019929167,NaN,-0.73866777519582,NaN,-0.430387456743542,1.86844794991881,NaN,NaN,1.27941804481552,-2.09814736638037,-0.843386440642489,-1.3971578544627,-1.55339531942939,1.6325167493767,0.526343017813234,1.55791775014858,0.599290502094208,0.0880646808813666,0.0880646808805485,NaN,NaN,0.276060305347561,NaN,-1.25695514323955,-0.970739832496541,1.5583785578181,-0.647874048224722,-0.647874048228319,-0.779526194208216,0.779526194207923,1.13923235321722
356.6592,-0.284709985681159,1.33450646702286,0.324220264575919,-2.55058305754661,2.22075570274849,2.22075570275111,NaN,0.752141418530813,0.252773117169336,0.662215248792306,-1.7884063172788,0.662215248791418,-0.249364253719507,NaN,0.258819027090103,NaN,NaN,-0.625314691908908,NaN,1.87035029532266,-1.26281669234607,NaN,-0.733854391206099,NaN,-0.42057824994699,1.84494162245735,NaN,NaN,1.28336668524258,-2.07993917078186,-0.844190814970917,-1.41789176012542,-1.57082977852402,1.65093149999989,0.493993144679524,1.55402839551542,0.595372671708519,0.134528959081875,0.13452895908107,NaN,NaN,0.21442570780986,NaN,-1.27453107068387,-0.935852877748005,1.53043206920967,-0.592471516681271,-0.592471516684855,-0.780199726548588,0.780199726548294,1.12775458410993
356.7616,-0.263804361697387,1.31815822210479,0.336585880756019,-2.51001348310783,2.21900320576864,2.21900320577124,NaN,0.731917833370906,0.277557370641433,0.64950759883021,-1.80214558664266,0.649507598829329,-0.218020087308683,NaN,0.279810945381845,NaN,NaN,-0.574880615417674,NaN,1.89862972468603,-1.26340040512325,NaN,-0.729429804840606,NaN,-0.40962985136059,1.81832332821402,NaN,NaN,1.28526521610763,-2.06060562350779,-0.841515935476787,-1.43668068202176,-1.58499596329278,1.66814714141933,0.460261941785935,1.54843711209299,0.591332521588009,0.180438852676675,0.180438852675882,NaN,NaN,0.15243771994155,NaN,-1.29109361995011,-0.899335616112447,1.50158553322987,-0.536459545170665,-0.536459545174234,-0.781113874711441,0.781113874711143,1.1157804290339
356.864,-0.241838758974856,1.29996367475017,0.349127700278217,-2.46936948038192,2.21409169245028,2.21409169245286,NaN,0.710381807063165,0.300874735394976,0.635342051870041,-1.81516503619091,0.635342051869169,-0.185552520236121,NaN,0.301222024351199,NaN,NaN,-0.523169700975141,NaN,1.92491359698011,-1.26413033417476,NaN,-0.725449660511626,NaN,-0.39755834503613,1.78862659680042,NaN,NaN,1.28513579111864,-2.04018857201735,-0.835389076648734,-1.45353580032443,-1.59591615028084,1.68416220221023,0.425196434383758,1.5411691226772,0.58716959541113,0.225750356442084,0.225750356441306,NaN,NaN,0.0901642815418574,NaN,-1.30665657003553,-0.861258984454294,1.47188646013998,-0.479949698424515,-0.479949698428071,-0.782287052654323,0.782287052654018,1.10334773931138
356.9664,-0.218846861885493,1.27995097690144,0.361826601183028,-2.42876480800406,2.2060595424138,2.20605954241634,NaN,0.687597015132902,0.322694933228868,0.619723409777823,-1.82743618636003,0.619723409776955,-0.152007434679705,NaN,0.323020039348945,NaN,NaN,-0.470256077076177,NaN,1.94914527383477,-1.26497215082521,NaN,-0.721966059832826,NaN,-0.384384613472398,1.75589872444399,NaN,NaN,1.28300998838537,-2.01873200658202,-0.825855460170766,-1.46847661061207,-1.6036280627023,1.69898280559113,0.388850993541658,1.53225964290591,0.582883806756892,0.270424375236593,0.270424375235829,NaN,NaN,0.0276722481094992,NaN,-1.32123625824448,-0.821701446277107,1.4413832588293,-0.423056618288334,-0.423056618291876,-0.783735696685804,0.783735696685498,1.09049332591962
357.0688,-0.194863586440956,1.25815846180417,0.374666817226135,-2.38830763482984,2.19496070485729,2.19496070485982,NaN,0.663634825203067,0.342996036922991,0.602664611143881,-1.83892869931627,0.602664611143022,-0.117432960327766,NaN,0.34517389642012,NaN,NaN,-0.416216482461477,NaN,1.97127422313475,-1.26588842437118,NaN,-0.719027224395936,NaN,-0.370134139786558,1.720200484878,NaN,NaN,1.2789285589317,-1.99628186188998,-0.812977828409985,-1.48153041127993,-1.60818424436208,1.71262276532538,0.351287155539162,1.52175385420228,0.578475270118936,0.314426658793474,0.314426658792724,NaN,NaN,-0.0349727519158967,NaN,-1.33485122457477,-0.780748665537207,1.41012502243041,-0.36589752059849,-0.365897520602023,-0.785474004999907,0.785474004999597,1.07725272076761
357.1712,-0.169924697940607,1.2346344890107,0.387636227841309,-2.34810031601319,2.18086437766643,2.18086437766893,NaN,0.638574047009513,0.361764476053368,0.584186510388747,-1.84961058414996,0.584186510387901,-0.0818790903223111,NaN,0.367653926631057,NaN,NaN,-0.361129907333644,NaN,1.9912561604026,-1.26683886356757,NaN,-0.716677171479626,NaN,-0.354836787014236,1.68160573329643,NaN,NaN,1.27294109813552,-1.97288582334576,-0.796835877049313,-1.49273173380313,-1.60965131901983,1.72510361127727,0.312573368521932,1.50970678152627,0.573944146736657,0.357727695641307,0.357727695640575,NaN,NaN,-0.0977064567205996,NaN,-1.34752186670626,-0.738493102446102,1.37816132538277,-0.308591649670321,-0.308591649673843,-0.787513698319074,0.787513698318764,1.06365994459317
357.2736,-0.14406642984688,1.20943720817165,0.400726610969933,-2.30823921679267,2.16385458032328,2.16385458032577,NaN,0.612500659850343,0.378995015581346,0.564317628858255,-1.8594484158714,0.564317628857416,-0.04539728506997,NaN,0.390432167428187,NaN,NaN,-0.305077232129624,NaN,2.00905316938575,-1.26778056923774,NaN,-0.714955406334685,NaN,-0.338526551553647,1.64020092084258,NaN,NaN,1.26510565449615,-1.9485931336922,-0.777525560646725,-1.50212174764463,-1.6081091679482,1.73645453670025,0.272784681656709,1.49618307834732,0.569290498230879,0.400302589048841,0.400302589048128,NaN,NaN,-0.160466094291452,NaN,-1.35927012601779,-0.695033555037987,1.34554203189312,-0.251259709546231,-0.251259709549736,-0.789863802110571,0.78986380211026,1.04974728556095
357.376,-0.117325117053977,1.18263426028123,0.413933854678044,-2.26881457491379,2.14402964016714,2.14402964016961,NaN,0.585507514107055,0.394690720649176,0.543093889997807,-1.86840755079722,0.543093889996982,-0.00804007666791471,NaN,0.413482627183386,NaN,NaN,-0.248140871706178,NaN,2.02463379531061,-1.26866829210083,NaN,-0.713896633456869,NaN,-0.321241292199984,1.59608454594583,NaN,NaN,1.25548829577173,-1.92345439468322,-0.755158287995859,-1.50974767035965,-1.60365005890152,1.74671225385862,0.232002393072107,1.48125671760321,0.564514138809364,0.442130932921014,0.442130932920319,NaN,NaN,-0.223190484659416,NaN,-1.37011921584579,-0.650474681006368,1.31231710825717,-0.194023285886775,-0.194023285890259,-0.792530450803358,0.792530450803045,1.03554509015095
357.4784,-0.0897368528209835,1.15430243018204,0.427258124981648,-2.22991039478484,2.12150160562947,2.12150160563193,NaN,0.557694000325213,0.408862907593513,0.520558349192011,-1.87645232637796,0.520558349191201,0.0301393136018196,NaN,0.436781527007466,NaN,NaN,-0.190404432114083,NaN,2.03797311017593,-1.26945469966676,NaN,-0.713530488052537,NaN,-0.303022441258943,1.54936656366797,NaN,NaN,1.24416264595682,-1.89752136192411,-0.729860021313539,-1.51566219696214,-1.59637774478874,1.7559207499597,0.190313666187341,1.4650105878213,0.559614481227743,0.483196689467427,0.483196689466753,NaN,NaN,-0.285820126760156,NaN,-1.38009338966256,-0.60492652706283,1.27853642908115,-0.137004260766052,-0.137004260769517,-0.795516716400886,0.795516716400572,1.02108156543582
357.5808,-0.0613371758021064,1.12452725502134,0.440703985925469,-2.19160436964402,2.09639558997016,2.0963955899726,NaN,0.529165680314656,0.421531070728724,0.496760921429322,-1.88354624309093,0.496760921428516,0.0690873344921209,NaN,0.460307511712112,NaN,NaN,-0.131952384376942,NaN,2.04905274686975,-1.27009066257157,NaN,-0.713881288315643,NaN,-0.283914706255819,1.50016776176744,NaN,NaN,1.23120939705552,-1.8708467329345,-0.70177029055656,-1.51992294417768,-1.58640653387434,1.7641309414732,0.147811117055612,1.44753599438688,0.554590376804644,0.523488054711193,0.523488054710539,NaN,NaN,-0.348297276259666,NaN,-1.38921773490667,-0.558504074876602,1.24424957397888,-0.0803242178407081,-0.0803242178441532,-0.798822465700757,0.798822465700443,1.00638259229964
357.6832,-0.032160792864884,1.09340258721658,0.454280465938224,-2.1539678307852,2.06884904160456,2.06884904160698,NaN,0.500033875885211,0.432722774366714,0.471758101488354,-1.88965213512394,0.471758101487554,0.10875043499811,NaN,0.484041823223443,NaN,NaN,-0.072869755182616,NaN,2.05786089053811,-1.27052556755328,NaN,-0.714967810814363,NaN,-0.263965768299959,1.44861910248064,NaN,NaN,1.21671579584421,-1.84348392679708,-0.671041134370974,-1.52259189755856,-1.57386032713823,1.77140022817452,0.10459237303898,1.42893206717027,0.54943994960892,0.562997295006243,0.56299729500561,NaN,NaN,-0.41056601433081,NaN,-1.39751797521095,-0.51132679697271,1.20950562041422,-0.0241038381593946,-0.0241038381628216,-0.802444251539137,0.802444251538823,0.991471552863219
357.7856,-0.00224134171388554,1.06103010849501,0.468001065174173,-2.11706572518898,2.0390109345678,2.0390109345702,NaN,0.470415210411104,0.442473507669663,0.445612668081246,-1.89473234190519,0.445612668080446,0.14907536715594,NaN,0.507968436333842,NaN,NaN,-0.0132418285517396,NaN,2.06439221461539,-1.27070765613598,NaN,-0.716803092835479,NaN,-0.243225979763935,1.39486102581699,NaN,NaN,1.20077510625826,-1.81548685394977,-0.637835977473776,-1.52373485695925,-1.55887162379422,1.77779195348259,0.0607596036193617,1.40930508004656,0.544160421957669,0.601720551530888,0.601720551530276,NaN,NaN,-0.472572304939595,NaN,-1.40502026711489,-0.463518205844042,1.17435293935312,0.0315377154248093,0.0315377154213972,-0.806375245787075,0.80637524578676,0.976369177877559
357.888,0.0283888051621769,1.02751879118267,0.481883700722485,-2.08095662437622,2.00704087625169,2.00704087625408,NaN,0.440431102175462,0.450826509768425,0.418393366048656,-1.89874889211078,0.418393366047857,0.190009468511287,NaN,0.532074162611099,NaN,NaN,0.0468461521184148,NaN,2.06864775898757,-1.2705843800161,NaN,-0.719394264077237,NaN,-0.221748063226191,1.33904271106036,NaN,NaN,1.18348604917435,-1.78690967989616,-0.60232845040379,-1.52342088993478,-1.54158050567752,1.7833747825519,0.0164190242916742,1.38876769170319,0.538747928801627,0.639657627391146,0.639657627390555,NaN,NaN,-0.5342640435256,NaN,-1.41175098121092,-0.415205373336497,1.13883899800294,0.0864834344218055,0.0864834344184101,-0.810605225739809,0.810605225739498,0.961093422124514
357.9904,0.0596986922628127,0.992984304536102,0.495950585933171,-2.04569276788311,1.97310813940642,1.97310813940878,NaN,0.410207217455492,0.457832576094562,0.390174565796517,-1.90166370465697,0.390174565795717,0.231500929292023,NaN,0.556348727024606,NaN,NaN,0.107309290608603,NaN,2.07063476054872,-1.27010275918573,NaN,-0.72274241045553,NaN,-0.199586812623255,1.28132129682842,NaN,NaN,1.16495222349361,-1.75780659075931,-0.564701159111548,-1.52172180820701,-1.52213361653794,1.78822201031412,-0.0283196231992227,1.3674381189976,0.533197324231316,0.676811777121327,0.676811777120753,NaN,NaN,-0.595591101554153,NaN,-1.41773646861936,-0.36651839905594,1.10301017753134,0.140619125177171,0.140619125173793,-0.815120627210862,0.815120627210554,0.945659380496678
358.0928,0.0916588816088504,0.957548369510988,0.510228038836165,-2.01132014146022,1.93739063698393,1.93739063698629,NaN,0.379872898279453,0.463549852908972,0.361035906182415,-1.90343879947591,0.361035906181614,0.273499040739399,NaN,0.580784814713845,NaN,NaN,0.168063352784732,NaN,2.07036645206201,-1.26920973005471,NaN,-0.726842476711593,NaN,-0.176798793617448,1.22186106721969,NaN,NaN,1.14528151583397,-1.72823156615092,-0.525144420675086,-1.51871167733701,-1.50068315238746,1.79241080946322,-0.0733436059984185,1.34543925523726,0.527501991024474,0.713189509213298,0.713189509212742,NaN,NaN,-0.656505361913199,NaN,-1.42300283337741,-0.31758982130666,1.06691161667884,0.193834077133194,0.193834077129836,-0.819904671712047,0.819904671711739,0.930079256588221
358.1952,0.124241496358826,0.921338070598195,0.52474621815224,-1.97787858047161,1.90007386249832,1.90007386250068,NaN,0.349560578609593,0.468043619496003,0.331061933786769,-1.90403650259292,0.33106193378596,0.315954412423185,NaN,0.605378078173323,NaN,NaN,0.229025077652824,NaN,2.06786184236135,-1.26785247978665,NaN,-0.731683215555126,NaN,-0.153442037916091,1.16083261762673,NaN,NaN,1.12458550783317,-1.69823815872444,-0.483854988211472,-1.51446636267949,-1.47738587649831,1.79602142501196,-0.118537742563115,1.32289774304671,0.521653668465817,0.748800396714675,0.748800396714136,NaN,NaN,-0.716960732297597,NaN,-1.42757574061204,-0.268553986978212,1.03058708681608,0.246021708429914,0.246021708426569,-0.824937562300889,0.824937562300581,0.914362383514654
358.2976,0.157420208465357,0.884485133076604,0.539538791492352,-1.9454018804546,1.8613498111925,1.86134981119485,NaN,0.319405193701099,0.471386047491614,0.300341750241771,-1.9034196327323,0.300341750240952,0.358819144021159,NaN,0.630127092739405,NaN,NaN,0.290112464470811,NaN,2.06314548652889,-1.26597877492518,NaN,-0.737247189686003,NaN,-0.129575729190382,1.09841201195043,NaN,NaN,1.10297888704139,-1.66787927560516,-0.441034784681955,-1.50906310825125,-1.45240216573101,1.79913632135677,-0.163784951378167,1.29994300696867,0.515642310751143,0.783656877876025,0.783656877875503,NaN,NaN,-0.776913130258256,NaN,-1.43148027664975,-0.219546411395418,0.994078896437807,0.297080161852367,0.297080161849028,-0.830196733973165,0.83019673397286,0.89851528362915
358.4,0.191170176498648,0.847125171187078,0.554642543931292,-1.91391789967549,1.82141588662101,1.82141588662337,NaN,0.289543578917414,0.473655919710757,0.268968669454815,-1.9015516678942,0.268968669453988,0.402046943184821,NaN,0.655033253157157,NaN,NaN,0.351245018219824,NaN,2.05624725072228,-1.26353729689942,NaN,-0.743510834544674,NaN,-0.105259884660032,1.03477993507657,NaN,NaN,1.08057886154683,-1.63720695783858,-0.396889655623873,-1.5025801392826,-1.42589508541513,1.801839292609,-0.208966809283997,1.27670625226069,0.509455978873037,0.817774027697709,0.817774027697204,NaN,NaN,-0.836320447651999,NaN,-1.43474085739117,-0.170703152912994,0.957427818565587,0.346912835410335,0.346912835407,-0.835657148934142,0.835657148933838,0.882541752403554
358.5024,0.225467940649971,0.809396911875046,0.570096935592633,-1.8834486501994,1.78047379384223,1.7804737938446,NaN,0.260113855935945,0.474938296706163,0.237039878603172,-1.89839690026563,0.237039878602333,0.445593190925899,NaN,0.680100613125465,NaN,NaN,0.412343948433963,NaN,2.04720206785138,-1.26047799225278,NaN,-0.750444588792266,NaN,-0.0805550442207935,0.970120838871098,NaN,NaN,1.05750457563518,-1.6062721603099,-0.351628143992456,-1.49509627948592,-1.3980294869374,1.80421455151803,-0.253964120026192,1.25331944140121,0.503080758502926,0.851169292943284,0.851169292942795,NaN,NaN,-0.895142510105142,NaN,-1.43738117621598,-0.122160207950948,0.920673030528815,0.395428842021213,0.395428842017884,-0.841291636044039,0.841291636043735,0.866442961010722
358.6048,0.260291278673672,0.771441399429359,0.585943614130914,-1.85401038242604,1.73872842470315,1.73872842470552,NaN,0.231254812998589,0.475324134933634,0.204656096290367,-1.89392059061007,0.204656096289516,0.489414961779131,NaN,0.705335675904005,NaN,NaN,0.473332330016932,NaN,2.03604967226071,-1.25675244028452,NaN,-0.758013089722187,NaN,-0.0555219834869401,0.904622080831538,NaN,NaN,1.03387652614461,-1.57512454109939,-0.305460289218351,-1.48669058316716,-1.36897112915085,1.80634581003478,-0.298657488937837,1.22991426069093,0.496500693257197,0.883862197995859,0.883862197995387,NaN,NaN,-0.953341045077793,NaN,-1.43942418834023,-0.0740529183048829,0.883852053740148,0.442543401664539,0.442543401661217,-0.847071273385044,0.84707127338474,0.850217582233284
358.7072,0.295619022389258,0.733401186826406,0.602225884329797,-1.82561366774585,1.69638674432078,1.69638674432316,NaN,0.203105288246561,0.474909869035265,0.171921223336369,-1.88808913026801,0.171921223335503,0.533471006908119,NaN,0.730747145140954,NaN,NaN,0.534135240452007,NaN,2.02283430482176,-1.25231423947537,NaN,-0.766175420465912,NaN,-0.030221462064392,0.838473057882292,NaN,NaN,1.0098159816168,-1.54381226883829,-0.258596453813694,-1.47744199035694,-1.33888583192692,1.8083153589549,-0.342927896834421,1.2066210865838,0.489697730302354,0.915874038543607,0.915874038543153,NaN,NaN,-1.01087966457316,NaN,-1.44089213082665,-0.0265153785372857,0.847000685711822,0.488178177088979,0.488178177085658,-0.852965804692909,0.852965804692607,0.833861945228127
358.8096,0.331430836548656,0.695419518883611,0.618988138770793,-1.79826348046102,1.65365668393971,1.65365668394212,NaN,0.175803554702343,0.473796965265321,0.138941981743412,-1.8808702147187,0.138941981742534,0.57772170901511,NaN,0.756345644712926,NaN,NaN,0.594679886026481,NaN,2.00760439106996,-1.24711941370506,NaN,-0.774885396514819,NaN,-0.00471400602627757,0.771864337308411,NaN,NaN,0.985444404181154,-1.51238184992567,-0.21124618114411,-1.46742900896424,-1.30793866687751,1.81020315280949,-0.386657267156517,1.18356795986231,0.482651686474374,0.947227581163362,0.947227581162925,NaN,NaN,-1.06772385973274,NaN,-1.44180657370099,0.0203201685840036,0.810152925402597,0.53226156659172,0.532261566588395,-0.858944073034324,0.858944073034022,0.817370213809193
358.912,0.367706969603603,0.657639510681953,0.636275260048937,-1.77195927981468,1.61074603735387,1.61074603735629,NaN,0.149486690925777,0.472091443945747,0.105827536909365,-1.87223303110723,0.105827536908476,0.622129017745097,NaN,0.78214341527134,NaN,NaN,0.65489572352118,NaN,1.99041220330899,-1.24112683912824,NaN,-0.784091886708141,NaN,0.0209402861049218,0.704986784411093,NaN,NaN,0.960882870923784,-1.48087797215445,-0.16361708915717,-1.45672941775044,-1.27629318244495,1.81208591045712,-0.429729025346023,1.16087957631259,0.475340247887635,0.977946779636677,0.977946779636257,NaN,NaN,-1.12384099826656,NaN,-1.44218849162169,0.0663239546211204,0.773340899064268,0.574728962222106,0.574728962218776,-0.864974452594043,0.864974452593739,0.80073457081995
359.0144,0.404427987209882,0.620203325688334,0.654132006663088,-1.74669509611185,1.56786135735524,1.56786135735767,NaN,0.124289918607218,0.469903365843156,0.0726891010068547,-1.86214846216472,0.0726891010059568,0.666656367779,NaN,0.808153990250796,NaN,NaN,0.714714573828828,NaN,1.9713135200325,-1.23429869230905,NaN,-0.793739166914693,NaN,0.0466819256039996,0.638030690831891,NaN,NaN,0.936251493829219,-1.44934336167112,-0.11591381084656,-1.44541998218815,-1.24411066200562,1.81403624756242,-0.472028652110194,1.13867630549221,0.467739011993307,1.00805650993147,1.00805650993107,NaN,NaN,-1.17920031556344,NaN,-1.44205834270839,0.11136931706786,0.736594792248132,0.615522974200069,0.615522974196733,-0.871025262137718,0.871025262137413,0.783945389965799
359.1168,0.441574489650558,0.583251362514703,0.672602387649315,-1.72245962858062,1.52520685842222,1.52520685842467,NaN,0.100345901709354,0.46734627795231,0.0396395204077287,-1.85058930776415,0.0396395204068215,0.711268571951412,NaN,0.834391847215541,NaN,NaN,0.774070714740653,NaN,1.95036729388315,-1.22660091559003,NaN,-0.803767301696475,NaN,0.0724522109538459,0.571184917368066,NaN,NaN,0.911668844391834,-1.41781865346889,-0.0683369995077479,-1.43357618218373,-1.21154942280925,1.81612185992488,-0.513444227180084,1.11707325416279,0.459821574148248,1.0375823221577,1.03758232215732,NaN,NaN,-1.23377289481674,NaN,-1.44143614503145,0.155333317841705,0.699942789084107,0.654593618368776,0.654593618365429,-0.87706514983719,0.877065149836884,0.766991385413437
359.2192,0.479126805767479,0.546921460515994,0.691729023526432,-1.69923636449119,1.48298334045729,1.48298334045976,NaN,0.0777840175482507,0.464536614118041,0.00679285093015929,-1.83753052360652,0.00679285092924533,0.755931679449189,NaN,0.86087202863057,NaN,NaN,0.832900940166736,NaN,1.92763533259971,-1.2180036854358,NaN,-0.81411254740466,NaN,0.0981934033396438,0.504636067179745,NaN,NaN,0.887251393106239,-1.38634227718883,-0.02108241517331,-1.42127195601798,-1.17876416719535,1.81840477326085,-0.553866953939794,1.09617939185192,0.45155965760693,1.06655020766203,1.06655020766165,NaN,NaN,-1.28753163490015,NaN,-1.44034154596937,0.198097327476192,0.663411022813428,0.691898462073116,0.69189846206976,-0.883063447729762,0.883063447729453,0.749859740156408
359.3216,0.517064659076174,0.511348128414423,0.71155249135245,-1.67700372802677,1.44138714629762,1.44138714630011,NaN,0.0567296154735059,0.461593047815205,-0.0257360783297312,-1.82294947544711,-0.0257360783306538,0.800612797333556,NaN,0.887609731565007,NaN,NaN,0.891144583179512,NaN,1.90318198887111,-1.2084818596568,NaN,-0.824707773753241,NaN,0.12384890267336,0.43856769499237,NaN,NaN,0.863112971386693,-1.35495035852615,0.0256599031700651,-1.40857946470508,-1.14590539174837,1.82094066646181,-0.593191657407869,1.07609674819229,0.44292328705506,1.09498637897117,1.09498637897081,NaN,NaN,-1.34045120611286,NaN,-1.43879388016657,0.23954756608964,0.627023550344892,0.727402722748791,0.727402722745422,-0.888990502748092,0.888990502747782,0.732536220830442
359.424,0.555366811874889,0.476661792734442,0.732110657917446,-1.65573526358885,1.40060915819491,1.40060915819743,NaN,0.0373032745152874,0.458635800492829,-0.0578321121631719,-1.80682620767301,-0.0578321121641073,0.845279884137307,NaN,0.914619873633826,NaN,NaN,0.948743513357798,NaN,1.87707385237561,-1.19801537681235,NaN,-0.835482907662539,NaN,0.149363426187252,0.373159545943273,NaN,NaN,0.83936425769995,-1.32367663426508,0.0717063850747546,-1.39556887891099,-1.11311885351737,1.8237782666633,-0.631317256592762,1.05691968017632,0.433881008059591,1.12291706195943,1.12291706195909,NaN,NaN,-1.39250799656544,NaN,-1.43681221207741,0.279575606143144,0.590802365471768,0.761079315031726,0.761079315028353,-0.894817993565382,0.894817993565071,0.715005287737866
359.5264,0.594010699143257,0.442988059450552,0.753438009213557,-1.63539985388769,1.3608338339211,1.36083383392364,NaN,0.0196200636791128,0.455785915939788,-0.0893802246258557,-1.78914372853379,-0.0893802246267982,0.889901528900783,NaN,0.941916646531789,NaN,NaN,1.0056421270304,NaN,1.84937944214401,-1.18658958771546,NaN,-0.846365408139727,NaN,0.174683189120154,0.308586813310334,NaN,NaN,0.816112285655694,-1.2925523788641,0.116880602740274,-1.38230819196068,-1.08054509289042,1.82695880993644,-0.66814721844294,1.03873420049199,0.424400156702282,1.15036830428691,1.15036830428658,NaN,NaN,-1.44368005512757,NaN,-1.43441536017468,0.318078851183352,0.554767458789866,0.792908846846825,0.792908846843446,-0.900519238522074,0.900519238521758,0.697250206030316
359.6288,0.632972060382536,0.410446981541552,0.775564980591106,-1.61596197120325,1.32223828262759,1.32223828263014,NaN,0.00378880458745498,0.453164514864012,-0.120265980376954,-1.76988831755061,-0.12026598037791,0.934446725306866,NaN,0.969513065460616,NaN,NaN,1.06178734652783,NaN,1.82016890052982,-1.17419551048173,NaN,-0.857280781105933,NaN,0.19975608663089,0.245019406909041,NaN,NaN,0.793459971025744,-1.26160634256978,0.161013876082628,-1.36886306851331,-1.04831901891492,1.83051556358281,-0.703590000298624,1.02161735995888,0.414447185077218,1.17736580732832,1.177365807328,NaN,NaN,-1.49394703784496,NaN,-1.43162190030199,0.354961003121844,0.518936928073839,0.822879568147624,0.822879568144249,-0.906069497632935,0.906069497632615,0.679253160836124
359.7312,0.672224570323339,0.379152327773516,0.798517286396888,-1.59738195965604,1.28499138342418,1.28499138342675,NaN,-0.0100886566517453,0.450892042962809,-0.150376001868133,-1.74904985520884,-0.150376001869106,0.978884642845528,NaN,0.997420516354255,NaN,NaN,1.1171286322695,NaN,1.78951368798637,-1.16083000979017,NaN,-0.868153137506215,NaN,0.224531878669834,0.182621230928158,NaN,NaN,0.771505657134504,-1.23086470278278,0.203945810755867,-1.35529674042262,-1.01656956557925,1.8344734143048,-0.737559482637735,1.0056366863641,0.403988046832869,1.20393478652123,1.20393478652094,NaN,NaN,-1.54329016407983,NaN,-1.42845014736975,0.390132518426756,0.483327142348387,0.850987274840999,0.850987274837628,-0.911446271338201,0.911446271337878,0.66099537832543
359.8336,0.711739470734026,0.349210857921004,0.8223152534974,-1.57961634429951,1.24925295536149,1.24925295536408,NaN,-0.0219181458082797,0.449087521890189,-0.179598439602023,-1.72662216241891,-0.179598439603014,1.02318439282531,NaN,1.02564830150109,NaN,NaN,1.17161799605718,NaN,1.75748627861572,-1.14649590649879,NaN,-0.878905788106695,NaN,0.248962377550884,0.121549480182199,NaN,NaN,0.750342683088174,-1.20035103141796,0.245524770477123,-1.34166994885789,-0.985419417646998,1.83884853389326,-0.769975387659259,0.990849691202461,0.39298863966129,1.2300998538459,1.23009985384562,NaN,NaN,-1.59169218552442,NaN,-1.4249181157812,0.423511040444099,0.447952956252622,0.877235166877784,0.877235166874417,-0.916629591506573,0.916629591506245,0.642457256434132
359.936,0.751485215897987,0.320721622966592,0.846973178690077,-1.56261815997013,1.21517299174938,1.21517299175199,NaN,-0.0316137930361295,0.447867808028594,-0.207823437311083,-1.70260333063926,-0.207823437312097,1.06731478971961,NaN,1.05420318999786,NaN,NaN,1.22520999420248,NaN,1.72415986191461,-1.13120202824424,NaN,-0.889461859137442,NaN,0.273001630717908,0.0619539723033646,NaN,NaN,0.730058983844979,-1.17008628116675,0.285608287961722,-1.3280409127705,-0.954984787602902,1.84364813546551,-0.800763674487548,0.977303459569171,0.381415290743993,1.25588490158613,1.25588490158586,NaN,NaN,-1.63913736459174,NaN,-1.4210434575553,0.455021787927232,0.412827957794162,0.901633656171257,0.901633656167897,-0.921602287670308,0.921602287669976,0.623618510027891
360.0384,0.791427150382018,0.293775315464712,0.872498738628697,-1.54633729288604,1.18289097152641,1.18289097152905,NaN,-0.0390985761002157,0.447346860667242,-0.234943583742075,-1.67699602653691,-0.234943583743112,1.11124411425357,NaN,1.08308898618364,NaN,NaN,1.27786168315182,NaN,1.68960805756532,-1.11496321207061,NaN,-0.899744909502739,NaN,0.296606089065646,0.00397653413821712,NaN,NaN,0.7107367316239,-1.14008879083141,0.324063421566054,-1.31446529871985,-0.925375219760423,1.84887033197396,-0.82985689893563,0.965034339033236,0.369235263642231,1.2813129666641,1.28131296666385,NaN,NaN,-1.68561145464498,NaN,-1.4168433795451,0.484597879166828,0.377964724981394,0.924200118759348,0.924200118755997,-0.92635020821956,0.926350208219223,0.60445833283387
360.1408,0.831527233174101,0.268453691575889,0.898892474996574,-1.53072083275437,1.15253525738681,1.15253525738946,NaN,-0.044304765581044,0.447635021308524,-0.260854346445774,-1.64980775879229,-0.260854346446835,1.15493988817025,NaN,1.11230613106549,NaN,NaN,1.32953253458394,NaN,1.65390464491754,-1.09780026325099,NaN,-0.90967953286102,NaN,0.319734756350391,-0.0522495453544477,NaN,NaN,0.692452024766273,-1.11037430649331,0.360767062932146,-1.30099617936236,-0.896693408551954,1.85450410578106,-0.857194525690936,0.954067741098948,0.35641726581531,1.30640607043958,1.30640607043934,NaN,NaN,-1.73110167927677,NaN,-1.4123345489304,0.512180576855719,0.343375071491517,0.944958588866441,0.944958588863113,-0.930862385951439,0.930862385951101,0.584955575348139
360.2432,0.871743815920974,0.244829077389448,0.926147367769029,-1.51571343804793,1.12422258548542,1.12422258548809,NaN,-0.0471742761274926,0.448838309144594,-0.285454484180462,-1.6210510960761,-0.285454484181548,1.19836867027819,NaN,1.14185134936768,NaN,NaN,1.38018431808755,NaN,1.61712330445625,-1.07973986668909,NaN,-0.919191933399227,NaN,0.342349318861952,-0.106599990353018,NaN,NaN,0.675274625660532,-1.08095601574103,0.395606200119148,-1.28768397990366,-0.869035028274642,1.86052939141958,-0.882723185280364,0.944418061179239,0.342931942431105,1.33118503796787,1.33118503796764,NaN,NaN,-1.77559671577043,NaN,-1.40753299862512,0.537719448697723,0.309070270313731,0.963939399802943,0.963939399799631,-0.935131146554655,0.935131146554315,0.565088937437887
360.3456,0.912031483217343,0.222963964739857,0.95424850633,-1.50125771545892,1.09805764579452,1.09805764579719,NaN,-0.0476589293201916,0.451057741011493,-0.308646434001103,-1.59074382464937,-0.308646434002217,1.24149588366461,NaN,1.17171735338724,NaN,NaN,1.42978096335122,NaN,1.57933736825493,-1.06081444454892,NaN,-0.92821046924785,NaN,0.364414254787756,-0.158959941761831,NaN,NaN,0.659267745774818,-1.05184459355386,0.428478145990619,-1.27457641241779,-0.842488569526521,1.86691726700438,-0.906396875344911,0.936088713836949,0.328752348190622,1.35566929798691,1.35566929798669,NaN,NaN,-1.81908669114277,NaN,-1.40245403561504,0.561172447204329,0.2750612491415,0.981178783742617,0.981178783739325,-0.939152161514089,0.939152161513746,0.544837172725786
360.448,0.952340966438928,0.202910698310109,0.983172870016748,-1.48729460748945,1.07413274944504,1.07413274944773,NaN,-0.0457206262108651,0.454388686364925,-0.330336669125454,-1.55890902975317,-0.330336669126591,1.28428568710172,NaN,1.20189261637178,NaN,NaN,1.47828841632466,NaN,1.54061957611784,-1.04106195371909,NaN,-0.936666159380715,NaN,0.385896925561322,-0.209224293321643,NaN,NaN,0.64448787444584,-1.02304825552451,0.459290746327663,-1.26171839421491,-0.817135172251911,1.87363024686234,-0.928177110810576,0.929072274972701,0.313854392220168,1.37987666448307,1.37987666448286,NaN,NaN,-1.86156320120958,NaN,-1.39711214335481,0.582505918324022,0.241358752355701,0.996718446136168,0.996718446132899,-0.942924449669539,0.942924449669195,0.524179296148292
360.5504,0.992619142798956,0.184711253738738,1.01288922892226,-1.4737637782603,1.05252758003125,1.05252758003395,NaN,-0.0413314202820198,0.45892026947211,-0.350436023117033,-1.5255750835469,-0.350436023118194,1.32670090548511,NaN,1.23236122875107,NaN,NaN,1.52567450583609,NaN,1.5010418327142,-1.0205256166677,NaN,-0.944493149424214,NaN,0.406767656645676,-0.257297967013411,NaN,NaN,0.630984647864093,-0.994572810204261,0.487962581047187,-1.24915194645319,-0.793048445849997,1.88062266726061,-0.948033029004066,0.923350721287417,0.298217253531775,1.40382310527006,1.40382310526987,NaN,NaN,-1.90301936688276,NaN,-1.39152086586436,0.601694553922396,0.207973464122734,1.0106051294674,1.01060512946416,-0.946450334099315,0.94645033409897,0.50309478176514
360.6528,1.03280912682371,0.168397102340658,1.04335816975968,-1.46060399140044,1.03330902486265,1.03330902486535,NaN,-0.0344734851573889,0.464734829649163,-0.368859976302364,-1.49077553262495,-0.368859976303554,1.36870303071752,NaN,1.26310284635134,NaN,NaN,1.57190883370294,NaN,1.46067496196608,-0.999253580611847,NaN,-0.951629134549638,NaN,0.426999816441427,-0.303096136624846,NaN,NaN,0.618800753195673,-0.966421703994808,0.514423168116164,-1.23691607208267,-0.770294270995623,1.88784115750106,-0.965941455688766,0.918895757688517,0.281823767314709,1.42752250519387,1.42752250519368,NaN,NaN,-1.94344993911098,NaN,-1.3856926690366,0.618721303186419,0.174916088140883,1.02289017441488,1.02289017441165,-0.949735359110038,0.949735359109686,0.481563740573749
360.7552,1.07285045199528,0.1539891534803,1.07453224070605,-1.44775347978927,1.01653107819123,1.01653107819394,NaN,-0.0251389871260761,0.471907443976395,-0.385528904477602,-1.4545488967881,-0.385528904478817,1.41025229419066,NaN,1.29409272920376,NaN,NaN,1.61696269103058,NaN,1.419588461514,-0.977298507312836,NaN,-0.958015744015762,NaN,0.446569896611464,-0.346544407443301,NaN,NaN,0.607971862103503,-0.938596059073332,0.538613171301511,-1.22504661569295,-0.748930584740479,1.89522518991506,-0.981886937205499,0.91566922473165,0.264660783988779,1.45098643000425,1.45098643000407,NaN,NaN,-1.98285144947443,NaN,-1.37963878564409,0.633577250234164,0.142197385004491,1.03362907505012,1.03362907504692,-0.952788168397323,0.952788168396967,0.459567076487634
360.8576,1.11267932666315,0.141497766010713,1.10635619650885,-1.43515030696004,1.00223480736505,1.00223480736777,NaN,-0.013329886783664,0.480505508799298,-0.400368296052258,-1.41693840833192,-0.400368296053501,1.45130779672187,NaN,1.32530185503203,NaN,NaN,1.66080899163497,NaN,1.3778502706503,-0.954717110867621,NaN,-0.963598892848244,NaN,0.465457588281419,-0.387578952195129,NaN,NaN,0.598526592520957,-0.911094711376427,0.560484596494303,-1.21357611160016,-0.72900716142483,1.90270770451179,-0.995861740731427,0.913623581684243,0.246719499978675,1.47422389611491,1.47422389611474,NaN,NaN,-2.02122238598206,NaN,-1.37336905712643,0.646261455871611,0.109828175627046,1.04288101404037,1.04288101403718,-0.955620342952539,0.955620342952173,0.437086626907127
360.96,1.15222893751616,0.130922825900827,1.13876731752841,-1.42273271391853,0.990448378131523,0.990448378134256,NaN,0.000942305069138571,0.490588371929859,-0.413308946459557,-1.3779917293081,-0.413308946460823,1.49182766983005,NaN,1.3566970808487,NaN,NaN,1.70342220768316,NaN,1.33552657051327,-0.931569673375756,NaN,-0.968329098589434,NaN,0.483645842903861,-0.426146593329724,NaN,NaN,0.59048650431423,-0.883914256820384,0.58000094776675,-1.20253363099528,-0.710565412133639,1.91021580540265,-1.00786581956872,0.912702464716079,0.227995752457049,1.49724115342693,1.49724115342678,NaN,NaN,-2.05856336565027,NaN,-1.36689178738302,0.656780756495641,0.0778193230898344,1.05070836371641,1.05070836371325,-0.958246197736334,0.958246197735961,0.414105296585423
