time,S1-D1,S1-D8,S1-D9,S1-D15,S2-D1,S2-D2,S2-D3,S2-D9,S3-D1,S3-D2,S3-D16,S4-D2,S4-D3,S4-D5,S5-D3,S5-D4,S5-D5,S6-D2,S6-D5,S6-D17,S7-D6,S7-D7,S8-D6,S8-D7,S8-D18,S9-D3,S9-D4,S9-D9,S9-D11,S9-D19,S10-D8,S10-D9,S10-D10,S10-D11,S11-D8,S11-D10,S11-D20,S12-D10,S12-D11,S12-D12,S13-D4,S13-D11,S13-D12,S14-D10,S14-D12,S14-D21,S15-D13,S15-D14,S16-D13,S16-D14,S16-D22
765.3376,0.546539201960597,-1.16872107209749,NaN,0.861759425117446,-0.545718479881774,-0.545718479880768,NaN,NaN,-0.524040395859672,0.603268354018958,NaN,-0.242600760808753,0.984309974941164,-1.10402914255742,0.578604251851912,0.794221229942684,-1.64366580620648,-0.965778232367013,-1.07680192329177,0.811602473119542,-1.07680192329155,0.272207549038266,0.254898505459734,1.31966067798155,0.529805262825804,-0.806735650764445,NaN,NaN,-1.36594278778861,0.203360017328296,0.477564447263918,-0.459376377199555,0.0751458176290623,0.921770305525014,-2.34856504372584,-1.037985515633,1.06780200924664,-1.38971854541179,-1.38971854541154,-0.395752304838633,NaN,-0.219322041606945,-0.18468934894246,-1.22062393039539,-2.20094257787542,0.492590463495995,-2.13266263857169,-2.13266263857161,1.83573744740491,-1.8357374474039,0.56872394137414
765.44,0.581050796663025,-1.16465363267715,NaN,0.855515027293969,-0.589878835244967,-0.589878835244024,NaN,NaN,-0.516074135296381,0.560728946686047,NaN,-0.283806751365642,0.988230453015618,-1.12455330886297,0.573854539802713,0.793524579962816,-1.59909001438175,-0.910850870220018,-1.07762321519274,0.814411181845695,-1.07762321519255,0.276647685183069,0.242518345576394,1.30028750055462,0.523291176402521,-0.769187831135375,NaN,NaN,-1.35001552333363,0.169195406602381,0.454145630622025,-0.433205526335407,0.0756653051002939,0.903342336885265,-2.27582474635267,-0.994909300052273,1.06989022552106,-1.3298619518535,-1.32986195185324,-0.414367176050211,NaN,-0.20656117643193,-0.210914593255418,-1.1921119924467,-2.19959149413682,0.499912743347991,-2.09142706475326,-2.09142706475317,1.8030876021616,-1.80308760216058,0.526330360023081
765.5424,0.616019957031197,-1.16117683105878,NaN,0.848901815609708,-0.635582345313669,-0.635582345312787,NaN,NaN,-0.50898634958977,0.518253515529425,NaN,-0.325069815359318,0.992390813497376,-1.14527206150237,0.569278413200205,0.791881921446114,-1.55276762462079,-0.855037947525516,-1.07725589599098,0.817058751526121,-1.07725589599081,0.27996324327034,0.230861710617222,1.27985595156285,0.516485678887813,-0.730607348109969,NaN,NaN,-1.33357773255918,0.13500897139768,0.430596477227709,-0.407368676057147,0.0756342447787474,0.884304435407986,-2.20045844226199,-0.950218239229198,1.07079369057789,-1.26872283706406,-1.26872283706378,-0.43255621701247,NaN,-0.193762560035187,-0.238079531118825,-1.16232077268892,-2.19779132168542,0.506586217352232,-2.04904399331083,-2.04904399331074,1.769745066977,-1.76974506697597,0.484630198282642
765.6448,0.651337279159311,-1.15826590404306,NaN,0.841914273463767,-0.68269187236592,-0.682691872365105,NaN,NaN,-0.502800062588325,0.475872175921598,NaN,-0.36634100033012,0.996791463423295,-1.16616204413671,0.564886527645011,0.789286947745535,-1.50477555769482,-0.798444600379286,-1.07577045109176,0.819502704108744,-1.07577045109162,0.282107617104205,0.219978926973797,1.25837247298048,0.509386607564937,-0.691005819861826,NaN,NaN,-1.31671099496395,0.100814335343085,0.406952480778706,-0.381886077106072,0.0750742497368952,0.86475236756793,-2.12261959829805,-0.90394179653273,1.0705078516046,-1.20639196420452,-1.20639196420422,-0.45030445278218,NaN,-0.180902822102569,-0.266135152305175,-1.1312732190262,-2.19549741009459,0.512622003005727,-2.00561405988009,-2.00561405987999,1.73583215707627,-1.73583215707523,0.443708101332552
765.7472,0.68689190985966,-1.15589264063844,NaN,0.834548101015052,-0.731067793819851,-0.731067793819094,NaN,NaN,-0.497535253999304,0.433612329099671,NaN,-0.407572153209318,1.00143102127719,-1.1872010181362,0.560687120951739,0.785737890723132,-1.45519335339387,-0.741172991229229,-1.07323892297794,0.821701133167828,-1.07323892297782,0.283037637353772,0.209917588539907,1.23584545210251,0.50199289214078,-0.650397082012142,NaN,NaN,-1.29949693580365,0.0666247449916391,0.38325132055566,-0.356778446520166,0.0740091646754602,0.844788568094381,-2.04246790705403,-0.856107625634749,1.06903320996618,-1.14296322572401,-1.14296322572369,-0.467597892625657,NaN,-0.16795954905758,-0.295028331892266,-1.09899707982757,-2.19266582942822,0.518033702990847,-1.96123796530399,-1.96123796530388,1.70146745605161,-1.70146745605055,0.40364511241952
765.8496,0.722571890946397,-1.15402546032136,NaN,0.826800197146029,-0.780568339092348,-0.780568339091656,NaN,NaN,-0.493208753303584,0.391498788195164,NaN,-0.448715978888348,1.00630633547712,-1.20836778313947,0.556686067835992,0.781237453728687,-1.40410286302616,-0.683322015743126,-1.06973442841832,0.82361290543631,-1.06973442841823,0.282713508046675,0.200722452839449,1.21228480385346,0.494304604068978,-0.608797179538222,NaN,NaN,-1.28201684281308,0.032453025387392,0.359532718453514,-0.332066925004438,0.0724649339354436,0.824521711749306,-1.96016883463194,-0.806741641331565,1.06637532041805,-1.07853345119015,-1.0785334511898,-0.484423556141497,NaN,-0.154911479592312,-0.32470217650092,-1.06552484669986,-2.1892538487947,0.522837296760369,-1.91601622383763,-1.91601622383751,1.66676534866703,-1.66676534866596,0.364518368781609
765.952,0.758264536248377,-1.15262950442857,NaN,0.818668620499448,-0.831049935124586,-0.831049935123953,NaN,NaN,-0.489834114955063,0.349553928966299,NaN,-0.489726081421056,1.01141251424475,-1.22964209711904,0.55288694709243,0.775792725350103,-1.35158796076037,-0.624987059811309,-1.06533069833815,0.825197867146726,-1.06533069833808,0.281098757098113,0.192435339480249,1.18770159438907,0.486322990112283,-0.566224375258972,NaN,NaN,-1.26435128666622,-0.00168848487353881,0.335838290201417,-0.307773067713325,0.0704694235937553,0.804066174035219,-1.87589316158958,-0.755868204384658,1.06254476954682,-1.01320222793517,-1.0132022279348,-0.500769513475902,NaN,-0.141738682295944,-0.355096383467796,-1.03089368333746,-2.18522041445171,0.527051017208557,-1.87004891644447,-1.87004891644434,1.63183558752864,-1.63183558752755,0.32640084762649
766.0544,0.793856852107334,-1.15166673566666,NaN,0.810152534168044,-0.882367556329121,-0.882367556328562,NaN,NaN,-0.487421491316936,0.307797863894036,NaN,-0.530556990748886,1.01674296954591,-1.25100459228389,0.549291125768859,0.769415077672826,-1.29773426823157,-0.566259794536526,-1.06010163804738,0.826417063078244,-1.06010163804734,0.278160201175734,0.185095034122639,1.16210771463774,0.478050494781321,-0.522699163495837,NaN,NaN,-1.24657974552063,-0.0357880102330711,0.312211381377077,-0.283918857963148,0.0680521978323969,0.783541390761874,-1.78981650836701,-0.703510402122248,1.05755713605849,-0.947071720092603,-0.947071720092209,-0.516624941467973,NaN,-0.128422719219174,-0.386147605539216,-0.995145338864303,-2.18052661284487,0.530695214699128,-1.82343542983776,-1.82343542983763,1.59678288710586,-1.59678288710477,0.289361165349194
766.1568,0.82923600451789,-1.15109603974085,NaN,0.801252138547188,-0.934375075271221,-0.934375075270736,NaN,NaN,-0.485977521008406,0.266248633712824,NaN,-0.571164179017339,1.02228946673296,-1.27243668601109,0.545897851664016,0.762120051849187,-1.24262888190624,-0.507227992178951,-1.05412090153652,0.827232969439341,-1.0541209015365,0.273867922548028,0.178737202580892,1.13551560924554,0.469490774982986,-0.478244275313208,NaN,NaN,-1.22878023413315,-0.0698344136947045,0.288696880810146,-0.26052673179902,0.0652442541299271,0.763071136432989,-1.7021188311208,-0.649690391068794,1.05143293241896,-0.880246465818027,-0.880246465817611,-0.531980193903934,NaN,-0.114946798419899,-0.417789814605284,-0.958326039877481,-2.17513609895189,0.533792209563129,-1.77627415874685,-1.77627415874671,1.56170655130516,-1.56170655130405,0.25346342661792
766.2592,0.864289820219109,-1.15087332683892,NaN,0.791968593791023,-0.986925614289164,-0.986925614288756,NaN,NaN,-0.485505243648832,0.224922408352733,NaN,-0.61150406674149,1.02804216558375,-1.29392049175315,0.54270433655742,0.753927231165997,-1.18636010021513,-0.447975359046571,-1.04746148244003,0.827609726750188,-1.04746148244005,0.268195255686483,0.173394318078726,1.10793806275041,0.460648707724177,-0.432884671649822,NaN,NaN,-1.21102893724306,-0.103817262863404,0.265341007391488,-0.237619588763926,0.0620777406722246,0.742782741255403,-1.61298388399305,-0.594429776782951,1.04419752551851,-0.812833147943809,-0.812833147943368,-0.546826879674915,NaN,-0.101295914350986,-0.449954661518161,-0.920486360210219,-2.16901548355915,0.536366133165228,-1.72866216812029,-1.72866216812013,1.52670015464283,-1.52670015464171,0.218767113439618
766.3616,0.898907301005673,-1.15095163527719,NaN,0.782303929271421,-1.03987190268302,-1.0398719026827,NaN,NaN,-0.486004038706042,0.183833688233005,NaN,-0.65153401777237,1.03398964622966,-1.31543873823821,0.539705819515407,0.744860099304586,-1.12901715728563,-0.388581397075092,-1.04019533315297,0.827513357318246,-1.04019533315301,0.261118786410047,0.1690955997956,1.07938804543868,0.451530387979108,-0.386647531520362,NaN,NaN,-1.19339984683212,-0.137726881199907,0.242191067762811,-0.215220756215488,0.0585856904597565,0.722806259081711,-1.52259865306518,-0.53775002215763,1.03588103397108,-0.744940345560783,-0.74494034556032,-0.561157944117838,NaN,-0.0874569737335768,-0.482571838815771,-0.881681061834168,-2.16213468041932,0.538442755514931,-1.68069482467625,-1.68069482467608,1.4918512924593,-1.49185129245818,0.185326999355375
766.464,0.932979134161384,-1.15128124248855,NaN,0.77226093652987,-1.09306664537649,-1.09306664537626,NaN,NaN,-0.487469576072743,0.142995497639961,NaN,-0.691212326109872,1.04011892811616,-1.3369747020396,0.53689561683498,0.734945883004146,-1.07068997657614,-0.329121311863791,-1.03239302181465,0.82691196448379,-1.03239302181472,0.252618372495761,0.165866956701288,1.04987862663655,0.442143110308767,-0.339562247767415,NaN,NaN,-1.17596440636766,-0.171554374814151,0.219295180736463,-0.193353881511757,0.0548017964809598,0.703273589448846,-1.43115276845729,-0.479672886360714,1.02651820005074,-0.67667827353764,-0.676678273537155,-0.574967753240626,NaN,-0.0734189074256514,-0.515569460206971,-0.841968890590028,-2.15446721063733,0.540049295155019,-1.63246540711432,-1.63246540711414,1.45724140148515,-1.45724140148402,0.153193076306191
766.5664,0.966398187615389,-1.1518097891558,NaN,0.76184304586255,-1.14636290230257,-1.1463629023024,NaN,NaN,-0.489893767086519,0.102419567748168,NaN,-0.730498199378771,1.04641549691221,-1.35851215208443,0.534265175337625,0.724215382040484,-1.01146896096725,-0.269665983908276,-1.02412342729435,0.825775915319912,-1.02412342729445,0.242677194472455,0.163730933016031,1.01942296845181,0.432495330019361,-0.291660442901614,NaN,NaN,-1.15879116860764,-0.205291621509374,0.196701964512233,-0.172042739716397,0.0507602372168274,0.684317549019391,-1.33883790371768,-0.420220907400244,1.01614823510842,-0.608158520605878,-0.608158520605374,-0.588252180235328,NaN,-0.0591727703363272,-0.548874465738691,-0.801412317365285,-2.14599046431828,0.541214206952679,-1.58406470850116,-1.58406470850097,1.42294564804362,-1.42294564804249,0.122410491250257
766.6688,0.999059980846268,-1.15248242028419,NaN,0.75105419131361,-1.19961446855321,-1.1996144685531,NaN,NaN,-0.493264713950321,0.062116512857504,NaN,-0.769351741661534,1.05286334933192,-1.38003530064071,0.531804142146831,0.712702790596644,-0.95144483315315,-0.210282014766413,-1.015453465625,0.824078001219818,-1.01545346562511,0.231281836496223,0.162706658746842,0.9880344082425,0.422596606948752,-0.242976012518674,NaN,NaN,-1.14194547378914,-0.238931214293872,0.174460189572094,-0.151310960760277,0.0464955515848489,0.666070884341188,-1.24584717708271,-0.359417949664457,1.00481463954527,-0.539493807174798,-0.539493807174267,-0.601008689392231,NaN,-0.0447118280744661,-0.582413047966362,-0.760077237432752,-2.13668593157901,0.541966946485279,-1.5355806540108,-1.53558065401059,1.38903288473821,-1.38903288473707,0.0930194995852822
766.7712,1.03086312279164,-1.15324194377995,NaN,0.739898671404201,-1.25267624409146,-1.25267624409141,NaN,NaN,-0.497566661969328,0.0220960024163347,NaN,-0.807733938221458,1.05944505760039,-1.40152875318009,0.529500456142853,0.700445511892104,-0.8907085308683,-0.151031851269437,-1.00644784405871,0.821793568084811,-1.00644784405885,0.218422389309922,0.162809811360024,0.955726624547298,0.412457539899097,-0.193545196919239,NaN,NaN,-1.12548915526275,-0.272466359845336,0.152618408433379,-0.131181698400037,0.0420425517135345,0.648665224089739,-1.15237456782039,-0.297289829857553,0.992565001373119,-0.47079778290632,-0.470797782905768,-0.613236410689945,NaN,-0.0300316235855111,-0.61611108349308,-0.718032658674982,-2.1265394250766,0.542337716453287,-1.48709796237252,-1.4870979623723,1.35556567923404,-1.3555656792329,0.0650554470176487
766.8736,1.06170970895782,-1.15402900500562,NaN,0.728381013265158,-1.30540458652693,-1.30540458652691,NaN,NaN,-0.502779957754713,-0.0176330732937372,NaN,-0.845606645872604,1.06614185071958,-1.42297744805239,0.52734046199206,0.687483962383067,-0.829351148767343,-0.0919739826041964,-0.997168843413833,0.818900613900286,-0.997168843414001,0.204092567762646,0.164052590561716,0.922513872301546,0.402089698759573,-0.143406677357722,NaN,NaN,-1.109480279611,-0.305890733739849,0.131224575345698,-0.11167727232256,0.0374362539582671,0.632229983006555,-1.05861434914247,-0.233865009430416,0.979450778733744,-0.40218486411756,-0.402184864116984,-0.62493619999508,NaN,-0.0151300164980358,-0.649894555288053,-0.675350405479456,-2.11554131179194,0.542357206841214,-1.43869787028418,-1.43869787028394,1.32260041817304,-1.3226004181719,0.038548788306822
766.976,1.09150567481304,-1.15478227629912,NaN,0.716505845462409,-1.35765764423722,-1.35765764423725,NaN,NaN,-0.508881014738292,-0.0570624460924421,NaN,-0.88293259064593,1.07293370865957,-1.44436657938155,0.525309045455094,0.673861354740977,-0.76746390935746,-0.0331632030791245,-0.98767612831989,0.815379859074771,-0.987676128320082,0.188289838234302,0.16644370359509,0.8884112691431,0.391505557033303,-0.0926016915090782,NaN,NaN,-1.09397292527749,-0.339198292531997,0.110325667029644,-0.0928188100966517,0.0327118114136993,0.616891240218091,-0.96476052691274,-0.169175319689206,0.965527069570767,-0.333770090643821,-0.333770090643224,-0.636110682988335,NaN,-7.19486801171407e-06,-0.683689960990797,-0.632104841421255,-2.10368675105801,0.542056339756093,-1.39045791539274,-1.3904579153925,1.29018748082439,-1.29018748082324,0.0135251417707551
767.0784,1.12016111000657,-1.15543866393684,NaN,0.704277780066371,-1.40929567079861,-1.40929567079868,NaN,NaN,-0.515842289023169,-0.0961843205588906,NaN,-0.919675371061564,1.07979946674601,-1.46568150299585,0.523389787112373,0.659623445618616,-0.705138144247626,0.0253490636268978,-0.978026584973665,0.811214800041727,-0.978026584973877,0.171015551787663,0.169988355695005,0.853435108975999,0.380718424438033,-0.0411741607483192,NaN,NaN,-1.07901700157129,-0.372383047817247,0.0899673167918407,-0.074625908770728,0.0279044407089599,0.602770615347636,-0.871006273249969,-0.103256684867113,0.950852367351373,-0.265668979752209,-0.26566897975159,-0.646764285226697,NaN,0.0153343331429949,-0.717424703888176,-0.588372601022205,-2.09097591830059,0.541466025017853,-1.34245175852644,-1.34245175852618,1.25837146567221,-1.25837146567107,-0.009994630014126
767.1808,1.14759054240281,-1.15593353883382,NaN,0.691701300936913,-1.46018132564199,-1.46018132564211,NaN,NaN,-0.523632267380013,-0.134991231089863,NaN,-0.955799464239991,1.08671693109559,-1.48690763034772,0.521565133258043,0.644818237586516,-0.64246526915851,0.0835143848525108,-0.968274190434319,0.806391756111681,-0.968274190434552,0.152275078963013,0.174688239748017,0.817603177728309,0.369742380142975,0.0108291803549033,NaN,NaN,-1.06465811077874,-0.405438818013408,0.0701934773958022,-0.0571163334748409,0.0230493425466522,0.589984161498153,-0.777543353881498,-0.036149821571155,0.93548829974511,-0.197997366448079,-0.197997366447434,-0.656903252976807,NaN,0.0308897593672981,-0.751027451816333,-0.544232334923723,-2.07741419706165,0.540616931556499,-1.29474903704079,-1.29474903704052,1.22719145263461,-1.22719145263347,-0.0319943243935335
767.2832,1.1737132001874,-1.1562009967991,NaN,0.678780655868972,-1.51017996635862,-1.51017996635876,NaN,NaN,-0.532215464982634,-0.173475904596624,NaN,-0.99127023049755,1.09366300996973,-1.508030315055,0.519816587188541,0.629495632862391,-0.579536736487859,0.141286901018538,-0.958469918597977,0.800899910417607,-0.958469918598231,0.132077939348938,0.180541524645897,0.780935052651077,0.358592209769099,0.0633586618029266,NaN,NaN,-1.05093745452153,-0.438358979244421,0.051046125722902,-0.0403057652258848,0.0181816184277585,0.578641289474533,-0.684561553454974,0.032099097266311,0.919499349969152,-0.13087122877226,-0.130871228771585,-0.666535665348731,NaN,0.0466520064667432,-0.784428445311655,-0.499764486003584,-2.06301233595354,0.539539280600005,-1.24741525994828,-1.24741525994799,1.19668129339178,-1.19668129339064,-0.0524622967902831
767.3856,1.19845325654452,-1.15617414804287,NaN,0.665519755128121,-1.55915993469351,-1.55915993469367,NaN,NaN,-0.541552433037262,-0.211631126016542,NaN,-1.02605390943634,1.10061386392096,-1.52903473053752,0.518124924653369,0.613707045487659,-0.516443950178135,0.198622897667526,-0.948661682924487,0.794731334112989,-0.948661682924759,0.110437912809263,0.187542850759305,0.743452372775064,0.347283350895261,0.116361570309618,NaN,NaN,-1.03789177993933,-0.471136231640762,0.0325650117035201,-0.024207596800665,0.0133361880152981,0.568843735057562,-0.592248097882407,0.10143782748606,0.902952565454537,-0.0644064962613056,-0.0644064962605998,-0.675671429860063,NaN,0.0626117762410775,-0.817559751990829,-0.455051102343025,-2.04778657477902,0.538262664896456,-1.20051175709032,-1.20051175709001,1.16686992802161,-1.16686992802047,-0.0713913590768818
767.488,1.22174005708533,-1.15578542862154,NaN,0.651922084279041,-1.60699283575501,-1.60699283575521,NaN,NaN,-0.551599786382509,-0.249449602377002,NaN,-1.06011760122062,1.10754506664657,-1.54990573195478,0.516470427720208,0.597504982302183,-0.453278131088543,0.255480396541119,-0.938894309459502,0.787880980899961,-0.938894309459795,0.0873731189486196,0.195683342649558,0.705179071571277,0.33583185220596,0.169782061198437,NaN,NaN,-1.02555335764474,-0.503762388113235,0.0147874398435325,-0.0088327613539198,0.00854771002191851,0.560684583293678,-0.500787065651628,0.17180750990869,0.885917260060332,0.00128116626372895,0.00128116626446289,-0.684322250628758,NaN,0.0787576198294059,-0.850355483654078,-0.410175670193505,-2.03175874064908,0.536815896093418,-1.1540956788281,-1.15409567882778,1.13778172254355,-1.13778172254241,-0.0887786784471842
767.5904,1.24350832815192,-1.15496692473931,NaN,0.637990639078417,-1.65355381171213,-1.65355381171237,NaN,NaN,-0.562310266357634,-0.286923823489866,NaN,-1.09342923074234,1.11443175813145,-1.57062770097784,0.514833117833046,0.580942601245543,-0.390130127878778,0.311818783713158,-0.929209530644319,0.780346648913228,-0.929209530644635,0.0629060608810232,0.204950641281571,0.666141567446125,0.324254349156458,0.223561094901932,NaN,NaN,-1.01394998428058,-0.536228189368049,-0.00225193689672327,0.00581042784967886,0.00385050592741937,0.55424736732792,-0.41035878062804,0.243142223045988,0.868464711919948,0.0660766106254862,0.0660766106262474,-0.692501567816578,NaN,0.0950760228274925,-0.882751995742555,-0.365222940299911,-2.01495630484466,0.535226880228752,-1.10822002580043,-1.10822002580009,1.10943681628077,-1.10943681627963,-0.104625672922686
767.6928,1.26369836584915,-1.15365070344487,NaN,0.623727884452244,-1.69872181346012,-1.69872181346038,NaN,NaN,-0.573632848877462,-0.324045921340689,NaN,-1.12595749632852,1.12124877410008,-1.59118438439095,0.513192966019798,0.56407325513856,-0.327090178041876,0.367598480205753,-0.919645994341791,0.772128918903848,-0.919645994342125,0.0370636366741012,0.215328951627786,0.62636891044677,0.312568054431652,0.277636403375668,NaN,NaN,-1.00310500507227,-0.568523150722627,-0.0185213276048598,0.0197164460584573,-0.000721512215859277,0.549605257923147,-0.321139185950435,0.315368650088904,0.850667853607288,0.129865500437362,0.129865500438149,-0.700224479598029,NaN,0.111551493622037,-0.9146880743695,-0.320278730578494,-1.99741238253841,0.53352251636458,-1.06293368368363,-1.06293368368327,1.08185146429794,-1.0818514642968,-0.118937902796505
767.7952,1.28225620819444,-1.1517691453995,NaN,0.609135735269161,-1.74237987210077,-1.74237987210104,NaN,NaN,-0.585512899122726,-0.360807533066847,NaN,-1.15767180753271,1.12797074810429,-1.61155874284271,0.511530069149229,0.546950030782291,-0.264247629936508,0.422780655047315,-0.910239290842106,0.763231082349529,-0.910239290842463,0.00987711821439999,0.226799103724847,0.585892879738804,0.300790758471521,0.331942492667899,NaN,NaN,-0.993037354335785,-0.600635445322261,-0.0339920221353484,0.0328827440909289,-0.00513490311984926,0.546820352533587,-0.233299205455821,0.388405864175775,0.83260095025223,0.192534649309582,0.192534649310397,-0.707507659070039,NaN,0.128166651927661,-0.946105101673515,-0.275429704397645,-1.97916565904214,0.531728608710094,-1.01828144632711,-1.01828144632673,1.0550383578475,-1.05503835784637,-0.131724960115029
767.8976,1.29913379345908,-1.14925527710552,NaN,0.59421555631421,-1.78441536903556,-1.78441536903586,NaN,NaN,-0.597892369360062,-0.397199672655015,NaN,-1.18854221754648,1.13457219306056,-1.63173282091935,0.509824794698324,0.529625291788402,-0.201690636568379,0.477326978895262,-0.901022004729844,0.753659070577237,-0.901022004730225,-0.0186179084677462,0.239338629647189,0.544748022854275,0.2889408352155,0.386410686175706,NaN,NaN,-0.983761613792548,-0.632551824959014,-0.0486386078949164,0.0453099493307318,-0.00935673906558807,0.545943062911791,-0.14700410367548,0.462165221279069,0.814339263656996,0.253972393694227,0.253972393695073,-0.714369269592078,NaN,0.144902324173116,-0.976947188000571,-0.230763133253956,-1.96026023741336,0.529869781939015,-0.974304022606233,-0.974304022605842,1.02900690644762,-1.02900690644649,-0.1430003550242
768,1.31428910786948,-1.1460431030145,NaN,0.578968178779278,-1.82472030185971,-1.82472030186005,NaN,NaN,-0.610710033651261,-0.43321261392359,NaN,-1.21853935423661,1.14102757435597,-1.6516876421972,0.508057905500271,0.512150231072249,-0.13950583138633,0.531199413530215,-0.892023794333835,0.743421389903253,-0.892023794334233,-0.0483816468224997,0.252921859564073,0.502971630845063,0.277037249304805,0.440969208944265,NaN,NaN,-0.975288088071832,-0.664257579974606,-0.0624391659963445,0.0570020629551337,-0.0133546269086804,0.547011592603546,-0.0624128578745573,0.536550339713692,0.795958702769068,0.314068986477735,0.314068986478608,-0.720828874723768,NaN,0.161737654470027,-1.00716126197817,-0.186366656915241,-1.9407454131001,0.527969391933092,-0.931038029492983,-0.931038029492577,1.00376346966537,-1.00376346966424,-0.152781395707518
768.1024,1.32768632454967,-1.14206793964109,NaN,0.563393930148448,-1.86319154204553,-1.86319154204591,NaN,NaN,-0.623901751870221,-0.468835785663919,NaN,-1.24763435371254,1.14731138811635,-1.67140312721088,0.506210680035863,0.494574440647892,-0.0777779987432302,0.584360031893753,-0.883271494052172,0.732529058938301,-0.883271494052586,-0.0793702400786956,0.267520040446256,0.460603651261206,0.265099562855427,0.495543310780347,NaN,NaN,-0.967622895710348,-0.695736542810946,-0.0753754281630275,0.0679666293660529,-0.0170967114202134,0.550051494484885,0.0203224460766918,0.61145714543149,0.777535464376722,0.372716998333358,0.372716998334259,-0.726907335807126,NaN,0.178650239179705,-1.03669710972271,-0.142328057583812,-1.92067538700852,0.526049429723746,-0.888515977966791,-0.888515977966365,0.979311534692975,-0.979311534691854,-0.161089060172287
768.2048,1.33929593126058,-1.13726675094156,NaN,0.547492676666754,-1.89973107954129,-1.89973107954169,NaN,NaN,-0.637400760423224,-0.504057681154266,NaN,-1.27579880370744,1.15339825312887,-1.69085802846214,0.504265039996514,0.476945509637737,-0.0165897511657545,0.636770868489231,-0.874789231734314,0.720995536687612,-0.874789231734742,-0.111535968843059,0.283101482511285,0.417686549951447,0.253147942564373,0.550055425834492,NaN,NaN,-0.960768075880632,-0.726971137821977,-0.0874328835531721,0.0782148553752153,-0.0205516731390809,0.555075304646028,0.101057188486582,0.686773974339484,0.759145673582773,0.429811722088101,0.429811722089026,-0.732626689053812,NaN,0.195616290563511,-1.06550735892232,-0.0987350605561562,-1.90010892941594,0.52413042434898,-0.846766262018006,-0.846766262017563,0.955651847044269,-0.955651847043156,-0.167947857331417
768.3072,1.34909484148766,-1.13157847898912,NaN,0.531263881700961,-1.93424625022667,-1.93424625022708,NaN,NaN,-0.651137997487546,-0.538865783869068,NaN,-1.30300470441103,1.15926301322912,-1.71002987704609,0.502203684050985,0.459308659275534,0.0439787813363399,0.68839380569097,-0.866598555308535,0.708836632798215,-0.866598555308979,-0.144827493448148,0.299631736555413,0.374265135933985,0.241203170131531,0.60442536755032,NaN,NaN,-0.954721713313477,-0.757942471626073,-0.0986008336798989,0.0877616647475333,-0.0236887350350652,0.562082260410372,0.179654762468183,0.762381741078407,0.740865034953936,0.485251585850967,0.485251585851914,-0.738009998595406,NaN,0.212610825740702,-1.09354741670394,-0.0556751555295333,-1.87910900023587,0.522231355270905,-0.80581315782115,-0.80581315782069,0.932782508934983,-0.932782508933874,-0.173385672587182
768.4096,1.35706648472121,-1.12494436238629,NaN,0.514706683382975,-1.96664994337941,-1.96664994337982,NaN,NaN,-0.665042473792258,-0.573246507855455,NaN,-1.32922444895478,1.16488083672332,-1.72889494107827,0.500010213252788,0.441706416541875,0.103850249448048,0.739190497628336,-0.858718563303721,0.696070401355586,-0.858718563304181,-0.179190134759451,0.317073799903753,0.330386359654318,0.22928665930465,0.658570559971333,NaN,NaN,-0.949478082281069,-0.788630453897899,-0.108872397736381,0.0966256847932162,-0.026477684727473,0.571058119115092,0.255987094191828,0.83815419375672,0.722768498350707,0.538938582726346,0.538938582727316,-0.743081193343764,NaN,0.229607865000643,-1.12077538164117,-0.0132354126063291,-1.8577423186492,0.520369583503593,-0.76567683190119,-0.765676831900711,0.910699057657021,-0.910699057655912,-0.177433594787519
768.512,1.36320087316447,-1.11730823815385,NaN,0.497819989555504,-1.99686078626683,-1.99686078626724,NaN,NaN,-0.679041689819741,-0.607185150649686,NaN,-1.35443082158452,1.17022729904669,-1.74742820167052,0.497669230692154,0.42417832551306,0.162950365682476,0.78912232469574,-0.851166029835549,0.682717022230318,-0.851166029836027,-0.21456618343113,0.335388345347326,0.286099096052345,0.217420481036316,0.712406306921681,NaN,NaN,-0.945027807449843,-0.819013943586189,-0.11824447017518,0.104829170903047,-0.0288889078015326,0.581975092588592,0.329935133937155,0.9139582683177,0.704929935640308,0.590778716668721,0.590778716669716,-0.747864903374313,NaN,0.246580620253266,-1.14715195012907,0.0284977361779424,-1.83607886988759,0.518560806014824,-0.726373358034232,-0.726373358033739,0.889394533056627,-0.889394533055514,-0.180125727732794
768.6144,1.36749464225861,-1.10861682704332,NaN,0.48060258313984,-2.02480330463247,-2.02480330463289,NaN,NaN,-0.693062087580434,-0.64066586034568,NaN,-1.37859701254205,1.1752784444993,-1.76560335231209,0.495166408346049,0.406760699286243,0.22120816064988,0.838150372831545,-0.843955512785411,0.668798667135188,-0.843955512785909,-0.2508952253964,0.354533967610382,0.241453929872835,0.205627394347755,0.765846097746892,NaN,NaN,-0.941358037600749,-0.84907092095349,-0.126717629744767,0.112397875804645,-0.0308934233920093,0.594791903634992,0.401389313695864,0.989654545674227,0.687421822806686,0.640682457389601,0.640682457390618,-0.752386307301998,NaN,0.263501664976751,-1.17264033154829,0.0694387671698233,-1.81419134580224,0.516819034219178,-0.687914754093625,-0.687914754093116,0.868859546417778,-0.868859546416663,-0.181498997737677
768.7168,1.36995106544686,-1.09882000573712,NaN,0.463053229871777,-2.05040806270397,-2.0504080627044,NaN,NaN,-0.707029518248125,-0.673671621513556,NaN,-1.40169665033366,1.18001083513378,-1.78339282368347,0.492488528947209,0.389486413135475,0.278556212702364,0.886235436261662,-0.837099441251116,0.654339344579221,-0.837099441251631,-0.288114472773593,0.37446744102891,0.196502954987893,0.193930874963803,0.818801943960107,NaN,NaN,-0.938452626791185,-0.878778684821509,-0.134295997666391,0.119360864168308,-0.0324629183728385,0.609453960788835,0.470249968645889,1.0650978052573,0.670314924323198,0.688565196327203,0.68856519632824,-0.75667099205744,NaN,0.280343092103288,-1.19720618049159,0.109503388383856,-1.79215453102581,0.515156594499101,-0.650309056067109,-0.650309056066588,0.849082363714304,-0.849082363713189,-0.181592971696625
768.8192,1.37058004884179,-1.08787107129371,NaN,0.445170781352251,-2.07361178828308,-2.07361178828351,NaN,NaN,-0.720869704798688,-0.706184262190049,NaN,-1.42370384983986,1.18440160346915,-1.80076783205366,0.489623521663439,0.372384729871847,0.334930857254326,0.933338039161368,-0.83060818949153,0.639364722793213,-0.830608189492064,-0.32615909269413,0.395143979210195,0.151299583880779,0.182355130763492,0.871184737289384,NaN,NaN,-0.936292316996618,-0.908114070635094,-0.140987048173451,0.125750275277317,-0.0335697811034537,0.625893636822004,0.536427717557924,1.14013765502808,0.653677979945498,0.734347693457607,0.734347693458659,-0.760744821526069,NaN,0.297076672414446,-1.22081754352092,0.148608898731722,-1.77004465705733,0.51358414616106,-0.61356043836651,-0.613560438365974,0.830049006390339,-0.830049006389221,-0.180449691960901
768.9216,1.3693981117609,-1.07572700022348,NaN,0.42695427010292,-2.09435748467672,-2.09435748467717,NaN,NaN,-0.734508683199109,-0.738184477767403,NaN,-1.44459327107623,1.18842852797011,-1.81769844489516,0.486560514796948,0.355481145644738,0.390272385040149,0.979418471629389,-0.824490148131575,0.62390193230679,-0.824490148132132,-0.364962530132299,0.416517488722543,0.105898357554852,0.17092509670586,0.922904617428486,NaN,NaN,-0.934854917607201,-0.93705367971242,-0.146801383646949,0.131601048174321,-0.0341871336061448,0.644030630941462,0.599843794856698,1.21461920999387,0.637577398932573,0.777956504575979,0.77795650457704,-0.764633809746316,NaN,0.313674022750774,-1.24344480865264,0.186674554663309,-1.74793874929236,0.512110712441618,-0.577669377927119,-0.577669377926566,0.811743362516028,-0.81174336251491,-0.178113523546182
769.024,1.36642835260619,-1.06234869843623,NaN,0.408402999911259,-2.11259452822781,-2.11259452822829,NaN,NaN,-0.74787321729526,-0.7696518637876,NaN,-1.46434018293607,1.19207014271533,-1.83415365167351,0.483289923091634,0.338797249955723,0.444525239176552,1.02443684375842,-0.81875179831665,0.607979345984806,-0.818751798317227,-0.40445682466166,0.438540815488647,0.0603547527774667,0.159666408840326,0.973871338964804,NaN,NaN,-0.934115478496612,-0.965574102694408,-0.151752485210658,0.136950621905737,-0.0342888613776511,0.663772399544845,0.66043033147015,1.28838380040789,0.62207697044327,0.819324386756612,0.819324386757687,-0.768363990958932,NaN,0.330106790670472,-1.26506065049387,0.223621922652077,-1.72591398893849,0.510743723299301,-0.542632855673966,-0.542632855673398,0.794147302356052,-0.794147302354935,-0.174631007668977
769.1264,1.36170039406699,-1.04770123511759,NaN,0.389516639109736,-2.12827875069753,-2.12827875069805,NaN,NaN,-0.760891194397482,-0.800564951193959,NaN,-1.48292052771824,1.19530587790597,-1.8501014270894,0.479803571601369,0.322350595241998,0.497638219424961,1.06835316192649,-0.813397786641946,0.591626331995388,-0.813397786642546,-0.44457292312467,0.461165987140394,0.0147249896849524,0.148605361090259,1.02399463122879,NaN,NaN,-0.934046453250528,-0.993652116646335,-0.155856440540497,0.141838608801815,-0.0338496454380304,0.685014649595505,0.718130587235715,1.36126970563864,0.607237595760619,0.858390685401485,0.858390685402571,-0.771961276404748,NaN,0.346346860646694,-1.28563997708187,0.259375214812097,-1.70404710395423,0.509489069038813,-0.508444588388235,-0.508444588387654,0.777240799581272,-0.777240799580155,-0.170050722143426
769.2288,1.35525030135926,-1.03175405375688,NaN,0.370295322490707,-2.14137250425397,-2.14137250425452,NaN,NaN,-0.773492013642385,-0.830901242493508,NaN,-1.50031098405361,1.1981162182464,-1.8655087830444,0.476094843765389,0.306154570161457,0.549564693978251,1.11112741962565,-0.808430991984446,0.574872979864348,-0.808430991985068,-0.485240990315255,0.484344454992033,-0.0309341565245312,0.13776884863094,1.07318454929202,NaN,NaN,-0.934617849545316,-1.02126484061182,-0.15913165235464,0.146306441672577,-0.0328449999939922,0.707641892944797,0.772899136537515,1.43311291335267,0.59311704060701,0.895101700160376,0.895101700161472,-0.775451293782601,NaN,0.362366579746951,-1.30515989255121,0.293861621250234,-1.68241379101001,0.508351158941033,-0.475095280483685,-0.475095280483095,0.761002059164372,-0.761002059163256,-0.164423153586067
769.3312,1.34712046816084,-1.01448115422519,NaN,0.350739762250659,-2.1518447032163,-2.15184470321688,NaN,NaN,-0.7856069744203,-0.860637252190173,NaN,-1.51648902934779,1.2004828687078,-1.88034181725739,0.472158838910734,0.290218277458694,0.600262806297619,1.15271968840045,-0.803852574543963,0.557749806257052,-0.803852574544607,-0.526390720817574,0.508027339701187,-0.076565537705736,0.127184300210476,1.12135181698515,NaN,NaN,-0.935797366476711,-1.04838984501324,-0.161598541139594,0.150397013169883,-0.0312513118368605,0.731528057148992,0.82470200330592,1.5037478958543,0.579769703124863,0.929411018143999,0.929411018145098,-0.778859214658479,NaN,0.378138993205872,-1.32359969138257,0.327011662403372,-1.66108815813838,0.507332975514636,-0.442572883718615,-0.44257288371802,0.745407646179773,-0.745407646178656,-0.157800582903154
769.4336,1.33735946586668,-0.995861242450693,NaN,0.330851364757865,-2.15967083766897,-2.1596708376696,NaN,NaN,-0.797169662118997,-0.88974855689403,NaN,-1.53143300598072,1.20238892557756,-1.89456577072407,0.467992531587061,0.274546427649922,0.649695656713253,1.19309019895565,-0.79966200404998,0.540287449434373,-0.799662004050648,-0.567951655023301,0.532165684262589,-0.122111807327871,0.116879600539446,1.16840816401794,NaN,NaN,-0.937550522328435,-1.07500521956521,-0.163279253900265,0.154154323549782,-0.0290458776817934,0.756537143807016,0.873516737240073,1.57300838684736,0.567246396268156,0.961279800748581,0.961279800749682,-0.782209578787925,NaN,0.393638081649166,-1.34094089473507,0.358759581247757,-1.64014217436148,0.506436118450057,-0.410862860017251,-0.410862860016651,0.73043260914384,-0.730432609142722,-0.150236979129494
769.536,1.32602185484294,-0.975877848846649,NaN,0.3106323496881,-2.16483295954779,-2.16483295954844,NaN,NaN,-0.808116323459791,-0.918209859896254,NaN,-1.54512219502511,1.20381905673178,-1.90814510106017,0.463594933900172,0.259139261070142,0.697831442792964,1.23219940967194,-0.795857073897089,0.522516362269954,-0.795857073897779,-0.609853497116666,0.556710712859315,-0.16751558553317,0.106883003624825,1.21426666007692,NaN,NaN,-0.939840778836115,-1.10108960923448,-0.164197379344121,0.157623134381314,-0.0262069427994134,0.78252392605038,0.919332422789238,1.64072814225639,0.55559414666289,0.990677013325806,0.99067701332691,-0.785526122571458,NaN,0.408838997012959,-1.35716732316448,0.389043771781854,-1.61964512255248,0.505660840256287,-0.379948453022414,-0.379948453021809,0.716050599122529,-0.71605059912141,-0.141787894465236
769.6384,1.31316795937334,-0.954519419511718,NaN,0.290085870872708,-2.16731964661979,-2.16731964662049,NaN,NaN,-0.818386226047883,-0.945995073049073,NaN,-1.55753689878309,1.20475969550501,-1.9210435695281,0.458967266524171,0.243992506446585,0.744643554559055,1.27000806887071,-0.792433915365048,0.504466516811588,-0.792433915365755,-0.652026426133742,0.581614086702768,-0.212719614104852,0.0972230380395303,1.25884204914477,NaN,NaN,-0.942629668604967,-1.12662222691666,-0.164377669071138,0.160848620734318,-0.0227137490131029,0.809334685391106,0.962149617363026,1.70674168227338,0.544856012643966,1.01757959215589,1.017579592157,-0.788831616515696,NaN,0.423718293090963,-1.37226518410635,0.417807214058163,-1.59966306631534,0.505006082112358,-0.349810976482852,-0.349810976482246,0.702233990451642,-0.702233990450526,-0.1325103548587
769.7408,1.2988636070659,-0.931779385902066,NaN,0.269216141138072,-2.16712595387681,-2.16712595387754,NaN,NaN,-0.827921998663257,-0.973077414550738,NaN,-1.5686585311824,1.20519924733675,-1.93322433564454,0.454113140176556,0.229097383502139,0.790110627753715,1.30647728518609,-0.789387025995142,0.48616713378274,-0.78938702599587,-0.694401388528082,0.606828143966985,-0.257666903940504,0.08792840426163,1.30205108548906,NaN,NaN,-0.945876929822917,-1.1515828459923,-0.163845774743371,0.163876025022893,-0.0185466010360053,0.836807999899069,1.00198022216973,1.77088503049795,0.535070921917761,1.04197254878856,1.04197254878966,-0.792147717401058,NaN,0.438254138919273,-1.38622315567214,0.444997884727445,-1.58025834890141,0.504469520787652,-0.320430123141924,-0.320430123141317,0.688954007450795,-0.688954007449683,-0.122462743339121
769.8432,1.28317982919374,-0.907656220920511,NaN,0.248028560814781,-2.16425336490274,-2.16425336490349,NaN,NaN,-0.836669943922603,-0.999429514665474,NaN,-1.57846971146594,1.20512829979549,-1.94465005909628,0.449038737539189,0.214440655727443,0.83421655459004,1.34156861380181,-0.786709319352022,0.467646443714494,-0.786709319352772,-0.736910360871236,0.632306111265476,-0.302300877276807,0.0790278618854541,1.34381286687208,NaN,NaN,-0.949540647711502,-1.17595177229401,-0.162628014059832,0.166750321762285,-0.0136869567189734,0.864775597795199,1.0388472915953,1.8329964704978,0.526273526075468,1.06384901485623,1.06384901485732,-0.795494843528364,NaN,0.452426498530547,-1.3990324682197,0.470569134042259,-1.56148914063755,0.504047634537673,-0.291784295655637,-0.291784295655029,0.676180862163326,-0.676180862162214,-0.111704677698046
769.9456,1.26619251618244,-0.882153488364098,NaN,0.226529842249663,-2.15870975315217,-2.15870975315295,NaN,NaN,-0.844580307716672,-1.02502351677507,NaN,-1.58695435168265,1.20453982043331,-1.95528301617042,0.443752975705996,0.20000473239717,0.87695044601971,1.37524414979454,-0.784392196615004,0.448931476801964,-0.784392196615774,-0.779486570887681,0.658002276871378,-0.34656549901818,0.0705501022667144,1.38404915429466,NaN,NaN,-0.953577399253909,-1.19970979714257,-0.160751167341128,0.169515899512098,-0.00811753625828378,0.893063277553792,1.07278478631158,1.89291732546177,0.518494069325438,1.08321023325919,1.08321023326028,-0.798892078139152,NaN,0.466217268271149,-1.41068700037005,0.494480039212844,-1.5434090468087,0.503735788027572,-0.263850960426374,-0.263850960425761,0.663883913866088,-0.663883913864978,-0.100296888574488
770.048,1.24798202619802,-0.855279886787174,NaN,0.204728118811392,-2.15050935602433,-2.15050935602516,NaN,NaN,-0.851607491584267,-1.04983116371936,NaN,-1.59409772766686,1.20342932894463,-1.9650852388318,0.438267631012526,0.185767812118088,0.918306543555933,1.4074666154916,-0.782425637165943,0.43004787345777,-0.782425637166729,-0.822064665174041,0.683872120201896,-0.390405381218427,0.0625236018466326,1.42268466879219,NaN,NaN,-0.957942397954698,-1.22283813595525,-0.158242298392072,0.172216266652657,-0.00182243466992966,0.921491880727688,1.10383727771655,1.9504927526427,0.511758272195643,1.10006550752999,1.10006550753108,-0.802357097012352,NaN,0.479610378866598,-1.42118340036806,0.516695741246818,-1.52606678276864,0.503528327958953,-0.2366070202444,-0.236607020243786,0.652031863046809,-0.652031863045697,-0.0883011063347339
770.1504,1.22863275234061,-0.827049283734003,NaN,0.182633029977379,-2.1396727602277,-2.13967276022856,NaN,NaN,-0.857710206237781,-1.07382386884589,NaN,-1.59988652994525,1.20179503881386,-1.97401868162958,0.432597418787457,0.171704057898428,0.958284090188287,1.43819943999791,-0.780798303577264,0.411019709329808,-0.780798303578064,-0.864580819729865,0.709872398840571,-0.433765847759409,0.0549764527521079,1.45964736544605,NaN,NaN,-0.962589635480798,-1.24531835739591,-0.155128600303766,0.174893794754757,0.00521277750819013,0.949878299770136,1.13205961492212,2.00557254316174,0.506087232616652,1.11443212410124,1.11443212410233,-0.805906112477315,NaN,0.4925918786461,-1.43052122255199,0.53718775407724,-1.50950591691136,0.503418677975799,-0.210029194804882,-0.210029194804265,0.640592981478718,-0.64059298147761,-0.0757799637760547
770.2528,1.20823266054605,-0.797480735490288,NaN,0.160255780892822,-2.12622689521166,-2.12622689521254,NaN,NaN,-0.862851576383554,-1.09697278001024,NaN,-1.60430889929138,1.19963797195273,-1.98204541775598,0.426760031222877,0.157783794536534,0.996887178136942,1.46740684045684,-0.779497654092688,0.39186933296856,-0.7794976540935,-0.906972806841512,0.735961203742921,-0.476592967189986,0.0479361704334267,1.49486869567488,NaN,NaN,-0.967472015519602,-1.26713230974035,-0.151437276152074,0.177589513823236,0.0130009691456317,0.978036507479028,1.15751656284896,2.05801192014417,0.501497345449985,1.12633525405119,1.12633525405228,-0.809553830909527,NaN,0.505150010948076,-1.43870305414049,0.555934222244037,-1.49376467777606,0.503399424824258,-0.184094395688775,-0.184094395688151,0.629535360793857,-0.629535360792749,-0.062796915168228
770.3552,1.18687281231608,-0.766598487282173,NaN,0.137609182289603,-2.11020502630066,-2.11020502630158,NaN,NaN,-0.866999212158905,-1.11924884464586,NaN,-1.60735445215393,1.19696205239514,-1.98912785972189,0.420776141891059,0.143973722619249,1.03412458869952,1.49505391629699,-0.778510055323038,0.372617217139443,-0.77851005532386,-0.949180046042953,0.76209800008284,-0.518833580755181,0.0414294842603218,1.52828387306593,NaN,NaN,-0.972541475702091,-1.28826205280377,-0.147195460436969,0.180342961107011,0.0215533736269478,1.00577860028075,1.18028241269203,2.10767232787832,0.498000241471307,1.13580782677777,1.13580782677885,-0.813313426958003,NaN,0.517275290173365,-1.44573461069842,0.57292010772743,-1.47887581998731,0.503462393634272,-0.158780083352202,-0.158780083351577,0.618827149313877,-0.61882714931277,-0.0494161625627246
770.4576,1.16464688172843,-0.734431946808829,NaN,0.114707681605442,-2.09164673426845,-2.09164673426939,NaN,NaN,-0.870125261143121,-1.14062287476734,NaN,-1.6090142944469,1.19377418073332,-1.99522899762621,0.41466938179564,0.130237149752193,1.07000962740487,1.52110676135278,-0.77782089294836,0.353281827092609,-0.77782089294919,-0.991143664589815,0.78824366952324,-0.560435350992722,0.0354821225798516,1.55983215219524,NaN,NaN,-0.977749098606101,-1.30868979879708,-0.142430176019305,0.183192074370819,0.0308795202767976,1.03291585226074,1.20044056265204,2.15442220683613,0.495602750179338,1.14289036168635,1.14289036168742,-0.817196539700576,NaN,0.528960572467181,-1.45162479373115,0.588137302776583,-1.464866543202,0.503598714007897,-0.134064593919487,-0.134064593918862,0.608436749801589,-0.608436749800482,-0.0357025729819804
770.56,1.14165066697265,-0.701015624416163,NaN,0.0915673942267699,-2.07059787472315,-2.07059787472412,NaN,NaN,-0.872206447887166,-1.16106560232406,NaN,-1.60928101823671,1.19008428245945,-2.00031265510767,0.408466279546318,0.116534247042495,1.10455994303533,1.54553259057564,-0.777414684686732,0.333879512329981,-0.777414684687569,-1.03280657699666,0.814360561465786,-0.60134683639619,0.0301186016298181,1.58945711922096,NaN,NaN,-0.983045218472269,-1.32839785645136,-0.137168317624903,0.186173125318013,0.0409871784453856,1.05925978033439,1.21808306863021,2.19813775471823,0.494306892043762,1.14763074945972,1.14763074946079,-0.821213293266334,NaN,0.540201110601066,-1.45638572314688,0.60158468507163,-1.45175845953829,0.503798878718971,-0.109927425957354,-0.109927425956729,0.598332968941596,-0.598332968940487,-0.0217215703371757
770.6624,1.11798159031415,-0.666389038557989,NaN,0.0682061351791518,-2.04711052424861,-2.0471105242496,NaN,NaN,-0.873224098550214,-1.18054771745802,NaN,-1.60814868043108,1.18590531635772,-2.00434377239973,0.402196146594227,0.102822341029565,1.13779731132861,1.56829987133426,-0.7772752005363,0.314424429825928,-0.777275200537143,-1.07411357709188,0.84041255241822,-0.641517577700348,0.0253620184507094,1.61710698811963,NaN,NaN,-0.988379529589268,-1.34736857150061,-0.131436654981212,0.189320697794442,0.0518823283845608,1.08462322159978,1.2333101661474,2.23870367573992,0.494109899728493,1.15008398357285,1.15008398357391,-0.825372342254694,NaN,0.55099458221834,-1.46003276756971,0.613268140428883,-1.43956760795527,0.504052795053038,-0.0863494847530341,-0.0863494847524166,0.58848513099287,-0.588485130991758,-0.00753899424691659
770.7648,1.09373818300074,-0.630596590879635,NaN,0.0446434428132322,-2.02124292315354,-2.02124292315458,NaN,NaN,-0.873164141021997,-1.19903989292495,NaN,-1.60561277106143,1.18125322871335,-2.00728872575509,0.395890888124399,0.0890562447577965,1.16974736953295,1.58937844706142,-0.777385590908594,0.294928503796198,-0.777385590909442,-1.11501143034549,0.866365107076142,-0.680898180617717,0.0212338402346887,1.64273490036366,NaN,NaN,-0.993701195614395,-1.36558426692051,-0.125261847637644,0.192667709276751,0.0635691672607615,1.10882142213304,1.24622976455526,2.27601391828402,0.495004259326113,1.15031184808966,1.15031184809071,-0.82968094502818,NaN,0.561341084077303,-1.46258458585153,0.623200566421831,-1.42830451666768,0.504349829222948,-0.0633132873915293,-0.0633132873909155,0.578863174508618,-0.578863174507507,0.0067790731369157
770.8672,1.0690195606407,-0.593687417331648,NaN,0.0209005824761353,-1.99305941575903,-1.99305941576008,NaN,NaN,-0.872017065668819,-1.21651280779798,NaN,-1.60167018413605,1.17614684685342,-2.00911568384491,0.389584732346765,0.07518862535217,1.20043930069093,1.60873964819918,-0.77772851947529,0.275401421649325,-0.777728519476143,-1.15544895683687,0.892185331033965,-0.719440395574667,0.0177536808965245,1.66629922935952,NaN,NaN,-0.998958954861658,-1.38302719835212,-0.118670464635097,0.196245460079432,0.0760501410055997,1.13167313569889,1.2569569152355,2.30997240073994,0.496977760028588,1.14838256846375,1.14838256846479,-0.83414507170298,NaN,0.571243086313444,-1.46406317529195,0.631401851382255,-1.41797431484287,0.504678848385049,-0.0408031320200966,-0.040803132019488,0.569437741211389,-0.569437741210273,0.0211665069679007
770.9696,1.04392490190789,-0.555715219954214,NaN,-0.0029994805939811,-1.96263038200591,-1.96263038200697,NaN,NaN,-0.869777830019937,-1.23293718603128,NaN,-1.59631920291312,1.17060771679949,-2.00979499267067,0.383313887042038,0.0611704056394705,1.22990547614742,1.62635639770578,-0.77828629669107,0.25585066053611,-0.77828629669193,-1.19537709705535,0.917842003645608,-0.757097203067042,0.0149390578617808,1.68776388667444,NaN,NaN,-1.0041012201246,-1.39967954288236,-0.111689013165327,0.200083695597725,0.0893259798153757,1.15300172893633,1.26561325827989,2.34049372570431,0.500013545940649,1.14437043204558,1.14437043204662,-0.838769551143923,NaN,0.58070534298497,-1.46449391148344,0.637898815237462,-1.408576889919,0.505028267659976,-0.0188052335368235,-0.0188052335362208,0.56018025765263,-0.560180257651514,0.0355573576303524
771.072,1.01855294419913,-0.516738078490976,NaN,-0.0270321457623759,-1.93003215334609,-1.93003215334716,NaN,NaN,-0.866445700131932,-1.24828385933501,NaN,-1.58955950418925,1.16465989695302,-2.00929957376011,0.377116142880382,0.0469511984835731,1.25818106877878,1.64220332495686,-0.779041011091318,0.236281535450982,-0.779041011092184,-1.23474895323207,0.943305583673357,-0.793822904351487,0.0128051264102343,1.70709861916749,NaN,NaN,-1.00907617929113,-1.41552343070369,-0.104343988611391,0.204210677912127,0.103395717357308,1.17263628022568,1.27232645620831,2.36750387613825,0.504090174421188,1.13835539145131,1.13835539145233,-0.843558250992203,NaN,0.589734764207858,-1.46390556263695,0.642725100465174,-1.40010708066423,0.505386106898492,0.00269217255123633,0.00269217255183875,0.551063010080288,-0.551063010079174,0.0498860737540465
771.1744,0.993001504232149,-0.47681823455794,NaN,-0.051171278877678,-1.89534690677361,-1.8953469067747,NaN,NaN,-0.862024040805935,-1.26252385441883,NaN,-1.58139217818887,1.158329719959,-2.00760531472824,0.371030445761234,0.0324797702259878,1.28530365116311,1.65625690089418,-0.779974657180695,0.216697258775091,-0.779974657181566,-1.27351980184253,0.968548188429787,-0.829573204687361,0.0113643948010602,1.72427928117909,NaN,NaN,-1.01383190850937,-1.43054101470877,-0.0966619479564495,0.208653259527706,0.118256682825718,1.19041264658021,1.27722962540804,2.39094087502962,0.50918169562123,1.13042267478226,1.13042267478327,-0.848514273159245,NaN,0.598340266855018,-1.46233026791871,0.645921007884133,-1.39255489703014,0.505740057291073,0.0236987573339601,0.0236987573345652,0.54205921341123,-0.542059213410114,0.0640877162147853
771.2768,0.96736702383349,-0.436021839934458,NaN,-0.0753893441987263,-1.85866253224177,-1.85866253224285,NaN,NaN,-0.856520079532388,-1.27562849785884,NaN,-1.5718197560473,1.15164553040079,-2.00469142856483,0.365096456768103,0.0177045234654474,1.31131279572711,1.6684956023153,-0.781069259876728,0.197099003900548,-0.781069259877606,-1.31164707601797,0.993543551435856,-0.86430527351151,0.0106264286841307,1.73928806465816,NaN,NaN,-1.01831650777844,-1.44471456006083,-0.0886695936606088,0.213436942185,0.133904462507829,1.20617446954871,1.28046077240385,2.41075538339053,0.515257768656239,1.12066242596157,1.12066242596257,-0.853640142799376,NaN,0.606532624046435,-1.45980348102683,0.647533279666326,-1.38590576510276,0.506077555649027,0.0442220574327462,0.0442220574333515,0.533143074719979,-0.533143074718867,0.0780981529954745
771.3792,0.941744137980224,-0.394418667025015,NaN,-0.0996575557228388,-1.82007247393086,-1.82007247393192,NaN,NaN,-0.849944663895847,-1.28756952764694,NaN,-1.56084623418537,1.1446373995391,-2.00054076388107,0.35935410881818,0.0025739822475527,1.33624969461755,1.67890010421642,-0.782306997617041,0.177485974526882,-0.782306997617925,-1.34909031780422,1.01826696032958,-0.897977777101401,0.0105975556075185,1.75211367194781,NaN,NaN,-1.02247826050236,-1.45802653085385,-0.0803938590077924,0.218585914895961,0.150332835515933,1.21977410185598,1.28216223408717,2.42691121610675,0.522283818534919,1.1091693810686,1.10916938106959,-0.858937974190437,NaN,0.614324323806452,-1.45636388457319,0.647614833390162,-1.3801408003345,0.506385863020642,0.0642674687118391,0.0642674687124475,0.524289853040147,-0.52428985303904,0.0918542293604751
771.4816,0.916225265242053,-0.352081788247226,NaN,-0.12394604094514,-1.7796755527225,-1.77967555272357,NaN,NaN,-0.842312018620721,-1.29831920090811,NaN,-1.54847708628269,1.1373368146016,-1.99514006295199,0.353843158701285,-0.0129627373490032,1.36015680895903,1.6874534888448,-0.783670329658297,0.157855492006277,-0.783670329659188,-1.38581110079394,1.04269517132773,-0.930550894202368,0.0112805797098459,1.76275142281967,NaN,NaN,-1.0262658121362,-1.47045965904558,-0.0718619989073028,0.224123085294556,0.167533694893385,1.23107345090404,1.2824801148078,2.43938576530956,0.530221224440028,1.09604256942837,1.09604256942935,-0.864409610049855,NaN,0.62172943324359,-1.45205327509972,0.646224446230597,-1.37523711018308,0.506652143047712,0.0838382802427021,0.0838382802433068,0.51547591432749,-0.515475914326396,0.105293912070698
771.584,0.890900225281886,-0.309087235052078,NaN,-0.148224015983388,-1.73757577656058,-1.73757577656165,NaN,NaN,-0.833639502344802,-1.30785039467854,NaN,-1.53471926137099,1.12977634396214,-1.98848017659372,0.348602731998419,-0.0289554793094452,1.38307754389172,1.6941414557998,-0.785142132380068,0.138203114997049,-0.785142132380963,-1.421772924849,1.06680629691055,-0.961986327201738,0.0126745156391327,1.77120329803935,NaN,NaN,-1.02962836180938,-1.48199699751817,-0.0631016892839385,0.230070116806957,0.185496964551704,1.23994474122605,1.28156371140597,2.44817032580476,0.539027524659494,1.08138502196026,1.08138502196123,-0.870056745630646,NaN,0.628763459477449,-1.44691641320731,0.643426387093489,-1.37116812051563,0.5068635348279,0.102935754118265,0.102935754118865,0.506678770612818,-0.506678770611741,0.118356413597623
771.6864,0.865855889991044,-0.2655136455085,NaN,-0.172459972306707,-1.69388213604734,-1.69388213604842,NaN,NaN,-0.823947366436839,-1.31613670419434,NaN,-1.51958117291461,1.12198928923338,-1.98055624519409,0.34367086869238,-0.0454526204861581,1.40505593735558,1.69895252082098,-0.786705843110482,0.118522797775599,-0.786705843111384,-1.45694108881133,1.0905796701182,-0.992247315404675,0.0147743511268227,1.77747792950763,NaN,NaN,-1.03251586087753,-1.49262197084338,-0.0541411260019164,0.236447466946119,0.204210518095766,1.24627119589099,1.27956491712595,2.45327031471409,0.548656626433378,1.0653034665185,1.06530346651946,-0.875881054719649,NaN,0.635443204012841,-1.44100083499164,0.639290000068156,-1.36790391429327,0.507007215034181,0.121559253462222,0.12155925346282,0.497877088503384,-0.497877088502321,0.130982308060562
771.7888,0.841175873964679,-0.221441905935848,NaN,-0.196621873388488,-1.64870837422583,-1.64870837422692,NaN,NaN,-0.813258518270305,-1.32315254516365,NaN,-1.50307268440422,1.11400934398406,-1.97136784862828,0.339084089533076,-0.0625006582473187,1.42613635085391,1.70187819659014,-0.788345604600661,0.0988070842580719,-0.788345604601565,-1.4912825531735,1.11399569511696,-1.02129865684165,0.017570847027143,1.78159054788693,NaN,NaN,-1.03487921409687,-1.5023184369325,-0.0450091069230468,0.243274411474986,0.223660102716736,1.24994763348106,1.27663759620994,2.45470537458252,0.559059015275587,1.04790798906976,1.04790798907071,-0.8818843265935,NaN,0.641786614711653,-1.43435662659701,0.633889248908444,-1.36541157040402,0.507070445762421,0.139706414916739,0.139706414917332,0.489050660305704,-0.489050660304659,0.143113648910552
771.8912,0.816940267040381,-0.17695478914522,NaN,-0.220677359528485,-1.60217271615339,-1.60217271615447,NaN,NaN,-0.80159828876012,-1.32887326594053,NaN,-1.48520509790886,1.10587028042621,-1.96091912256896,0.334877007267191,-0.0801438112878282,1.44636315799989,1.70291315260692,-0.790046403710169,0.0790473269379106,-0.790046403711072,-1.52476580570026,1.13703569474202,-1.04910674502484,0.021050380925884,1.78356289610007,NaN,NaN,-1.03667048477329,-1.51107076498509,-0.0357350816267301,0.25056903729147,0.243829267975439,1.25088097434333,1.27293692507246,2.45250934960153,0.570181965848031,1.0293116487066,1.02931164870753,-0.888068608795974,NaN,0.647812643500446,-1.42703616789723,0.627302234155058,-1.36365549443498,0.507040609014787,0.157373354410438,0.157373354411026,0.480180342838334,-0.48018034283731,0.154694093245582
771.9936,0.793225406377533,-0.132136588751715,NaN,-0.244593959621005,-1.55439754359939,-1.55439754360045,NaN,NaN,-0.788994205087337,-1.33327527397566,NaN,-1.4659911531033,1.09760567793334,-1.94921883333266,0.331082001117717,-0.0984236400119205,1.46578043650135,1.70205535239125,-0.791794203323012,0.0592339143206004,-0.791794203323917,-1.55736073738976,1.15968176312245,-1.07563961931912,0.0251948388682014,1.78342311442419,NaN,NaN,-1.03784311042801,-1.51886392538799,-0.0263491554057549,0.258348186894594,0.264699296662089,1.24899064750845,1.26861870327571,2.44673012844406,0.581969764361705,1.00963005189695,1.00963005189787,-0.894436339524486,NaN,0.653541119995282,-1.41909385325632,0.619610692771829,-1.36259773906685,0.506905233619585,0.174554888568057,0.174554888568642,0.471247981090376,-0.471247981089367,0.165669033948071
772.096,0.770103678481803,-0.0870727481277715,NaN,-0.268339307077383,-1.50550900683495,-1.50550900683601,NaN,NaN,-0.775475769315265,-1.33633617602146,NaN,-1.44544503956297,1.0892486953395,-1.93628039941205,0.327728961800213,-0.117378696043937,1.4844316722223,1.69930616566811,-0.793576070193817,0.0393564907486568,-0.793576070194727,-1.58903852883998,1.18191662740107,-1.10086701916865,0.0299815583375313,1.7812055970404,NaN,NaN,-1.03835213395185,-1.52568357756358,-0.0168820377787825,0.266627343706486,0.286249137724288,1.24420889080357,1.26383864450317,2.43742935447054,0.594363956208589,0.988980904044244,0.988980904045139,-0.900990450378814,NaN,0.658992650411888,-1.41058580081834,0.610899489886843,-1.36219831794334,0.506652021865211,0.191244753880248,0.19124475388083,0.462236342987501,-0.462236342986506,0.175985737523153
772.1984,0.747643337295394,-0.0418494877532068,NaN,-0.291881356593784,-1.45563657973485,-1.45563657973592,NaN,NaN,-0.761074234607368,-1.33803492419075,NaN,-1.42358241693996,1.08083188127162,-1.92212185398727,0.324845103373298,-0.137044206530644,1.50235947777159,1.69467045079829,-0.795380297155958,0.0194041580361363,-0.795380297156872,-1.61977153975595,1.20372351634079,-1.12476042924646,0.0353833199284053,1.77695081140767,NaN,NaN,-1.03815444830756,-1.53151613853589,-0.0073649388757221,0.27542046725459,0.308455347399763,1.23648094165914,1.25875165806047,2.42468200972195,0.607303625226482,0.967483553553384,0.967483553554261,-0.907734428430188,NaN,0.664188543307437,-1.40156956574061,0.601256115184381,-1.36241551877187,0.506268878516569,0.207435813560442,0.207435813561021,0.453129086190995,-0.453129086190008,0.185593481916993
772.3008,0.725908328688129,0.00344655792119882,NaN,-0.315188601328022,-1.40491257355483,-1.40491257355592,NaN,NaN,-0.745822361484555,-1.33835195703504,NaN,-1.4004204348201,1.07238701637594,-1.90676575443562,0.322454832669729,-0.157451798215657,1.5196053235931,1.68815659804907,-0.797196512632641,-0.000634344581265953,-0.797196512633559,-1.64953318880561,1.22508602723527,-1.14729310435822,0.0413683787702502,1.77070507067307,NaN,NaN,-1.03720904748161,-1.53634882416482,0.00217056800596686,0.284739806520819,0.33129204802693,1.22576512072911,1.25351112293994,2.40857587675099,0.620725695235078,0.945258527950839,0.9452585279517,-0.914672340969747,NaN,0.669150754012358,-1.39210386703436,0.590770194697533,-1.36320621477985,0.505743936577727,0.223120250836064,0.22312025083664,0.443910758914634,-0.443910758913653,0.194443686896773
772.4032,0.704958121323681,0.048728682166331,NaN,-0.338230292703423,-1.35347162215256,-1.35347162215369,NaN,NaN,-0.729754139646232,-1.33726933058232,NaN,-1.37597774879417,1.06394498345292,-1.89023904929966,0.320579667434198,-0.178629272458938,1.53620928249182,1.6797765194717,-0.799015773840078,-0.0207704787720916,-0.799015773840997,-1.67829781258838,1.24598798230477,-1.16844006745821,0.0479005269553165,1.76252025799658,NaN,NaN,-1.03547727615517,-1.54016966886519,0.0116927021267185,0.294595716517402,0.354730913745881,1.21203281069587,1.24826814840064,2.38921087561553,0.634565235923668,0.922427051597988,0.922427051598827,-0.921808833204217,NaN,0.673901839336956,-1.38224832240525,0.579533018301781,-1.36452616486745,0.505065569151807,0.238289751068991,0.238289751069561,0.434566822007906,-0.434566822006931,0.2024900316031
772.5056,0.684847550521324,0.0939104214963719,NaN,-0.360976664939249,-1.30145014582895,-1.30145014583013,NaN,NaN,-0.712904474118565,-1.33477084140458,NaN,-1.35027453370793,1.05553566242229,-1.87257291252107,0.319238195558044,-0.20060044315908,1.55220979040768,1.66954557242514,-0.800830647726332,-0.0410157565079662,-0.800830647727252,-1.70604050210001,1.26641327387568,-1.18817807841947,0.0549391838538531,1.75245350940102,NaN,NaN,-1.03292307397081,-1.5429675357141,0.0211696494098245,0.304996485950936,0.378741192284521,1.19526832913233,1.2431708162786,2.36669827067454,0.648755762220324,0.899110540822153,0.899110540822971,-0.929149104765312,NaN,0.678464922069087,-1.37206317626106,0.56763707470966,-1.36633029089516,0.504222377181274,0.252935676264802,0.252935676265373,0.425083676799753,-0.425083676798781,0.209688558200006
772.608,0.665626683939043,0.138905848759606,NaN,-0.383399164818814,-1.24898579724745,-1.24898579724869,NaN,NaN,-0.695308847281529,-1.33084214435665,NaN,-1.32333249421411,1.04718784891951,-1.85380255633627,0.318446069133305,-0.223385040459046,1.56764342482457,1.65748241451368,-0.802635285194004,-0.0613815947750373,-0.802635285194925,-1.73273692822053,1.28634570838319,-1.20648557791847,0.0624395159409087,1.74056686404451,NaN,NaN,-1.02951321223109,-1.54473212818312,0.0305697611235144,0.315948178277017,0.403289773340212,1.17546869207193,1.23836340636088,2.34115974472479,0.663229527569106,0.875430080776464,0.87543008077726,-0.936698866473002,NaN,0.682863669929794,-1.36160900738513,0.555175585942882,-1.36857292245219,0.503203144849542,0.267049238361128,0.267049238361699,0.415448682930156,-0.415448682929188,0.215997764476272
772.7104,0.647340718828566,0.183629850982913,NaN,-0.405470684572003,-1.19621688948706,-1.19621688948837,NaN,NaN,-0.677002974721058,-1.32547086393903,NaN,-1.29517487147462,1.03892919931664,-1.83396703385072,0.318216031518986,-0.246998675541743,1.58254470508958,1.64360880176978,-0.804425491566744,-0.0818791729268403,-0.804425491567668,-1.75836317706504,1.30576886486642,-1.22334262045441,0.0703525895527877,1.72692689312486,NaN,NaN,-1.02521751805262,-1.54545401454198,0.0398617798720271,0.327454492163487,0.428341313962711,1.15264326912982,1.23398560892763,2.31272634494185,0.677917815203189,0.851505886410431,0.851505886411208,-0.944464280965054,NaN,0.687122292477162,-1.35094640484476,0.542242034474983,-1.37120800095429,0.501996757984361,0.280621679316545,0.280621679317112,0.405650149890481,-0.405650149889517,0.221378691748239
772.8128,0.630029919510134,0.2279983973409,NaN,-0.427165791648834,-1.14328180582641,-1.1432818058278,NaN,NaN,-0.658022472515729,-1.31864669531519,NaN,-1.2658264468904,1.03078620635473,-1.81310903492821,0.318557980344697,-0.271452858131738,1.59694592395303,1.627949353314,-0.806198796204544,-0.10251928996383,-0.806198796205471,-1.78289561322881,1.32466598048996,-1.23873081116536,0.0786255602667202,1.71160432203159,NaN,NaN,-1.02000907792748,-1.54512467442527,0.0490150953366175,0.339516642187152,0.453858424983357,1.12681334351386,1.23017173000637,2.28153731982612,0.692751230177268,0.827456748104674,0.827456748105433,-0.95245189372428,NaN,0.69126555447893,-1.34013560260431,0.52892967398507,-1.37418924153744,0.500592089722335,0.293644461654415,0.293644461654982,0.395677294598168,-0.39567729459721,0.2257950169028
772.9152,0.613729598886416,0.271928799856065,NaN,-0.448460944915277,-1.09031839394021,-1.09031839394168,NaN,NaN,-0.638402551470582,-1.31036149189917,NaN,-1.23531354647625,1.02278420442857,-1.79127466912301,0.319479068160751,-0.296755050280273,1.61087701824518,1.61053131505908,-0.807954522592326,-0.123312217058418,-0.807954522593253,-1.80631077742202,1.34301986799434,-1.25263325076538,0.0872019017411663,1.69467366202921,NaN,NaN,-1.01386441356319,-1.54373656852859,0.0580000308681946,0.352133248033881,0.479801906352087,1.09801160803402,1.22704990237247,2.2477388920241,0.707659994357856,0.803399472112964,0.803399472113705,-0.960668559042841,NaN,0.695318796235864,-1.32923607405151,0.515331018806969,-1.37747026237261,0.498977870193446,0.306109466998455,0.306109466999021,0.385520172987161,-0.385520172986211,0.229213155731204
773.0176,0.598470141855777,0.315339968783779,NaN,-0.469334685766822,-1.03746334773472,-1.03746334773626,NaN,NaN,-0.618177754185333,-1.30060934017736,NaN,-1.20366404977362,1.01494739439639,-1.76851322529085,0.320983834346311,-0.322908732702379,1.62436547932211,1.59138435596982,-0.80969385141949,-0.144267542673609,-0.809693851420417,-1.82858531984071,1.36081286624821,-1.26503448911149,0.0960216751463338,1.6762128662238,NaN,NaN,-1.00676362565479,-1.54128322197018,0.0667881533342913,0.36530021492391,0.506131001818653,1.06628163971275,1.22474132485309,2.21148303254865,0.722574245726313,0.779448336663291,0.779448336664011,-0.969121360066086,NaN,0.699307943469656,-1.31830610642258,0.501537325242899,-1.38100469368253,0.497142563888826,0.318009200649448,0.318009200650011,0.375169601494483,-0.375169601493542,0.231602379793182
773.12,0.584277064682577,0.358152664500519,NaN,-0.489767798305726,-0.984851576610527,-0.984851576612153,NaN,NaN,-0.59738174690263,-1.28938662429363,NaN,-1.17090740492584,1.00729887161194,-1.74487690321622,0.323074352733443,-0.349913465153135,1.63743629636145,1.57054041372739,-0.811419860074853,-0.165394015834354,-0.811419860075777,-1.84969597437354,1.37802682611363,-1.27592049484533,0.105021837971098,1.65630301719505,NaN,NaN,-0.998690504591743,-1.53775931113565,0.075352589766207,0.379010595908327,0.532803641313678,1.03167738828873,1.22335955156119,2.17292629322429,0.737424340415555,0.755714581105706,0.755714581106406,-0.977817517757296,NaN,0.703259488504077,-1.3074023874358,0.487638097554028,-1.38474626839528,0.495074272994517,0.329337005185179,0.329337005185734,0.364617081411026,-0.364617081410092,0.232934945843864
773.2224,0.571171103308948,0.400289745339071,NaN,-0.50974344248199,-0.932615562071715,-0.93261556207341,NaN,NaN,-0.576047163628067,-1.27669208409953,NaN,-1.13707464991384,0.999860642962898,-1.72042052234031,0.325750377391725,-0.37776493577197,1.65011192238012,1.54803358409177,-0.813137524280106,-0.186699400081543,-0.813137524281024,-1.8696195785265,1.39464313216512,-1.28527865213483,0.114136586483492,1.63502804273194,NaN,NaN,-0.989632610459496,-1.53316075210267,0.083668332117543,0.393254440827791,0.559776652874492,0.994262693569489,1.22300984293659,2.13222872378608,0.75214115293215,0.732305933337184,0.732305933337859,-0.98676428195375,NaN,0.707200433203202,-1.29657963144296,0.473720653056456,-1.38864888565953,0.492760672729544,0.340087285951755,0.340087285952305,0.353854735145119,-0.353854735144191,0.233186234786148
773.3248,0.559168325531391,0.441676406874207,NaN,-0.529247269469274,-0.880884708813534,-0.880884708815297,NaN,NaN,-0.554205484518729,-1.26252687343397,NaN,-1.10219843958515,0.992653627050928,-1.69520121564509,0.329009476724991,-0.40645500433262,1.66241225854183,1.5239000415977,-0.814853681718352,-0.208190347411568,-0.814853681719272,-1.888333135731,1.41064275342548,-1.2930977929802,0.123297720175613,1.61247445067112,NaN,NaN,-0.979581324965826,-1.52748479457384,0.0917125167330987,0.408018642428661,0.587005939243098,0.954110831617114,1.22378858379939,2.08955287812162,0.766656368919979,0.709326175283038,0.709326175283693,-0.995968796650605,NaN,0.711158198226179,-1.2858902537629,0.459869761244633,-1.39266663821867,0.490188975888536,0.350255745259889,0.350255745260428,0.342875261913522,-0.342875261912599,0.232334892673072
773.4272,0.548280266525102,0.482240405796308,NaN,-0.548267526423657,-0.829784703807801,-0.829784703809615,NaN,NaN,-0.531886926483373,-1.24689462437069,NaN,-1.06631307470498,0.985697640040755,-1.66927811169902,0.3328471572911,-0.435971749050864,1.67435466455311,1.49817798805451,-0.816576970869831,-0.229872292096561,-0.816576970870742,-1.90581391016979,1.42600631072578,-1.2993682707501,0.132435014508599,1.5887310754443,NaN,NaN,-0.968531875009175,-1.52073012452793,0.0994646744016445,0.423286785948678,0.614446621190144,0.911304084389219,1.22578277078731,2.04506290590272,0.780902765558903,0.68687474718563,0.686874747186266,-1.00543793012964,NaN,0.715160514559594,-1.27538408331168,0.44616734705977,-1.39675380280781,0.48734592002676,0.359839618241022,0.359839618241547,0.331671915408215,-0.331671915407301,0.230362963498363
773.5296,0.538514091102955,0.521912263615148,NaN,-0.566795152709948,-0.779436894080161,-0.779436894082013,NaN,NaN,-0.50912033395764,-1.22980151589258,NaN,-1.02945452316935,0.979011375123475,-1.6427120034067,0.337256986551024,-0.466299528792329,1.68595401069482,1.47090763201511,-0.818317759779468,-0.251749360557511,-0.818317759780383,-1.92203954568861,1.44071415207268,-1.30408207490553,0.141476593721592,1.5638888310822,NaN,NaN,-0.956483325706993,-1.51289697479345,0.106906951565329,0.439039007897234,0.642053154896464,0.865933323215946,1.22906956805779,1.99892371825277,0.794814477887431,0.665046390197964,0.665046390198579,-1.01517806118401,NaN,0.719235315049811,-1.26510809701578,0.432692235797547,-1.40086480150361,0.484217768959247,0.368837906041798,0.36883790604231,0.320238496158312,-0.320238496157405,0.227256008681705
773.632,0.52987278564413,0.560625453006479,NaN,-0.584823864443428,-0.72995768368113,-0.729957683683024,NaN,NaN,-0.485933077135871,-1.21125633975549,NaN,-0.991660421916517,0.972612385254968,-1.61556500094821,0.342230726065775,-0.497419070745316,1.69722278547311,1.44213120286998,-0.82008807014614,-0.273824296602487,-0.820088070147058,-1.93698820611043,1.4547464372805,-1.30723297700762,0.150349305178567,1.53804046720212,NaN,NaN,-0.943438541973273,-1.50398723661446,0.114024300066804,0.455251875209744,0.669779432972668,0.818097593819437,1.23371592966131,1.95130021279729,0.808327255002453,0.643930825065824,0.643930825066417,-1.02519481936158,NaN,0.723410635411639,-1.25510616375386,0.419519920743291,-1.40495414334949,0.480790321974623,0.377251608984204,0.377251608984698,0.308569345265101,-0.308569345264206,0.223003217225113
773.7344,0.52235537809513,0.598316578250479,NaN,-0.602350219489826,-0.681457942809419,-0.68145794281135,NaN,NaN,-0.462350980240291,-1.19127055617923,NaN,-0.952970053747958,0.966517074369507,-1.58790016588018,0.347758482073759,-0.529307586815131,1.70817126727308,1.41189300558734,-0.821901488960128,-0.296098402363322,-0.821901488961049,-1.95063873835859,1.46808323991833,-1.30881669166177,0.158979103542187,1.5112803280095,NaN,NaN,-0.92940412032289,-1.49400455911805,0.1208046277084,0.471898296862215,0.697578873271761,0.767903696455246,1.23977829253326,1.90235655458313,0.821378713883412,0.623612467269823,0.623612467270395,-1.03549278725852,NaN,0.727714522176977,-1.24541879375281,0.406722349414901,-1.40897634598448,0.477048929773771,0.385083970774906,0.385083970775382,0.296659328985111,-0.296659328984227,0.217597513124757
773.8368,0.51595718092001,0.634925561607681,NaN,-0.619373655409126,-0.634042425662045,-0.634042425664016,NaN,NaN,-0.438398298983018,-1.16985833430604,NaN,-0.913424301073582,0.960740692748327,-1.55978112599145,0.353828868967464,-0.56193891611414,1.71880775891885,1.38023951834502,-0.823773052182091,-0.318571489528696,-0.823773052183015,-1.96297085700938,1.48070467146411,-1.3088310368073,0.167291450857897,1.48370411665237,NaN,NaN,-0.914390295226152,-1.48295442475742,0.127238902580458,0.488947472160031,0.725404491432109,0.715465764853633,1.24730234718532,1.85225552296709,0.833908594307962,0.604170181615597,0.604170181616144,-1.04607518016155,NaN,0.732174937179112,-1.23608289842973,0.394367741940123,-1.41288582442238,0.472978518989379,0.392340750657507,0.392340750657965,0.284503807360228,-0.28450380735935,0.211035660746639
773.9392,0.510670052315749,0.670395837060656,NaN,-0.63589650051385,-0.587809204986541,-0.587809204988546,NaN,NaN,-0.414097747268006,-1.14703657515707,NaN,-0.873065583633166,0.955297326542213,-1.53127167766509,0.360429171930594,-0.595283690522285,1.72913886709653,1.34721951460259,-0.825719090542115,-0.341241827568635,-0.825719090543044,-1.97396533783492,1.49259102020545,-1.30727608030304,0.175211728271992,1.45540866674772,NaN,NaN,-0.898410827504435,-1.4708442005462,0.133321212879224,0.506364870001607,0.753208952754759,0.660904849917702,1.2563228858567,1.80115793069816,0.845859007414658,0.585677077554727,0.58567707755525,-1.05694352346673,NaN,0.736819649326124,-1.22713157176438,0.382520461256644,-1.41663673453342,0.46856362417689,0.399030535257556,0.399030535257998,0.272098579455528,-0.272098579454654,0.203318362064138
774.0416,0.506482671629856,0.70467454217231,NaN,-0.651923965775549,-0.542849136839125,-0.542849136841186,NaN,NaN,-0.389470556512804,-1.12282491741076,NaN,-0.831937788063571,0.95019987462914,-1.50243538665624,0.367545496609508,-0.629309519614508,1.7391697933056,1.31288417292606,-0.827757040264513,-0.364106074140904,-0.827757040265453,-1.98360419964079,1.50372288841788,-1.3041542611328,0.182665646859743,1.42649172249853,NaN,NaN,-0.881482883291181,-1.45768317744539,0.139048792871845,0.524112232415137,0.780944609188101,0.604348507810847,1.26686371718765,1.74922210532763,0.857174664026566,0.568200343440731,0.568200343441225,-1.06809735034688,NaN,0.741676112653587,-1.21859390438981,0.371240943676518,-1.42018277628385,0.46378842435793,0.405165083968431,0.405165083968855,0.259439800782281,-0.259439800781414,0.194450337755194
774.144,0.503380822681105,0.737712697510515,NaN,-0.667464124779193,-0.499245361588477,-0.49924536159062,NaN,NaN,-0.364536547164186,-1.09724572679848,NaN,-0.790086193645051,0.945460011240602,-1.47333519530073,0.375162900623962,-0.663981186140671,1.74890460227832,1.27728714401395,-0.829905227749617,-0.387159181657275,-0.829905227750564,-1.99187086121738,1.51408131713723,-1.29947047827369,0.189579647915956,1.39705172924419,NaN,NaN,-0.863626907805476,-1.44348261279453,0.144422025830507,0.542147605150822,0.808563538344369,0.5459303872043,1.27893763295475,1.69660341478267,0.867803073502397,0.551801114419091,0.551801114419552,-1.07953393285991,NaN,0.746771337953539,-1.21049483667239,0.36058568106808,-1.42347698061585,0.458636785357371,0.410759680927439,0.410759680927848,0.246523881222837,-0.246523881221978,0.184440386850306
774.2464,0.501347675090043,0.769465367625949,NaN,-0.682527883177202,-0.457072835796017,-0.457072835798219,NaN,NaN,-0.339314197562608,-1.07032406886433,NaN,-0.747557393757855,0.941088135081371,-1.44403303990136,0.383265506059589,-0.699260840136501,1.75834644466244,1.24048456226716,-0.832182636564859,-0.410394289463381,-0.832182636565812,-1.99875027734476,1.5236479020841,-1.29323214840451,0.195881292644747,1.36718763414426,NaN,NaN,-0.844866492752793,-1.42825578600394,0.149444430004674,0.560425404357365,0.836017602656462,0.485789810758498,1.292546414695,1.64345382124686,0.877694713735475,0.536534362109016,0.536534362109446,-1.09124804240752,NaN,0.752131769926114,-1.2028550502232,0.350607233655096,-1.42647151171044,0.453092315441776,0.415833448900879,0.415833448901269,0.233347389209193,-0.233347389208339,0.173301422908075
774.3488,0.50036405098316,0.799891799707478,NaN,-0.697128936319605,-0.416397887536249,-0.416397887538507,NaN,NaN,-0.313820703336066,-1.0420876659337,NaN,-0.704399211104896,0.937093309431649,-1.4145894798569,0.391836597098811,-0.735108184083277,1.76749772296396,1.20253499856141,-0.834608665054345,-0.433802625992579,-0.834608665055302,-2.00422906814338,1.53240491278697,-1.28544923885386,0.201499646294197,1.3369986900717,NaN,NaN,-0.825228235430252,-1.41201807306662,0.154122633660245,0.578896521708869,0.863258539045213,0.424071346454995,1.30768087074287,1.58992145041135,0.886803180116099,0.522448788244068,0.522448788244464,-1.1032317257472,NaN,0.757783183213884,-1.19569089696439,0.341354251861573,-1.42911751674289,0.447138445206475,0.4204095675269,0.420409567527272,0.219907000754994,-0.219907000754152,0.16105048426945
774.4512,0.500408666422296,0.82895553472363,NaN,-0.711283716296613,-0.377277796271508,-0.377277796273815,NaN,NaN,-0.288072026788959,-1.01256684388756,NaN,-0.66066060779695,0.933483203718769,-1.38506333829599,0.400858714204017,-0.771480650526588,1.77636020206172,1.16349935392202,-0.837202882820831,-0.457373449294225,-0.837202882821792,-2.00829565346399,1.54033542420617,-1.27613428239395,0.206365659354723,1.30658425034129,NaN,NaN,-0.804741590089905,-1.39478703949563,0.158466348573681,0.597508458813145,0.89023808041449,0.360924363930492,1.32432089903344,1.53615016683966,0.895085323109127,0.509586708209571,0.509586708209935,-1.11547408581746,NaN,0.763750606563095,-1.18901437099544,0.332871496944665,-1.4313650476799,0.440758541022424,0.424515345937849,0.424515345938202,0.206199527836891,-0.206199527836064,0.147708713528415
774.5536,0.501458346039742,0.856624486456954,NaN,-0.725011332681344,-0.339760407204675,-0.339760407207022,NaN,NaN,-0.262082940726837,-0.981794477635996,NaN,-0.616391595094689,0.930264047420816,-1.35551135234917,0.410313757384247,-0.808333580677491,1.78493507871898,1.12344070043593,-0.839984790617505,-0.48109404150791,-0.839984790618474,-2.01094039213301,1.54742345906848,-1.26530237784132,0.210412543932971,1.27604354540003,NaN,NaN,-0.78343871404347,-1.37658254195166,0.162488348647724,0.616205476608804,0.916908100931099,0.296502573746062,1.34243558142082,1.48227915819155,0.902501380035581,0.497983926626173,0.497983926626506,-1.12796106440698,NaN,0.770058273785009,-1.1828331261272,0.32519986097867,-1.43316305894394,0.43393605407507,0.42818213921932,0.428182139219653,0.192222034948229,-0.192222034947421,0.13330130286885
774.656,0.503488219047748,0.88287098891314,NaN,-0.738333510562888,-0.303883791093989,-0.303883791096402,NaN,NaN,-0.23586707488709,-0.949805939645792,NaN,-0.571643145685319,0.927440598598991,-1.32598783047311,0.420183102153476,-0.845620412534075,1.79322303067531,1.08242408343621,-0.84297358372728,-0.504949752238831,-0.842973583728258,-2.01215571239255,1.55365412651028,-1.2529711774899,0.213576140709132,1.24547544109144,NaN,NaN,-0.761354311914071,-1.35742682299505,0.166204450335226,0.634928749997192,0.943220769636109,0.230963553675784,1.36198332570538,1.42844254673421,0.909015098713989,0.487669624460293,0.487669624460596,-1.14067523019498,NaN,0.776729590439604,-1.17715053087836,0.318376390239374,-1.43445946119744,0.426654696955246,0.431445145372861,0.431445145373174,0.177972023474259,-0.177972023473473,0.117857405748686
774.7584,0.50647190629339,0.90767181680917,NaN,-0.751274527526685,-0.269675956518653,-0.269675956521144,NaN,NaN,-0.209436970589695,-0.916639049126185,NaN,-0.526467106391457,0.925016119406135,-1.29654431581174,0.430447720371719,-0.883292881775498,1.80122425807095,1.04051629646361,-0.846187918533602,-0.528924071241984,-0.846187918534588,-2.01193621332986,1.55901373650202,-1.23916086097653,0.215795270080107,1.21497818180462,NaN,NaN,-0.738525481904147,-1.33734458824077,0.169633481459377,0.65361653180579,0.969128700118589,0.164468269456716,1.38291207140344,1.37476905005633,0.914593844057618,0.478666280596338,0.478666280596616,-1.15359558131783,NaN,0.783787102948455,-1.17196574811363,0.31243431659096,-1.43520120307462,0.418898633225436,0.434343138177438,0.434343138177734,0.16344765110665,-0.163447651105894,0.101410015320964
774.8608,0.510381702885748,0.931008182823545,NaN,-0.763861150995197,-0.23715461792357,-0.237154617926136,NaN,NaN,-0.182804141269292,-0.882334020206375,NaN,-0.48091611053811,0.922992347921388,-1.26722926023225,0.441088292454512,-0.921301233566921,1.80893851524627,0.99778562911784,-0.849645685622981,-0.552998707366426,-0.849645685623974,-2.01027872057765,1.56348987363269,-1.22389409385456,0.217012060316501,1.18464912200771,NaN,NaN,-0.714991567070512,-1.31636306508931,0.172797218669279,0.672204347374465,0.994585095776387,0.097180594466341,1.40515956395901,1.32138169987495,0.919208677312235,0.470989639174044,0.470989639174297,-1.16669737475182,NaN,0.791252460166608,-1.16727382911796,0.307403097732466,-1.43533436279914,0.410652665571783,0.436918177091393,0.436918177091679,0.148647956796163,-0.148647956795439,0.083995809274475
774.9632,0.515188756757865,0.952865714178499,NaN,-0.776122575749756,-0.206327018584319,-0.206327018586972,NaN,NaN,-0.155979133252032,-0.846933410251626,NaN,-0.435043493978689,0.921369459687805,-1.23808772085284,0.452085298639173,-0.959594439192164,1.81636512489286,0.954301586125563,-0.853363796155955,-0.577153657946997,-0.853363796156958,-2.0071822896079,1.56707142475573,-1.20719596756537,0.21717224855302,1.15458445217812,NaN,NaN,-0.690794010732895,-1.29451204545371,0.175720272697194,0.690625247855516,1.01954389667493,0.0292668271632199,1.42865369084835,1.26839761200875,0.922834401116584,0.464648720036439,0.464648720036667,-1.17995199175944,NaN,0.799146362225029,-1.16306581498868,0.303308459535256,-1.43480424854527,0.401902410330399,0.439215312060465,0.439215312060738,0.133573070672273,-0.133573070671583,0.0656549660595812
775.0656,0.520863242017639,0.97323441445743,NaN,-0.788090357140967,-0.17718980255785,-0.177189802560602,NaN,NaN,-0.128971587212086,-0.810482065834444,NaN,-0.388903217289769,0.920146018173453,-1.2091610941266,0.463419081877498,-0.998120408950522,1.82350297208669,0.910134586336036,-0.857357987410046,-0.601367266400225,-0.857357987411056,-2.0026481626621,1.5697485669724,-1.18909392009387,0.216225456486188,1.12487892683544,NaN,NaN,-0.6659762106843,-1.27182391141018,0.178429907721293,0.708810140819221,1.04395993209942,-0.0391047989702224,1.45331286914468,1.21592779280575,0.925449569469541,0.459645862797818,0.459645862798028,-1.19332684209829,NaN,0.807488497879546,-1.1593288432994,0.300172432782577,-1.43355551614597,0.392634445807021,0.441282286783961,0.441282286784222,0.118224397957588,-0.118224397956931,0.0464309637893325
775.168,0.527374524645,0.992108618727773,NaN,-0.79979833309761,-0.149728928543288,-0.149728928546135,NaN,NaN,-0.101790309659464,-0.773027058566898,NaN,-0.342549790214928,0.919318917569791,-1.18048689943746,0.475069880806818,-1.03682619411641,1.83035047996234,0.865355653777799,-0.86164264860422,-0.625616275914541,-0.861642648605238,-1.9966796975811,1.57151273207302,-1.16961764368849,0.214125447338887,1.09562559740901,NaN,NaN,-0.640583367227809,-1.24833364174928,0.180955794174839,0.726688202567407,1.06778908304485,-0.107764621051449,1.47904647309499,1.16407696340341,0.927036467048379,0.455976792148874,0.45597679214907,-1.2067853052837,NaN,0.816297478310445,-1.15604626285685,0.298013382114476,-1.43153231218827,0.382836422297069,0.44316923833468,0.443169238334933,0.102604773256792,-0.102604773256173,0.0263703735285514
775.2704,0.534691318004947,1.00948694648646,NaN,-0.811282530069135,-0.123919621468005,-0.123919621470941,NaN,NaN,-0.074443364691588,-0.734617601851674,NaN,-0.296038189538652,0.918883324520245,-1.15209861711328,0.487017837763919,-1.07565817159781,1.83690556457881,0.820036106479956,-0.86623066351169,-0.649875887198759,-0.866230663512716,-1.98928229205804,1.57235656842057,-1.14879898731644,0.210830372111702,1.06691554339,NaN,NaN,-0.614662324680859,-1.22407880017575,0.183329705482859,0.744187368274407,1.09098846344855,-0.176542078323647,1.50575528754828,1.11294337840345,0.927581066045571,0.453630689688058,0.453630689688236,-1.22028670700363,NaN,0.825590774863788,-1.15319775572475,0.296846023219423,-1.42867844729832,0.372497127021032,0.444928390147441,0.444928390147687,0.0867185835710789,-0.086718583570495,0.00552265712705094
775.3728,0.542781826839571,1.02537225344079,NaN,-0.822581051193121,-0.09972635916105,-0.0997263591640542,NaN,NaN,-0.0469381876255538,-0.695304941244725,NaN,-0.249423761531762,0.918832628109753,-1.12402557932834,0.499242992572978,-1.11456220406831,1.84316556266277,0.774247245102708,-0.871133265100712,-0.67411982255933,-0.871133265101743,-1.98046332139432,1.57227391994502,-1.12667185099621,0.206303012210958,1.03883758989335,NaN,NaN,-0.588261409748219,-1.19909950425078,0.185585175220364,0.761234888568365,1.11351662792805,-0.245266279793118,1.53333197442446,1.06261861684814,0.927072972370193,0.452590262375142,0.452590262375308,-1.23378633175367,NaN,0.83538465946643,-1.15075945804045,0.296681418449434,-1.42493760100132,0.36160650535889,0.446613737690955,0.446613737691192,0.0705718571808684,-0.0705718571803177,-0.0160600204205834
775.4752,0.551613878045531,1.03977158416147,NaN,-0.833733945602248,-0.0771028937098547,-0.0771028937129321,NaN,NaN,-0.0192817150654824,-0.655142214428112,NaN,-0.202762105596733,0.919158406616848,-1.09629290878562,0.511725273511027,-1.15348377408493,1.84912713251147,0.728060043782395,-0.876359899062982,-0.698320394952091,-0.876359899064025,-1.97023209785011,1.57125983492596,-1.1032720611445,0.200511021077216,1.01147800340401,NaN,NaN,-0.56143027208026,-1.17343836661428,0.18775713420073,0.777757927238631,1.13533380153836,-0.313766611568126,1.56166155082715,1.01318734041308,0.925505375146437,0.452831812019313,0.452831812019467,-1.24723547292423,NaN,0.845694141113328,-1.14870407374133,0.297526947296654,-1.42025355405244,0.350155647897663,0.448280726778307,0.448280726778535,0.0541723189254898,-0.0541723189249768,-0.0383229589744569
775.5776,0.561155036403886,1.05269612709432,NaN,-0.844783056266139,-0.0559923176861163,-0.0559923176892447,NaN,NaN,0.00851947589966763,-0.614184281413237,NaN,-0.156108941638527,0.919850414296683,-1.06892149891726,0.52444449171487,-1.19236810048103,1.85478614129066,0.681544848356505,-0.881918095862437,-0.722448579275532,-0.881918095863498,-1.95859985141533,1.56931060538703,-1.07863722446065,0.193427158078792,0.984920167539263,NaN,NaN,-0.534219734390256,-1.14714039693021,0.189881548652886,0.79368415899187,1.15640211096519,-0.381873372020613,1.59062189126516,0.964727042432213,0.922875007221043,0.454325321501828,0.454325321501973,-1.26058151451153,NaN,0.85653289643643,-1.14700098629799,0.299386260378155,-1.4145704431469,0.338136759593677,0.449985919670325,0.449985919670549,0.037529423208433,-0.037529423207955,-0.0612090796498344
775.68,0.571372705772458,1.06416116677407,NaN,-0.855771843954702,-0.0363271989985975,-0.0363271990017601,NaN,NaN,0.0364590316732929,-0.572487530010426,NaN,-0.109519964997053,0.920896586442521,-1.04192803057677,0.537380339338076,-1.23116024505711,1.86013755667902,0.634771093414771,-0.887813354911245,-0.746474083875566,-0.887813354912322,-1.94557972298144,1.56642382375214,-1.05280657052312,0.185029498178706,0.95924424934962,NaN,NaN,-0.506681659665718,-1.12025286071924,0.191995078683629,0.808942323118237,1.17668579055186,-0.449418407843317,1.62008427051773,0.91730783114169,0.919182110238264,0.45703457140545,0.457034571405581,-1.27376803229181,NaN,0.867913199429762,-1.14561638000435,0.302259227841685,-1.4078330399718,0.325543129538929,0.451786637725619,0.451786637725835,0.0206543868379562,-0.0206543868375127,-0.084659090855906
775.7824,0.582234216881432,1.07418602184044,NaN,-0.866745189218863,-0.0180298081013282,-0.0180298081045043,NaN,NaN,0.0645307086912886,-0.530109666442921,NaN,-0.0630506935908367,0.922283058065767,-1.01532502425627,0.550512386855477,-1.26980520903291,1.86517535281842,0.587807051402536,-0.894049048845221,-0.770365429279774,-0.894049048846314,-1.93118675120718,1.56259843303241,-1.02582079441695,0.175301598363285,0.934526868117194,NaN,NaN,-0.478868836435594,-1.09282510156247,0.194134766226881,0.823462708971177,1.19615134701791,-0.516235724760497,1.64991395824041,0.870992285081509,0.914430387727466,0.460917291833343,0.460917291833467,-1.28673490612079,NaN,0.879845858069452,-1.14451338419501,0.306141891597046,-1.39998706189055,0.312369114268028,0.453740568575975,0.453740568576183,0.00356024399070714,-0.00356024399029743,-0.108611686988215
775.8848,0.593706900136048,1.08279395775575,NaN,-0.877749179298714,-0.00101244775503206,-0.00101244775822102,NaN,NaN,0.0927282992128568,-0.487109506354323,NaN,-0.0167563164359018,0.923994189197078,-0.989120932188229,0.563820070061696,-1.30824801499659,1.86989242983732,0.540719618737176,-0.900626355271881,-0.794090053579871,-0.900626355272987,-1.91543783253043,1.5578347469187,-0.997721905785511,0.164232607406165,0.910840775703626,NaN,NaN,-0.450834873242761,-1.06490833606263,0.19633774867314,0.837177578141323,1.21476768367617,-0.582162060600065,1.67997087004105,0.825835398020291,0.90862693036082,0.465925349254864,0.465925349254977,-1.29941844401567,NaN,0.892340164461559,-1.14365225425312,0.311026432464432,-1.3909795197365,0.298610137705908,0.455905330731913,0.455905330732113,-0.0137380653187004,0.0137380653190807,-0.133003793737143
775.9872,0.605758141204203,1.09001206755672,NaN,-0.888830887677638,0.014822114464952,0.0148221144617213,NaN,NaN,0.121045599057865,-0.443546783050645,NaN,0.0293084434871447,0.926012589066911,-0.963320277841648,0.577282655129757,-1.34643377190148,1.8742805396002,0.493574133103158,-0.907544215994362,-0.817614463630778,-0.907544215995477,-1.89835164176752,1.55213442481778,-0.968553089507335,0.151817312596681,0.88825455628519,NaN,NaN,-0.422634091654913,-1.03655542708185,0.198640990343061,0.85002153964746,1.23250619305244,-0.647037419236233,1.71011027532637,0.781884615273304,0.901782102589441,0.472004968336496,0.472004968336601,-1.31175152321358,NaN,0.90540386234372,-1.1429905958816,0.31690115735808,-1.38075910536593,0.284262702803957,0.458337992768554,0.458337992768752,-0.0312235731851112,0.031223573185462,-0.157770864804111
776.0896,0.618355421083928,1.0958711189074,NaN,-0.900038151425385,0.0295801126430557,0.029580112639799,NaN,NaN,0.149476406516102,-0.399481984553714,NaN,0.0750894416404156,0.928319133774132,-0.937923849388661,0.590879173038892,-1.38430772411571,1.87833020859446,0.446434209144445,-0.914799317097856,-0.840904439082156,-0.914799317098976,-1.87994850742927,1.54550039319194,-0.938358584499505,0.138056120524142,0.866832351173051,NaN,NaN,-0.394321415755912,-1.00782063571883,0.20108102884673,0.861931885184581,1.24934082228143,-0.710705569081833,1.74018355745299,0.739179953574791,0.893909383754527,0.479096990478439,0.479096990478537,-1.32366375462119,NaN,0.919043133113225,-1.14248362437048,0.323750497183294,-1.36927661991616,0.269324404241715,0.461094548095076,0.461094548095267,-0.0488771357658039,0.0488771357661282,-0.182847229752585
776.192,0.631466346547676,1.10040537103115,NaN,-0.911419348627785,0.0433761506955315,0.0433761506922545,NaN,NaN,0.178014536644338,-0.354976221598676,NaN,0.120533198076456,0.930892977119437,-0.91292894869054,0.604588322345351,-1.42181529178158,1.88203065418868,0.399361577827533,-0.922386083127539,-0.863925283564484,-0.922386083128665,-1.86025023873759,1.53793670791822,-0.907183586076601,0.122954970610472,0.846633606008293,NaN,NaN,-0.365952267423339,-0.978759348994282,0.203693737894869,0.872848878252443,1.26524810613721,-0.773014516820297,1.7700390166951,0.697754184749719,0.88502516274533,0.487137173541109,0.487137173541199,-1.33508167878038,NaN,0.933262600292303,-1.14208444083363,0.331554998995472,-1.35648543880239,0.253793928103567,0.464229355372261,0.464229355372451,-0.0666772748310558,0.0666772748313562,-0.208166487915111
776.2944,0.645058677363097,1.10365237032188,NaN,-0.923023174305673,0.0563324764463264,0.0563324764430065,NaN,NaN,0.206653836211048,-0.310091119556326,NaN,0.165586966392424,0.933711560630458,-0.88832968822307,0.618388350111659,-1.45890211434128,1.8853697006145,0.35241592109265,-0.930296682821868,-0.886642106934741,-0.930296682822997,-1.83927990970518,1.52944836260334,-0.875074173237877,0.106525184943397,0.827712827791435,NaN,NaN,-0.337582483919284,-0.949427779085655,0.206514109076215,0.882715985337361,1.28020715723764,-0.833816971613093,1.79952270413752,0.65763305644112,0.87514849511423,0.496056538684845,0.496056538684925,-1.34592900027346,NaN,0.948065352014053,-1.14174430812115,0.340291301278916,-1.3423420024338,0.237671027163301,0.467794565175413,0.467794565175601,-0.0846000276332294,0.0846000276335096,-0.233661937920373
776.3968,0.659100353083806,1.10565273489583,NaN,-0.934898408059886,0.068578167942541,0.0685781679391966,NaN,NaN,0.235388188698521,-0.264888720844009,NaN,0.210198802249874,0.936750633944886,-0.864117319088342,0.632256930408563,-1.49551410487692,1.88833370718371,0.305654706934957,-0.938521048876751,-0.909020121517321,-0.938521048877886,-1.81706161824196,1.5200410609294,-0.84207726166993,0.0887832665564084,0.810119335997249,NaN,NaN,-0.309268271498715,-0.919882632457919,0.20957605457746,0.891480040034471,1.29419960541261,-0.892970808327054,1.82847927611554,0.618835531683073,0.864300838800725,0.505781764297923,0.50578176429799,-1.35612686256803,NaN,0.963452982355575,-1.14141291824949,0.349932092083486,-1.3268063196834,0.22095647062278,0.471839553345794,0.471839553345978,-0.102618813848264,0.102618813848525,-0.259267031093686
776.4992,0.673559516846135,1.10644993300158,NaN,-0.947093665156311,0.0802482411545157,0.0802482411511629,NaN,NaN,0.264211506957534,-0.219431382580111,NaN,0.25431764922333,0.939984298662588,-0.840280571919332,0.64617106248759,-1.53159751405651,1.89090751851086,0.259133038832164,-0.947046916304789,-0.931024947138415,-0.947046916305926,-1.79362024677507,1.50972097796807,-0.808240587862973,0.069750663290147,0.793896995206601,NaN,NaN,-0.281066195024803,-0.890180754231176,0.2129122320428,0.89909133888274,1.30720948633663,-0.95033952604946,1.85675286018278,0.581374043541326,0.852505782035908,0.516235613866096,0.516235613866151,-1.36559416214416,NaN,0.979425653233159,-1.14103865676041,0.360446061307859,-1.30984247542627,0.203651977478758,0.476410369093712,0.476410369093892,-0.120704314434093,0.120704314434337,-0.284915842257974
776.6016,0.688404530719175,1.10609005155523,NaN,-0.959657128446533,0.0914826887126007,0.0914826887092338,NaN,NaN,0.293117720640363,-0.173781659951353,NaN,0.297893451363698,0.943385085680437,-0.81680599954731,0.66010700429209,-1.56709900227829,1.89307444099671,0.212903526793774,-0.955859881068416,-0.952622926390973,-0.955859881069561,-1.76898125502746,1.49849454194871,-0.773612724076819,0.0494535100486309,0.779083922814867,NaN,NaN,-0.253033189035189,-0.860378761531881,0.216553890351216,0.905503679852213,1.31922309049956,-1.00579269489485,1.88418792019752,0.545254761631525,0.83978876646777,0.527337375867709,0.527337375867749,-1.37424790114309,NaN,0.995982173584769,-1.14056887604206,0.371797864837353,-1.29141913433349,0.185760143469257,0.481549196641854,0.481549196642034,-0.138824358028757,0.138824358028982,-0.310543555990609
776.704,0.703603978340839,1.1046215465777,NaN,-0.972636266784289,0.102425459136768,0.102425459133419,NaN,NaN,0.32210076943158,-0.128002178354155,NaN,0.340877287406395,0.946924067182967,-0.793678316872568,0.674040244566336,-1.60196572931826,1.8948162493976,0.167016171999484,-0.964943475757852,-0.973781444743383,-0.964943475759007,-1.7431705339849,1.4863682752402,-0.738243101811035,0.0279223539963636,0.765712173564233,NaN,NaN,-0.225226570543952,-0.830532683046482,0.220530730575918,0.910674366528295,1.33022879183695,-1.05920639105275,1.91063010445743,0.510477856657977,0.826176799958421,0.539003298585982,0.53900329858601,-1.38200357766494,NaN,1.01312008526501,-1.13995018228319,0.383948114057723,-1.27151002755059,0.16728436475935,0.487293830547405,0.48729383054758,-0.156943822980554,0.156943822980761,-0.336086962447785
776.8064,0.719126652318721,1.10209497026385,NaN,-0.98607754863844,0.113223387850254,0.113223387846914,NaN,NaN,0.351154609243172,-0.0821555086955696,NaN,0.383221510703689,0.950570995022219,-0.770880734334316,0.687945506224033,-1.63614547539164,1.89611322729181,0.121518250625789,-0.974279255460774,-0.994469243915598,-0.974279255461937,-1.71621433633698,1.47334872468814,-0.702182007945377,0.0051918643392126,0.75380741140359,NaN,NaN,-0.197704038784008,-0.800697618613212,0.224870774758086,0.914564202348336,1.34021687478507,-1.1104636232761,1.93592706452218,0.477037748817775,0.811698154112901,0.55114701533057,0.551147015330582,-1.38877560859537,NaN,1.03083574487489,-1.13912872984474,0.39685339306609,-1.25009440846278,0.148228758704088,0.493677165931557,0.49367716593173,-0.175024565165937,0.17502456516613,-0.361484951144221
776.9088,0.734941522810196,1.0985626771034,NaN,-1.00002615588893,0.124025093362424,0.124025093359116,NaN,NaN,0.380273230754598,-0.0363040623610588,NaN,0.424879877439101,0.954294453792655,-0.748395279213312,0.701796770887087,-1.66958679719918,1.89694423922774,0.0764541891602957,-0.983846886695861,-1.01465671693679,-0.983846886697031,-1.68813927455637,1.45944248031733,-0.665480533623966,-0.0186994678198828,0.743388586035119,NaN,NaN,-0.170523656139808,-0.770927426199764,0.229600239925394,0.917137488886784,1.3491793726536,-1.15945474782638,1.9599292417471,0.444923340714672,0.796382049869839,0.563679964930398,0.563679964930395,-1.39447777390995,NaN,1.04912439677824,-1.13805051485099,0.410466298423611,-1.22715747212574,0.128598086377618,0.500726702234215,0.500726702234383,-0.19302537123543,0.19302537123561,-0.386678991064323
777.0112,0.751017680835588,1.09407851925113,NaN,-1.0145256965402,0.134979855146103,0.134979855142807,NaN,NaN,0.409450681929184,0.00948998316694121,NaN,0.465807650394408,0.958062019294417,-0.726203097100245,0.715567317911384,-1.70223921070101,1.89728682817712,0.0318654345933024,-0.993624236464381,-1.03431617535562,-0.993624236465561,-1.65897235730709,1.44465624810094,-0.628190486488253,-0.0437096277220512,0.734467635923548,NaN,NaN,-0.143743810577969,-0.741274436414673,0.234743420396451,0.918362030493426,1.35710992382904,-1.20607786114231,1.98249062724077,0.414118251316651,0.780258345246441,0.576511817006816,0.576511817006795,-1.39902366971941,NaN,1.0679802379025,-1.13666166625634,0.424735499762292,-1.20269073812836,0.108397687949392,0.508464061778822,0.508464061778987,-0.210901931777358,0.210901931777527,-0.411613583909136
777.1136,0.767324249360607,1.08869754628397,NaN,-1.02961790954208,0.146236495140965,0.14623649513768,NaN,NaN,0.438681081301975,0.0551647250977628,NaN,0.505961673006335,0.961840417993475,-0.70428472531255,0.729229776758141,-1.73405338723587,1.89711733733562,-0.0122096632642306,-1.00358746164432,-1.05342208182935,-1.00358746164551,-1.62874103230672,1.42899693270155,-0.59036429459207,-0.0697933556368428,0.727049240594178,NaN,NaN,-0.117423160818898,-0.711789188434481,0.240322581191965,0.918209140939475,1.36400364436962,-1.25023915561894,2.00346950588892,0.384601075947474,0.763357248424456,0.589550914495586,0.58955091449555,-1.40232716020517,NaN,1.08739647689656,-1.13490873902782,0.439605828986816,-1.17669239245483,0.0876334466081018,0.516904533322449,0.516904533322612,-0.228606833755129,0.228606833755284,-0.436236669869704
777.216,0.783830260662342,1.08247572450857,NaN,-1.04534235257193,0.157942285293914,0.15794228529066,NaN,NaN,0.467958609840415,0.100658550582548,NaN,0.545300419316619,0.965595690008262,-0.682620331722726,0.742756198298242,-1.76498134605041,1.89641106146534,-0.0557359274741828,-1.01371109661047,-1.07195124304678,-1.01371109661167,-1.59747321774289,1.41247170051923,-0.552054930034776,-0.0969023879639329,0.721130637886422,NaN,NaN,-0.0916205648399991,-0.68252018145365,0.246357861999443,0.916653647982229,1.3698570115725,-1.29185322479395,2.02272919300901,0.35634569452097,0.745709079510465,0.602704743047091,0.602704743047043,-1.40430282181699,NaN,1.10736538986674,-1.1327390152672,0.455018410270209,-1.14916757892279,0.0663117931641483,0.526056657715269,0.526056657715431,-0.24608957782602,0.246089577826163,-0.460499965359149
777.3184,0.800504507849144,1.07546968293807,NaN,-1.06173606868239,0.170241891065693,0.170241891062451,NaN,NaN,0.497277476449001,0.145910145282708,NaN,0.583784034800414,0.969293363547439,-0.66118991915006,0.756118153529527,-1.79497662827458,1.89514242888904,-0.0986813656543181,-1.02396813677011,-1.0898829613455,-1.02396813677132,-1.56519732065991,1.39508801216733,-0.513315875206414,-0.12498565469733,0.716701506354948,NaN,NaN,-0.066394992194023,-0.653513646104253,0.252867190591513,0.913673898177926,1.37466775980733,-1.33084331158535,2.04013876065189,0.3293216322975,0.727344088285929,0.615880423959789,0.615880423959731,-1.40486637729965,NaN,1.12787837318306,-1.13010081684507,0.470910839147435,-1.12012863313882,0.0444397478673997,0.535921870960394,0.535921870960553,-0.263296631040826,0.26329663104095,-0.484359229045117
777.4208,0.81731538363829,1.06773647966771,NaN,-1.07883323957575,0.183276343274279,0.183276343271064,NaN,NaN,0.526631860425497,0.190858512178733,NaN,0.621374380206966,0.9728986449852,-0.639973506089298,0.769286859509201,-1.82399445296368,1.89328520633386,-0.141017128288143,-1.03433012287307,-1.10719915241871,-1.03433012287429,-1.53194225115697,1.37685362753745,-0.474201146214804,-0.153989446834493,0.71374390194573,NaN,NaN,-0.0418054193179111,-0.624813353346234,0.259866205855299,0.909251770461672,1.378434798645,-1.36714150365837,2.05557373681403,0.303494454270763,0.708292311615268,0.628985213516818,0.628985213516753,-1.40393512605186,NaN,1.14892599143603,-1.12694382836219,0.487217411404926,-1.08959525594441,0.0220249797080268,0.546494210879344,0.546494210879505,-0.280171529261629,0.280171529261735,-0.50777447212558
777.5232,0.834230716873634,1.0593333753107,NaN,-1.09666484215718,0.197182025713698,0.197182025710498,NaN,NaN,0.556015837454251,0.235443001660256,NaN,0.658035077648277,0.976376618585927,-0.618951299354331,0.782233319229247,-1.8519918718173,1.89081271670595,-0.182717448998227,-1.04476723433474,-1.12388444258369,-1.04476723433597,-1.49773744755366,1.3577766009793,-0.434765368530517,-0.183857577415712,0.712232241259035,NaN,NaN,-0.0179107044392385,-0.596460480887717,0.267368190349852,0.903372706666811,1.38115816260598,-1.40068888398435,2.06891675782801,0.2788261673976,0.688583443888032,0.641926991022336,0.641926991022263,-1.40142838536462,NaN,1.17049801888034,-1.12321942086746,0.503869394723926,-1.05759462161523,-0.000924138369388864,0.55776008603865,0.557760086038812,-0.296655040002708,0.296655040002795,-0.530710133278434
777.6256,0.851217612236442,1.05031760535523,NaN,-1.11525832318714,0.2120896747607,0.212089674757507,NaN,NaN,0.585423294445333,0.279603341275589,NaN,0.693731549275747,0.979692445823199,-0.598103867404635,0.794928460755685,-1.87892793441999,1.88769806439945,-0.223759589879703,-1.05524839170365,-1.13992624882545,-1.05524839170488,-1.46261293079296,1.33786529696412,-0.395063876010468,-0.214531552875825,0.712133334373594,NaN,NaN,0.00523056140724615,-0.568493546039825,0.275384011066584,0.896025762109319,1.38283899445545,-1.43143563831203,2.08005816373376,0.255275619985266,0.668246703980621,0.654614729673134,0.654614729673053,-1.39726795326548,NaN,1.19258347447017,-1.11888095825853,0.520795327629504,-1.02416141521078,-0.0243984875549662,0.569698104576192,0.569698104576352,-0.312685384926906,0.31268538492698,-0.55313522955154
777.728,0.868242295734181,1.04074615435914,NaN,-1.13463729835821,0.228123397261217,0.228123397258038,NaN,NaN,0.614847836159723,0.323279653525805,NaN,0.728431038453702,0.982811558848474,-0.577412312687932,0.807343270488845,-1.90476385705969,1.88391436752256,-0.264123783093916,-1.06574136152035,-1.15531482308609,-1.0657413615216,-1.42659940413321,1.31712845916476,-0.355152792502416,-0.245950757160825,0.713406477869754,NaN,NaN,0.0275602276575323,-0.54094839826558,0.283922065868207,0.887203674281705,1.38347955658976,-1.45934111287897,2.08889653823769,0.232798906831183,0.647310700712097,0.666958956398412,0.666958956398325,-1.39137859084091,NaN,1.21517064677268,-1.11388406773873,0.537921326065164,-0.9893377991471,-0.0483881694126613,0.582278966106543,0.582278966106701,-0.328198514732837,0.328198514732903,-0.575023481120552
777.8304,0.885269965444225,1.03067554462717,NaN,-1.15482127422585,0.245399723520785,0.245399723517619,NaN,NaN,0.644282683691738,0.366412455648018,NaN,0.762102607312499,0.985699847585639,-0.556858435285229,0.819448923354007,-1.92946317942053,1.87943500038901,-0.303793142873939,-1.07621286057116,-1.17004323556871,-1.07621286057242,-1.3897284070214,1.29557535479179,-0.315089064536692,-0.278052639250865,0.716003620099613,NaN,NaN,0.0490207805532526,-0.513858252916192,0.29298823406788,0.876902941258132,1.38308325887459,-1.48437381423766,2.09533920259932,0.211349796973229,0.625803314779941,0.678872211416307,0.678872211416216,-1.38368851124868,NaN,1.23824710079651,-1.10818686800703,0.555171387540029,-0.953173314260778,-0.0728824667523446,0.595465428477446,0.595465428477605,-0.343128430254549,0.343128430254604,-0.5963533947435
777.9328,0.902264642699079,1.02016165612622,NaN,-1.17582538615396,0.264026724390569,0.264026724387401,NaN,NaN,0.673720561522065,0.408942641336999,NaN,0.794717111907027,0.988323840991702,-0.536424876815589,0.831216915335334,-1.95299189919895,1.87423385267756,-0.342753526194729,-1.08662865911436,-1.18410729577367,-1.08662865911563,-1.35203252072101,1.27321599359837,-0.274930440413953,-0.310772887774834,0.719869605543298,NaN,NaN,0.0695555620428347,-0.487253742821691,0.302585834161037,0.865123895352378,1.38165469006989,-1.50651134640361,2.09930267620284,0.190880200269216,0.603751623845903,0.690269514940261,0.690269514940159,-1.37412985791133,NaN,1.26179966673537,-1.10175016625558,0.572467700256904,-0.915724721997138,-0.0978697831298238,0.609212361309622,0.609212361309776,-0.35740754057912,0.357407540579172,-0.617108284263609
778.0352,0.919189020111,1.00925958805516,NaN,-1.19766014524113,0.284103219767695,0.284103219764513,NaN,NaN,0.703153569036855,0.450811452882233,NaN,0.82624716561727,0.990650882984912,-0.516095233679679,0.842619203670866,-1.97531858231212,1.86828560899832,-0.380993334206597,-1.0969536777737,-1.19750544002911,-1.09695367777498,-1.31354560833457,1.25006139599976,-0.234735414924946,-0.344045579762489,0.724942494329059,NaN,NaN,0.0891090097155151,-0.461162970934952,0.31271559529169,0.851870761346906,1.37919964885733,-1.52574028381904,2.1007131113556,0.17134068096121,0.581181890388341,0.70106883783946,0.701068837839357,-1.36263915738908,NaN,1.28581442203858,-1.09453764117073,0.589730970365544,-0.877055795468754,-0.123337550780804,0.623466884911938,0.623466884912095,-0.370967041885296,0.370967041885346,-0.637276217002615
778.1376,0.9360043133085,0.998023557160473,NaN,-1.22033119587124,0.305718081148695,0.305718081145493,NaN,NaN,0.732573036756261,0.491960460436274,NaN,0.856667106959552,0.992649304952088,-0.495854138477572,0.853628357279651,-1.99641444942195,1.86156604122161,-0.418503265013549,-1.10715207391961,-1.21023861540452,-1.1071520739209,-1.27430306238476,1.22612387392255,-0.194563161729505,-0.377803308342088,0.731153941928677,NaN,NaN,0.107626913595732,-0.435611566046593,0.32337564692878,0.837151702745947,1.37572518412597,-1.5420559844373,2.09950669332713,0.152681005796881,0.558119606411178,0.711191559351542,0.711191559351439,-1.34915774240655,NaN,1.31027667292043,-1.08651601965082,0.606880771140846,-0.837237066118974,-0.1492721142573,0.638168580110274,0.638168580110432,-0.383737301848014,0.383737301848057,-0.656849900889106
778.24,0.952670133013605,0.986506815637554,NaN,-1.24383909804922,0.328949605133792,0.328949605130553,NaN,NaN,0.761969374601002,0.53233156386383,NaN,0.88595298333777,0.994288597843522,-0.475687322937708,0.864217714831631,-2.0162534403989,1.85405229383422,-0.455276044778759,-1.11718732542036,-1.22231016677287,-1.11718732542167,-1.23434203690035,1.20141729657816,-0.154473463781057,-0.411977313171048,0.73842961995077,NaN,NaN,0.125056685104022,-0.410622761152861,0.334561525276352,0.820978870736442,1.37123965958813,-1.5554623554867,2.09562998127827,0.134850692068599,0.534589564081568,0.720562889274738,0.720562889274634,-1.33363214838836,NaN,1.33517092578797,-1.0776552430579,0.623835908845076,-0.796345527284194,-0.175658614433756,0.653249755107812,0.653249755107976,-0.395648245622119,0.395648245622156,-0.67582654615354
778.3424,0.969144392740813,0.974761571565476,NaN,-1.26817915338074,0.353864934171345,0.353864934168072,NaN,NaN,0.791331922616527,0.571867021360413,NaN,0.914082549959386,0.995539585151581,-0.455581680323344,0.874361543999042,-2.0348122611195,1.84572314308371,-0.491306167337307,-1.12702232799223,-1.23372571862794,-1.12702232799355,-1.19370164733812,1.17595732275239,-0.114526645111989,-0.446497638976801,0.746689664111439,NaN,NaN,0.141347635096981,-0.386217514285595,0.346266191161206,0.803368467724843,1.36575284975797,-1.56597158762028,2.08904016720828,0.117799518812095,0.510615919290314,0.729112240130298,0.729112240130195,-1.31601448965642,NaN,1.36048083694562,-1.06792861429383,0.640514798710454,-0.754464290585316,-0.202480898143847,0.668635766217147,0.668635766217311,-0.406629751723789,0.406629751723817,-0.694207728268799
778.4448,0.985383258653516,0.962838903288002,NaN,-1.29334128737216,0.380519520418935,0.380519520415636,NaN,NaN,0.820648809918677,0.610509499099699,NaN,0.941035274627954,0.996374595004392,-0.435525336279327,0.884035196061535,-2.05207042153205,1.83655922491737,-0.526589660894506,-1.13661951595588,-1.24449304755479,-1.13661951595721,-1.15242312245993,1.14976158146219,-0.0747835086486497,-0.48129333298366,0.755849144498825,NaN,NaN,0.15645125964257,-0.362414677259005,0.358480055325129,0.784340824551781,1.35927606109542,-1.57360386916019,2.0797052454378,0.101477982045941,0.486222232813685,0.73677354703356,0.73677354703346,-1.29626282512801,NaN,1.38618914282589,-1.05731291787303,0.656835845539115,-0.711682190875308,-0.229721465129701,0.684245397137641,0.684245397137808,-0.416612072632636,0.416612072632654,-0.711999256533916
778.5472,1.0013411397349,0.950788668518488,NaN,-1.31930999025156,0.408956647491875,0.408956647488529,NaN,NaN,0.84990681995269,0.648202133947573,NaN,0.9667923406258,0.99676762733416,-0.415507723163184,0.893215253675323,-2.06801027343905,1.82654324213027,-0.561123880400741,-1.14594099991763,-1.254621949591,-1.14594099991898,-1.1105498998182,1.12284979184012,-0.0353052815227503,-0.516292674742336,0.765818560654075,NaN,NaN,0.170321532250791,-0.33923120377781,0.371191008606665,0.763920481774769,1.35182226404016,-1.57838708554385,2.06760410037061,0.085837695241086,0.461431493721419,0.743485540089097,0.743485540088995,-1.2743415247336,NaN,1.41227758543168,-1.04578850948843,0.672717824414708,-0.668093341006687,-0.257361449671311,0.699991299751535,0.699991299751702,-0.425526290270638,0.425526290270648,-0.729211036786849
778.6496,1.01697071192569,0.938659417567531,NaN,-1.34606430893113,0.439207034387407,0.439207034384035,NaN,NaN,0.879091254717196,0.684888603383694,NaN,0.99133664602775,0.996694510930243,-0.395519643769108,0.90187967237339,-2.08261704642547,1.81566016792038,-0.594907301874761,-1.15494870074412,-1.2641241027361,-1.15494870074548,-1.06812767457266,1.09524383692036,0.00384644378941227,-0.551423418533465,0.776504369439628,NaN,NaN,0.182915198256084,-0.316682381300561,0.384384453183642,0.742136266562227,1.34340622132601,-1.58035650145904,2.05272652874816,0.070831751770155,0.436266144333718,0.74919197946416,0.749191979464056,-1.25022163915693,NaN,1.43872684654655,-1.03333937542769,0.688080257842638,-0.62379664273204,-0.28538062441004,0.715780497408905,0.715780497409076,-0.433304803650832,0.433304803650836,-0.745856909502126
778.752,1.03222297127732,0.926498326358779,NaN,-1.37357787636958,0.471288545348263,0.471288545344832,NaN,NaN,0.908185787719719,0.720513200701261,NaN,1.01465280207005,0.996133046701153,-0.375553311138123,0.910007917653042,-2.09587886676757,1.80389745970214,-0.627939280400063,-1.16360445654908,-1.27301290882486,-1.16360445655045,-1.02520442358995,1.06696782145003,0.0426097914109564,-0.586613022407009,0.78780955603495,NaN,NaN,0.1941920633186,-0.294782069013326,0.398043331577059,0.719021360378752,1.33404460283308,-1.57955441622254,2.03507321373296,0.0564150745419507,0.410748133240488,0.753841868612934,0.753841868612828,-1.22388126308645,NaN,1.46551649241596,-1.01995316020467,0.702843784532557,-0.578895258500301,-0.313757409377304,0.731514955924124,0.731514955924299,-0.439881838559362,0.439881838559356,-0.761954442041232
778.8544,1.04704731678573,0.914351161646298,NaN,-1.40181896567356,0.505206016292512,0.50520601628904,NaN,NaN,0.937172299714869,0.755020920715231,NaN,1.03672713618624,0.995063137691828,-0.35560235978335,0.917581100283431,-2.10778673935422,1.79124528446835,-0.660219742647466,-1.17187009181887,-1.28130329281341,-1.17187009182026,-0.981830425772004,1.03804813721866,0.0809227121506761,-0.621788846311328,0.799634251609763,NaN,NaN,0.204115268098443,-0.273542929059454,0.412148155600843,0.694613351454961,1.32375608281532,-1.57602978336664,2.0146556595754,0.0425447701559189,0.384899014681934,0.757389656189133,0.757389656189023,-1.19530587715916,NaN,1.49262492036002,-1.00562116025602,0.716930514449908,-0.533496048980845,-0.342468873553191,0.747092222698587,0.747092222698762,-0.445193969374797,0.445193969374775,-0.777524664891588
778.9568,1.06139166824973,0.902262274915128,NaN,-1.4307505670564,0.54095118652119,0.540951186517659,NaN,NaN,0.966030706253056,0.788357568076112,NaN,1.05754770794413,0.993466908117523,-0.335661833995822,0.92458210979349,-2.11833448404013,1.77769674124603,-0.691748820215805,-1.17970746042756,-1.28901145875418,-1.17970746042895,-0.938058291622894,1.00851354305337,0.11872310646398,-0.656878325188839,0.811876384989094,NaN,NaN,0.212651545281568,-0.252976652728076,0.426677042576437,0.668954264331087,1.3125614198814,-1.56983779669588,1.9914960788915,0.029180478231704,0.358740086502787,0.759795418206577,0.759795418206465,-1.16448865703007,NaN,1.52002929718775,-0.990338289688526,0.730264366334096,-0.48770899203966,-0.37149072958832,0.762406111614292,0.762406111614466,-0.449180639532088,0.449180639532051,-0.792591768630675
779.0592,1.07520262445451,0.89027460583778,NaN,-1.46033049862439,0.578502710245655,0.578502710242055,NaN,NaN,0.994738799174012,0.82046989683636,NaN,1.07710434371494,0.991328809798169,-0.315728164798336,0.930995739337471,-2.12751863513392,1.76324805770131,-0.722526464557283,-1.18707849203131,-1.29615462861813,-1.18707849203272,-0.893943003480218,0.978395254614532,0.155948944646443,-0.691809143952494,0.824432344158569,NaN,NaN,0.219771458718195,-0.233094197600128,0.441605764007433,0.642090566524851,1.3004835263706,-1.56103945882242,1.96562721288105,0.0162846816015117,0.332292534460361,0.761024995783801,0.761024995783686,-1.13143074462783,NaN,1.54770548338777,-0.974103030059053,0.742771383326666,-0.44164660958334,-0.400797334852772,0.777347392405232,0.777347392405402,-0.45178465697961,0.451784656979558,-0.807182799758138
779.1616,1.08842566236718,0.878429676045741,NaN,-1.49051156539869,0.617826227749692,0.617826227746048,NaN,NaN,1.02327212271191,0.851305776525868,NaN,1.09538868722733,0.988635710069428,-0.295799145245121,0.936808791307547,-2.135338318809,1.74789874139012,-0.752552088328627,-1.19394526988901,-1.30275079086025,-1.19394526989043,-0.849541955498482,0.9477270321564,0.19253838262202,-0.726509441268517,0.837197628122602,NaN,NaN,0.225449624196676,-0.213906051100239,0.456907803872455,0.614073165765703,1.28754753903269,-1.54970115170201,1.93709206978581,0.00382294356221836,0.305577550295906,0.761050067185848,0.761050067185729,-1.09614148183696,NaN,1.57562794328239,-0.956917372105199,0.754380020061203,-0.395423425588925,-0.430361712505413,0.79180444768433,0.791804447684495,-0.452952635777529,0.452952635777466,-0.821327390112523
779.264,1.10100537340129,0.86676756558717,NaN,-1.52124177407905,0.658874492580307,0.658874492576613,NaN,NaN,1.05160389478163,0.880814371021697,NaN,1.11239425586587,0.985376956022956,-0.275873908045025,0.942010156402166,-2.1417951197514,1.73165167813818,-0.781824258190855,-1.2002701495419,-1.30881846813037,-1.20027014954333,-0.804914975091849,0.916545249617695,0.228429878508927,-0.760908052403359,0.850067481455785,NaN,NaN,0.229664909519237,-0.195422522758869,0.47255442075672,0.584957412454052,1.27378090060093,-1.53589422237187,1.9059435818177,-0.00823594186662618,0.278616409744831,0.75984815082694,0.759848150826815,-1.0586386065976,NaN,1.60376964710545,-0.938786752324612,0.76502139827578,-0.349155464640532,-0.460155597514205,0.805663882244574,0.805663882244739,-0.452635366949481,0.452635366949413,-0.835057532353246
779.3664,1.11288573160604,0.855326875834118,NaN,-1.55246460175786,0.701587566522251,0.70158756651852,NaN,NaN,1.07970497438484,0.908946319349555,NaN,1.12811649339302,0.981544413989751,-0.255952905043087,0.946590865182277,-2.14689294599937,1.71451318256526,-0.810340445116084,-1.20601590752298,-1.31437650432579,-1.20601590752442,-0.760124305158858,0.884888926041908,0.263562315333898,-0.794934784792664,0.862937509442391,NaN,NaN,0.232400611858452,-0.177654053930572,0.488514716358668,0.554803105905517,1.25921345381114,-1.51969459235921,1.87224419263421,-0.0199198853669167,0.251430516302575,0.75740255242655,0.757402552426421,-1.01894840663801,NaN,1.63210197436224,-0.919719987233704,0.774629537908453,-0.302959784788653,-0.490149505669917,0.818811095205885,0.818811095206049,-0.450788126245528,0.450788126245455,-0.848407389993864
779.4688,1.1240103883478,0.844144690581148,NaN,-1.58411930972005,0.745893104412692,0.745893104408912,NaN,NaN,1.10754386764011,0.935653916395053,NaN,1.14255281662805,0.977132485908483,-0.236037883370288,0.950544116156546,-2.15063789806479,1.69649301212217,-0.838096826344403,-1.21114590054044,-1.31944387453311,-1.21114590054189,-0.715234524768515,0.852799697672182,0.297875132861745,-0.828520709825391,0.875704272056461,NaN,NaN,0.233644612368469,-0.160611524419386,0.50475572265083,0.523674485183708,1.24387754127796,-1.50118239887856,1.83606539391987,-0.0312535161261758,0.224041430995825,0.75370227675397,0.753702276753831,-0.977105821918526,NaN,1.66059463053353,-0.8997292081934,0.783141576324593,-0.256954029795157,-0.520312820232191,0.831130845518894,0.831130845519053,-0.447370943356597,0.447370943356518,-0.861413115032585
779.5712,1.13432298696305,0.833256551079076,NaN,-1.61614128920294,0.791706752249575,0.791706752245753,NaN,NaN,1.13508675965386,0.960891299706891,NaN,1.15570265983336,0.972138105279599,-0.216131848344457,0.953865287646055,-2.15303814218785,1.67760435670826,-0.865088123655969,-1.2156242188628,-1.3240395252194,-1.21562421886426,-0.670312387675867,0.82032170758329,0.331308463564755,-0.861598450294219,0.888265856701358,NaN,NaN,0.233389508490536,-0.144306531520348,0.521242519577522,0.491640181529745,1.22780809975763,-1.48044167340305,1.79748723172023,-0.0422582621782088,0.196470916091501,0.748741922842155,0.748741922842009,-0.933154486477176,NaN,1.6892155898625,-0.878829799477519,0.790497987768402,-0.211255986344988,-0.550613886710225,0.842507844694572,0.842507844694724,-0.442348856480613,0.442348856480534,-0.874112643168792
779.6736,1.14376749361293,0.822696456060094,NaN,-1.64846242724507,0.83893266769405,0.838932667690205,NaN,NaN,1.1622975613506,0.984614654658171,NaN,1.16756752449986,0.966560718004555,-0.196239005831026,0.956551942333099,-2.15410378263035,1.65786381086614,-0.891307462161459,-1.21941582630476,-1.32818224680161,-1.21941582630624,-0.625426570363976,0.787501400498304,0.363803263209198,-0.894102449250998,0.900522429574344,NaN,NaN,0.231632722384705,-0.128751623383528,0.5379383861325,0.458773122061477,1.21104274048472,-1.45756005946884,1.75659779610407,-0.0529524875347271,0.168741013384882,0.742521571672404,0.742521571672249,-0.887146704525517,NaN,1.71793106895144,-0.857040343801671,0.796642814894525,-0.165983134701145,-0.581020107393173,0.852827399067954,0.852827399068095,-0.435692165461275,0.435692165461201,-0.886545449718139
779.776,1.15228854795307,0.812496883870933,NaN,-1.68101148941076,0.887464145180801,0.887464145176909,NaN,NaN,1.18913796981655,1.00678245315266,NaN,1.17815104568448,0.96040225735339,-0.176364687842361,0.958603832809523,-2.15384672633248,1.63729132153275,-0.916746249211108,-1.22248669144319,-1.33189056771492,-1.22248669144467,-0.580647340299464,0.754387232231481,0.395301432345961,-0.925969223313702,0.912376757929248,NaN,NaN,0.228376581042222,-0.113960486081307,0.554804978261036,0.425150394008003,1.19362181796623,-1.43262857313845,1.71349269123932,-0.0633516923298957,0.140874153401235,0.735046660279585,0.735046660279422,-0.83914336457235,NaN,1.74670552180466,-0.834382575790976,0.801523918904259,-0.121252183440741,-0.611498040104606,0.861976107065605,0.861976107065741,-0.42737668209367,0.427376682093598,-0.898752276983289
779.8784,1.15983183991895,0.80268882142244,NaN,-1.71371452576426,0.937184308807868,0.937184308803914,NaN,NaN,1.21556755252339,1.02735573562079,NaN,1.18745908400988,0.953667122483391,-0.15651527381706,0.960022912844427,-2.15228053522077,1.61591009140712,-0.941394091924475,-1.22480392760051,-1.33518265020516,-1.22480392760201,-0.536046165021373,0.721029317806924,0.425745935967044,-0.957137618235708,0.923734687960402,NaN,NaN,0.223628361966109,-0.0999480994942548,0.571802523463575,0.390853088371047,1.17558849620262,-1.40574141286398,1.66827447029551,-0.0734687967493257,0.112893269103991,0.726327828306481,0.726327828306309,-0.789213804851343,NaN,1.77550164087065,-0.810881333357502,0.80509323978979,-0.0771785850455736,-0.642013517390993,0.869842599755286,0.869842599755413,-0.417383963032932,0.417383963032864,-0.910774865519032
