time,S1-D1,S1-D8,S1-D9,S1-D15,S2-D1,S2-D2,S2-D3,S2-D9,S3-D1,S3-D2,S3-D16,S4-D2,S4-D3,S4-D5,S5-D3,S5-D4,S5-D5,S6-D2,S6-D5,S6-D17,S7-D6,S7-D7,S8-D6,S8-D7,S8-D18,S9-D3,S9-D4,S9-D9,S9-D11,S9-D19,S10-D8,S10-D9,S10-D10,S10-D11,S11-D8,S11-D10,S11-D20,S12-D10,S12-D11,S12-D12,S13-D4,S13-D11,S13-D12,S14-D10,S14-D12,S14-D21,S15-D13,S15-D14,S16-D13,S16-D14,S16-D22
1014.8864,-1.11611110441192,-1.78914375525824,-1.76289383492509,-0.00235758370991275,-0.698195252240187,-0.698195252239008,-0.806904225866087,-1.53819101721485,-1.67985260933788,0.635012397320349,-0.29015556886261,0.63501239732027,-0.376888008700928,-1.39676993186658,-1.42222965483292,1.05945734640851,-1.39312630455813,0.213779197397404,0.466834227042442,-1.62565454241438,0.466834227042326,-0.940378214020073,-0.915486485807793,-1.98368706747487,0.00178843478965416,-0.815681074055052,-0.81568107405369,-0.132505838779314,0.132505838778491,-0.212476412195411,-1.23844129211045,-1.44196438951395,-3.25738805201503,-0.134157066736788,-0.860261801741528,-1.01356959856349,-0.815357092318303,1.86407094241643,1.86407094241345,0.260962769764782,-0.357860010287116,-0.11447505688683,-0.15207425054588,-0.629080018851207,-1.06531998850618,-1.1229898129345,0.690838731446058,0.690838731446757,-0.252805513632592,0.252805513633623,-0.483082711838816
1014.9888,-1.12211699037879,-1.77309594045097,-1.76045183595934,-0.0115306586669062,-0.696474274061758,-0.696474274060576,-0.796581513173668,-1.51191722234892,-1.65430386735773,0.637184713007266,-0.307980245391748,0.63718471300716,-0.394097789811638,-1.36724044970572,-1.42041790277058,1.05360327640969,-1.37028194914386,0.231123874755971,0.486695999407422,-1.60768122140261,0.486695999407308,-0.931332512057712,-0.901405194550347,-1.96031227902434,-7.49407925796826e-05,-0.761352486945433,-0.761352486944125,-0.165428678484382,0.165428678483548,-0.21670953904147,-1.25499587313234,-1.40905104385659,-3.23648113430181,-0.165214295230157,-0.819594019211882,-1.01770504380916,-0.795273147527202,1.86830480605435,1.86830480605143,0.18260312174878,-0.309908322132659,-0.192576625970427,-0.161096635375857,-0.632200989699246,-1.08256658676362,-1.13496558777995,0.723023190898308,0.723023190899048,-0.317409483878216,0.317409483879243,-0.459513422606371
1015.0912,-1.12752097691133,-1.75562495289109,-1.7568462127922,-0.0211733484917162,-0.694683651198701,-0.694683651197463,-0.785829930532864,-1.48506232718036,-1.62800777194605,0.639524766170268,-0.326539333809516,0.639524766170126,-0.412287897629319,-1.33796248430678,-1.41988627300891,1.04772541143811,-1.3477516794556,0.248041319806065,0.5064647678461,-1.58928439872512,0.506464767845983,-0.923264932494533,-0.88671865911756,-1.93773318942124,-0.00180777748608553,-0.706192894612618,-0.706192894611353,-0.197420316450509,0.197420316449659,-0.22033912443889,-1.26947931872255,-1.37539502537458,-3.21218754299599,-0.196032784884454,-0.779916711373809,-1.0224602358583,-0.775331578150062,1.86986541927441,1.86986541927154,0.104673898301959,-0.262198678756101,-0.270208830178854,-0.170292109516921,-0.634979228347264,-1.09960305877887,-1.14664812613365,0.755726180284427,0.755726180285212,-0.382501317269335,0.38250131727035,-0.436035571947867
1015.1936,-1.13232438110937,-1.73671998216051,-1.75207304257971,-0.0312674038586837,-0.692858157092125,-0.692858157090868,-0.774661050143311,-1.4576469352014,-1.60098751851262,0.642013727880536,-0.34574403334482,0.642013727880357,-0.431407096284752,-1.30896072040749,-1.42059492508782,1.04186715283345,-1.32560857459388,0.264520709641972,0.526085682749423,-1.57051148799957,0.526085682749304,-0.916216892459339,-0.871386228259121,-1.91597126425595,-0.0033779191995604,-0.650325308145719,-0.650325308144524,-0.228413298248637,0.228413298247779,-0.223356057192302,-1.28179029667856,-1.3410972693753,-3.18451110288825,-0.226573123205935,-0.741283725369583,-1.02783207837187,-0.755542295834678,1.86879618959163,1.86879618958882,0.0273266151812114,-0.214833069977495,-0.347238176559667,-0.179649376094327,-0.637372377018798,-1.11635614389448,-1.15796227784419,0.788887257647868,0.788887257648688,-0.447948373382615,0.447948373383615,-0.412656214780942
1015.296,-1.1365273367389,-1.71637487052076,-1.74612957621718,-0.0417938309007457,-0.691034645393003,-0.691034645391724,-0.763086538807194,-1.42969371189429,-1.57326765721053,0.644630040463456,-0.365501911348519,0.644630040463234,-0.451398375607865,-1.28025769154042,-1.42249599926815,1.03607260557468,-1.30392514988283,0.280553184575696,0.545505532223897,-1.55140769510639,0.545505532223776,-0.910222756789217,-0.855369757426822,-1.89504072061688,-0.00475440510455436,-0.59387609947289,-0.593876099471725,-0.258342170352592,0.258342170351724,-0.225754270286,-1.29183502219973,-1.3062602161882,-3.15346649652927,-0.256794725660244,-0.703744337973708,-1.03381145092836,-0.735914651176986,1.86515000634116,1.86515000633839,-0.0492902335183693,-0.167910456764596,-0.423531953842222,-0.189154579676656,-0.639339374356499,-1.13275062196842,-1.16883303109067,0.822443883400817,0.822443883401663,-0.513616277999591,0.513616278000579,-0.389381472108917
1015.3984,-1.14012878475191,-1.6945882425452,-1.7390142906502,-0.0527329005579595,-0.689252021983399,-0.689252021982115,-0.751118125340111,-1.40122742150502,-1.54487408594324,0.647349488584623,-0.385717238774157,0.647349488584369,-0.472199217548841,-1.25187381530983,-1.42553394076366,1.03038611840865,-1.28277301818577,0.296131429971323,0.564672790152449,-1.53201559597002,0.564672790152325,-0.905309486518361,-0.838634150682421,-1.8749485051615,-0.00590759747458079,-0.536974401317321,-0.536974401316194,-0.287143865749307,0.287143865748461,-0.22753072285704,-1.29952797776489,-1.27098725223344,-3.11907943233397,-0.286656156767774,-0.667343189753338,-1.04038359262652,-0.716457396380798,1.85898863586297,1.85898863586025,-0.125032086484328,-0.121526169483544,-0.498959057019589,-0.198791152340802,-0.640840892150398,-1.14870967751614,-1.17918592814097,0.856331650130625,0.856331650131498,-0.579369463163455,0.579369463164436,-0.366216437697102
1015.5008,-1.14312649950137,-1.67136360878123,-1.73072695891752,-0.0640641421799178,-0.687551162292689,-0.687551162291414,-0.738767590640475,-1.37227494815408,-1.51583405432832,0.650145307845916,-0.406291316837459,0.650145307845641,-0.49374193613466,-1.22382745325601,-1.42964592408948,1.02485181659195,-1.26222253246072,0.311249267654378,0.583537651648405,-1.51237476349726,0.583537651648274,-0.901496381365445,-0.82114785935291,-1.85569436079144,-0.00680929571268682,-0.479751498673373,-0.479751498672267,-0.314758087899742,0.314758087898914,-0.228685333434211,-1.30479259147053,-1.23538214013193,-3.08138674962262,-0.316115470471933,-0.632120234154378,-1.04752852685732,-0.69717863734172,1.85038209864323,1.85038209864057,-0.199759112031703,-0.0757713807695697,-0.573390706895133,-0.208539682154965,-0.641839737734332,-1.16415525015263,-1.18894748252249,0.890484499315331,0.890484499316236,-0.645071673260081,0.645071673261049,-0.343165099741826
1015.6032,-1.14551715440335,-1.64670945145294,-1.72126874477929,-0.0757663117870142,-0.68597476883363,-0.685974768832368,-0.726046781676881,-1.34286529746641,-1.48617617741349,0.652988320958113,-0.427122797380395,0.652988320957806,-0.515954070941515,-1.19613499184886,-1.43476235258527,1.01951313681636,-1.24234241202737,0.325901271196366,0.60205206084201,-1.49252145205232,0.602052060841873,-0.898794913518789,-0.802883328744221,-1.83727097130272,-0.00743283791412691,-0.422340218663601,-0.422340218662522,-0.341127686986871,0.341127686986036,-0.229220864874796,-1.30756186718643,-1.19954843781762,-3.04043645263045,-0.345130564046892,-0.598110699377931,-1.05522151721322,-0.678085780665309,1.83940803874218,1.8394080387396,-0.273336904547615,-0.0307326427220869,-0.646701075013103,-0.218377793261881,-0.642301226176969,-1.17900836122915,-1.1980455830684,0.924834917916755,0.924834917917691,-0.710586434273997,0.710586434274953,-0.320230276404447
1015.7056,-1.14729642278819,-1.62063930732955,-1.71064232540342,-0.0878173441907619,-0.684567189488924,-0.684567189487664,-0.712967646885899,-1.31302958577634,-1.45593046120709,0.655847088547856,-0.448108005076166,0.655847088547516,-0.538758812603255,-1.1688109452119,-1.44080740943764,1.01441237727649,-1.22319936646914,0.340082411500644,0.620169726838259,-1.4724883325373,0.620169726838116,-0.89720864286079,-0.783817392459619,-1.81966417065692,-0.00775319478581749,-0.364874331307662,-0.364874331306627,-0.366199015465951,0.366199015465128,-0.229142770355263,-1.3077789612036,-1.16358891434437,-2.99628767663479,-0.373659535457138,-0.565345068375739,-1.06343354561692,-0.6591854857123,1.82615107780964,1.8261510778071,-0.345637104658486,0.0135085243916932,-0.718767841694674,-0.228280029901137,-0.642193529358233,-1.19318941510886,-1.20640986837898,0.959314117019473,0.959314117020437,-0.775777483827062,0.775777483828001,-0.297413564789037
1015.808,-1.14845910558043,-1.59317185835432,-1.69885204005286,-0.100194304625019,-0.683374223500347,-0.683374223499024,-0.699542286967909,-1.28280102834413,-1.42512834159577,0.658688069812094,-0.469141266875289,0.658688069811733,-0.562075451174483,-1.14186808451907,-1.44769965343325,1.00959027007224,-1.20485772985697,0.353787730191985,0.637846114268421,-1.45230426702998,0.637846114268271,-0.896733205244437,-0.763931619044041,-1.80285320966907,-0.00774705817887902,-0.3074879722752,-0.307487972274214,-0.389922249956502,0.389922249955692,-0.228459010175601,-1.30539770017945,-1.12760497316623,-2.94901059331735,-0.401661033801961,-0.533849085293863,-1.0721318062472,-0.640483626540284,1.81070214392154,1.81070214391905,-0.416537957184747,0.0568759978857276,-0.789472706199571,-0.238217749222496,-0.641488003855514,-1.20661848468684,-1.21397206435526,0.993852199095197,0.993852199096187,-0.840509160233502,0.840509160234426,-0.274715304578296
1015.9104,-1.14899927968118,-1.56433102372612,-1.6859040567295,-0.11287334584668,-0.682442922621174,-0.682442922619798,-0.685783014107662,-1.25221492785752,-1.39380273109461,0.661475797827675,-0.490115247810082,0.661475797827282,-0.585819849388092,-1.11531759464947,-1.45535266215081,1.00508557219237,-1.18737910743805,0.367012031393884,0.65503839653755,-1.43199412382285,0.65503839653739,-0.897356367885822,-0.743212612126275,-1.78681107324744,-0.00739292043493247,-0.250315089881729,-0.250315089880774,-0.41225167390312,0.412251673902322,-0.227179844673208,-1.30038303260646,-1.0916960919938,-2.89868625733331,-0.429094597817185,-0.503643792005727,-1.08128021176433,-0.621985260281591,1.79315777751663,1.79315777751416,-0.48592480765802,0.0992993714666499,-0.858701853309396,-0.24815903772348,-0.640159493678978,-1.21921559729186,-1.22066629146372,1.02837831969968,1.02837831970069,-0.904646751048251,0.904646751049165,-0.252134556058682
1016.0128,-1.14891046637688,-1.53414603244979,-1.67180654646165,-0.125829662599175,-0.681821370148317,-0.681821370146902,-0.671702415733207,-1.22130865027956,-1.36198806193624,0.66417307657876,-0.510921289342891,0.664173076578331,-0.609904945137529,-1.08916924892877,-1.46367572089013,1.00093466736722,-1.17082202955533,0.379749584336183,0.671705370018931,-1.41157864640825,0.67170537001876,-0.899058148022427,-0.721652257084139,-1.77150483743741,-0.00667113643833612,-0.193488910754761,-0.193488910753857,-0.433145923753478,0.433145923752692,-0.225317604535808,-1.29271140380859,-1.05595928463391,-2.84540638884671,-0.455920983533904,-0.474745591070661,-1.09083990984406,-0.603694594380939,1.77361942642583,1.77361942642342,-0.55369053639425,0.140714228068538,-0.926346372349158,-0.258068666426561,-0.6381866026569,-1.23090103585155,-1.22642935554159,1.06282084529165,1.06282084529268,-0.968056804929545,0.968056804930447,-0.22966908846489
1016.1152,-1.14818582318502,-1.5026514580045,-1.65656985955656,-0.139037427259017,-0.681558414735927,-0.681558414734477,-0.657313423101593,-1.19012157223779,-1.32972031603615,0.666741199644275,-0.531449749530684,0.666741199643816,-0.634241279430869,-1.06343158843546,-1.47257454345307,0.997171179166341,-1.15524160907299,0.391993842028632,0.687807334709666,-1.39107438878532,0.687807334709484,-0.901810992804748,-0.699247903526899,-1.75689605487911,-0.00556396153738247,-0.137141419409355,-0.137141419408494,-0.45256820314934,0.452568203148574,-0.222886438833511,-1.28237104726231,-1.02048858709346,-2.78927308625977,-0.482102481885699,-0.447166328491593,-1.10076980475263,-0.585614947651809,1.75219274200626,1.75219274200389,-0.619735933960876,0.181062372324035,-0.992302626302252,-0.267908089821007,-0.63555193469616,-1.24159566020573,-1.23120102865425,1.0971075026171,1.09710750261814,-1.03060741275077,1.03060741275166,-0.207315373538245
1016.2176,-1.14681835976194,-1.46988721461648,-1.6402067041014,-0.152469697710429,-0.681703356566239,-0.681703356564763,-0.642629383882666,-1.15869499565603,-1.29703703843592,0.669140180517391,-0.551590351258883,0.6691401805169,-0.658737533448075,-1.03811209804737,-1.48195200080866,0.993825604409433,-1.14068920460686,0.403737189603896,0.703305944905752,-1.37049371768866,0.703305944905555,-0.905580014521116,-0.676002479310652,-1.74294115742098,-0.00405556502956465,-0.0814028562182355,-0.0814028562174223,-0.470486462766648,0.470486462765895,-0.219902045647664,-1.26936218833573,-0.985374572958007,-2.73039847066632,-0.507603219682838,-0.420913394437511,-1.11102707303995,-0.56774870805217,1.72898687577181,1.72898687576947,-0.683970020282374,0.220292020624938,-1.05647257972066,-0.277635482767484,-0.632242304496656,-1.25122124363942,-1.23492431200058,1.13116551327838,1.13116551327944,-1.0921684638045,1.09216846380538,-0.185068583030318
1016.32,-1.14480117032578,-1.43589852778165,-1.62273232628736,-0.166098306030436,-0.682305608356586,-0.682305608355089,-0.627664132341696,-1.12707203827709,-1.26397733372961,0.671328982709348,-0.571232547620576,0.671328982708826,-0.683301055040905,-1.01321738009202,-1.49170883619571,0.990924972932385,-1.12721209431235,0.414970727452586,0.718164026577775,-1.34984487549377,0.718164026577569,-0.91032326873443,-0.651924542159934,-1.72959186447151,-0.00213202403317036,-0.0264012461512939,-0.0264012461505415,-0.486873537094737,0.486873537093985,-0.216381396672037,-1.25369715565506,-0.95070391022454,-2.66890427135757,-0.532389432369233,-0.395989846810637,-1.12156766191886,-0.550097295318125,1.70411376041303,1.70411376041074,-0.746310305325774,0.258357940765135,-1.1187640961333,-0.287205809521897,-0.628248923764932,-1.25970082296118,-1.23754566756014,1.16492171152631,1.16492171152737,-1.15261188052619,1.15261188052706,-0.162922593039645
1016.4224,-1.14212767168293,-1.40073588725366,-1.60416468726521,-0.179893744399763,-0.683414354544187,-0.683414354542632,-0.612432048676843,-1.09529750965075,-1.23058184368958,0.673265746707514,-0.59026590823378,0.673265746706968,-0.707838365152414,-0.98875332873636,-1.50174435821903,0.988492530400763,-1.1148531623173,0.425684080610674,0.732345355991337,-1.32913210134944,0.732345355991117,-0.915992065949812,-0.627028275624703,-1.71679559021065,0.000218699042431085,0.0277380312500255,0.0277380312507056,-0.501707233899686,0.501707233898916,-0.212342468086385,-1.23540039452146,-0.916558974459976,-2.60492136409619,-0.556429701761801,-0.372394562789448,-1.13234676579808,-0.532661132903111,1.67768736172032,1.67768736171808,-0.806682991374765,0.295221545446217,-1.17909119688009,-0.296570929157619,-0.623567565820724,-1.26695907220561,-1.23901521296501,1.19830264577242,1.19830264577348,-1.21181183045991,1.21181183046078,-0.140869997418375
1016.5248,-1.13879184117774,-1.36445497733065,-1.58452462939025,-0.193825056408534,-0.685078212700891,-0.685078212699274,-0.596948104286826,-1.06341777306059,-1.19689270345253,0.674908020388401,-0.608580523588041,0.674908020387836,-0.732255647833873,-0.964725303564723,-1.51195711495673,0.98654743828148,-1.10365059871064,0.435865222624486,0.745814401940066,-1.30835581212624,0.745814401939833,-0.922531318838934,-0.601333427200943,-1.70449585056097,0.00300679816535871,0.0808926286623688,0.0808926286629592,-0.514970382213647,0.514970382212865,-0.207803985085601,-1.21450837851973,-0.883017528569295,-2.53858927025758,-0.579695161083453,-0.350122418715307,-1.14331928453882,-0.515439625260551,1.6498229052096,1.6498229052074,-0.865023122468576,0.330850957873502,-1.23737425892529,-0.305679751351596,-0.618198704058742,-1.272922714067,-1.2392868853238,1.23123466282346,1.23123466282453,-1.26964491233152,1.26964491233238,-0.118902128755988
1016.6272,-1.13478845732259,-1.32711657106963,-1.56383602794613,-0.20785972764964,-0.68734488385298,-0.687344883851318,-0.581227899257077,-1.03148058558956,-1.1629534771814,0.676212998118299,-0.626067421605338,0.676212998117709,-0.756459233201894,-0.941138295163323,-1.52224555442617,0.985104491535892,-1.09363761601054,0.445500311337225,0.758536048325406,-1.28751284059245,0.758536048325165,-0.92987993270841,-0.574865181119017,-1.69263267394325,0.00624069197884163,0.13294358017894,0.132943580179408,-0.526650848080882,0.526650848080095,-0.202785181062962,-1.19106941941104,-0.850152470429655,-2.47005561850003,-0.602159674054888,-0.32916449387909,-1.15444026857963,-0.498431130495194,1.62063609390454,1.6206360939024,-0.921274689780201,0.365221065764777,-1.29354013969201,-0.314478455474488,-0.612147614038471,-1.27752097404224,-1.23831858572783,1.26364397338411,1.26364397338518,-1.32599031837557,1.32599031837642,-0.0970090828785046
1016.7296,-1.13011335094458,-1.28878637740678,-1.54212592976862,-0.221963561453446,-0.690260774878221,-0.690260774876474,-0.565287704117197,-0.999534907419495,-1.12880907867901,0.677137763235946,-0.642618992223215,0.677137763235322,-0.780356075913121,-0.917997073907581,-1.53250866800231,0.984173860911013,-1.08484218400241,0.454573546732094,0.770475322706408,-1.26659671981509,0.77047532270616,-0.937971242277444,-0.547653960204635,-1.68114301529984,0.009927124988411,0.183775621123034,0.183775621123371,-0.536741523180673,0.536741523179868,-0.197305568791674,-1.16514338169347,-0.818031641152702,-2.39947556763712,-0.623799993379899,-0.309508291000464,-1.16566535142649,-0.481632920768069,1.59024233622114,1.59024233621907,-0.975390702650885,0.398313569460021,-1.34752223909111,-0.322910773835868,-0.605424432037263,-1.28068606888672,-1.23607231197395,1.29545670013499,1.29545670013607,-1.38072998413533,1.38072998413618,-0.0751797414770351
1016.832,-1.12476366989954,-1.24953484017178,-1.51942468084574,-0.236100534100714,-0.693870589289346,-0.693870589287546,-0.549144511228316,-0.967630677951021,-1.09450568033839,0.677639522390203,-0.658129422084674,0.677639522389548,-0.803854218196279,-0.895306316776906,-1.54264660078628,0.983760864645746,-1.0772867806879,0.463067062314123,0.781597149646477,-1.24559800051933,0.781597149646219,-0.946733489326243,-0.519735155537568,-1.66996116518502,0.0140713003418611,0.233277481666851,0.233277481667087,-0.545240286824464,0.545240286823653,-0.191384724250387,-1.13680130963734,-0.786717687723681,-2.32701119230111,-0.644595900201681,-0.291137968805019,-1.17695116728733,-0.465041134081702,1.55875599238067,1.55875599237867,-1.0273332352357,0.43011702088189,-1.39926052632429,-0.330918328750742,-0.598044171698955,-1.28235371662661,-1.23251427598493,1.32659891633391,1.32659891633499,-1.43374874384646,1.43374874384731,-0.0534017877654863
1016.9344,-1.11873814834536,-1.20943689716297,-1.49576603916893,-0.250232641847445,-0.698216901723719,-0.698216901721852,-0.532816086969175,-0.935818565886804,-1.06009060679864,0.677675825025857,-0.67249514544518,0.677675825025181,-0.826863222157493,-0.873070713328793,-1.55256121258067,0.983865767098061,-1.07098815607974,0.470960849509745,0.791866133168054,-1.22450459645437,0.791866133167783,-0.956090328895672,-0.491148789735614,-1.65901914243917,0.0186770361496498,0.281342149501743,0.281342149501872,-0.552149940106328,0.552149940105504,-0.185042090212236,-1.10612496840099,-0.756267982642991,-2.25283083655413,-0.664530323739156,-0.274034588293841,-1.18825575428272,-0.448650729145432,1.52628963147094,1.526289631469,-1.07707345445312,0.460626845220601,-1.44870155908203,-0.338441013714006,-0.590026706673809,-1.28246366468455,-1.22761499753939,1.35699668714506,1.35699668714614,-1.48493450689311,1.48493450689396,-0.0316617143916042
1017.0368,-1.11203736801039,-1.16857171106157,-1.47118726781901,-0.264319758200629,-0.703339738325011,-0.70333973832307,-0.516321012422898,-0.904149707533487,-1.0256122108999,0.677204770375239,-0.68561531283019,0.677204770374535,-0.849294567531178,-0.851295058095864,-1.56215659037248,0.984483600539171,-1.06595711020883,0.478232706617841,0.801246367089984,-1.20330215826607,0.801246367089697,-0.965961349556974,-0.461939131785096,-1.64824706595912,0.0237469369891947,0.327867096040463,0.327867096040475,-0.557478111882816,0.557478111881949,-0.178296805795921,-1.07320630168564,-0.726734603230705,-2.17710844166457,-0.683589440586368,-0.25817637628435,-1.19953894595313,-0.432455450794625,1.49295329442593,1.49295329442406,-1.12459162361922,0.489845336602214,-1.49579849955736,-0.345417418009304,-0.581396725798794,-1.28096024394462,-1.22134937215598,1.38657611822651,1.38657611822759,-1.53417845430238,1.53417845430323,-0.0099448293874121
1017.1392,-1.10466401098204,-1.1270223846564,-1.44572921368423,-0.278319510764076,-0.709276179734622,-0.709276179732633,-0.499678714441752,-0.872675450111316,-0.991119743974266,0.676185207405676,-0.69739227169984,0.676185207404949,-0.871062024869872,-0.829984339823846,-1.57133953099219,0.985604015895037,-1.06219829587587,0.484858209893046,0.809701274798786,-1.18197446552172,0.809701274798479,-0.976262597250557,-0.432154292816777,-1.63757351566119,0.02928257448631,0.3727544681954,0.372754468195292,-0.561237138194471,0.56123713819358,-0.171167558644348,-1.0381468238569,-0.69816435946645,-2.10002285568248,-0.701762752794136,-0.243539005137112,-1.21076274879381,-0.416447805406714,1.45885378329015,1.45885378328834,-1.16987706746386,0.517781620835419,-1.54051110952817,-0.351785297526157,-0.572183659963565,-1.27779295162106,-1.21369671841877,1.41526340413861,1.41526340413969,-1.58137523487455,1.58137523487539,0.0117647307008248
1017.2416,-1.096623110777,-1.08487566752223,-1.41943638077363,-0.292187180100622,-0.71605999567182,-0.716059995669779,-0.482909502153936,-0.841447111229629,-0.956663241029851,0.674576926993348,-0.707732050202652,0.674576926992601,-0.89208201318883,-0.809143832140696,-1.58002000735074,0.987211178251197,-1.05971006340111,0.49081071428702,0.817193479376259,-1.16050381479213,0.817193479375935,-0.986907101082781,-0.401845830983532,-1.62692590343092,0.0352846695187625,0.41591125443103,0.415911254430799,-0.563443918354221,0.563443918353308,-0.16367244978623,-1.00105697452579,-0.670598850122629,-2.02175713319392,-0.719043140798742,-0.230095879004724,-1.2218916910517,-0.400619045696704,1.42409401434273,1.42409401434099,-1.21292808557647,0.544451577940705,-1.58280571040726,-0.357482083180274,-0.562421573949487,-1.27291704146167,-1.20464081039056,1.44298487109473,1.44298487109582,-1.6264231403769,1.62642314037776,0.0334839733662256
1017.344,-1.08792228749805,-1.04222164642417,-1.39235698268574,-0.305875628878659,-0.723721314645166,-0.723721314643139,-0.466034614245478,-0.810515752776113,-0.922293424597269,0.67234083927756,-0.71654483485081,0.672340839276798,-0.912273936008495,-0.788779176989067,-1.58811160525611,0.98928372141189,-1.05848436052784,0.496061393624712,0.823684704612187,-1.13887138967544,0.823684704611844,-0.997805408797387,-0.371068378407815,-1.61623087477768,0.0417532646399747,0.457249432543079,0.457249432542736,-0.564119751597146,0.564119751596222,-0.155828866728813,-0.962055449878689,-0.64407453625504,-1.9424978287872,-0.735426885655657,-0.217818410317661,-1.23289311941863,-0.384959171720411,1.38877246251324,1.38877246251152,-1.25375180318079,0.569877711148785,-1.62265510952069,-0.362445402183285,-0.552149018452238,-1.2662940790384,-1.19416989652374,1.46966702508632,1.46966702508741,-1.66922426461983,1.66922426462068,0.0552310052716388
1017.4464,-1.07857192307915,-0.999153402725382,-1.3645429297354,-0.319335279259876,-0.732286334273729,-0.732286334271695,-0.449076259250639,-0.779931961477927,-0.888061606326788,0.669439132793167,-0.723745431931707,0.669439132792391,-0.931560479953021,-0.768896446267955,-1.5955319026185,0.991794765829469,-1.05850669092538,0.500579323813821,0.829135715602361,-1.11705761518438,0.829135715601999,-1.00886614184084,-0.339879290654655,-1.60541475462991,0.0486878752071358,0.496686100534336,0.496686100533879,-0.563290157352404,0.563290157351501,-0.147653370798958,-0.921268504171356,-0.618622835670044,-1.86243428084871,-0.750913657877429,-0.206676272672833,-1.24373742656473,-0.369456958931834,1.35298270101182,1.35298270101017,-1.29236394420409,0.594088942469145,-1.66003849785278,-0.366613586876922,-0.541408843286306,-1.2578924268862,-1.18227670430302,1.49523662776468,1.49523662776577,-1.70968467692228,1.70968467692314,0.0770249687585042
1017.5488,-1.06858523391696,-0.955766630754402,-1.33604971228475,-0.332514156012141,-0.741777084833024,-0.74177708483099,-0.432057623164524,-0.749745636248018,-0.854019563059819,0.665835420966693,-0.729253699139544,0.665835420965904,-0.949867867168774,-0.749502175119964,-1.60220277654449,0.994711995730253,-1.05975612932893,0.504331603932673,0.833506313761375,-1.09504250219706,0.833506313760994,-1.01999657153197,-0.308338320909284,-1.59440404103395,0.056087613887783,0.534143588589321,0.534143588588752,-0.56098468055373,0.560984680552837,-0.13916160713431,-0.878829211437103,-0.594270244702212,-1.78175788164679,-0.765506473758345,-0.196637625681506,-1.25439820646979,-0.354100017897396,1.31681302723549,1.31681302723387,-1.32878851130752,0.617120317462174,-1.69494131906542,-0.369926161974868,-0.530247973791084,-1.24768764895695,-1.16895843193327,1.51962081548118,1.51962081548227,-1.74771463873876,1.74771463873962,0.098885958153702
1017.6512,-1.05797822959562,-0.912159229094626,-1.30693617640901,-0.34535800116619,-0.752211260263327,-0.752211260261328,-0.415002831741779,-0.720005792346163,-0.820219382061072,0.661494885805024,-0.732994931763779,0.661494885804224,-0.967126066691211,-0.730603371884698,-1.60805064766705,0.997997787471295,-1.06220539085776,0.507283503785104,0.836755392608386,-1.07280597794041,0.836755392607984,-1.03110320701757,-0.276507328368689,-1.58312594222243,0.0639512916817323,0.569549550487085,0.5695495504864,-0.557236682032016,0.557236682031133,-0.130368240157095,-0.834876687235044,-0.571038488086527,-1.70066133446407,-0.779211621102735,-0.187669315573995,-1.26485234387006,-0.33887488001066,1.28034616414252,1.28034616414094,-1.36305736914563,0.6390126157341,-1.72735510833452,-0.372324314448947,-0.518717149282294,-1.2356628389639,-1.15421673105011,1.54274726039752,1.54274726039861,-1.78322886791971,1.78322886792058,0.120834913775384
1017.7536,-1.04676957981351,-0.86843088682933,-1.2772642205888,-0.357810452336616,-0.763602124577912,-0.763602124575921,-0.397936875638987,-0.690760394790573,-0.786713290477663,0.656384424373128,-0.734900191751676,0.656384424372318,-0.983268978176036,-0.712207515376538,-1.61300668439291,1.00160938317767,-1.0658209551571,0.509398626362428,0.838841045161886,-1.05032818935319,0.838841045161461,-1.04209238268578,-0.244450029917318,-1.57150894819704,0.0722775045501384,0.60283703334268,0.602837033341902,-0.55208311372075,0.552083113719871,-0.121286910446422,-0.789555280121887,-0.548944691751404,-1.6193379029355,-0.792038556837506,-0.179737058830872,-1.27508004826062,-0.323767097190434,1.24365902450737,1.24365902450579,-1.39520974598519,0.65981188155781,-1.75727730636033,-0.373751350172771,-0.506870622487432,-1.22180887714099,-1.13805768402382,1.56454436095137,1.56454436095248,-1.81614683043264,1.81614683043351,0.14289349212
1017.856,-1.03498042651082,-0.82468268399761,-1.24709845325999,-0.369813270078221,-0.775958488692823,-0.775958488690894,-0.380885521179249,-0.662056225753564,-0.753553492640985,0.650472792558141,-0.734906577866312,0.65047279255733,-0.998234600484897,-0.694322546880476,-1.61700698637375,1.00549910897509,-1.07056324766531,0.510639081156934,0.839720708818052,-1.02758976636982,0.839720708817604,-1.05287083507798,-0.212231794245263,-1.55948342302282,0.0810647140073936,0.633944525279075,0.633944525278179,-0.545564281911591,0.545564281910726,-0.111930205003291,-0.743013746874849,-0.528001569291727,-1.53798065790579,-0.803999781277109,-0.172805613695358,-1.28506484375527,-0.308761344771424,1.20682252699366,1.20682252699207,-1.42529167986185,0.679568897942414,-1.78471106083919,-0.374153133722602,-0.49476582256717,-1.20612461370498,-1.12049177588221,1.58494144806195,1.58494144806306,-1.84639303122037,1.84639303122125,0.165083912711512
1017.9584,-1.02263416044263,-0.781016708155366,-1.21650582816599,-0.381306604976242,-0.789284737292658,-0.789284737290757,-0.363875222070614,-0.633938775315192,-0.720792022607848,0.643730733267029,-0.73295744572942,0.643730733266217,-1.01196518820361,-0.676956855839219,-1.61999274992149,1.00961463525857,-1.07638687218175,0.510965670818444,0.839351344130544,-1.00457204138645,0.839351344130072,-1.06334626031719,-0.179919467075656,-1.54698219677997,0.0903113224355771,0.662815980982887,0.662815980981901,-0.537723608454337,0.537723608453482,-0.102309637194651,-0.695404415870791,-0.508217617666657,-1.45678172155689,-0.815110695779485,-0.166838939466064,-1.29479352408589,-0.293841527213405,1.16990145852101,1.1699014585194,-1.45335542898761,0.69833862093211,-1.8096650261279,-0.373478503208814,-0.482462985151569,-1.18861697187078,-1.10153385620116,1.60386900107556,1.60386900107667,-1.87389729049026,1.87389729049115,0.187428784042618
1018.0608,-1.00975614746565,-0.737535671738641,-1.18555523810559,-0.392229306394223,-0.803580881992453,-0.803580881990603,-0.346933022424414,-0.60645213805236,-0.688480592384808,0.636131083359512,-0.729002589266416,0.636131083358697,-1.024407390239,-0.660119255687358,-1.62191040626183,1.01389926739889,-1.08324087832764,0.510338090228515,0.837689653157809,-0.981257230609124,0.837689653157313,-1.07342784474237,-0.147581213939701,-1.53394113650642,0.100015737772912,0.689400823905964,0.689400823904889,-0.528607402303762,0.528607402302936,-0.09243564163849,-0.646882326960033,-0.48959732930712,-1.37593150377377,-0.825389449302277,-0.161800343328183,-1.3042560801758,-0.278990897173809,1.13295437904022,1.13295437903858,-1.47945885017122,0.716179577990087,-1.83215316191417,-0.371679656004307,-0.470024751439379,-1.16930096719195,-1.08120308436871,1.62125887459083,1.62125887459194,-1.89859501318112,1.89859501318203,0.209950910754194
1018.1632,-0.996373380255422,-0.694342516042575,-1.15431704021434,-0.402519279309507,-0.81884262783585,-0.818842627834016,-0.330086429294462,-0.579638907870461,-0.656670411368755,0.627648867549015,-0.72299838659176,0.627648867548202,-1.03551236655267,-0.643818951423222,-1.62271172934104,1.01829225348617,-1.09106904883844,0.508715132157438,0.834692337914533,-0.957628582731367,0.834692337914014,-1.083026766727,-0.11528637171012,-1.5202996863153,0.110176423646786,0.713653925614087,0.713653925612906,-0.518264650535194,0.518264650534412,-0.0823175920351538,-0.597604335890895,-0.472141430049234,-1.29561792813557,-0.834856776841492,-0.157652618340315,-1.31344560791471,-0.264192198199086,1.09603356384087,1.09603356383917,-1.5036647351003,0.733153224222869,-1.85219452083676,-0.36871250771031,-0.457515742221647,-1.14819965448855,-1.05952285627022,1.63704453959522,1.63704453959633,-1.9204274659798,1.92042746598072,0.232673083596757
1018.2656,-0.98251405123213,-0.651539998252841,-1.12286250760027,-0.412113891229628,-0.835061447885591,-0.835061447883805,-0.313363245255976,-0.553540073903809,-0.625411970125434,0.618261393176774,-0.714907903366033,0.618261393175971,-1.04523588828255,-0.628065502150209,-1.62235392139041,1.02272910445425,-1.09981020203625,0.506054896764761,0.830316391720089,-0.933670492461023,0.830316391719547,-1.09205667275765,-0.0831053039969463,-1.50600137675328,0.120791935711272,0.735535569456087,0.735535569454821,-0.506746835218483,0.506746835217728,-0.0719638460578192,-0.547728184633773,-0.455847142196501,-1.21602564827915,-0.843535833211329,-0.154358177144992,-1.32235820533947,-0.249427832444868,1.05918497768364,1.05918497768187,-1.52604008917091,0.749323245012722,-1.8698130136873,-0.364537028892281,-0.44500211973175,-1.12534402625637,-1.03652071944192,1.65116134404821,1.65116134404931,-1.93934207029375,1.93934207029469,0.255617856201943
1018.368,-0.968207068933847,-0.60923026715284,-1.0912632285102,-0.420950421314824,-0.852224662539181,-0.852224662537419,-0.296791370354385,-0.528194922747218,-0.594754800224116,0.607948355861724,-0.704700945691327,0.607948355860919,-1.0535384302618,-0.612868778965349,-1.6207996866299,1.02714193029528,-1.10939851344319,0.502315006813516,0.824519413919439,-0.909368573316879,0.824519413918873,-1.10043413096495,-0.0511092573445316,-1.49099430511328,0.131860948247427,0.755011409234241,0.755011409232889,-0.494107779409413,0.494107779408674,-0.0613818147786477,-0.49741155126921,-0.440708461857223,-1.13733525752501,-0.851452026602529,-0.151879183810923,-1.33099286771079,-0.234680045724751,1.02244827364053,1.02244827363868,-1.54665535188749,0.764754802745927,-1.88503715446,-0.359117563265114,-0.432551151021843,-1.10077288628972,-1.01222828784636,1.66354679728658,1.66354679728766,-1.95529270880008,1.95529270880103,0.278807315651709
1018.4704,-0.953481561891104,-0.567514449394702,-1.05959049997051,-0.428966529555325,-0.870315530884063,-0.870315530882293,-0.280398591735694,-0.503640958734622,-0.56474723398047,0.596691960578474,-0.692354062589312,0.596691960577663,-1.06038525528287,-0.59823892213803,-1.61801729519996,1.03145979766173,-1.11976386387078,0.497452829214371,0.817259932007376,-0.884709691272738,0.81725993200678,-1.10807905952948,-0.0193702187057991,-1.47523158369418,0.143382277009281,0.772052427366015,0.772052427364585,-0.480403515344722,0.480403515344015,-0.0505780436119321,-0.446811106924183,-0.426716435784963,-1.05972250629313,-0.858632850906971,-0.150177686053421,-1.33935138123643,-0.21993111541209,0.985856813363397,0.985856813361473,-1.56558359196961,0.779513754888724,-1.89789980509426,-0.352423126454193,-0.420230782475906,-1.07453271016729,-0.986681159183787,1.67414087562999,1.67414087563105,-1.96824002573002,1.96824002573099,0.302262852982009
1018.5728,-0.938366417832767,-0.52649228351334,-1.02791477310169,-0.436100715453204,-0.889313376536814,-0.889313376535082,-0.264212373152505,-0.479913862470034,-0.535436187623531,0.584477059001268,-0.677850508777985,0.58447705900046,-1.06574647158564,-0.584186310063213,-1.61398062546712,1.03560910995571,-1.13083221872512,0.491425699094115,0.808497709113013,-0.859681971582074,0.808497709112391,-1.11491511930881,0.0120392237703523,-1.45867174363216,0.155354904294209,0.786634886774201,0.786634886772707,-0.465692156757911,0.465692156757235,-0.0395582848486875,-0.396081615593881,-0.413859427704102,-0.983357557668477,-0.865107706864778,-0.149215752171408,-1.34743820577149,-0.205163526069431,0.949437714044452,0.949437714042464,-1.58289973612029,0.793665897839632,-1.9084379439813,-0.344427675538819,-0.408109233461114,-1.04667748918514,-0.959918822508309,1.68288634109267,1.68288634109372,-1.97815168936725,1.97815168936824,0.326004936961407
1018.6752,-0.922889879636389,-0.486261827789306,-0.996305180110001,-0.442292746107162,-0.909193767514832,-0.909193767513113,-0.248259641091948,-0.457047501138654,-0.506866973253004,0.57129129875462,-0.661180184422684,0.571291298753815,-1.06959703660987,-0.570721552155255,-1.60866916315152,1.03951400489927,-1.14252603543918,0.484191141103847,0.798194024258424,-0.834274798090228,0.798194024257777,-1.12087005634383,0.0430460206229248,-1.441279072171,0.167778009005368,0.798740266866812,0.798740266865254,-0.450033759081672,0.450033759080996,-0.0283275496007007,-0.345375097092171,-0.402123377224597,-0.908404309086009,-0.870907700403751,-0.148955615791004,-1.35526033327945,-0.190360126033687,0.913211929062389,0.913211929060349,-1.59867988112112,0.807276285958487,-1.91669247180729,-0.335110333777862,-0.396254616241146,-1.01726854473951,-0.931984537072729,1.6897290661222,1.68972906612324,-1.9850025958982,1.9850025958992,0.35005289239248
1018.7776,-0.90707918702049,-0.446919240237484,-0.964829132971356,-0.447484053353119,-0.929928750851104,-0.929928750849401,-0.232566555772804,-0.435073987425956,-0.479083126953159,0.557125274979919,-0.642339566086984,0.557125274979105,-1.07191669126661,-0.557855508320984,-1.60206794149322,1.04309676180372,-1.15476468911085,0.475707086015687,0.78631192881834,-0.80847882175667,0.786311928817673,-1.12587598515997,0.07357681255295,-1.42302386251945,0.180651000054134,0.808355178605732,0.808355178604091,-0.433490164236306,0.433490164235628,-0.0168901410668158,-0.29484004900631,-0.391492063045497,-0.835019789666031,-0.87606541320152,-0.149359825886993,-1.362827112707,-0.175504267675541,0.877194364897474,0.877194364895357,-1.61300070637733,0.820408645405018,-1.92270805449556,-0.324455557552115,-0.384734586017399,-0.986374299597171,-0.902925170577751,1.69461835844306,1.69461835844408,-1.98877501390602,1.98877501390704,0.374424682112347
1018.88,-0.890960247898103,-0.408558616530199,-0.933551973790497,-0.451618108010772,-0.951487130664792,-0.951487130663076,-0.217158261850585,-0.414023776543056,-0.452126241910531,0.541972676255,-0.621331635082338,0.541972676254177,-1.07268982870752,-0.545599331132796,-1.59416742414793,1.04627821404871,-1.16746490678328,0.465932086179164,0.772816486336432,-0.782285980746526,0.772816486335744,-1.12986961390812,0.103558101506549,-1.40388257114527,0.193973549407439,0.815471261262613,0.815471261260917,-0.416124836291871,0.416124836291164,-0.00524967536691566,-0.244620720734387,-0.381947375351325,-0.76335363100294,-0.880614647712601,-0.150391395523554,-1.37015003808939,-0.160579935898984,0.841394037457255,0.841394037455074,-1.62593897790322,0.833124877890758,-1.92653299310151,-0.312453240107029,-0.373616022099465,-0.954069999562687,-0.872790997001193,1.69750727934491,1.69750727934593,-1.98945867687567,1.98945867687672,0.399136691413863
1018.9824,-0.874557340473766,-0.371271872188445,-0.902536671389977,-0.454640773696923,-0.9738347740274,-0.973834774025722,-0.202058627996377,-0.393925789465095,-0.426035807548166,0.525830423200604,-0.598165799915515,0.525830423199767,-1.07190531605259,-0.533964523130692,-1.58496334611282,1.04897816809678,-1.18054120595422,0.454825537635156,0.75767499775077,-0.755689519953377,0.757674997750065,-1.13279241834168,0.132916438808369,-1.38383789380374,0.207745623133896,0.820085071028751,0.820085071027002,-0.398002697281179,0.398002697280451,0.00659090911478328,-0.194856444447865,-0.373469587677013,-0.693547605172446,-0.884590154019934,-0.15201394241385,-1.37724250349633,-0.145571864902785,0.805814273808367,0.805814273806129,-1.63757112431925,0.845484639413049,-1.92821910704569,-0.299098755282014,-0.362964738417932,-0.920437387751074,-0.841635462105611,1.69835294905676,1.69835294905776,-1.98705083100722,1.98705083100828,0.424203518119938
1019.0848,-0.857892862737,-0.33514865019577,-0.871843569274914,-0.456500631642195,-0.996934921466402,-0.996934921464739,-0.187289996603223,-0.374807544130106,-0.400849062762785,0.508698801269759,-0.572857801148087,0.508698801268906,-1.06955629537761,-0.522962994099169,-1.57445653135842,1.0511158310645,-1.19390633407267,0.442347916510317,0.740857212778711,-0.728683997563971,0.740857212777987,-1.13459077206634,0.161578619451865,-1.36287877896118,0.221967515245715,0.822197977974356,0.822197977972578,-0.379189973938497,0.379189973937743,0.0186293605029469,-0.145681031684446,-0.366037608438467,-0.625735215881622,-0.888027349879472,-0.154191814966648,-1.3841195345551,-0.130465634735588,0.770452959646177,0.770452959643901,-1.64797286500343,0.857544976935885,-1.92782162012386,-0.284392952812891,-0.352845216259051,-0.885564338660438,-0.80951492722462,1.69711683383996,1.69711683384094,-1.98155625135056,1.98155625135164,0.449637779750307
1019.1872,-0.840987147906534,-0.300276232041755,-0.841530190244658,-0.457149258785991,-1.02074847619925,-1.0207484761976,-0.17287296341679,-0.356695274552695,-0.376600868923937,0.490581591642457,-0.545429584162187,0.490581591641594,-1.06563998711675,-0.512607100272843,-1.56265270024273,1.05261024333918,-1.20747170127738,0.428461032810469,0.722335532846349,-0.701265277325231,0.722335532845603,-1.13521604092431,0.18947187028813,-1.34100039894559,0.236639893052975,0.821816086327561,0.821816086325762,-0.359754063988419,0.359754063987642,0.0308641491696574,-0.0972222393884366,-0.359629193358515,-0.560041324133251,-0.890962045073466,-0.156890200560475,-1.39079750888774,-0.115247734179838,0.735302823676831,0.73530282367454,-1.6572188769339,0.86936001183927,-1.92539904143259,-0.268342120769567,-0.343320348487525,-0.849544460135346,-0.776488400430669,1.69376501049605,1.69376501049703,-1.97298724554729,1.97298724554839,0.475449951362679
1019.2896,-0.823858350942269,-0.266739441764227,-0.811651097076611,-0.456541446621913,-1.04523425803719,-1.04523425803552,-0.158826187627156,-0.339614030115877,-0.353323598362524,0.47148620909913,-0.515909133581597,0.471486209098258,-1.06015749915811,-0.502909659331922,-1.54956226599381,1.05338070877714,-1.22114779711128,0.413128299435752,0.702085215988453,-0.673430514572421,0.70208521598768,-1.1346246496002,0.216524024434885,-1.318204095725,0.251763851769278,0.818950179332042,0.818950179330233,-0.339763421655731,0.339763421654951,0.0432945255770218,-0.049601302562263,-0.354221114351858,-0.496581799543634,-0.893430174853056,-0.160075220875953,-1.39729387675927,-0.0999055903469843,0.700351749840222,0.700351749837909,-1.66538249782953,0.880980672442123,-1.9210130316991,-0.250957927035011,-0.334451187189573,-0.812476669604735,-0.742617262372838,1.68826840384771,1.68826840384867,-1.96136365514006,1.96136365514117,0.501648233354378
1019.392,-0.806522394660846,-0.234620547271398,-0.782257801701521,-0.454635369679968,-1.07034922521027,-1.07034922520857,-0.145166216516775,-0.323587761861449,-0.331047028089465,0.451423854473546,-0.484330278310076,0.451423854472671,-1.05311362554015,-0.493883949846276,-1.53520010839656,1.05334721697239,-1.23484458758285,0.39631501087995,0.68008459242189,-0.645178145566324,0.680084592421097,-1.13277812505916,0.24266368146293,-1.29449730774704,0.267340958030355,0.813615675684217,0.813615675682387,-0.319287453059033,0.31928745305825,0.0559205751025346,-0.00293252644297175,-0.349789296839975,-0.435463203648517,-0.895467540633152,-0.163714024837178,-1.40362688952104,-0.0844275884566091,0.66558311348182,0.665583113479478,-1.67253547191795,0.89245448768176,-1.91472824580629,-0.232257345912851,-0.326296690901591,-0.774464748248271,-0.70796499417191,1.68060299144002,1.68060299144098,-1.94671284584277,1.94671284584392,0.5282384288726
1019.4944,-0.788992960485728,-0.203999163737905,-0.753398712601574,-0.451392726909108,-1.09604867379278,-1.09604867379104,-0.131907314122961,-0.308639403420857,-0.30979823386536,0.430409678570057,-0.45073248308846,0.430409678569174,-1.04451662120651,-0.48554370376979,-1.51958531563859,1.05243085650495,-1.24847189514286,0.377988626498705,0.6563152917745,-0.616507887037962,0.656315291773682,-1.12964311781324,0.267820360014595,-1.26989347373498,0.283373261565858,0.805832585618278,0.805832585616424,-0.298396412373958,0.298396412373191,0.0687432449101204,0.0426770671635431,-0.346308939376102,-0.376782515937921,-0.897109555635589,-0.167774883734284,-1.40981533703749,-0.0688031063518335,0.63097613996702,0.630976139964654,-1.67874774225438,0.903825448407952,-1.90661214775378,-0.212262573477291,-0.318913468880948,-0.735616874901379,-0.67259691383934,1.67074997180828,1.67074997180922,-1.92906967406398,1.92906967406515,0.55522381033244
1019.5968,-0.771281512971076,-0.174952151334374,-0.725119107769217,-0.44677887398132,-1.12228641776477,-1.12228641776297,-0.11906129770005,-0.294790942549642,-0.289601485577598,0.408462944000325,-0.415160637775163,0.408462943999451,-1.03437795402912,-0.477903088732849,-1.50274089334668,1.0505542200801,-1.26193976299333,0.358119058262668,0.630762477814366,-0.587420751346576,0.630762477813524,-1.12519140367899,0.291924656219912,-1.24441190607011,0.299863271113061,0.795625467094798,0.795625467092917,-0.277161297743502,0.277161297742768,0.0817643369639302,0.0871280421808397,-0.343754620931315,-0.320626905901503,-0.898390997873977,-0.172227280065409,-1.41587828929388,-0.0530225683240152,0.596506286193325,0.596506286190929,-1.68408728244144,0.915133925997213,-1.89673480211769,-0.191000933976879,-0.312355521575914,-0.696045141910424,-0.636579924412261,1.65869589739513,1.65869589739606,-1.90847642716263,1.90847642716382,0.582604972609977
1019.6992,-0.753397345458927,-0.147553486449672,-0.697461112992459,-0.440762956440173,-1.14901494424775,-1.14901494424588,-0.106637392745285,-0.282063467264624,-0.270478143862707,0.385607165798526,-0.377664853196364,0.385607165797662,-1.02271204270665,-0.470976667356959,-1.48469344133319,1.04764180066514,-1.27515879721388,0.336678969347141,0.603415087534789,-0.557919082163089,0.603415087533927,-1.11939987226244,0.31490842603694,-1.21807762722077,0.316813901497217,0.783023390717218,0.783023390715307,-0.255653752480837,0.255653752480121,0.0949864726735453,0.130328803840619,-0.342100396449689,-0.267073546293134,-0.899345777406074,-0.177041973400502,-1.42183483577515,-0.0370775095999167,0.56214564943965,0.562145649437262,-1.68861995407275,0.926416626813068,-1.88516865314727,-0.168504777281912,-0.306673981278637,-0.655865058276475,-0.599982274760412,1.64443277372367,1.64443277372458,-1.88498274095179,1.884982740953,0.610379683367986
1019.8016,-0.735347632544492,-0.121874080348282,-0.670463661402929,-0.433318052687965,-1.17618553348051,-1.17618553347854,-0.0946421183400593,-0.270477165565759,-0.252446555722499,0.361870211836719,-0.338300275833686,0.361870211835868,-1.00953598973044,-0.464779318683151,-1.4654727977024,1.04362037560564,-1.28804047509461,0.313644092296415,0.574266077064613,-0.528006617156191,0.574266077063732,-1.1122505076373,0.336705008665422,-1.19092116246009,0.334228396560045,0.768059922390997,0.768059922389048,-0.233945978439269,0.233945978438569,0.108413032486049,0.172195812652517,-0.341319880422328,-0.216189461212009,-0.900006726332278,-0.182191026806375,-1.42770381859447,-0.0209606437887898,0.527863413098776,0.527863413096407,-1.69240937809386,0.937706563701703,-1.87198830163063,-0.144811364648562,-0.301916863446245,-0.615195050231647,-0.562873335406473,1.6279581223869,1.62795812238779,-1.85864549767673,1.85864549767796,0.638542740524774
1019.904,-0.717137483476424,-0.0979815223445721,-0.644162418736173,-0.424421334019197,-1.20374832884331,-1.2037483288413,-0.0830792133978949,-0.260051258756037,-0.235521946462454,0.337284351683913,-0.297126933295227,0.337284351683067,-0.994869320820342,-0.459326108865044,-1.44511165392174,1.038419376896,-1.30049741259762,0.288993572116141,0.543312683031589,-0.497688588633076,0.543312683030694,-1.10373036405199,0.357249503381673,-1.16297828255733,0.352110227090519,0.750773131103656,0.750773131101684,-0.212110667735439,0.212110667734751,0.122048070206068,0.212653758388573,-0.341386316003654,-0.168031404006074,-0.900405419520383,-0.187647782225606,-1.43350355932123,-0.0046659301790623,0.493626341927976,0.493626341925624,-1.69551681151598,0.949033035209441,-1.85727027869133,-0.119962738022653,-0.298128843327349,-0.574155972005502,-0.525323395470533,1.60927500231558,1.60927500231646,-1.82952870674265,1.82952870674388,0.667085841343919
1020.0064,-0.6987700034347,-0.0759397338745919,-0.618589673772697,-0.414054242558266,-1.23165234196647,-1.23165234196437,-0.0719496147505979,-0.250803853504111,-0.219716308747215,0.311886250734833,-0.254209616775475,0.311886250734004,-0.978733746318079,-0.454632102623942,-1.42364515215528,1.03197125097145,-1.31244359601238,0.262710334193271,0.510556705152475,-0.466971870752722,0.510556705151566,-1.09383153952824,0.376479106211814,-1.1342896949905,0.370462960883534,0.731205626937177,0.731205626935181,-0.190220955739808,0.190220955739106,0.135896201673385,0.251635692310707,-0.342272624269184,-0.122645760440414,-0.900572031463659,-0.193386779999045,-1.43925158241034,0.0118113600555412,0.459399331564898,0.459399331562566,-1.69800102436566,0.9604216109052,-1.84109280855317,-0.0940055682392519,-0.295351069232865,-0.532870635299458,-0.487403488313734,1.58839198521867,1.58839198521953,-1.79770336668283,1.79770336668408,0.695997463847078
1020.1088,-0.680246375226751,-0.0558085372059439,-0.593774206166003,-0.402202680902476,-1.25984538962327,-1.25984538962117,-0.0612514982311225,-0.242751710618427,-0.205038297665424,0.285716910399628,-0.209617798525621,0.285716910398811,-0.961152957706731,-0.450712116844188,-1.40111048062506,1.02421181699866,-1.32379459418593,0.234781473257464,0.476004802474431,-0.435865167135515,0.476004802473511,-1.08255114929089,0.394333500767078,-1.10490069085499,0.389290104988451,0.709404628240076,0.70940462823804,-0.168350390196851,0.168350390196166,0.149962468933817,0.289083113870312,-0.343951429044171,-0.0800684759825743,-0.90053522840485,-0.199383627066859,-1.44496433838456,0.0284745793049304,0.425145998871904,0.425145998869598,-1.69991817750814,0.971894124774748,-1.8235355579289,-0.0669909791685346,-0.293621015424166,-0.491463357196999,-0.449185248582667,1.56532308675401,1.56532308675487,-1.76324730243435,1.76324730243561,0.725262760716128
1020.2112,-0.661565966613588,-0.0376431635249515,-0.569741147501436,-0.388857203477376,-1.28827397776153,-1.28827397775939,-0.0509803828084276,-0.235909948324883,-0.1914931428016,0.258821559811615,-0.163425573401214,0.258821559810816,-0.942152458603386,-0.447580431720223,-1.3775464772921,1.01508063071805,-1.33446776614085,0.205198658032809,0.439668788233495,-0.404379219449985,0.439668788232562,-1.06989129673441,0.410755282029053,-1.07486076171018,0.40859492595228,0.685422047926827,0.685422047924782,-0.146572905039979,0.1465729050393,0.1642521827266,0.324946010228943,-0.346395060250767,-0.0403250128135594,-0.900322088373619,-0.205614827481209,-1.45065692964045,0.0453256396272451,0.390829288585473,0.390829288583171,-1.70132170655369,0.983468679230377,-1.80467937844254,-0.0389743486366504,-0.292972371200998,-0.450059523116403,-0.410740795739243,1.54008766082601,1.54008766082685,-1.72624497445406,1.72624497445534,0.754863466226602
1020.3136,-0.642726454969228,-0.0214937317255672,-0.546511843212897,-0.374013200550985,-1.31688315463285,-1.3168831546307,-0.0411292814568946,-0.230291707495502,-0.179082579372971,0.231249508866063,-0.115711610092201,0.231249508865298,-0.921759417145185,-0.445250480182392,-1.35299324200707,1.00452135158658,-1.34438246532181,0.173958545987466,0.40156591525266,-0.372527018913959,0.401565915251713,-1.05585903920176,0.425690389277592,-1.0442232021523,0.428380256596832,0.65931458542672,0.659314585424636,-0.124962789777415,0.124962789776727,0.178770746923746,0.359182852699734,-0.34957554519527,-0.00343034331116421,-0.89995804137975,-0.212057590638401,-1.45634284289108,0.062364946338951,0.356412075694307,0.356412075692015,-1.70226221762734,0.995159661658368,-1.78460605089922,-0.0100150941177394,-0.293434958651005,-0.408785166244892,-0.372142637304007,1.5127102656988,1.51271026569963,-1.68678726306778,1.68678726306907,0.784777816097467
1020.416,-0.623723957492057,-0.00740471442557649,-0.524103713200203,-0.357671069343275,-1.34561634233466,-1.34561634233251,-0.0316888836207789,-0.225907793239812,-0.167804793538666,0.203053970746648,-0.0665591035317971,0.203053970745916,-0.900002531070454,-0.443734525890649,-1.32749175472954,0.992482105744266,-1.35346023292708,0.141063203873993,0.361719151891433,-0.340324011159046,0.361719151890473,-1.04046635335579,0.439088539467995,-1.01304471148489,0.448648294900536,0.631143816880184,0.631143816878053,-0.103594652048199,0.103594652047501,0.193523468418741,0.391760556177885,-0.353464593717628,0.03061101991621,-0.89946682725241,-0.218689626374816,-1.46203369354135,0.0795913262790665,0.321857751884355,0.321857751882079,-1.70278739697835,1.00697777344673,-1.7633980357673,0.0198235448684498,-0.295034669653765,-0.367766568079503,-0.333463590536669,1.48322050761157,1.48322050761237,-1.64497123373346,1.64497123373477,0.814980480567204
1020.5184,-0.604553166355952,0.00458560752852389,-0.502530111222019,-0.339836369030228,-1.37441514384096,-1.37441514383883,-0.0226477703758039,-0.222766290033261,-0.157654381144225,0.174291857981017,-0.0160557282765018,0.174291857980324,-0.876911908438874,-0.443043327431412,-1.30108350142793,0.978915840870797,-1.36162497610827,0.106520532097875,0.320157448634862,-0.30778828786784,0.320157448633896,-1.02373011000487,0.450903666079247,-0.981385003388881,0.469400397855653,0.600976283269387,0.600976283267203,-0.0825433744625148,0.0825433744617761,0.208515355672229,0.422654405174685,-0.3580335775425,0.0618049613361749,-0.898870473577329,-0.225488930508191,-1.46773898885116,0.0970019509038715,0.287130790543795,0.287130790541549,-1.70294193083838,1.01893006861035,-1.74113822758881,0.050474718978299,-0.297793416050787,-0.327129884443677,-0.294776725885505,1.45165286633633,1.4516528663371,-1.60089988668522,1.60089988668654,0.845442514576735
1020.6208,-0.585207500599719,0.0144456967407467,-0.481800195388328,-0.320519956481252,-1.40321912850775,-1.40321912850566,-0.0139926705776749,-0.220872150374818,-0.148622327431283,0.14502355399043,0.0357064054580773,0.145023553989776,-0.852518967055012,-0.443185787206688,-1.27381011001827,0.96378067242386,-1.36880313293888,0.0703446896691566,0.276915991674655,-0.27494075714971,0.276915991673685,-1.00567206108681,0.461094365182698,-0.949306425729675,0.490636875313655,0.568883574926571,0.568883574924327,-0.0618840652055249,0.0618840652047375,0.223750909366431,0.451847949392584,-0.363253507479593,0.0901676661372018,-0.898189296582966,-0.232433565347637,-1.47346591820209,0.114592257731166,0.252197285929026,0.252197285926802,-1.70276743203902,1.03101999927537,-1.71790971098025,0.081868171050023,-0.301729090821674,-0.287000801072871,-0.256155331523397,1.41804651020317,1.41804651020389,-1.55468189519819,1.55468189519953,0.876131332993558
1020.7232,-0.56567928803304,0.0221513002408661,-0.461918828682607,-0.29973810064207,-1.43196560956004,-1.43196560955803,-0.0057087597710384,-0.220226770063061,-0.14069601737812,0.115312658359749,0.0886307959687614,0.115312658359131,-0.826856347497839,-0.44416859127379,-1.24571299509841,0.947040215685328,-1.37492382507107,0.0325565085235548,0.232036436277074,-0.241805286555786,0.232036436276103,-0.986318831877133,0.469624342606628,-0.916873586353661,0.512356789264137,0.53494240628198,0.534942406279678,-0.0416919996133957,0.0416919996125031,0.23923390821462,0.479332873182579,-0.369095017403406,0.115725484359858,-0.897441924798685,-0.239501441654744,-1.47921917645165,0.132355874024329,0.217025458369752,0.21702545836755,-1.70230237420112,1.04324746739286,-1.69379552116394,0.113930426207728,-0.306855536908806,-0.247504216696065,-0.217672889750947,1.38244511008892,1.38244511008962,-1.50643134296187,1.50643134296323,0.9070107197322
1020.8256,-0.545959981402389,0.027685963934623,-0.442886520405991,-0.277512577112462,-1.46058942484747,-1.46058942484554,0.00222000384911162,-0.220827564465378,-0.133859280328166,0.0852256999640165,0.142616601784249,0.0852256999634323,-0.79995783284962,-0.445995846886545,-1.21683300855639,0.928663890741046,-1.37991899339335,-0.00681612035760399,0.185567111235527,-0.208408815979317,0.185567111234551,-0.965701911458757,0.476462856951304,-0.884152979971768,0.534557758784199,0.49923467586242,0.499234675860068,-0.0220425510579838,0.0220425510570143,0.254967190848007,0.505108841185094,-0.375528360086825,0.138514751991696,-0.896645342933329,-0.246670106207749,-1.48500082081511,0.150284543089461,0.181586116852352,0.181586116850173,-1.7015820341893,1.05560888209079,-1.66887841163972,0.146584974153696,-0.313182519226893,-0.208763941698266,-0.179403054396573,1.34489665916997,1.34489665917062,-1.45626747450569,1.45626747450705,0.938040876621792
1020.928,-0.52604040105434,0.0310415138275881,-0.424699405176962,-0.253870745612477,-1.48902272608484,-1.48902272608304,0.0098105155491616,-0.222667552852472,-0.128092464963636,0.0548318154504186,0.197558708973248,0.0548318154498733,-0.771858273729063,-0.448668721690151,-1.18721009731455,0.908627189847557,-1.38372351323733,-0.0477379038970324,0.137563185640408,-0.174781435631552,0.137563185639425,-0.943857638378979,0.481585152581635,-0.851212616861392,0.557235767833338,0.461847509028976,0.461847509026537,-0.00301111015473058,0.00301111015368169,0.270952433305682,0.529183317311651,-0.382523412339193,0.158581568784529,-0.895814952579173,-0.25391653728278,-1.4908101587734,0.168368050374757,0.145853076578173,0.145853076576042,-1.7006384421369,1.06809722319016,-1.64324062650775,0.179752452856215,-0.320715701152595,-0.170902400784032,-0.141419624796506,1.30545329830832,1.30545329830894,-1.40431446349104,1.40431446349241,0.969178511237939
1021.0304,-0.50591099040267,0.0322185025802236,-0.407349248725647,-0.228845609316055,-1.51719478109915,-1.51719478109749,0.0170801419698085,-0.225734952925794,-0.123372537091828,0.0242023996031154,0.253347820129227,0.0242023996026121,-0.742593522009109,-0.452185089893568,-1.15688297581188,0.886911904546632,-1.38627529366746,-0.0901658572637251,0.0880867885480054,-0.14095642126197,0.0880867885470119,-0.920827180064031,0.484972870512032,-0.818121661339553,0.580384976096601,0.422873279164673,0.422873279162163,0.0153270108859457,-0.0153270108870471,0.287189922804491,0.551571354264598,-0.390049686136724,0.175981533542636,-0.894964646497119,-0.261216952560466,-1.49664366682595,0.186594146053338,0.109803533616203,0.10980353361417,-1.69950034144791,1.08070211564555,-1.61696367362607,0.21335084294879,-0.329456634594082,-0.134040338392429,-0.103796516988656,1.26417113798368,1.26417113798426,-1.35070118924727,1.35070118924864,1.00037695683185
1021.1328,-0.485562074736531,0.0312266194891166,-0.390823473468675,-0.202475850384421,-1.54503179391904,-1.5450317939175,0.0240463313070184,-0.230012787563474,-0.119673191977059,-0.00658925835964983,0.309870568031924,-0.00658925836010751,-0.71220037481753,-0.456539193284036,-1.12588882064472,0.863506311228942,-1.38751536827206,-0.13404907903115,0.0372070747912625,-0.106970224100574,0.0372070747902586,-0.896656505830744,0.486614423874252,-0.784950090628057,0.603997536824356,0.382409601512412,0.382409601509808,0.0328966917097242,-0.0328966917109051,0.30367833029273,0.572295357865044,-0.398076348294127,0.19077943882562,-0.894106895167725,-0.268546637023065,-1.50249494552858,0.20494846119694,0.0734183954329479,0.0734183954309982,-1.69819316419845,1.09340992171107,-1.59012809742473,0.247295676487379,-0.339402772197737,-0.0982965330860372,-0.0666077308958469,1.2211100650504,1.22111006505093,-1.29556100929976,1.29556100930113,1.03158631878264
1021.2352,-0.464984120698613,0.0280850538255689,-0.375105206312499,-0.174805834320755,-1.57245675155532,-1.57245675155388,0.0307262306108779,-0.235478515145448,-0.116964974711692,-0.0374683365821897,0.367009656195423,-0.0374683365826202,-0.680716520343313,-0.46172132879663,-1.09426298623154,0.838405311166892,-1.38738798222273,-0.179328604187035,-0.0149997625955301,-0.0728624220670296,-0.0149997625965511,-0.871396351000165,0.486505326688666,-0.751768380004701,0.628063426150105,0.34055929314156,0.340559293138822,0.0496231356121907,-0.049623135613458,0.320414485144595,0.591384835506214,-0.406572257541044,0.203048925229341,-0.893252845022528,-0.275879800752365,-1.50835471952727,0.223414415907836,0.0366825582604026,0.0366825582585371,-1.69673902620294,1.10620385551641,-1.56281325170626,0.281500257907016,-0.350547502288876,-0.0637875248392652,-0.029927305469361,1.17633353045947,1.17633353045996,-1.23903152276506,1.23903152276643,1.06275364803458
1021.3376,-0.44416799352945,0.0228227910127486,-0.360173355794038,-0.145885579205222,-1.59938931554527,-1.59938931554393,0.037136325629323,-0.242103707226324,-0.115215409229674,-0.0683588334409829,0.424644032801409,-0.0683588334413753,-0.648180467709761,-0.467717579113855,-1.06203873338062,0.81161052368003,-1.38584068009651,-0.225937342910607,-0.068450531911417,-0.0386756392618827,-0.0684505319124548,-0.845102163109206,0.484648466684179,-0.718647209913499,0.652570285477549,0.29743028936899,0.29743028936613,0.0654320224526679,-0.0654320224540067,0.337393155458323,0.608876134058687,-0.415506027881809,0.212872090631738,-0.892412423403325,-0.283189476264912,-1.51421088495747,0.241973121397827,-0.000414880888566676,-0.000414880890345154,-1.69515674282307,1.11906412204869,-1.53509707098129,0.315875898318748,-0.362880203216058,-0.030627349099993,0.00617075122521415,1.12990832385553,1.129908323856,-1.18125432058771,1.18125432058908,1.09382314266605
1021.44,-0.423105204346827,0.0154788218035117,-0.346002721321048,-0.115770692171183,-1.6257457787285,-1.62574577872725,0.0432921084741031,-0.249853795461894,-0.114389144644946,-0.0991839197615725,0.482649109049167,-0.0991839197619315,-0.614631447028649,-0.474509601927799,-1.02924696636067,0.783130336766659,-1.3828244000239,-0.273800104077593,-0.123055141668952,-0.00445543312966083,-0.12305514167001,-0.817834019740493,0.481054321697725,-0.685657181612703,0.677503273948539,0.253135504537652,0.253135504534688,0.0802496909934116,-0.0802496909948379,0.354606837221149,0.624812163623786,-0.424846119399515,0.220339048672666,-0.891594439566235,-0.29044745975024,-1.52004859353699,0.260603282187922,-0.0378804824216353,-0.0378804824233011,-1.69346186493527,1.13196808230507,-1.50705583574517,0.350332174614321,-0.376386316672587,0.00107273953849759,0.0416125668380664,1.08190434431211,1.08190434431256,-1.12237471166438,1.12237471166574,1.12473637178325
1021.5424,-0.401788138050374,0.006102255230495,-0.332564130944758,-0.0845222785313313,-1.65143909833384,-1.65143909833265,0.0492077689106401,-0.258687895444017,-0.114448127440614,-0.129866303915435,0.540897032629256,-0.129866303915758,-0.580109279142805,-0.482074487616111,-0.995915984897786,0.752979921105894,-1.37829357872376,-0.322833698384143,-0.178716772830586,0.0297498564051199,-0.178716772831662,-0.789656513862007,0.4757411298077,-0.652868527684772,0.70284492620209,0.207792626032346,0.207792626029275,0.0940033598431093,-0.0940033598445978,0.372045555583865,0.639242100617259,-0.434560951374226,0.225547435031707,-0.890806670648149,-0.297624294878372,-1.52585035664643,0.279281105173859,-0.0757163871724584,-0.0757163871740447,-1.69166673638528,1.14489044901393,-1.47876392624404,0.384777230275016,-0.391047441889372,0.031204575954418,0.0763245455643596,1.03239437409208,1.0323943740925,-1.06254140893233,1.06254140893369,1.15543250863789
1021.6448,-0.380210255982749,-0.00524766536092912,-0.319824603085883,-0.0522068268925447,-1.67637900524116,-1.67637900524008,0.0548959052434474,-0.268558704584643,-0.115351801410805,-0.160328615058806,0.599257022371778,-0.160328615059094,-0.544654224504686,-0.490384689696462,-0.962071264823852,0.721181210923619,-1.37220627088193,-0.372947118994497,-0.235332138779421,0.0638893000949244,-0.235332138780516,-0.760638608482848,0.468735022387422,-0.620350812311103,0.728575014696921,0.161523834471941,0.161523834468784,0.106621391153092,-0.106621391154664,0.389696682625941,0.652221070428513,-0.444619033871709,0.228601866543072,-0.890055926728775,-0.304689297073987,-1.53159615921103,0.297980219640442,-0.113920296891369,-0.113920296892861,-1.68978057845753,1.15780351977917,-1.45029356367642,0.419118129740519,-0.406841451505389,0.0596634414721077,0.110233539898748,0.981453859934533,0.981453859934929,-1.00190616247714,1.0019061624785,1.18584856063571
1021.7472,-0.358366274001775,-0.0185016437540992,-0.30774753301942,-0.0188960687431188,-1.70047218592786,-1.70047218592678,0.0603672547777462,-0.279412471300378,-0.117057333681674,-0.190493799310078,0.657595762964278,-0.190493799310331,-0.5083068198445,-0.499408029982218,-0.92773527846358,0.687762851099759,-1.36452428453747,-0.424041802874179,-0.292791845871019,0.0979096151570355,-0.292791845872134,-0.730853461084047,0.460070116418705,-0.588172624894616,0.754670421806699,0.114455449146133,0.114455449142868,0.118033596187958,-0.118033596189592,0.407544777594859,0.663809816714901,-0.454989118000481,0.229613361320491,-0.889348095153166,-0.311610618777252,-1.53726358411334,0.316671610467389,-0.152485510774599,-0.152485510775992,-1.68780960903661,1.17067745338545,-1.42171454451774,0.453261267911472,-0.423742628566206,0.0863484722093208,0.143267050443097,0.929160706081124,0.929160706081494,-0.940623334887322,0.940623334888677,1.21591959419482
1021.8496,-0.336252321388592,-0.0335805189383189,-0.296292912902855,0.0153331930950544,-1.72362254082356,-1.72362254082254,0.0656304488174858,-0.291189042158094,-0.119519866401475,-0.220285519245394,0.715777854179914,-0.220285519245606,-0.471107700270984,-0.509107782736754,-0.892927355189395,0.652760104206909,-1.35521332818963,-0.476011978987253,-0.350980862296681,0.131755442830598,-0.350980862297814,-0.700378211566085,0.449788548654076,-0.556401272958374,0.781105027630488,0.0667175005655772,0.0667175005622273,0.128171580803065,-0.128171580804726,0.425571454550235,0.67407436209494,-0.465640367013945,0.228698722884467,-0.888688167030101,-0.318355358497615,-1.54282795389143,0.335323566521006,-0.19140102073395,-0.191401020735264,-1.68575720097225,1.18348059109224,-1.393093974227,0.487112829047291,-0.44172182366668,0.111163111817378,0.175353460376304,0.875595080389347,0.875595080389691,-0.878849420049215,0.878849420050564,1.24557896288882
1021.952,-0.313866084611365,-0.0503955788607782,-0.285417597548415,0.0503992923173955,-1.74573153552942,-1.74573153552844,0.0706918033270636,-0.303822005149157,-0.122692795164852,-0.249628550417702,0.773666311436361,-0.249628550417883,-0.433097393411664,-0.519442847174129,-0.857663573801234,0.616214707097115,-1.34424315859372,-0.528745108659077,-0.409779095745365,0.165369670365434,-0.409779095746516,-0.669293723287578,0.43794043000931,-0.525102478183232,0.807849615193464,0.0184432290960134,0.0184432290925837,0.136969130727552,-0.13696913072925,0.443755278812988,0.683085656050113,-0.476542548894789,0.225979882508368,-0.888080247793321,-0.324889716702196,-1.54826249527247,0.35390164647078,-0.23065166546598,-0.230651665467212,-1.68362407837698,1.1961798216026,-1.36449600008346,0.520579287019914,-0.460746630546839,0.134015599255854,0.206422318681609,0.820839228062182,0.820839228062489,-0.816742506517098,0.816742506518442,1.27475854824259
1022.0544,-0.291206934025568,-0.0688490190660926,-0.275075623263361,0.0862159450250884,-1.76669866789913,-1.76669866789819,0.075555158473077,-0.317238949706428,-0.126528074843067,-0.278449175068848,0.831123117901369,-0.278449175069006,-0.394316072901962,-0.530368018963642,-0.821956680113101,0.578174668804919,-1.33158771866474,-0.582122420063302,-0.469062077640659,0.198693804957725,-0.469062077641828,-0.637684269713512,0.424583706332447,-0.494340077006044,0.834871791696613,-0.0302314932253481,-0.0302314932288614,0.144362638873539,-0.144362638875272,0.462071691961655,0.690919197729034,-0.487666245529747,0.221583191151428,-0.887527551593914,-0.331179200414486,-1.553538528022,0.372368664892335,-0.270218338419893,-0.270218338421078,-1.68140854657004,1.20874098771932,-1.33598153767896,0.553567940933392,-0.480781579452677,0.154819483860504,0.236404684301163,0.764977282734876,0.764977282735157,-0.754461682908843,0.754461682910187,1.30338901628233
1022.1568,-0.268276027295794,-0.0888345537846222,-0.265218578083007,0.122692533243734,-1.786422065547,-1.78642206554612,0.0802217751160482,-0.331361853253368,-0.130976551508966,-0.306675575753319,0.88800982639665,-0.306675575753447,-0.354803269348242,-0.541834365525667,-0.78581603106754,0.538694009268261,-1.31722526242905,-0.636019533992753,-0.528701751268078,0.231668407906472,-0.528701751269264,-0.605637165838957,0.409783925071556,-0.464175725068569,0.862135924545475,-0.0791688166140069,-0.0791688166175797,0.15029157655692,-0.150291576558698,0.480492965864548,0.697654619162994,-0.498983067576266,0.215638657158899,-0.887032378743968,-0.337188876571868,-1.55862567707013,0.390684701313013,-0.310078241714365,-0.310078241715493,-1.67910675124909,1.22112933246091,-1.30760798576184,0.585987486358001,-0.501788351879335,0.173494163203435,0.265233534381522,0.708095066634192,0.708095066634449,-0.69216638163575,0.69216638163709,1.33140008785124
1022.2592,-0.245076385669702,-0.110238169281404,-0.255796015433186,0.159734423740245,-1.80479920762087,-1.80479920762009,0.0846902872325533,-0.346107585206848,-0.135988315797415,-0.3342382295526,0.944188203489625,-0.334238229552689,-0.314597548569329,-0.553789697303725,-0.749247570790236,0.497832446606065,-1.30113846988161,-0.690307170401278,-0.588567354221223,0.2642335902951,-0.588567354222422,-0.573242349827069,0.393613919295846,-0.434668603357819,0.88960309157807,-0.128229633991998,-0.128229633995626,0.154699004259024,-0.154699004260838,0.498988186225046,0.703375219955803,-0.51046586246634,0.208279134577818,-0.886596077648457,-0.342883669645908,-1.56349210559325,0.408807133410465,-0.350205174358847,-0.350205174359912,-1.67671296253416,1.23330997980816,-1.27942892918167,0.617748624471931,-0.523726021451698,0.1899654406734,0.292844228599872,0.650279878857159,0.650279878857399,-0.630015663986891,0.630015663988233,1.35872082033383
1022.3616,-0.221612946813559,-0.132938992312977,-0.246755901704073,0.197243316082525,-1.82172774340447,-1.82172774340375,0.0889567018355315,-0.36138850182629,-0.141513068993289,-0.361070299844964,0.999520902359394,-0.361070299845019,-0.273736175236504,-0.566179112401635,-0.712253842743755,0.455655045190164,-1.28331455440841,-0.744851916818296,-0.648526371508385,0.296329558157813,-0.648526371509598,-0.540591925627275,0.376153427788346,-0.405875124983437,0.917231045942244,-0.17727434958627,-0.177274349589954,0.157532106952767,-0.157532106954631,0.517523265197374,0.708167454617001,-0.522088905523108,0.199639475861534,-0.886218997250164,-0.348228691559189,-1.56810476593441,0.426690694875625,-0.390569837976318,-0.390569837977333,-1.6742198790163,1.24524843976946,-1.25149383894427,0.648764701435894,-0.546551318919959,0.204166094390802,0.319175011425856,0.591620277640441,0.591620277640664,-0.568167461466632,0.568167461467977,1.38527990122791
1022.464,-0.197892602605551,-0.156810235273315,-0.238045086895548,0.235117611632552,-1.8371063681944,-1.83710636819375,0.0930144366157291,-0.377113096280686,-0.147500488810991,-0.387108018338581,1.05387214878736,-0.387108018338605,-0.23225478458297,-0.578945582148202,-0.674834040217477,0.412231837305216,-1.26374536260394,-0.799517035269946,-0.708445521717152,0.3278971820225,-0.708445521718378,-0.507779680996689,0.357488672094861,-0.377848644590905,0.944974199233705,-0.226163670638968,-0.226163670642719,0.158742730316304,-0.158742730318225,0.536060983214463,0.712120382311213,-0.533828067408201,0.189855668990993,-0.885900440244811,-0.353189586029153,-1.57242966546267,0.444287560160119,-0.431140140400357,-0.431140140401333,-1.67161894416941,1.25691111985543,-1.22384778677485,0.678952356250179,-0.570218910907567,0.216036439914954,0.344167528661627,0.532205864183072,0.532205864183277,-0.506777797820884,0.506777797822231,1.41100595749473
1022.5664,-0.173924228420667,-0.181720174219771,-0.229609783435439,0.27325279973955,-1.85083571390002,-1.85083571389944,0.0968543888014552,-0.393186666983282,-0.153900578040075,-0.412291047480169,1.1071084275395,-0.412291047480161,-0.190187086372506,-0.592030542555843,-0.636984097237235,0.3676374297901,-1.242427464062,-0.854163284121658,-0.768191730876057,0.358878558623353,-0.7681917308773,-0.474900596349635,0.337711911120906,-0.350639173967798,0.972783634073724,-0.27475939492669,-0.27475939493049,0.158287890663906,-0.158287890665849,0.554561065443084,0.715325092994584,-0.545660952841401,0.179063981918008,-0.88563862866967,-0.357732867062929,-1.57643214403123,0.461547465028192,-0.471881478356512,-0.471881478357419,-1.66890066113862,1.26826581721774,-1.19653119273441,0.708232149071676,-0.594681678349998,0.22552486509786,0.36776733688777,0.472127073610138,0.472127073610329,-0.446000019527194,0.446000019528541,1.43582788949773
1022.6688,-0.14971870721534,-0.207533117159898,-0.221396036132195,0.311541868680715,-1.86281921568358,-1.86281921568308,0.100465031105584,-0.409511970955262,-0.16066397935962,-0.436562814838589,1.15909916163834,-0.436562814838557,-0.147564623768773,-0.605374460577367,-0.59869682305853,0.32195060398341,-1.21936222709329,-0.908649734827839,-0.827633051641835,0.389217534948665,-0.827633051643095,-0.44205035820647,0.316920991902728,-0.324293106821636,1.00060716714023,-0.322925169330431,-0.322925169334257,0.156130233815095,-0.156130233817073,0.572980307289202,0.717874124028423,-0.557567006330461,0.167400136394199,-0.885430691796231,-0.361826231691343,-1.58007715771684,0.478417882360872,-0.512756985079597,-0.512756985080448,-1.66605488575003,1.27928216144871,-1.16957961919986,0.736529145461868,-0.619890980435042,0.232588320664397,0.389924394046494,0.411474976325783,0.411474976325959,-0.385984056831755,0.385984056833097,1.45967524390167
1022.7712,-0.125288948361575,-0.234110333775944,-0.213350169829266,0.349875753315584,-1.87296392999066,-1.8729639299902,0.103832532851682,-0.425989840890521,-0.16774224493237,-0.459870813563713,1.20971737790575,-0.459870813563661,-0.104416599912397,-0.618917357516848,-0.559962081993103,0.275253913029923,-1.19455587695448,-0.962834572068074,-0.886639501304596,0.418860177306408,-0.886639501305869,-0.409324886159939,0.295218905694894,-0.298852957034846,1.02838948029822,-0.370527205470452,-0.370527205474288,0.152238429034193,-0.152238429036198,0.591272760640471,0.719860878710375,-0.56952758415518,0.15499852576006,-0.885272682045975,-0.365438834637872,-1.58332956497371,0.494844269562896,-0.553727739213603,-0.553727739214362,-1.66307107811496,1.28993198017864,-1.14302362161079,0.763773440241924,-0.645796892658659,0.237192758202425,0.410593527512286,0.35034108971333,0.350341089713501,-0.326875722227742,0.326875722229083,1.48247863391261
1022.8736,-0.100649893708445,-0.261310943496581,-0.205419207046236,0.388143815418945,-1.88118130256145,-1.88118130256103,0.106940911180719,-0.4425197648051,-0.175088055636901,-0.482166862293984,1.2588403459951,-0.482166862293914,-0.0607697655703507,-0.632599292954498,-0.520767013526333,0.227633278516903,-1.16801953804096,-1.01657587548236,-0.945083811162528,0.447755183225414,-0.945083811163821,-0.376819874604495,0.272713340068156,-0.274357119611344,1.0560723103028,-0.41743495660697,-0.417434956610795,0.146587501198928,-0.146587501200972,0.609389966675714,0.721379054076372,-0.581525999044729,0.141991477510128,-0.885159618458081,-0.368541529086905,-1.58615441854848,0.510770374600885,-0.59475294358132,-0.594752943581974,-1.65993850299754,1.30018956834807,-1.11688867095892,0.789900612227103,-0.672348414918564,0.239313508415665,0.429734872590832,0.288817196694074,0.288817196694243,-0.26881603936374,0.268816039365076,1.50417018996705
1022.976,-0.0758184968554192,-0.288992780533972,-0.197551252556628,0.426234330943875,-1.88738790413021,-1.88738790412986,0.10977222371156,-0.459000444695092,-0.182655389706392,-0.503407318106896,1.30635017491616,-0.503407318106809,-0.0166483470619449,-0.6463608273205,-0.4810962823607,0.179177589409138,-1.13976926682048,-1.06973238592029,-1.00284208877058,0.475854242477345,-1.00284208877189,-0.344630343984443,0.249516204286685,-0.250839665908128,1.08359466116577,-0.463521772837041,-0.46352177284084,0.139159115946313,-0.139159115948396,0.627281197236364,0.722522079874402,-0.5935475479832,0.128508550014335,-0.885085551470728,-0.371107089909143,-1.58851727019698,0.526138560410486,-0.635790085767002,-0.635790085767568,-1.65664638115753,1.31003185458189,-1.09119516520726,0.814852107095352,-0.699493653625632,0.238935590319738,0.447314265517562,0.226995170466309,0.226995170466484,-0.211940593662215,0.211940593663544,1.52468400099152
1023.0784,-0.050813665505399,-0.317013257187389,-0.189695846340616,0.464034958182245,-1.89150615357452,-1.89150615357424,0.112306810998688,-0.475330353935312,-0.190399645332027,-0.523553243017097,1.35213435989994,-0.523553243016989,0.0279260013867125,-0.660143479571469,-0.440932352370858,0.129978306114897,-1.10982608172459,-1.12216425868205,-1.05979439566166,0.503112353459085,-1.05979439566299,-0.312850194836336,0.225743110944991,-0.228330178146745,1.11089300930366,-0.508665548439199,-0.508665548442964,0.129941831306581,-0.129941831308693,0.644893676498131,0.723382565392162,-0.605579529142681,0.114675852030885,-0.885043640812723,-0.373110431431298,-1.5903844884034,0.540890117163888,-0.676795085901006,-0.676795085901484,-1.65318399735404,1.31943846748993,-1.06595853654436,0.838575552038583,-0.727179983840682,0.236053948587279,0.463303575750746,0.164966814345455,0.164966814345634,-0.156378901870315,0.156378901871646,1.54395651138472
1023.1808,-0.0256561687402431,-0.345230233075195,-0.181804290010371,0.501433181323941,-1.89346503540345,-1.89346503540321,0.114523585330734,-0.491408302768623,-0.198277726125915,-0.542570533823847,1.39608628553383,-0.542570533823713,0.0729342197968727,-0.673890183944054,-0.400255788506581,0.0801290695829915,-1.07821599040094,-1.17373380442449,-1.11582524629215,0.529488097451044,-1.11582524629351,-0.281571760819759,0.201512815203138,-0.206853617102623,1.13790150205557,-0.552749361470576,-0.552749361474297,0.118931320199408,-0.118931320201573,0.662172787435786,0.724051748969146,-0.617611245264363,0.100615382155492,-0.88502624055766,-0.374528817867204,-1.59172357901433,0.554965566937752,-0.717722431089969,-0.717722431090332,-1.64954076735956,1.32839170918877,-1.04118944574356,0.861025012546885,-0.755354194434035,0.230673629988249,0.477680973999406,0.10282373019814,0.102823730198319,-0.102253803073735,0.102253803075061,1.56192686536675
1023.2832,-0.000368521754402823,-0.373502881856206,-0.17382995325186,0.53831674455903,-1.89320080297013,-1.89320080296995,0.116400350135907,-0.507134007602433,-0.20624810110801,-0.560430028295032,1.43810569704203,-0.560430028294866,0.11835982427541,-0.687545737955561,-0.359045597678704,0.0297253122866613,-1.04497000960963,-1.22430621765475,-1.17082403850991,0.554943872252024,-1.17082403851129,-0.25088536329849,0.176946626377622,-0.186430214335694,1.16455217553978,-0.595662093731342,-0.595662093735021,0.10613055894125,-0.106130558943421,0.679062291971778,0.724618946964584,-0.629633984932947,0.086444394922343,-0.885024989670413,-0.375342054476976,-1.59250349499327,0.568304991248923,-0.758525295470216,-0.758525295470472,-1.64570626802916,1.33687645095769,-1.01689404414881,0.882161204294465,-0.783962616327234,0.222809917607983,0.490431144940201,0.0406572200088653,0.0406572200090485,-0.0496808773423892,0.0496808773437196,1.57853721525348
1023.3856,0.0250251374188848,-0.401692540991911,-0.165728565703362,0.574574096740192,-1.89065765128174,-1.89065765128165,0.117914132428403,-0.522408653731718,-0.214270848795493,-0.577107594239766,1.47809914720992,-0.577107594239577,0.164188833924025,-0.701057230502165,-0.317279617051702,-0.021136133741102,-1.01012417166441,-1.27375029410408,-1.22468542656073,0.579446087156657,-1.22468542656213,-0.220878877330609,0.152167805675657,-0.167075390725617,1.19077521820551,-0.637299017514112,-0.637299017517735,0.0915499726924107,-0.0915499726946028,0.695504590741082,0.725171004392432,-0.641640976051099,0.072274803223657,-0.885030910969958,-0.375532648263147,-1.59269492860843,0.580848408119548,-0.799155645953183,-0.799155645953339,-1.6416702429404,1.3448799770051,-0.993074281137139,0.901951666375965,-0.812951231202126,0.21248843539652,0.501545457448357,-0.021441790308617,-0.0214417903084289,0.00123210194332914,-0.00123210194199676,1.59373301613966
1023.488,0.0504991736569886,-0.42966353843502,-0.157458496047913,0.610094850306786,-1.88578834814864,-1.88578834814861,0.119041522915247,-0.537135446300778,-0.222307687092838,-0.592584196802013,1.51598041460818,-0.592584196801801,0.210409645295951,-0.714374445862843,-0.274934943964438,-0.0723574354552633,-0.973719513495823,-1.32193913876217,-1.27730964473587,0.602965319329006,-1.27730964473729,-0.191637318051145,0.127300949884248,-0.148799713297513,1.21649927941774,-0.677562344421954,-0.677562344425535,0.0752075322274263,-0.0752075322296312,0.711441018239812,0.725791755065878,-0.653627315994814,0.0582126208656071,-0.885034523770241,-0.375085937642326,-1.59227059283729,0.592536192195949,-0.839564334108705,-0.839564334108772,-1.63742260017336,1.35239180310771,-0.969728242151815,0.920370888456009,-0.84226575593583,0.199745218661011,0.511022095384229,-0.0833828239322881,-0.0833828239321039,0.0503856796728161,-0.0503856796714875,1.60746331150766
1023.5904,0.0760265865196596,-0.457284001524376,-0.148981017811851,0.644770235764556,-1.87855482240391,-1.87855482240395,0.119759028946584,-0.551220152322087,-0.230321986005827,-0.6068459353716,1.55167088092528,-0.60684593537136,0.257012874107983,-0.727450246349874,-0.23198838732257,-0.123840163383721,-0.93580204657828,-1.3687508614342,-1.3286027852763,0.625476431104077,-1.32860278527773,-0.163242446104585,0.102471348265258,-0.131608898945793,1.24165179489005,-0.716361737916155,-0.716361737919684,0.0571288015398943,-0.0571288015420959,0.726812141648004,0.726561496983902,-0.665589887019476,0.0443574415125281,-0.885025974418849,-0.373990198981664,-1.59120550544373,0.603309501925482,-0.87970117401937,-0.879701174019369,-1.63295340950773,1.35940348030243,-0.946850513733796,0.937400373616929,-0.871851698505627,0.184626729867967,0.518866136736098,-0.145075935577293,-0.145075935577097,0.097689188188101,-0.0976891881867746,1.61968099506669
1023.6928,0.101579147042841,-0.484426652213287,-0.140260564621915,0.678493529668566,-1.86892870960372,-1.86892870960382,0.120043439784415,-0.564571635803239,-0.238278764918847,-0.619884050120178,1.58509986051993,-0.619884050119909,0.30399118055764,-0.740240931504901,-0.188416920611002,-0.175485699766149,-0.896422703456766,-1.41406925010953,-1.3784770312535,0.646958650136582,-1.37847703125494,-0.135772384952716,0.0778043057235498,-0.115503861249008,1.26615930427518,-0.75361478438351,-0.753614784386995,0.0373469337418147,-0.0373469337440284,0.74155803821355,0.727556480055639,-0.677527257311739,0.0308019500684839,-0.884995187858337,-0.372236732871947,-1.58947728283699,0.613110686001671,-0.919515003761178,-0.919515003761124,-1.62825289235479,1.36590837442909,-0.924432578556165,0.953028616830063,-0.901654381666145,0.167189795681616,0.525089564951989,-0.206431799578544,-0.206431799578344,0.143061154613529,-0.143061154612209,1.6303430406428
1023.7952,0.127127526495355,-0.510969581980097,-0.131264982732209,0.711160451895107,-1.85689184945213,-1.85689184945231,0.11987219001047,-0.577102381149894,-0.246144684349547,-0.631694909816918,1.61620488649937,-0.631694909816615,0.351339075588074,-0.752706562037379,-0.144198131064128,-0.227195650093723,-0.85563725315412,-1.45778441242379,-1.42685084715274,0.667395617286943,-1.42685084715419,-0.109301247761992,0.0534244422067264,-0.100480789246875,1.28994776383262,-0.789247407706046,-0.789247407709488,0.0159026079319809,-0.0159026079341952,0.755618556124874,0.728848398921488,-0.689439558885775,0.0176314687317317,-0.884932042346164,-0.369819921888885,-1.58706643875708,0.621883674900551,-0.958953727325404,-0.958953727325281,-1.62331139895444,1.3719014125024,-0.902463245734827,0.967250987548153,-0.931618930141737,0.14750145431785,0.529711208143576,-0.267361788330008,-0.2673617883298,0.186429624786978,-0.186429624785672,1.63941071344208
1023.8976,0.152641400863144,-0.536796992526388,-0.121965787918586,0.74266954967788,-1.84243672505836,-1.8424367250586,0.119223701313482,-0.588728996530663,-0.2538880450248,-0.642279995693785,1.64493196479945,-0.642279995693455,0.399052691226496,-0.764811235855484,-0.0993106748817713,-0.278872259428865,-0.813506180343971,-1.49979338145484,-1.47364913272078,0.68677540867887,-1.47364913272225,-0.0838987780862867,0.0294549860255158,-0.0865312493351986,1.31294288108179,-0.82319421348958,-0.823194213492984,-0.00715609857195635,0.00715609856974466,0.76893358772536,0.730503888175443,-0.701328333506738,0.00492354539652838,-0.88482656490547,-0.366737247841364,-1.58395667287249,0.62957438917038,-0.997964336852071,-0.99796433685192,-1.61811938332838,1.37737880797697,-0.8809291162045,0.980069523926049,-0.961690221325005,0.125638724086757,0.532756619197212,-0.327778030474089,-0.327778030473875,0.227732401311604,-0.227732401310308,1.64684978584336
1024,0.178089524809234,-0.56179988894564,-0.112338425772292,0.772922597219012,-1.82556683315744,-1.82556683315767,0.118077691834555,-0.59937268984614,-0.261478799586079,-0.651645886607377,1.67123580925247,-0.651645886607019,0.447129501597235,-0.776523312112626,-0.053734750610924,-0.330418831998305,-0.770094530471492,-1.5400006857942,-1.51880334230466,0.705090533202575,-1.51880334230614,-0.0596300101262921,0.00601707451682218,-0.0736423069694582,1.33507050229278,-0.855398759516283,-0.855398759519676,-0.0317739019324129,0.0317739019302122,0.781443386527826,0.732584027442595,-0.713196347009482,-0.00725240716452936,-0.884669139402649,-0.362989263041076,-1.58013513275837,0.636131196411922,-1.03649291905581,-1.03649291905563,-1.61266739598557,1.38233779649045,-0.859815066516805,0.991492664087806,-0.991812809348953,0.101688316637397,0.534257918981339,-0.387593454499414,-0.387593454499193,0.266917214331007,-0.266917214329725,1.65263077259522
1024.1024,0.203439783705585,-0.585876718622281,-0.102362525085933,0.801825030431283,-1.80629697619025,-1.80629697619049,0.116415458383606,-0.60895971341236,-0.268888569701826,-0.659804235722548,1.69508006409496,-0.659804235722164,0.495568000000528,-0.787815589776181,-0.00745258929816827,-0.381740147290261,-0.725471728803434,-1.57831888140321,-1.56225156582743,0.722337898658659,-1.56225156582892,-0.0365549515989399,-0.0167709327962742,-0.0617966679772368,1.35625706288488,-0.885813759797364,-0.885813759800727,-0.0578885613111569,0.0578885613089738,0.793088937400468,0.735143871996705,-0.725047383491783,-0.0188354168116331,-0.884450717961147,-0.358579521899124,-1.57559264238517,0.641505421085218,-1.07448465312905,-1.07448465312885,-1.60694610943795,1.3867764124954,-0.839104726003239,1.0015349407585,-1.0219308388741,0.0757463110219099,0.534253617347633,-0.446721834360448,-0.446721834360224,0.303941845501948,-0.303941845500678,1.65672918058702
1024.2048,0.228659239521632,-0.608933954655426,-0.0920221305947822,0.82928640885075,-1.7846534729985,-1.78465347299874,0.114220142335943,-0.617421776661056,-0.276090658333356,-0.666771725100049,1.71643750703333,-0.666771725099641,0.544367351946719,-0.798665450739909,0.0395510537393352,-0.432742863228785,-0.679711380641741,-1.61466903703872,-1.60393856637325,0.738518740081299,-1.60393856637475,-0.0147282885270686,-0.0387941284091777,-0.0509728384583913,1.37643007987052,-0.914401232724151,-0.914401232727518,-0.0854311774860469,0.0854311774838968,0.803812358309429,0.738232022885363,-0.736886032747807,-0.0297732020942598,-0.88416302961301,-0.353514485323508,-1.57032390062017,0.645651877385979,-1.11188381171362,-1.1118838117134,-1.6009463797585,1.39069331746477,-0.818780934066845,1.0102166532649,-1.05198796350833,0.0479177887934855,0.532788408353991,-0.505077848082345,-0.505077848082128,0.338774207944905,-0.338774207943638,1.65912575055837
1024.3072,0.253714180692904,-0.630886618332807,-0.0813059040795942,0.855220875272573,-1.7606742874809,-1.76067428748112,0.111476979220462,-0.624696423405878,-0.283060055020557,-0.672569995103447,1.73529021856339,-0.672569995103014,0.593527038284003,-0.809054968977709,0.0872884203195233,-0.483335898116581,-0.63289105385402,-1.64898115961892,-1.64381577038123,0.753638510519725,-1.64381577038274,0.00580088877884441,-0.0599417151850182,-0.0411452996930793,1.3955186523628,-0.941132596183919,-0.941132596187305,-0.114326533940391,0.114326533938277,0.813557300196581,0.741890241415882,-0.748717475122538,-0.0400223662290175,-0.88379878477594,-0.347803404322198,-1.56432765393221,0.648529386761486,-1.14863377830983,-1.14863377830958,-1.59465933680758,1.39408767119267,-0.7988261777485,1.01756352134436,-1.08192728049541,0.018316420925314,0.529912923285436,-0.562577148630909,-0.562577148630695,0.371392366707099,-0.371392366705837,1.65980666704243
1024.4096,0.27857017809458,-0.651658725322868,-0.070207284934125,0.879547587035447,-1.73440906877395,-1.73440906877414,0.108173521398219,-0.630727362941751,-0.289773437218657,-0.677225552571015,1.75162970709907,-0.677225552570557,0.643046487235905,-0.818970975610869,0.135768289894855,-0.53343078451106,-0.585092041579764,-1.6811945445386,-1.6818412048758,0.767706737710406,-1.68184120487732,0.0249893337575983,-0.0801076388071346,-0.0322846961931977,1.41345394814121,-0.965988702724094,-0.96598870272751,-0.144493479353869,0.144493479351787,0.822269323824605,0.746153108064271,-0.760547259862702,-0.0495485300781814,-0.883351878529821,-0.341458180310843,-1.55760684503482,0.650101257530044,-1.18467708955216,-1.18467708955186,-1.58807649442875,1.3969590349384,-0.779223012104973,1.02360632227721,-1.11169129409742,-0.0129360079534849,0.525683425500268,-0.619136447560953,-0.619136447560738,0.401784484538239,-0.40178448453698,1.65876372567697
1024.512,0.30319215050535,-0.671183636862405,-0.0587245986732245,0.902191111542795,-1.7059190915134,-1.70591909151356,0.10429982629243,-0.635464740487817,-0.29620916562278,-0.680769655903428,1.76545698040692,-0.680769655902938,0.692924689569074,-0.828405068200024,0.18499554102152,-0.582941989646715,-0.536399104691889,-1.71125804066821,-1.71797937535322,0.78073684654585,-1.71797937535475,0.0427998542038284,-0.0991911815225179,-0.0243580415490754,1.43016967367863,-0.988959807008222,-0.98895980701164,-0.175845353358948,0.175845353356891,0.829896249757848,0.751047730809137,-0.772381075943843,-0.058326396904917,-0.88281759733906,-0.334493199037504,-1.55016874096647,0.650335721546876,-1.2199555041038,-1.21995550410345,-1.58118987723281,1.39930730226699,-0.75995446395556,1.02838051080344,-1.14122192073916,-0.0457101563448027,0.520161440097712,-0.674673621369075,-0.674673621368855,0.429948691349824,-0.429948691348571,1.65599445812838
1024.6144,0.32754444861099,-0.689404303295038,-0.0468610999527999,0.923081792561302,-1.67527708809575,-1.6752770880959,0.0998486124483729,-0.638865335235745,-0.302347264186697,-0.683238168260771,1.77678254626051,-0.683238168260254,0.743159800341364,-0.837353560925647,0.234970740057273,-0.631787200751651,-0.486900193984583,-1.73913022701091,-1.75220108226472,0.792745941049627,-1.75220108226626,0.0592014748009465,-0.117097507027248,-0.0173289478297917,1.44560253460527,-1.01004546496833,-1.01004546497173,-0.208290455709475,0.208290455707433,0.836388486132172,0.756593516691949,-0.784224523948557,-0.0663397430385055,-0.882192831141279,-0.326925139878429,-1.54202504496715,0.649206330109197,-1.25441009886779,-1.25441009886739,-1.57399216071384,1.40113265555447,-0.741004415825739,1.031925819874,-1.17046054280323,-0.0798697757686808,0.513413322268114,-0.729107848500181,-0.729107848499948,0.455892882678274,-0.455892882677028,1.65150221863225
1024.7168,0.351590964922204,-0.706273396348116,-0.0346249422674843,0.942156093713627,-1.64256697071913,-1.64256697071922,0.0948153881604517,-0.640892680187473,-0.308169376951567,-0.684671373418635,1.78562632832987,-0.684671373418108,0.793748740200737,-0.845817379352955,0.285689768999801,-0.679887579343853,-0.436686149129409,-1.76477950479503,-1.78448318388089,0.803754536116981,-1.78448318388244,0.0741695502066383,-0.133738149974788,-0.0111578750406913,1.45969268922094,-1.02925436980609,-1.02925436980949,-0.24173255725311,0.241732557251095,0.841699337781744,0.762802024785924,-0.79608290277963,-0.0735813297920066,-0.881476288045346,-0.318772764217802,-1.53319199188244,0.646692308807523,-1.28798139481175,-1.28798139481127,-1.56647681638579,1.40243554322515,-0.722357961514282,1.03428584467313,-1.1993481109509,-0.115272450057962,0.505509775952774,-0.782359774926748,-0.782359774926504,0.479634448860426,-0.479634448859184,1.64529623672415
1024.8192,0.375295267980603,-0.721753331969868,-0.0220290765297104,0.959356916558304,-1.60788344268683,-1.6078834426869,0.0891985507326073,-0.641517103041056,-0.313658702986041,-0.685113758521093,1.7920175040904,-0.685113758520557,0.844686807651475,-0.853801902610375,0.337143503254258,-0.727167993085116,-0.38585036974425,-1.78818411483445,-1.81480832138235,0.813786231252877,-1.81480832138391,0.0876858333864532,-0.149031443960409,-0.00580238945085619,1.47238418826536,-1.04660412958611,-1.04660412958948,-0.276071451308862,0.276071451306902,0.845785295656037,0.769676915069082,-0.807961021873578,-0.080052732519756,-0.88066870632822,-0.310056684346934,-1.52369042108431,0.642778865244211,-1.32060951020018,-1.32060951019967,-1.55863825036966,1.40321667072362,-0.704001721594569,1.03550761920438,-1.22782529433465,-0.151770409764424,0.496525335014052,-0.834351704557276,-0.834351704557025,0.501199934068829,-0.501199934067595,1.63739164000806
1024.9216,0.398620753628405,-0.735816187407699,-0.00909108627109347,0.974633885621739,-1.57133150007231,-1.57133150007231,0.082999448657763,-0.64071569132597,-0.318799918419182,-0.684613772486874,1.79599428471072,-0.684613772486342,0.895967305220825,-0.861316752790451,0.389317542758199,-0.773557232245562,-0.334488456956995,-1.80933209094451,-1.843164618819,0.822867329333123,-1.84316461882056,0.0997385012227718,-0.162902883443654,-0.00121742442685082,1.48362539199922,-1.06212098879174,-1.06212098879512,-0.311203542609654,0.311203542607778,0.848606303972508,0.777213996680733,-0.819863042500479,-0.0857640870944279,-0.879773057868912,-0.300799112970611,-1.51354581883455,0.637457443150882,-1.35223433162073,-1.35223433162019,-1.55047192616551,1.40347699943478,-0.685924109835878,1.03564119324464,-1.25583267700105,-0.189211408099685,0.486537814225716,-0.885007813934425,-0.885007813934163,0.520624629353796,-0.520624629352569,1.62780944817445
1025.024,0.421530809900007,-0.748443519468454,0.00416703443634624,0.987943597748129,-1.53302583404584,-1.53302583404579,0.0762224001502961,-0.638472190944044,-0.323579097167784,-0.683223565275558,1.79760364372485,-0.683223565275029,0.947581178532507,-0.86837553506699,0.442191992849531,-0.818988208675355,-0.282697831390525,-1.8282211528549,-1.8695453642614,0.831026421296196,-1.86954536426297,0.110322137294583,-0.175285424840774,0.00264445183132031,1.49336936339974,-1.07583949795078,-1.07583949795413,-0.347022465996696,0.347022465994898,0.850126006101569,0.78540136595233,-0.831792345691873,-0.0907337622254484,-0.878794735364213,-0.291023597093736,-1.50278832306337,0.63072592355256,-1.38279569785734,-1.38279569785679,-1.54197447268426,1.4032177548991,-0.668115550312437,1.03473920884775,-1.28331099337458,-0.227439650041823,0.475627735459183,-0.93425438780496,-0.934254387804689,0.537952112018033,-0.537952112016815,1.61657653639079
1025.1264,0.443988998591679,-0.759626097321503,0.0177191566829647,0.99924984128339,-1.49309015659897,-1.49309015659886,0.0688746671532517,-0.634776854802973,-0.327983641424031,-0.680998708248952,1.79690097963869,-0.680998708248445,0.999516672372115,-0.874995541297745,0.495741290326631,-0.863398125913244,-0.230577339569223,-1.84485853271552,-1.8939486825081,0.838293965700374,-1.89394868250966,0.119437675915884,-0.186119742929146,0.00583275389838752,1.50157424475247,-1.08780214110973,-1.08780214111305,-0.383419722113756,0.383419722112044,0.850311974453142,0.794219619785931,-0.843751423843642,-0.094987971173551,-0.877741712368488,-0.280754745943436,-1.49145268459283,0.622588780973126,-1.41223360699014,-1.41223360698955,-1.53314378766236,1.40244045197413,-0.650568652537736,1.03285647365042,-1.31020139408738,-0.266296766844654,0.463877740048941,-0.982020066600925,-0.982020066600653,0.553233745765061,-0.553233745763854,1.60372556536097
1025.2288,0.465959256085522,-0.769363568260131,0.0315353396434188,1.00852379115344,-1.45165647371663,-1.45165647371647,0.0609663891633321,-0.629626261693944,-0.33200223035549,-0.677997894810275,1.79394969889968,-0.677997894809789,1.05175901645947,-0.881197434368339,0.549934076625345,-0.906728610775161,-0.178226856802977,-1.85926072756905,-1.91637721561484,0.844701880195961,-1.91637721561641,0.127092316074056,-0.195354456947264,0.00839878175122435,1.50820362242025,-1.0980589340386,-1.09805893404188,-0.420285317819802,0.420285317818168,0.849135928239522,0.803642137260756,-0.855741797796605,-0.0985603335767606,-0.876624663718007,-0.270017963555548,-1.47957817770862,0.613057200659408,-1.44048846065369,-1.44048846065308,-1.52397914103511,1.40114693932637,-0.633278349970895,1.03004953701439,-1.33644573540993,-0.305622818157167,0.451372003904669,-1.02823609609351,-1.02823609609323,0.566528148663229,-0.566528148662025,1.58929487707176
1025.3312,0.487406108213623,-0.777664074663696,0.0455821878900925,1.01574417783557,-1.40886431991724,-1.40886431991701,0.0525104802303421,-0.623023122267915,-0.335624794337412,-0.674282623064071,1.78882072955801,-0.674282623063615,1.10429015528572,-0.887004924854949,0.604733125943484,-0.948925808007518,-0.125746884128479,-1.87145317769823,-1.93683782373745,0.850283148673421,-1.93683782373902,0.133299412073195,-0.202946328212488,0.0103953158952757,1.51322687255351,-1.10666700107558,-1.10666700107882,-0.457508405598223,0.457508405596678,0.846573937243019,0.813635428012102,-0.867763960869139,-0.101491390944166,-0.875457037222927,-0.258839191296202,-1.46720845245755,0.602149153368722,-1.46750134558487,-1.46750134558418,-1.51448127063816,1.39933945625855,-0.616241998685653,1.02637627986081,-1.36198688284833,-0.345257293369983,0.438195668847404,-1.07283657367687,-1.07283657367658,0.577900629408064,-0.577900629406869,1.5733283583436
1025.4336,0.508294885962733,-0.784543836096579,0.0598232256048881,1.02089742148519,-1.3648599608403,-1.36485996084001,0.0435224841875883,-0.614976081612011,-0.338842525056606,-0.669916865132072,1.78159199110946,-0.669916865131665,1.15708852679208,-0.892444442580738,0.660095331831586,-0.989940446844848,-0.0732381331994137,-1.88146987937739,-1.95534131187496,0.855071451425753,-1.95534131187654,0.138078340194254,-0.208860420941384,0.0118763108513329,1.51661947298667,-1.11369012868187,-1.11369012868507,-0.494977922644921,0.494977922643447,0.842606607792388,0.824159538959212,-0.879817341700125,-0.10382807580678,-0.874255074478549,-0.247244660074346,-1.45439132544638,0.589889419810396,-1.49321434167541,-1.49321434167467,-1.50465246048183,1.3970206956677,-0.599459426922588,1.02189552067124,-1.38676901441049,-0.385040089128363,0.42443429585403,-1.11575869152437,-1.11575869152408,0.587422596676138,-0.587422596674944,1.5558752771758
1025.536,0.528591928741961,-0.79002670248064,0.0742192738478124,1.0239777230038,-1.31979556861998,-1.31979556861959,0.0340203773677819,-0.605499518944272,-0.341647931572464,-0.664966728709805,1.77234784031514,-0.664966728709445,1.21012888214245,-0.897544800806534,0.715971745171381,-1.02972788613372,-0.0208010974825,-1.88935294207746,-1.97190218481171,0.859100833616486,-1.97190218481328,0.141454333946966,-0.213070213311554,0.012896587771852,1.51836326980064,-1.11919828913329,-1.11919828913644,-0.532583230568684,0.532583230567288,0.837219249415111,0.835168504736953,-0.891900271684575,-0.10562313442969,-0.873037783817134,-0.235260650610744,-1.44117851177576,0.576309560469089,-1.51757084847451,-1.51757084847371,-1.49449659955158,1.39419387495056,-0.582932927683861,1.01666663341755,-1.41073791249249,-0.424812454296125,0.410173340675516,-1.15694298180689,-1.15694298180659,0.595170955043397,-0.595170955042209,1.53699009535421
1025.6384,0.548264772710902,-0.794143672418144,0.0887288315448866,1.02498710918462,-1.27382836940966,-1.27382836940914,0.0240243144875985,-0.594613335167882,-0.344034940561464,-0.65950011450966,1.76117850014643,-0.659500114509353,1.26338213384072,-0.902336849060931,0.77230765209188,-1.06824813971897,0.0314643879629077,-1.89515209598008,-1.986538431581,0.862405419371124,-1.98653843158257,0.143458279149737,-0.215557643150757,0.0135115273520588,1.51844669535492,-1.12326713186534,-1.12326713186847,-0.570214752267736,0.57021475226641,0.830402021235454,0.846610835931373,-0.904009949021142,-0.106934500264631,-0.87182686902872,-0.222913261866151,-1.42762530325758,0.561447831166123,-1.54051592997712,-1.54051592997624,-1.48401922616818,1.39086282021787,-0.566667195074893,1.01074917885928,-1.43384124532606,-0.464417901553539,0.395497649463413,-1.19633357120772,-1.19633357120742,0.601227502961989,-0.601227502960798,1.5167322550713
1025.7408,0.567282334284853,-0.796932364135625,0.103308474461474,1.02393543636085,-1.22711975776084,-1.22711975776017,0.0135563279599486,-0.58234271369009,-0.345999022440548,-0.653586367609354,1.74817946609669,-0.653586367609101,1.3168152261106,-0.906853111051007,0.829042687543366,-1.10546588027452,0.0834595935114378,-1.89892415214959,-1.99927134147085,0.865019161100164,-1.99927134147243,0.14412646408352,-0.216313076008906,0.0137767667398963,1.51686494152592,-1.12597744573761,-1.12597744574069,-0.607764599008291,0.607764599007011,0.82215005657793,0.858430052359364,-0.916142402174641,-0.107824612971732,-0.870646616418333,-0.210228190910325,-1.4137901996438,0.545349047200948,-1.56199668249404,-1.56199668249311,-1.47322756405711,1.38703206565319,-0.550669214165885,1.00420255539828,-1.45602884413568,-0.503703084936257,0.380490972325355,-1.23387844781722,-1.23387844781693,0.605678340693589,-0.605678340692399,1.49516593555315
1025.8432,0.585615102042595,-0.79843643599716,0.117913284618914,1.02084036056311,-1.17983438255826,-1.17983438255745,0.00264000487735233,-0.568717844859551,-0.347537315399197,-0.647295915771667,1.73345087602395,-0.647295915771467,1.37039103794501,-0.911127408596579,0.886110995534163,-1.1413504174197,0.13508734202599,-1.90073241612538,-2.01012535443307,0.866975606793205,-2.01012535443465,0.143500287826264,-0.215335194353342,0.0137479055616682,1.51362009285126,-1.12741459782856,-1.12741459783163,-0.645127180238052,0.645127180236819,0.812463564926514,0.870565269464896,-0.928292461920043,-0.10835968470506,-0.869523742465775,-0.197230529299671,-1.39973450089095,0.528064400451133,-1.58196262723382,-1.58196262723284,-1.46213055158191,1.38270696438569,-0.534948114368647,0.997085671830211,-1.47725297404388,-0.542518637294808,0.365235499423207,-1.26952973441541,-1.26952973441514,0.608613283133134,-0.608613283131948,1.47235978067119
1025.9456,0.603235343638267,-0.798704970959283,0.132497308988044,1.01572727583441,-1.13213922871641,-1.13213922871543,-0.00869982309544583,-0.553773611471898,-0.348648713743361,-0.640699891659595,1.71709683947182,-0.640699891659455,1.42406834466212,-0.915194475933377,0.943441461917407,-1.1758756473185,0.18625245091503,-1.9006460560072,-2.01912794826242,0.868307673895501,-2.01912794826401,0.141625937483523,-0.212630814697291,0.0134802296345813,1.50872121839032,-1.12766795437748,-1.12766795438054,-0.682199790151523,0.682199790150331,0.801347910053527,0.882951836050492,-0.940453751656878,-0.108608927751446,-0.868487204863931,-0.183944577865232,-1.38552186615233,0.509651234546454,-1.60036611397579,-1.60036611397474,-1.45073885870884,1.37789380394148,-0.51951498773892,0.989456642075722,-1.49746859103507,-0.580719957222272,0.3498114321245,-1.30324395668332,-1.30324395668307,0.610125265207426,-0.610125265206238,1.44838660384779
1026.048,0.620117323798662,-0.797791848811848,0.147014033110883,1.00862921235828,-1.08420272444517,-1.08420272444402,-0.020437338537829,-0.537549233419657,-0.349333884482404,-0.633869747035661,1.69922474637002,-0.633869747035575,1.47780186291728,-0.919089567327779,1.00095804562228,-1.20901997665913,0.236862167466631,-1.89873943238977,-2.02630956339341,0.869047425861261,-2.02630956339501,0.138554045986562,-0.208214640164486,0.0130284616320603,1.50218441440012,-1.12683028887952,-1.12683028888255,-0.718883165666309,0.71888316566515,0.788813660152583,0.895522011705786,-0.952618701432884,-0.10864376411558,-0.867567980339832,-0.170393677475263,-1.37121784189398,0.490172782065164,-1.61716270650677,-1.61716270650567,-1.43906488497195,1.37259992013503,-0.504382669313411,0.981372504083057,-1.51663358268893,-0.618167939203276,0.334296601137857,-1.33498229569277,-1.33498229569254,0.610309732843873,-0.610309732842688,1.42332307700492
1026.1504,0.636237520874901,-0.795755131264332,0.161416847547868,0.999586683797229,-1.03619389036601,-1.03619389036471,-0.032545920876015,-0.520087875110036,-0.349595191736662,-0.626876874691826,1.67994459011576,-0.626876874691788,1.53154238551031,-0.922848062317615,1.05858021235768,-1.24076622691318,0.28682659208743,-1.89509140739484,-2.03170355944737,0.869225855574642,-2.03170355944897,0.134339337435625,-0.202108959154618,0.0124465392124288,1.49403278870412,-1.12499718310375,-1.12499718310677,-0.755082007841245,0.755082007840136,0.774876603007095,0.908205664879117,-0.964778584277689,-0.108537038042911,-0.866798812032351,-0.156600055180048,-1.35688936242603,0.46969786487811,-1.63231152427694,-1.63231152427576,-1.42712273978805,1.36683380752384,-0.489565485935018,0.972888962453342,-1.53470899123356,-0.65472964568553,0.318766134059332,-1.36471081314851,-1.3647108131483,0.609264021991476,-0.609264021990301,1.39724940504625
1026.2528,0.651574826723307,-0.792656482373768,0.175659483989716,0.988647476961001,-0.988281532065219,-0.988281532063769,-0.0449982535448486,-0.501436234994533,-0.349436541570333,-0.619792251574131,1.65936833377445,-0.619792251574131,1.58523699177405,-0.92650507863247,1.11622344764396,-1.27110152120906,0.336059075752205,-1.88978465377669,-2.03534618549695,0.868872689318199,-2.03534618549856,0.129040263458416,-0.194343307760411,0.0117874108156276,1.48429638083744,-1.12226642852517,-1.12226642852815,-0.790705456408474,0.790705456407408,0.759557719465286,0.920930967730423,-0.97692356844579,-0.108362252027138,-0.866213928109105,-0.14258469004515,-1.34260422932995,0.448300556519771,-1.64577553361377,-1.64577553361251,-1.41492821450668,1.36060522710839,-0.4750789924869,0.964060147376511,-1.55165920698043,-0.690278915755691,0.30329216434757,-1.39240063469355,-1.39240063469336,0.607086731916758,-0.60708673191559,1.37024897997311
1026.3552,0.666110715831742,-0.788560639240552,0.189696402343038,0.975866379228854,-0.940633472153482,-0.940633472151891,-0.0577663761447988,-0.481644145066071,-0.348863182964015,-0.612686104689932,1.63760932903339,-0.612686104689981,1.63882931073369,-0.930095104324381,1.17379981532412,-1.30001715364107,0.384476576473472,-1.88290498235734,-2.03727654205494,0.868016227763656,-2.03727654205656,0.122718631110328,-0.184954112950871,0.0111028359736292,1.47301201532375,-1.11873743457006,-1.11873743457302,-0.825667510449757,0.825667510448739,0.742883111454332,0.93362506645563,-0.989042779193725,-0.108192843838583,-0.865848734080389,-0.128367203498963,-1.328430577841,0.426059804176517,-1.65752179127041,-1.65752179126908,-1.40249875300459,1.35392531082252,-0.460939711059215,0.954938382187162,-1.56745211623023,-0.724696900166041,0.287943568664268,-1.41802808134851,-1.41802808134833,0.60387709986632,-0.603877099865158,1.342408005301
1026.4576,0.679829372847173,-0.783534939502051,0.203483116703501,0.961304842245492,-0.89341581716297,-0.893415817161212,-0.0708217037425194,-0.460764201826571,-0.347881498288156,-0.60562758546148,1.61478178127163,-0.605627585461572,1.69225981868952,-0.933651658236878,1.23121853443368,-1.32750844466311,0.431999966555843,-1.87454070446911,-2.03753652397772,0.866683231352406,-2.03753652397934,0.115439217973832,-0.173984325108177,0.0104431774255881,1.46022308776634,-1.11451064708446,-1.11451064708742,-0.859887393795313,0.859887393794346,0.724883883940511,0.94621471491829,-1.00112436748768,-0.108101515861686,-0.865739482561374,-0.113965778246008,-1.31443633930057,0.403059006046017,-1.66752163912167,-1.66752163912029,-1.38985342043481,1.34680666356424,-0.447164870791116,0.945573959286534,-1.58205919947486,-0.757872517469235,0.272785720725699,-1.44157475234281,-1.44157475234264,0.599734388311147,-0.599734388309991,1.31381508297377
1026.56,0.692717778435398,-0.777648907964251,0.216976459071643,0.9450305894367,-0.846792254953282,-0.846792254951409,-0.0841350225526193,-0.438851440452928,-0.346498798889853,-0.598684430457061,1.59100024968318,-0.598684430457206,1.74546616517629,-0.937206989005163,1.28838656035085,-1.35357458869821,0.478554288721163,-1.86478204284365,-2.03617074534835,0.864898842211011,-2.03617074534998,0.10726936972281,-0.161483043133739,0.00985717618515619,1.44597928546346,-1.1096869811561,-1.10968698115905,-0.893289863673957,0.89328986367306,0.705595980694647,0.958626868820025,-1.01315558794155,-0.108159622883283,-0.865922923287858,-0.0993971131073528,-1.30068871065837,0.37938553838901,-1.67575085009474,-1.67575085009332,-1.37701286906392,1.33926346800854,-0.433772136183635,0.936014929734448,-1.59545558935308,-0.789702836296509,0.25788025781074,-1.46302757416141,-1.46302757416127,0.594757301278421,-0.59475730127728,1.28456075786919
1026.6624,0.704765770674268,-0.770973899966101,0.230134796288039,0.927117183138272,-0.800923380642763,-0.80092338064075,-0.0976764577488487,-0.415963056567714,-0.34472312463982,-0.591922597195872,1.5663791758293,-0.591922597196059,1.79838353350458,-0.94079182398446,1.34520916903811,-1.37821849467082,0.524068961752387,-1.85372059143452,-2.03322644709603,0.862686527509465,-2.03322644709765,0.0982785835049998,-0.14750513342111,0.00939171292037758,1.43033624434952,-1.10436727534035,-1.10436727534324,-0.925805457705477,0.925805457704652,0.68505997049665,0.970789244141134,-1.02512289134685,-0.108436620503275,-0.866435934745177,-0.0846764226664721,-1.28725364145028,0.355130228080497,-1.68218973425689,-1.68218973425542,-1.36399930204553,1.33131159549268,-0.420779319490083,0.926306909915051,-1.60762009806096,-0.820093391890412,0.243284868713515,-1.48237883401869,-1.48237883401856,0.589043444133287,-0.589043444132152,1.25473701978002
1026.7648,0.715966106247298,-0.763582792808944,0.242918224471622,0.90764356188708,-0.755966054520126,-0.755966054517958,-0.111415409841118,-0.392158174507058,-0.34256304351915,-0.585405886650005,1.54103243926035,-0.585405886650231,1.85094504447624,-0.944435173127293,1.40159055042518,-1.40144661357295,0.568477938938443,-1.84144880949922,-2.02875338208255,0.860068040118347,-2.02875338208418,0.0885380889410353,-0.132110840627784,0.00909157286906606,1.41335514083119,-1.09865177153732,-1.09865177154016,-0.957370675994548,0.95737067599381,0.663320776934107,0.982630843288411,-1.03701203320931,-0.108999571816787,-0.86731513981097,-0.0698174837746295,-1.2741953435672,0.330386770750946,-1.68682321399866,-1.68682321399713,-1.35083643305439,1.32296871614395,-0.408204085624637,0.916492901087976,-1.61853521190844,-0.848958439849396,0.229053118015021,-1.49962620896977,-1.49962620896965,0.582688827656425,-0.582688827655298,1.22443677111152
1026.8672,0.726314532510295,-0.755549717660399,0.25528875373084,0.886693543092349,-0.712072801612129,-0.712072801609854,-0.125320468735635,-0.367497660518676,-0.340027458568165,-0.579195577817575,1.51507294096642,-0.579195577817839,1.90308220294056,-0.948164184322521,1.45743441305454,-1.42326874877697,0.611719825762773,-1.8280595343006,-2.02280367138831,0.857063410993686,-2.02280367138994,0.0781204378558604,-0.11536538732726,0.00899923130596757,1.39510221340094,-1.09263961730233,-1.09263961730511,-0.987928101362577,0.987928101361925,0.640427345813964,0.994082443488965,-1.04880818986476,-0.109912708472554,-0.868596510164586,-0.0548327223303231,-1.26157582410005,0.30525109833496,-1.68964086780372,-1.68964086780215,-1.33754943692278,1.31425439575959,-0.396063662736311,0.906613113440612,-1.62818704326612,-0.8762211461046,0.215234313698423,-1.51477278987125,-1.51477278987114,0.575787404473874,-0.575787404472755,1.19375327395007
1026.9696,0.735809861986249,-0.746949830184367,0.267210476910358,0.864355278614067,-0.669391262187442,-0.669391262185017,-0.139359322392998,-0.342043980598074,-0.337125437391731,-0.573350092698074,1.48861221326653,-0.573350092698379,1.95472537558248,-0.952004044132236,1.51264459129948,-1.44369785388539,0.65373796622264,-1.81364550961646,-2.01543162979484,0.853690991512468,-2.01543162979647,0.067099106124939,-0.0973385635160705,0.00915466322337115,1.37564820970953,-1.08642838373967,-1.08642838374239,-1.01742646500042,1.01742646499984,0.616432250054076,1.00507703384668,-1.0604960676056,-0.111237044311712,-0.870314966312977,-0.0397333307156677,-1.24945444155037,0.279820701490668,-1.69063693741654,-1.69063693741495,-1.32416488759344,1.30519016935593,-0.384374569570672,0.896704793464964,-1.63656523858467,-0.901813713060643,0.201873412195467,-1.52782709276003,-1.52782709275992,0.568430628218908,-0.568430628217799,1.162779586555
1027.072,0.744454031250807,-0.737859114792678,0.278649709687657,0.840720658860639,-0.628063692087217,-0.628063692084695,-0.153498675050989,-0.315861096075122,-0.333866073585947,-0.567924694917354,1.46176004964254,-0.567924694917691,2.00580427914594,-0.955977915562925,1.56712563779838,-1.46274983076357,0.694480510125826,-1.79829893784751,-2.00669356489036,0.84996755001893,-2.00669356489199,0.0555481061529197,-0.0781043097599359,0.0095951721929154,1.35506776415928,-1.08011359208075,-1.08011359208342,-1.04582066632066,1.04582066632018,0.591391242725235,1.0155501879303,-1.07205999017324,-0.113030039159219,-0.872503982650076,-0.0245294048378045,-1.23788748789008,0.254193918159022,-1.68981029561958,-1.68981029561797,-1.31071068020389,1.29579958158112,-0.373152371295516,0.886802064937851,-1.6436628547108,-0.925677443455422,0.189010949282021,-1.5388030494212,-1.53880304942111,0.560707038792561,-0.560707038791455,1.13160799473227
1027.1744,0.752252125032944,-0.728354205558916,0.289575093891442,0.815884679715529,-0.588226499811786,-0.588226499809175,-0.167704188710392,-0.289014378903569,-0.330258381431814,-0.562971219556618,1.43462414810141,-0.562971219556998,2.05624844921666,-0.960106897674988,1.62078337844825,-1.4804433399477,0.73390047293355,-1.78211106364224,-1.99664755993136,0.845908414144857,-1.99664755993298,0.0435416093968165,-0.0577402958283979,0.0103552361290182,1.33343873029511,-1.07378823976072,-1.07378823976334,-1.07307175696234,1.07307175696194,0.565362786406036,1.02544036399936,-1.08348394975014,-0.115345303820671,-0.875195208371798,-0.00923008580118026,-1.22692779713943,0.228469216657296,-1.68716437487327,-1.68716437487165,-1.2972159329724,1.28610818126588,-0.362411478520212,0.876935797578726,-1.64947621764046,-0.947762740578524,0.17668299100961,-1.54771996954265,-1.54771996954257,0.552701886204786,-0.552701886203686,1.10032945001156
1027.2768,0.759212347857838,-0.718512200326217,0.299957660192105,0.789944806267316,-0.55000980175803,-0.55000980175529,-0.181940463248836,-0.261570524798678,-0.326311224373726,-0.558537834410884,1.40730977199552,-0.5585378344113,2.10598765569863,-0.96440998841091,1.67352540527199,-1.49679962746591,0.771955792479269,-1.76517179105252,-1.98535324870954,0.841527649904887,-1.98535324871116,0.0311535790543838,-0.0363274921612042,0.0114663722751599,1.31084151195911,-1.06754231427389,-1.06754231427648,-1.09914689915812,1.09914689915779,0.538407603980897,1.0346891323497,-1.0947516070495,-0.118232329117329,-0.878418112854095,0.00615631061297249,-1.21662437627208,0.202744520486846,-1.68270706047917,-1.68270706047756,-1.2837108647662,1.27614346038289,-0.352164999029356,0.86713351372869,-1.65400476827508,-0.968029036019348,0.164921111265295,-1.55460247029159,-1.55460247029153,0.544496804252944,-0.544496804251858,1.06903304007098
1027.3792,0.765345933302857,-0.708410450400228,0.309770850056261,0.763000372689363,-0.513536977877607,-0.513536977874744,-0.196171063787834,-0.233597448713283,-0.322033275578751,-0.55466883034126,1.37991944034946,-0.554668830341709,2.15495224339837,-0.968904039253282,1.72526149108163,-1.51184236292684,0.808609378593936,-1.7475693297606,-1.97287158175183,0.836838272825479,-1.97287158175344,0.0184574115546477,-0.0139497312086155,0.0129570220251007,1.28735843529369,-1.06146228743442,-1.06146228743696,-1.12401930592822,1.12401930592795,0.510588290902587,1.04324133891197,-1.10584623387667,-0.121736219886232,-0.882199660650864,0.0216221867786683,-1.20702205589865,0.177116615517773,-1.67645055694403,-1.67645055694243,-1.27022664813331,1.26593473992925,-0.342424637006985,0.857419337678443,-1.65725089320019,-0.986444635588218,0.153752408600012,-1.55948037572791,-1.55948037572786,0.536169539096899,-0.536169539095822,1.03780551781817
1027.4816,0.77066699730817,-0.698126322905083,0.318990503700395,0.735152036507429,-0.478924218680731,-0.478924218677797,-0.210358586194624,-0.205164159004963,-0.31743300004494,-0.551404429521905,1.35255265114172,-0.55140442952238,2.20307340376845,-0.973603704363744,1.77590393083271,-1.52559748013025,0.843829148869802,-1.72938986282512,-1.95926457960937,0.831852487172922,-1.95926457961096,0.00552558703425589,0.00930673662459087,0.0148524519713994,1.26307317029514,-1.05563059466654,-1.05563059466904,-1.14766816388851,1.14766816388829,0.481968992180851,1.05104522062471,-1.11675060558538,-0.125897424605539,-0.886564019453954,0.0371605744871057,-1.19816116911119,0.151680639178417,-1.66841123878285,-1.6684112387813,-1.25679524563648,1.25551301889924,-0.333200626070806,0.84781398694024,-1.65921974384843,-1.0029864889481,0.143199566164185,-1.56238859357398,-1.56238859357395,0.527793733664052,-0.527793733662985,1.00673089386191
1027.584,0.775192355502774,-0.687736945508632,0.327594826196535,0.706501271037931,-0.446280070120467,-0.446280070117411,-0.224464740149309,-0.176340617248973,-0.31251864384233,-0.548780600848364,1.32530562564642,-0.548780600848885,2.25028340521076,-0.978521395891279,1.8253678320581,-1.53809301452533,0.877588045991098,-1.71071723126715,-1.9445950751804,0.826581944074265,-1.94459507518198,-0.00757066475062634,0.0333536811731203,0.0171746705133488,1.23807017380941,-1.05012511473317,-1.05012511473563,-1.17007853227262,1.17007853227246,0.452615109281388,1.05805248759522,-1.12744686216818,-0.130751465885766,-0.891532302633581,0.0527650518147806,-1.19007727306659,0.126529611925717,-1.65860949255873,-1.65860949255722,-1.24344924199243,1.24491080336866,-0.324501690867253,0.838334800822542,-1.65991905538986,-1.01763990491333,0.133280944124911,-1.56336697689648,-1.56336697689647,0.519438765530233,-0.519438765529178,0.975890071466419
1027.6864,0.77894132255272,-0.67731894436136,0.335564341723593,0.677149864142715,-0.415704993386878,-0.415704993383693,-0.238450435116722,-0.147197592740183,-0.307298222726149,-0.546828884583829,1.29827106043197,-0.546828884584386,2.29651580615211,-0.983667253652847,1.87357137568566,-1.54935893830921,0.909864036111987,-1.69163263756583,-1.92892645418827,0.821037999674178,-1.92892645418983,-0.0207616726895009,0.0581013176658632,0.0199423678640971,1.21243412194797,-1.04501866620039,-1.04501866620282,-1.19124121057539,1.19124121057529,0.422593000097803,1.06421838320001,-1.13791635852324,-0.136328683898275,-0.89712234552551,0.0684296574891348,-1.18280091994239,0.101753973087681,-1.64706954808177,-1.64706954808031,-1.23022167660163,1.23416191845246,-0.316335041881061,0.828995798659164,-1.65935897399702,-1.03039823509989,0.124010689269686,-1.56246017466067,-1.56246017466067,0.511169631893813,-0.511169631892773,0.945360498877212
