time,S1-D1,S1-D8,S1-D9,S1-D15,S2-D1,S2-D2,S2-D3,S2-D9,S3-D1,S3-D2,S3-D16,S4-D2,S4-D3,S4-D5,S5-D3,S5-D4,S5-D5,S6-D2,S6-D5,S6-D17,S7-D6,S7-D7,S8-D6,S8-D7,S8-D18,S9-D3,S9-D4,S9-D9,S9-D11,S9-D19,S10-D8,S10-D9,S10-D10,S10-D11,S11-D8,S11-D10,S11-D20,S12-D10,S12-D11,S12-D12,S13-D4,S13-D11,S13-D12,S14-D10,S14-D12,S14-D21,S15-D13,S15-D14,S16-D13,S16-D14,S16-D22
1251.328,-1.04260238028113,0.0552658352568612,-0.878200629660839,0.170552709873469,0.543675169474347,0.543675169474149,NaN,0.810772272438661,-0.319994287240944,-1.88146752914953,-0.822537535424085,-1.88146752914932,0.334800531451661,-0.486280877204282,0.0882618546872721,0.519985914409358,-1.13469737136474,-0.062214458089918,-0.331975856126697,-0.532798635129993,-0.331975856129819,-0.152635314685339,-0.548173116087025,-0.473885491046131,-0.309101654976726,-0.166640691752105,NaN,1.23778532997547,-1.2377853299729,-0.202413923478827,-0.404270393965772,0.482148560640948,NaN,NaN,-2.19632643166427,-0.559793622339978,-1.18010176484419,-0.556944514551645,-0.556944514552957,NaN,0.0692498608225769,0.04926920298358,-0.728230314490065,0.685912163164773,-0.340225323233737,1.52374370281587,0.400314794851781,0.400314794852205,NaN,-1.27487564572689,1.36365620110268
1251.4304,-1.0415192155583,0.0370342295233527,-0.88766723113377,0.211226372994533,0.572222087870282,0.572222087870094,NaN,0.817125416038133,-0.315804998020385,-1.94068448514602,-0.811577575180813,-1.94068448514582,0.347182621517773,-0.478385312187532,0.102078404455307,0.494616985247328,-1.15193677961768,-0.107297014990636,-0.312699335682719,-0.564867389405948,-0.312699335685845,-0.160364639839831,-0.572253420801052,-0.495729474401511,-0.251444937735591,-0.189281537366957,NaN,1.25707428130893,-1.25707428130634,-0.166871779095132,-0.386361741387276,0.49896981262731,NaN,NaN,-2.24896298494975,-0.603865500808288,-1.15618684302088,-0.596630423041138,-0.596630423042479,NaN,0.0610203464696099,0.0175231119522214,-0.725173874645629,0.658064725656518,-0.368023868834592,1.50349853039444,0.417158248807226,0.417158248807642,NaN,-1.2545365360938,1.36716213791582
1251.5328,-1.04016640257855,0.018056672398782,-0.897324540916569,0.252189846966552,0.599975469010677,0.5999754690105,NaN,0.822580339735525,-0.310968506965365,-1.99811421840857,-0.800358806380347,-1.99811421840837,0.359833559528669,-0.471339317551262,0.115778642423184,0.468500508732523,-1.16831047813745,-0.152797541197504,-0.293216320856612,-0.596912642829107,-0.293216320859744,-0.166767964922805,-0.596685213547572,-0.516449705088793,-0.193582238862082,-0.212503150542093,NaN,1.27552347168897,-1.27552347168636,-0.131609889865949,-0.368278546290026,0.516130117439244,NaN,NaN,-2.30093345268946,-0.646828717867739,-1.13021914719405,-0.636778760851922,-0.636778760853288,NaN,0.0535383808411272,-0.0137665263918735,-0.720342842131292,0.62821334814617,-0.395382500867207,1.48248286525321,0.433779158834167,0.433779158834578,NaN,-1.23313241149491,1.36940428833726
1251.6352,-1.03855566817944,-0.00164422348176879,-0.90716987801485,0.293392584403509,0.626904213834094,0.626904213833928,NaN,0.827119280331612,-0.305484707129603,-2.05362825827835,-0.788885057656865,-2.05362825827816,0.372728992432922,-0.465168586853863,0.129331249724871,0.441708182152533,-1.18383174092418,-0.198629715367888,-0.273466017093399,-0.628896567097443,-0.273466017096529,-0.17189256726832,-0.621453867238952,-0.536085023217536,-0.135596200587429,-0.236287293563809,NaN,1.29311944613986,-1.29311944613724,-0.0966773390024951,-0.350043101658284,0.533609732314766,NaN,NaN,-2.35220824470286,-0.688648070566672,-1.10227765709391,-0.677390279635368,-0.67739027963676,NaN,0.0468365605302222,-0.0445725464724991,-0.713737549520122,0.596373157433912,-0.422284035005024,1.46081048606768,0.450158470767476,0.450158470767882,NaN,-1.21067233054927,1.37039097778316
1251.7376,-1.03670080207178,-0.02204341382405,-0.917200972793122,0.33478302065017,0.652980300335062,0.652980300334905,NaN,0.830729500492486,-0.299355118411748,-2.10710224830689,-0.777158426116491,-2.1071022483067,0.385842088663299,-0.459895207181903,0.142704256766934,0.414312772016917,-1.19851631435959,-0.244707436320655,-0.253392427344338,-0.660781675555679,-0.253392427347472,-0.175794163591241,-0.646540820040606,-0.554680427398401,-0.0775695153865293,-0.260612085613417,NaN,1.30984576073443,-1.3098457607318,-0.0621214058037758,-0.331678744532437,0.551390033010747,NaN,NaN,-2.40275614368043,-0.729291752335285,-1.07244627150816,-0.718463720951888,-0.718463720953301,NaN,0.0409442843806379,-0.0748717247276841,-0.705361761725703,0.562563065615234,-0.448712243878841,1.43859859547197,0.466277358335058,0.466277358335457,NaN,-1.18716630201634,1.370135207993
1251.84,-1.03461761001298,-0.0431133005670623,-0.927415856380922,0.376308860810694,0.6781789155626,0.678178915562455,NaN,0.833403406010268,-0.292583005674898,-2.15841654954726,-0.765179152289705,-2.15841654954707,0.399143409428888,-0.455537423667707,0.155865029089962,0.386387838990104,-1.21238254628427,-0.290945273513146,-0.232944946755401,-0.69253093790518,-0.232944946758533,-0.17853643192273,-0.671923430636605,-0.572286510709594,-0.019584656169881,-0.28545184678902,NaN,1.32568279208074,-1.32568279207809,-0.0279874719068655,-0.313209617904411,0.569453573323813,NaN,NaN,-2.45254424394414,-0.768731396403339,-1.04081342668601,-0.759995578290135,-0.759995578291564,NaN,0.0358876749159229,-0.104644619497311,-0.695222896597049,0.526805935393227,-0.474652009842546,1.41596724500903,0.482117387140861,0.482117387141254,NaN,-1.16262522035558,1.36865458907061
1251.9424,-1.03232384404346,-0.0648236291380304,-0.937812741122006,0.41791737020351,0.70247856350335,0.702478563503215,NaN,0.83513862060516,-0.285173490796582,-2.20745675404138,-0.752945520860021,-2.20745675404119,0.412600806477755,-0.452109434870627,0.168780263300369,0.358007466554511,-1.22545147406906,-0.337258885391019,-0.212078881227255,-0.724107929989327,-0.212078881230388,-0.180190514584723,-0.697574869167871,-0.588958898531967,0.0382763767677278,-0.310776957196664,NaN,1.34060759255757,-1.34060759255491,0.00568103880156502,-0.29466045706393,0.587784142274102,NaN,NaN,-2.50153790258876,-0.806942087616009,-1.00747170250606,-0.801979878804625,-0.801979878806064,NaN,0.0316895355540387,-0.133875390381055,-0.683332248590017,0.489128756193819,-0.50008946992285,1.39303877682182,0.497660661715336,0.497660661715722,NaN,-1.13706082822579,1.3659712484591
1252.0448,-1.02983910675795,-0.0871414062881465,-0.948389890120073,0.459555659561545,0.725861146536234,0.725861146536111,NaN,0.835938016391421,-0.277133649931157,-2.25411409778224,-0.740453785479215,-2.25411409778205,0.426179357032957,-0.44962121113861,0.181416005446968,0.329245994979967,-1.23774685462066,-0.383565392212766,-0.190755887691868,-0.755476990757594,-0.190755887695001,-0.180834507448471,-0.723464035564247,-0.604757688665986,0.0959322878344592,-0.336553731557082,NaN,1.35459378488611,-1.35459378488344,0.0388426858638639,-0.276056408033899,0.606366806504685,NaN,NaN,-2.54970069511534,-0.843902336400126,-0.972517435555345,-0.844407982964371,-0.844407982965812,NaN,0.0283693413080795,-0.162551597653436,-0.669705220838469,0.449562841608194,-0.525012148990065,1.36993728170261,0.51288995562798,0.512889955628359,NaN,-1.11048570956306,1.36211172041582
1252.1472,-1.02718473324974,-0.110030839680309,-0.959145479724368,0.501170962906472,0.748312021618136,0.748312021618027,NaN,0.835809703162922,-0.268472591620106,-2.2982857837061,-0.727698115284051,-2.2982857837059,0.439841339397581,-0.448078330978164,0.193737696861306,0.300177764564793,-1.2492951417109,-0.429783701660231,-0.168944339420115,-0.78660336906412,-0.168944339423246,-0.180552929867216,-0.74955549596707,-0.61974688266058,0.15330269656794,-0.362744317709887,NaN,1.3676114938806,-1.36761149387791,0.0714580053013639,-0.25742287562563,0.625187927414935,NaN,NaN,-2.59699437822954,-0.879594018340422,-0.936050339640887,-0.887268405270475,-0.887268405271918,NaN,0.0259432504835354,-0.190663978555698,-0.654361554283389,0.408144040206069,-0.549409072659734,1.34678805679889,0.527788831879783,0.527788831880154,NaN,-1.08291330768047,1.35710681616191
1252.2496,-1.02438366144661,-0.133453302698418,-0.970077466289618,0.542710909815081,0.769820033769893,0.769820033769796,NaN,0.834766977501323,-0.259201521475324,-2.33987523648014,-0.714670564008879,-2.33987523647994,0.453546246252485,-0.447481839183326,0.205710243385226,0.270876874542513,-1.26012543116202,-0.475834792361128,-0.146619609867853,-0.817453359142696,-0.146619609870982,-0.179436172731945,-0.775809433082542,-0.633993803361461,0.210308328554082,-0.389306635630923,NaN,1.37962732399291,-1.37962732399021,0.103489474835086,-0.238785392698049,0.644235149389682,NaN,NaN,-2.64337887241874,-0.91400228803596,-0.898173117744062,-0.930546665590925,-0.930546665592366,NaN,0.0244241277446933,-0.218206195741279,-0.637325526814722,0.36491293481716,-0.573270846621461,1.32371704940469,0.54234175514485,0.542341755145212,NaN,-1.05435796144058,1.35099147067655
1252.352,-1.02146029994743,-0.157367327398482,-0.981183466826342,0.584123793360578,0.790377529032841,0.790377529032758,NaN,0.832828231025561,-0.249333800353662,-2.37879230478453,-0.701361064601987,-2.37879230478433,0.467250830574328,-0.447828133679482,0.217298100808248,0.241416961778296,-1.27026938947028,-0.521641960179994,-0.123764262512484,-0.847994429165096,-0.123764262515612,-0.177579930863394,-0.802181613344227,-0.647568506593039,0.266871189188589,-0.416194367961509,NaN,1.39060439224143,-1.39060439223872,0.134901457125018,-0.220169503625712,0.663497363592197,NaN,NaN,-2.68881227428508,-0.947115474299997,-0.85899105249399,-0.974225177328421,-0.97422517732986,NaN,0.0238215698001919,-0.245174558147471,-0.618626106937509,0.319915015694882,-0.59658969515597,1.300850291099,0.556534188542728,0.556534188543083,NaN,-1.02483496261742,1.34380456393453
1252.4544,-1.01844039375608,-0.181728624734984,-0.992460653392871,0.625358831944059,0.809980348516866,0.809980348516795,NaN,0.830016818982513,-0.238884994064013,-2.4149534128591,-0.687757450769796,-2.41495341285889,0.480909181695213,-0.449108883139602,0.228465373554408,0.211870997643917,-1.27976116488015,-0.567131028760478,-0.100368141710298,-0.878195339341302,-0.10036814171342,-0.175084626566152,-0.828623379121505,-0.66054319863884,0.322914720560273,-0.443356999043031,NaN,1.40050241657427,-1.40050241657156,0.165660124418282,-0.201600659803443,0.682964653439279,NaN,NaN,-2.73325089629532,-0.978924958419029,-0.818611578696466,-1.01828316935591,-1.01828316935734,NaN,0.024141924588734,-0.271567720971945,-0.598297071820866,0.27320083656968,-0.619359463771978,1.27831333690735,0.570352667768152,0.570352667768499,NaN,-0.994360642994874,1.33558871927013
1252.5568,-1.01535088051437,-0.206490127049434,-1.00390565191046,0.666366421097248,0.828627804994628,0.828627804994572,NaN,0.826360894067186,-0.227872905616746,-2.44828165778658,-0.673845502445762,-2.44828165778637,0.494472833723963,-0.45131096989537,0.239175930752018,0.18231110059299,-1.2886372733006,-0.612230522563898,-0.0764283806376067,-0.908026241719879,-0.0764283806407221,-0.172054824017562,-0.855081670532632,-0.672991661860411,0.378363939852047,-0.47073988962919,NaN,1.40927785143351,-1.40927785143079,0.195733365931271,-0.18310412814238,0.702628224163817,NaN,NaN,-2.77664932327648,-1.00942503379178,-0.777143852620942,-1.06269663308473,-1.06269663308617,NaN,0.0253883128738431,-0.297386369873734,-0.576377110274472,0.22482616899716,-0.641575600179719,1.25623071854643,0.583784855148418,0.583784855148764,NaN,-0.962952490309417,1.32639008199816
1252.6592,-1.01221972975585,-0.231602048007219,-1.01551443612703,0.707098370604292,0.846322641681712,0.846322641681669,NaN,0.821893211962175,-0.216317583580244,-2.47870685492445,-0.65960900871155,-2.47870685492422,0.507890909676353,-0.454416450292936,0.249393545751995,0.152808365505798,-1.29693645852482,-0.656871800628551,-0.0519493557469612,-0.93745876092004,-0.0519493557500651,-0.168598630206141,-0.881499073106936,-0.684988681960117,0.433145556606127,-0.49828437620628,NaN,1.41688406166324,-1.41688406166051,0.225090680047066,-0.16470491393351,0.722480315975712,NaN,NaN,-2.81896047713081,-1.0386127471193,-0.734698331503036,-1.10743828718681,-1.10743828718825,NaN,0.0275606764354207,-0.322632889471917,-0.552909922241604,0.174852156481549,-0.663235130059446,1.23472540877939,0.596819583523068,0.596819583523408,NaN,-0.930629278537507,1.31625807936249
1252.7616,-1.00907576640024,-0.257011961121939,-1.02728221844447,0.747508121469047,0.863070970494414,0.863070970494385,NaN,0.816650910980793,-0.204241311009063,-2.50616554400795,-0.645029843848488,-2.50616554400771,0.521110297865352,-0.458402531710953,0.259082056461989,0.123432709000995,-1.30469952915813,-0.700989153708407,-0.026942599795323,-0.96646605865702,-0.0269425997984107,-0.164827081397851,-0.907813889134341,-0.696609474598171,0.487188066880865,-0.525927896436197,NaN,1.42327153195394,-1.4232715319512,0.253703053780998,-0.146427697437448,0.742514098885363,NaN,NaN,-2.86013569094898,-1.06648772556322,-0.69138636873777,-1.1524775587081,-1.15247755870953,NaN,0.030655860020477,-0.347311015676267,-0.527944312173549,0.123345457236622,-0.684336636525714,1.21391828632244,0.609446898242357,0.609446898242696,NaN,-0.897411190474901,1.30524516300147
1252.864,-1.00594848882832,-0.282664903626578,-1.03920335049215,0.78755093821629,0.878882187750232,0.878882187750218,NaN,0.810675262497284,-0.191668589856603,-2.53060097538534,-0.630088058170945,-2.53060097538509,0.534075847834358,-0.463241575650079,0.268205531775942,0.094252724026251,-1.31196916916582,-0.744519871617173,-0.00142665860500184,-0.995022881976419,-0.00142665860807655,-0.160853520333747,-0.933960239233545,-0.707929120403865,0.540421825589483,-0.553604153801407,NaN,1.42838811691335,-1.4283881169106,0.281542830277664,-0.128296779573896,0.762723546851287,NaN,NaN,-2.90012480388208,-1.09305199654964,-0.647319820981967,-1.19778058620399,-1.19778058620541,NaN,0.0346677085339029,-0.371425473270699,-0.501534262564518,0.0703783618620925,-0.704880237811676,1.19392759074565,0.621658102563242,0.621658102563576,NaN,-0.86331991134828,1.29340653567498
1252.9664,-1.00286789207486,-0.308503513377706,-1.05127124703076,0.827184076801642,0.893768867432036,0.893768867432039,NaN,0.804011387957752,-0.17862613525702,-2.55196309168798,-0.614761989157527,-2.55196309168773,0.5467305722118,-0.468901140063105,0.276728427071423,0.065335537997401,-1.31878972119279,-0.787404287817956,0.0245731286275409,-1.02310559972792,0.024573128624479,-0.156792974087153,-0.959868203551095,-0.719022023844335,0.592779101615261,-0.581243335156561,NaN,1.43217934086036,-1.43217934085761,0.308583564243282,-0.110336029745174,0.783103291686616,NaN,NaN,-2.93887629147619,-1.11830980634485,-0.602610654962342,-1.2433102537875,-1.24331025378891,NaN,0.0395871567916748,-0.394981602031792,-0.473738964746694,0.0160288678972551,-0.724867548340971,1.17486836287327,0.633445810123197,0.633445810123529,NaN,-0.828378682678956,1.28079986243357
1253.0688,-0.999864299171664,-0.334468205133906,-1.06347833945407,0.866366934117554,0.90774663309707,0.907746633097087,NaN,0.79670794066638,-0.165142884210874,-2.57020850596352,-0.599028398672146,-2.57020850596325,0.559015849650915,-0.475344070809456,0.284615720605658,0.0367466746210348,-1.32520695220033,-0.829585807406142,0.0510249393645651,-1.05069224141706,0.0510249393615192,-0.15276154293132,-0.985464010652983,-0.729961411047418,0.644194121601897,-0.608772388463254,NaN,1.43458875614159,-1.43458875613885,0.334799866347447,-0.0925688308690919,0.803648460604024,NaN,NaN,-2.97633744096612,-1.14226744077925,-0.557370538412634,-1.28902626423939,-1.28902626424078,NaN,0.0454023015785721,-0.417984977188502,-0.44462278289769,-0.0396193118320899,-0.744301612459751,1.15685187373032,0.644804003376216,0.644804003376539,NaN,-0.7926123181425,1.26748496448781
1253.1712,-0.996968195494274,-0.360497389529979,-1.07581605629417,0.905061186379288,0.920834010520889,0.920834010520918,NaN,0.788816753332365,-0.151250013712727,-2.58530046529966,-0.582862639780355,-2.58530046529939,0.570871633598245,-0.482528644846383,0.291833033804875,0.0085499195972728,-1.33126780961767,-0.871010923657797,0.0778908760933493,-1.07776254877617,0.0778908760903224,-0.148875805741774,-1.01067028102546,-0.740818876165828,0.694603107949876,-0.636115359771566,NaN,1.4355583654121,-1.43555836540935,0.360167239126382,-0.0750180212014981,0.824354500454368,NaN,NaN,-3.01245457033172,-1.16493304741888,-0.511710407258735,-1.33488525440059,-1.33488525440197,NaN,0.0520984614536691,-0.440441029311565,-0.414255143961338,-0.0964768176162421,-0.763186811712216,1.13998504900565,0.655728093988114,0.655728093988436,NaN,-0.756047189694574,1.25352349578721
1253.2736,-0.994210057674785,-0.386527732261237,-1.08827482194873,0.943230917545502,0.933052262924367,0.933052262924407,NaN,0.780392455945571,-0.136980956221397,-2.59720878744734,-0.566238851435908,-2.59720878744706,0.582236674628319,-0.490408757950552,0.29834674500736,-0.0191928159726554,-1.33702015943283,-0.911629225652523,0.10512746775677,-1.10429802905503,0.105127467753764,-0.14525224037012,-1.03540632657046,-0.751663975526048,0.743944312591995,-0.663193779630332,NaN,1.43502910396252,-1.43502910395977,0.38466190816233,-0.0577058377550764,0.845216989021512,NaN,NaN,-3.04717327835486,-1.18631645497101,-0.465740018074085,-1.38084094728796,-1.38084094728933,NaN,0.0596582343496393,-0.462354662529341,-0.382710371032453,-0.154448771916158,-0.781528754366244,1.12436989620436,0.666214984581066,0.666214984581384,NaN,-0.718711198469434,1.23897860863386
1253.376,-0.991620173695107,-0.412494445866329,-1.10084406632869,0.980842728632066,0.944425207122238,0.944425207122285,NaN,0.771492071517506,-0.12237139689844,-2.60590976702352,-0.549130174020542,-2.60590976702324,0.593048759122573,-0.498934143802562,0.304124104406751,-0.0464216453708188,-1.34251248759769,-0.951393399082865,0.132686243759851,-1.13028198143314,0.132686243756872,-0.142006653486882,-1.05958849710996,-0.762563858785802,0.79215804069524,-0.689927084874139,NaN,1.43294136591486,-1.43294136591211,0.40826065352903,-0.0406538694446682,0.866231434530355,NaN,NaN,-3.08043870810641,-1.20642898511967,-0.419567506419368,-1.42684432885711,-1.42684432885847,NaN,0.0680615494138064,-0.483729865842035,-0.350067486153499,-0.213434943550054,-0.799334158047875,1.11010293937582,0.676263130795073,0.676263130795388,NaN,-0.680633749895376,1.22391461842085
1253.4784,-0.9892284606816,-0.438331605326467,-1.11351224610145,1.01786581335352,0.954979006976024,0.95497900697608,NaN,0.762174597920884,-0.107459243974396,-2.61138606420695,-0.531508978516843,-2.61138606420666,0.603244957898275,-0.508050615526441,0.309133348355216,-0.0730788765305351,-1.34779355857726,-0.990259225834166,0.160514353997113,-1.15569947689575,0.160514353994162,-0.139253616689429,-1.08313055540902,-0.773582923065253,0.839186655429215,-0.716233064746289,NaN,1.42923555372951,-1.42923555372675,0.430940648462764,-0.0238830242311566,0.887393068125014,NaN,NaN,-3.11219581207292,-1.22528325601536,-0.373298965949917,-1.47284383779338,-1.47284383779472,NaN,0.0772856984515937,-0.504569315868709,-0.316409995723896,-0.273329937431791,-0.816610734991891,1.09727466290382,0.685872593176345,0.685872593176659,NaN,-0.641845745897633,1.20839667197735
1253.5808,-0.987064291397325,-0.463972479933268,-1.12626688281417,1.05427199109775,0.964741944034555,0.964741944034621,NaN,0.752500583384107,-0.0922845762348447,-2.61362660098909,-0.513347105923004,-2.61362660098879,0.612761873712858,-0.517700329019465,0.313343803819324,-0.0991091983322259,-1.35291204689673,-1.0281855869316,0.188555211727701,-1.18053729532454,0.188555211724778,-0.137105910232979,-1.10594406031038,-0.784782479469006,0.884974561596111,-0.742028324109413,NaN,1.4238526350838,-1.42385263508104,0.452679313635568,-0.00741350614842191,0.908696637017082,NaN,NaN,-3.14238961574737,-1.24289298240514,-0.327038047965506,-1.51878555994488,-1.51878555994619,NaN,0.0873053432096765,-0.52487397486906,-0.281825657772025,-0.334023413245075,-0.833367082692454,1.08596896601394,0.69504506028127,0.695045060281582,NaN,-0.602379595774157,1.19249041480818
1253.6832,-0.985156333810385,-0.489349874737367,-1.13909461789854,1.0900357004968,0.973744170431796,0.973744170431873,NaN,0.742531702738762,-0.0768895753608429,-2.61262648435736,-0.494616115478999,-2.61262648435707,0.621535882449072,-0.527822069310977,0.316725978037776,-0.124459868549279,-1.35791616567302,-1.06513446567745,0.216749145083882,-1.20478383424186,0.216749145080984,-0.135673975739372,-1.12793874822269,-0.796220427645846,0.929468175744543,-0.767228755503486,NaN,1.41673469600815,-1.41673469600539,0.473454192611619,0.00873520474814587,0.930136206583821,NaN,NaN,-3.17096547779044,-1.25927277799741,-0.280885574282614,-1.56461341949025,-1.56461341949155,NaN,0.0980925169770392,-0.54464269039763,-0.246406228962447,-0.395400332479322,-0.849612575942189,1.07626263307583,0.703783826397704,0.703783826398014,NaN,-0.562269245655414,1.17626165096194
1253.7856,-0.983532395865533,-0.514396474265232,-1.15198127351118,1.12513396582513,0.98201745216642,0.982017452166508,NaN,0.732330342352965,-0.0613184443143173,-2.60838695455127,-0.475287538933112,-2.60838695455098,0.629503373475496,-0.538351557519894,0.319251639074419,-0.149080889858871,-1.36285330707576,-1.10107094286129,0.245034047188678,-1.22842900449218,0.245034047185801,-0.13506537638579,-1.14902291758055,-0.807950939587463,0.972615894358974,-0.791750006898593,NaN,1.40782548106916,-1.4078254810664,0.49324284899726,0.0245443722577627,0.95170497746593,NaN,NaN,-3.19786933853081,-1.27443795969068,-0.234939162495687,-1.61026935741979,-1.61026935742107,NaN,0.109616651920939,-0.563871805922116,-0.210247197074685,-0.457341226044378,-0.865357260154099,1.06822482642244,0.712093717445013,0.712093717445321,NaN,-0.521550233387378,1.15977599691551
1253.888,-0.982219259370235,-0.53904517973768,-1.16491190016436,1.15954634839467,0.989594910839759,0.989594910839856,NaN,0.721959201822809,-0.0456173066802772,-2.60091533798957,-0.455333136154639,-2.60091533798929,0.636600999920063,-0.54922177316006,0.32089389859737,-0.172925163674409,-1.36776970061981,-1.13596317436502,0.273346008707248,-1.25146413122951,0.273346008704393,-0.135384261285814,-1.1691038241981,-0.820024154006604,1.01436806665107,-0.815507928451158,NaN,1.39707091374788,-1.3970709137451,0.512022782565328,0.0399960214473007,0.973395120336309,NaN,NaN,-3.22304794357132,-1.28840434695593,-0.189292872328288,-1.65569348826668,-1.65569348826796,NaN,0.121844656897699,-0.582554793482747,-0.173447511901999,-0.519722472752709,-0.880611754924027,1.06191660710887,0.719980970831201,0.719980970831503,NaN,-0.480259778799837,1.14309853767147
1253.9904,-0.981242488794311,-0.563229431766748,-1.1778707941736,1.19325488637907,0.99651076766426,0.996510767664368,NaN,0.711480916096936,-0.0298340831910713,-2.59022498468997,-0.434725146276933,-2.59022498468969,0.642765946273904,-0.56036328761397,0.321627304936458,-0.195948608251019,-1.37271009580235,-1.1697823375053,0.301619910850877,-1.27388187859683,0.301619910848046,-0.136730828332202,-1.18808809008534,-0.832485877052722,1.05467696701127,-0.838418986360778,NaN,1.38441959564583,-1.38441959564305,0.52977135896634,0.0550729485679093,0.995197628889992,NaN,NaN,-3.24644903405855,-1.30118804887694,-0.144036885855102,-1.70082423096598,-1.70082423096724,NaN,0.134741048982126,-0.600681911939699,-0.136109323228373,-0.582416583215105,-0.89538717504049,1.0573904835576,0.727453084804193,0.727453084804492,NaN,-0.438436910116142,1.12629349066275
1254.0928,-0.980626214456345,-0.586883517095687,-1.19084148364275,1.22624401542108,1.00280008785169,1.00280008785181,NaN,0.700957694176527,-0.0140183497108055,-2.57633518895957,-0.41343653048162,-2.57633518895929,0.647936211820927,-0.571704609833262,0.321427944699744,-0.218110229854106,-1.37771747712674,-1.20250253657133,0.329789965721076,-1.29567620777312,0.329789965718267,-0.139200781711799,-1.20588212511892,-0.845377285209573,1.09349675496458,-0.860400646935652,NaN,1.36982329028896,-1.36982329028617,0.546465747497803,0.0697587198387678,1.01710218979758,NaN,NaN,-3.26802150796045,-1.3128052374876,-0.099257228352307,-1.74559842044909,-1.74559842045035,NaN,0.148268120581731,-0.618239882786796,-0.0983377169077505,-0.645292496788946,-0.909695063794006,1.05468998110321,0.734518656043464,0.73451865604376,NaN,-0.396122613640153,1.10942387598124
1254.1952,-0.980392906588078,-0.60994286680788,-1.20380670161738,1.25850045994732,1.00849852253585,1.00849852253598,NaN,0.690450966078948,0.00177881380308069,-2.55927111274086,-0.391441208586196,-2.55927111274057,0.652050900945755,-0.583172550448422,0.320273542770679,-0.239372150927655,-1.38283281566135,-1.23410067553029,0.357790215453853,-1.316842362374,0.357790215451073,-0.142884790478555,-1.2223925604986,-0.85873463615198,1.13078341683631,-0.881371749612784,NaN,1.35323740063479,-1.35323740063199,0.562082868282371,0.0840376609970317,1.03909706603212,NaN,NaN,-3.287715567406,-1.32327191454883,-0.0550355226937452,-1.78995141811455,-1.7899514181158,NaN,0.162386115569337,-0.635211573690101,-0.0602404245415528,-0.708215912349829,-0.92354732443482,1.05384922784701,0.741187216505195,0.741187216505493,NaN,-0.353359990172277,1.09255118737849
1254.2976,-0.980563160658396,-0.632344355285186,-1.21674836949106,1.29001309359388,1.01364204874309,1.01364204874324,NaN,0.680021031377069,0.0175049780584415,-2.53906373493389,-0.36871429593238,-2.5390637349336,0.655050512810877,-0.594692609463267,0.318143552148918,-0.259699607561644,-1.38809485993453,-1.26455631607419,0.385555020792024,-1.33737686166642,0.385555020789268,-0.147867960345234,-1.23752669215473,-0.872588998680315,1.16649469539742,-0.901252890488966,NaN,1.33462144640713,-1.33462144640431,0.576599358170219,0.0978948432733082,1.06116899049592,NaN,NaN,-3.30548286941634,-1.33260368251939,-0.0114487596124825,-1.83381724077287,-1.83381724077411,NaN,0.177053396206816,-0.651575686821918,-0.0219274834172529,-0.77104967304449,-0.936956136741906,1.05489256315012,0.747469066109865,0.747469066110162,NaN,-0.31019440685849,1.07573505596578
1254.4,-0.981155502427229,-0.654026604049084,-1.22964760041635,1.3207727755127,1.01826670993011,1.01826670993028,NaN,0.6697267075946,0.0331065248758353,-2.51574983623352,-0.345232345116494,-2.51574983623323,0.656877231002262,-0.606189387049493,0.315019234345295,-0.279060921642673,-1.39353997206321,-1.29385153206007,0.413019562560497,-1.35727748269817,0.41301956255777,-0.154229326520917,-1.25119293271326,-0.886966008764866,1.20059001821562,-0.919966826956256,NaN,1.31393954110807,-1.31393954110522,0.589991564695039,0.111316070174289,1.08330307038347,NaN,NaN,-3.3212766914048,-1.3408155281069,0.0314309327441579,-1.87712871764199,-1.87712871764322,NaN,0.192226598340415,-0.667306456189537,0.0164891625498609,-0.833654212945521,-0.949933853442345,1.05783418006886,0.753375090566372,0.753375090566672,NaN,-0.266673637915373,1.05903289889166
1254.5024,-0.982186206401761,-0.674930289993827,-1.24248471691853,1.3507721714251,1.02240836020476,1.02240836020494,NaN,0.659624981237469,0.0485288186863019,-2.48937200994733,-0.320973592222107,-2.48937200994703,0.657475220542954,-0.617587012811296,0.31088373855164,-0.297427448952717,-1.39920200879849,-1.32197076181164,0.440120354648627,-1.37654322660765,0.440120354645932,-0.162041371672953,-1.26330127267839,-0.901885656175727,1.23303043297461,-0.93743889926204,NaN,1.2911608625762,-1.29116086257333,0.60223557112273,0.124287866681082,1.10548270391785,NaN,NaN,-3.33505211075415,-1.34792162220314,0.0735365259081252,-1.91981767465659,-1.91981767465782,NaN,0.207860782697634,-0.682373365660439,0.0548961135946573,-0.895888059261148,-0.962492880474896,1.06267780863275,0.758916558807934,0.758916558808234,NaN,-0.222847991083347,1.04249955264376
1254.6048,-0.983669112530078,-0.694998454018784,-1.25523926719943,1.38000556844365,1.02610241681438,1.02610241681457,NaN,0.649770666039574,0.0637163940667444,-2.45997867775484,-0.295918202959665,-2.45997867775454,0.656790941955008,-0.628809588117705,0.305722190073175,-0.314773507214143,-1.40511223213896,-1.3489006534134,0.466795748996142,-1.39517427986347,0.466795748993476,-0.171369571985084,-1.27376375136413,-0.917362104988736,1.26377855472797,-0.953597454195965,NaN,1.26626010896561,-1.26626010896271,0.613307249888347,0.136797470372127,1.12768950959932,NaN,NaN,-3.34676618723775,-1.35393513502946,0.114806328621034,-1.96181514138488,-1.9618151413861,NaN,0.223909592891564,-0.696740904695635,0.0931789986992095,-0.957608374494864,-0.974645550930121,1.06941644234934,0.764104903960009,0.76410490396031,NaN,-0.178770419289506,1.02618689798213
1254.7072,-0.985615427926557,-0.714176801766485,-1.26789002387173,1.40846869052528,1.02938362452485,1.02938362452506,NaN,0.640216070632725,0.0786131601865653,-2.4276240944333,-0.27004851177881,-2.427624094433,0.654773487543288,-0.639781636686628,0.299521794414904,-0.33107628468269,-1.41129923146564,-1.3746298918345,0.492986414905398,-1.41317198431638,0.49298641490277,-0.182271972332101,-1.28249493318855,-0.933403546423177,1.29279852639415,-0.96837425368926,NaN,1.23921793472187,-1.23921793471894,0.623182339596279,0.148832822126201,1.14990326880867,NaN,NaN,-3.35637813762946,-1.35886806261679,0.155184211046796,-2.00305157472237,-2.00305157472357,NaN,0.240325423452767,-0.710368374880854,0.131222974534515,-1.01867152075745,-0.986404002403654,1.0780321127334,0.768951497810559,0.768951497810865,NaN,-0.134496613987124,1.01014348471293
1254.8096,-0.988033515097761,-0.732413986803705,-1.28041496088742,1.43615851374524,1.03228583063234,1.03228583063255,NaN,0.631010674059325,0.0931626175714633,-2.39236834380531,-0.24334924894778,-2.39236834380501,0.651374933547099,-0.650428558717463,0.292271953501564,-0.346315724632708,-1.41778885315714,-1.39914899902737,0.518635790383453,-1.43053881597646,0.518635790380859,-0.194798792213297,-1.28941237914321,-0.950012079695042,1.32005599085735,-0.981704856664745,NaN,1.21002136274141,-1.21002136273845,0.631836541937294,0.16038255356283,1.17210188543068,NaN,NaN,-3.36384949975836,-1.36273106333399,0.194619798973267,-2.04345709220157,-2.04345709220276,NaN,0.257059583314141,-0.723209753086636,0.168913217354278,-1.07893362417107,-0.997780065520411,1.0884957247792,0.773467428659248,0.77346742865956,NaN,-0.0900850694942647,0.994414166440852
1254.912,-0.990928681547557,-0.749661869954306,-1.29279121805029,1.46307307501429,1.03484176697132,1.03484176697155,NaN,0.622200809260989,0.107308081858862,-2.35427734021779,-0.215807755664108,-2.3542773402175,0.646550694712045,-0.660677082578022,0.283964384966147,-0.360474384370815,-1.42460414686767,-1.42245011127754,0.543690512923304,-1.44727835805351,0.543690512920746,-0.208992063952146,-1.29443710329997,-0.967183616463514,1.34551807352519,-0.993528969756874,NaN,1.17866416712809,-1.1786641671251,0.639245637109985,0.171435970640326,1.19426136529225,NaN,NaN,-3.369144286831,-1.36553330800126,0.233068621306212,-2.08296170784378,-2.08296170784495,NaN,0.274062430975224,-0.735213615872679,0.206135380493414,-1.13825110881373,-1.0087851707953,1.10076696824313,0.777663286209715,0.777663286210031,NaN,-0.0455971064717482,0.979039759200547
1255.0144,-0.994302982532829,-0.765875752269371,-1.3049950619483,1.48921127191892,1.03708283946363,1.03708283946386,NaN,0.613829361782277,0.120992912446396,-2.31342284340427,-0.187414190016052,-2.31342284340399,0.64025987524518,-0.670455705026014,0.274593243017993,-0.373537274689665,-1.431765338329,-1.44452674818388,0.568100830694279,-1.46339525722006,0.568100830691753,-0.224885298149733,-1.2974940098083,-0.984907801183665,1.36915337589793,-1.00379076529659,NaN,1.14514722038312,-1.14514722038008,0.645385616501337,0.18198303686205,1.21635581216821,NaN,NaN,-3.37222913008267,-1.36728234881237,0.270492198496249,-2.12149556537214,-2.1214955653733,NaN,0.291283472171665,-0.746323130528332,0.24277599498945,-1.19648117302024,-1.01943027730071,1.11479430567647,0.781548950655577,0.781548950655897,NaN,-0.00109685214123601,0.964056735119568
1255.1168,-0.998155037950749,-0.781014580470049,-1.3170018434965,1.5145726586687,1.03903893122587,1.0390389312261,NaN,0.605935493743042,0.134160744361597,-2.26988248224499,-0.158161725324446,-2.26988248224472,0.632465622317316,-0.679695108804482,0.264155250716446,-0.385491692902963,-1.43928982775495,-1.46537359009219,0.591820983037705,-1.47889516397545,0.591820983035214,-0.242503165652187,-1.29851231105835,-1.00316793699273,1.39093198049313,-1.01243916398816,NaN,1.10947880069382,-1.10947880069074,0.650232829594999,0.192014361846255,1.2383574331896,NaN,NaN,-3.37307340509964,-1.36798401064652,0.3068580684413,-2.15898916549418,-2.15898916549534,NaN,0.308671434165459,-0.756476115428912,0.278722812288285,-1.25348220247406,-1.02972581825623,1.13051501994787,0.785133382729839,0.785133382730163,NaN,0.0433488126505913,0.949496955101836
1255.2192,-1.00247986145393,-0.795041124786879,-1.32878595038608,1.53915724602914,1.04073822569752,1.04073822569776,NaN,0.598554397136034,0.146755718405125,-2.22373978076343,-0.128046740117689,-2.22373978076318,0.623135489685361,-0.688328550643388,0.252649852972366,-0.39632706946532,-1.44719219905945,-1.48498628071874,0.614809535452841,-1.49378466265668,0.61480953545038,-0.261861187640323,-1.29742593050315,-1.02194091076077,1.4108254677223,-1.01942808025274,NaN,1.07167485664962,-1.07167485664648,0.65376414266613,0.201521199386268,1.26023655045571,NaN,NaN,-3.3716493394675,-1.36764230681965,0.34213975535228,-2.19537358602904,-2.19537358603018,NaN,0.326174341790813,-0.765605168736392,0.313865108881465,-1.30911413760763,-1.03968165289137,1.14785530109903,0.788424414792853,0.788424414793183,NaN,0.0876703251726605,0.935387440335754
1255.3216,-1.00726870382377,-0.807922131158149,-1.34032075733169,1.56296531174389,1.04220705224395,1.04220705224419,NaN,0.591717073759756,0.15872270322509,-2.17508418420442,-0.0970689977291382,-2.17508418420419,0.612241810059249,-0.696292221951425,0.240079388169023,-0.40603484768882,-1.45548421822389,-1.50336126649077,0.637029658437357,-1.50807119623026,0.637029658434924,-0.282965432941848,-1.29417389308687,-1.04119711812864,1.42880694732432,-1.02471663073969,NaN,1.03175922678857,-1.03175922678538,0.655957111098456,0.210495455505341,1.28196162297803,NaN,NaN,-3.36793210488447,-1.36625938172508,0.376316690778356,-2.2305806955339,-2.23058069553503,NaN,0.343739614900596,-0.773637862992063,0.34809397689439,-1.36323881934891,-1.04930701501478,1.16673036436387,0.79142854477301,0.791428544773344,NaN,0.131795522181157,0.921750181054097
1255.424,-1.01250891605895,-0.819628450185622,-1.35157858024856,1.58599722400463,1.04346975287454,1.04346975287479,NaN,0.585450139210508,0.170007506230891,-2.1240110841099,-0.0652318132285857,-2.12401108410969,0.59976206723054,-0.703525589019597,0.226449267932917,-0.414608405350846,-1.4641748044788,-1.52049567344461,0.658449345117255,-1.52176299029502,0.658449345114858,-0.305812228024302,-1.28870070138621,-1.06090039289772,1.44485110660351,-1.0282693068696,NaN,0.989763810198555,-0.989763810195308,0.65679017030709,0.218929704413982,1.30349928688637,NaN,NaN,-3.36189989968939,-1.36383548399038,0.409374093464621,-2.26454336084401,-2.26454336084512,NaN,0.361314193438574,-0.780497004540783,0.381302614694035,-1.41572032753474,-1.05861045296899,1.18704460309852,0.794150736150894,0.794150736151236,NaN,0.175649727328567,0.908601982683579
1255.5264,-1.01818383790586,-0.830135143678194,-1.36253063983087,1.60825327687005,1.0445485671895,1.04454856718974,NaN,0.579775651681924,0.180557074948539,-2.07062183798769,-0.0325422063758811,-2.07062183798749,0.585679258296091,-0.709971715871777,0.211768155503016,-0.422043014723992,-1.4732699723741,-1.53638721580299,0.679041569345394,-1.53486897894352,0.679041569343024,-0.330387887270079,-1.28095669286325,-1.08100794569944,1.45893427476694,-1.03005611053616,NaN,0.945728683958462,-0.945728683955154,0.656242849265366,0.226817210235882,1.32481442156902,NaN,NaN,-3.35353402669618,-1.36036897388438,0.441302809655605,-2.29719564772844,-2.29719564772954,NaN,0.378844687294497,-0.786100960566171,0.413386619784842,-1.46642531431237,-1.06759976012714,1.20869178601694,0.796594229057151,0.796594229057499,NaN,0.219155843490283,0.89595435459791
1255.6288,-1.0242727153363,-0.839421569701289,-1.3731470381139,1.62973353617854,1.04546353242223,1.04546353242248,NaN,0.574710966993663,0.190319694410797,-2.0150237750335,0.000988958861588018,-2.01502377503332,0.569982239661224,-0.715577567593522,0.196048138177521,-0.428335832132177,-1.48277275595635,-1.5510341318645,0.698784392937419,-1.54739873346271,0.698784392935084,-0.356668470081692,-1.27089837900154,-1.10147031896156,1.47103450194653,-1.03005265182689,NaN,0.89970216468815,-0.899702164684786,0.654296007470684,0.234151954066107,1.34587024656441,NaN,NaN,-3.34281896809512,-1.35585636699108,0.472099114475782,-2.32847301402672,-2.32847301402782,NaN,0.39627754569252,-0.790364059924973,0.444244278856976,-1.51522332961252,-1.07628190057891,1.23155530946064,0.798760366003462,0.79876036600382,NaN,0.262234453589659,0.883813448162373
1255.7312,-1.03075064903448,-0.847471449335085,-1.38339675164903,1.65043769611675,1.04623239649324,1.04623239649349,NaN,0.570268619894936,0.199245187977835,-1.95733017899568,0.0353468472426374,-1.95733017899551,0.552666055302256,-0.720294289577119,0.179304894397273,-0.433485909824297,-1.49268312999712,-1.56443514754699,0.717661032273854,-1.55936239398087,0.717661032271546,-0.384619567288738,-1.25848877427129,-1.12223136530005,1.48113165263142,-1.02824020981274,NaN,0.851740814665153,-0.851740814661719,0.650932092529936,0.240928667031643,1.36662844856547,NaN,NaN,-3.32974245535295,-1.3502924132144,0.501764481198186,-2.35831249653582,-2.3583124965369,NaN,0.413559238378242,-0.793197072854946,0.473776847101125,-1.56198713585087,-1.0846629390565,1.25550851147822,0.800648432223009,0.800648432223378,NaN,0.304803939764472,0.87218004484546
1255.8336,-1.03758857711758,-0.854272918889561,-1.393247646245,1.67036494806349,1.04687054462101,1.04687054462126,NaN,0.566456230102568,0.207285123509879,-1.89766024610118,0.0705125388109759,-1.89766024610103,0.53373224938613,-0.724077458431916,0.161557858994426,-0.437494227145825,-1.50299793896576,-1.5765894706659,0.735659890133221,-1.57077060304032,0.73565989013094,-0.41419611470037,-1.24369772008615,-1.14322825019617,1.48920751240518,-1.02460575996079,NaN,0.801909396606994,-0.801909396603485,0.646135412897279,0.247142870660861,1.38704933327829,NaN,NaN,-3.31429553107312,-1.34367020813812,0.530305331222476,-2.38665289601376,-2.38665289601484,NaN,0.43063643880867,-0.794507768836576,0.501888812360444,-1.60659301186805,-1.0927479820651,1.2804150463053,0.802255511953325,0.802255511953701,NaN,0.346780630637886,0.861049587881887
1255.936,-1.04475329699384,-0.859818569407133,-1.40266651860026,1.68951386425862,1.04739094181515,1.04739094181539,NaN,0.563276429895464,0.214393016899011,-1.8361390236091,0.106462933413023,-1.83613902360895,0.513189163254251,-0.726887303870876,0.142830386893456,-0.440363740244872,-1.51371083765437,-1.58749681752491,0.75277455331135,-1.58163443960897,0.752774553309093,-0.445342233645337,-1.22650219660092,-1.1643914746153,1.49524590547098,-1.01914197172992,NaN,0.750280781387536,-0.750280781383946,0.639892421712201,0.25279092664759,1.40709199851555,NaN,NaN,-3.29647260219886,-1.33598133444684,0.557732774846159,-2.41343496640446,-2.41343496640554,NaN,0.447456203535527,-0.794201546887202,0.528488148684382,-1.64892105131977,-1.10054112915301,1.30612931270958,0.803576366466414,0.803576366466799,NaN,0.388078979451574,0.850412248697752
1256.0384,-1.05220753159895,-0.864105473828331,-1.4116191696139,1.70788229881057,1.04780409309177,1.04780409309202,NaN,0.56072680989237,0.220524522183664,-1.77289733326347,0.143170679026401,-1.77289733326334,0.491052210023099,-0.728688906250499,0.123149907582622,-0.442099450318649,-1.52481224038061,-1.59715746978912,0.769003753719329,-1.5919653532505,0.769003753717096,-0.477991105112837,-1.20688660881495,-1.18564491627564,1.49923282173059,-1.01184717700806,NaN,0.696935807985246,-0.696935807981573,0.632192012782515,0.257870097470299,1.42671453134477,NaN,NaN,-3.27627148544388,-1.32721603345733,0.5840623440258,-2.43860161204936,-2.43860161205044,NaN,0.463966150512304,-0.79218213344661,0.553486570150731,-1.68885546507325,-1.10804542845016,1.33249693218826,0.804603339074043,0.804603339074433,NaN,0.428611769673578,0.840253023217535
1256.1408,-1.05991004388702,-0.867135201525932,-1.42007051258927,1.72546730820912,1.04811802262937,1.04811802262962,NaN,0.558799882164431,0.22563760309832,-1.70807167632513,0.18060412789375,-1.708071676325,0.46734411575321,-0.729452376518787,0.102548058145978,-0.442708492334331,-1.53628927029422,-1.60557235858985,0.784351291915861,-1.60177510039659,0.78435129191366,-0.512064885222353,-1.18484304058987,-1.20690589357448,1.50115655478495,-1.00272530707876,NaN,0.641963090459974,-0.641963090456215,0.623025833226835,0.262378617897145,1.44587423636834,NaN,NaN,-3.25369344651002,-1.31736340811104,0.609313711423096,-2.46209809291125,-2.46209809291232,NaN,0.480114644458457,-0.788352346967219,0.576799791944808,-1.72628489558369,-1.11526283483816,1.35935527990441,0.80532628874726,0.805326288747656,NaN,0.46829034475037,0.830551859284935
1256.2432,-1.0678157996626,-0.868913819276259,-1.42798471587387,1.74226509424515,1.04833827303268,1.04833827303293,NaN,0.557483062483476,0.229692686094886,-1.64180411160092,0.218727321102661,-1.64180411160082,0.442095118017433,-0.729153022246107,0.0810607855101637,-0.442200246235674,-1.54812570166684,-1.61274317381017,0.798825925838817,-1.61107568601573,0.798825925836643,-0.547474664121469,-1.16037148110143,-1.22808525692192,1.50100785224724,-0.99178579595563,NaN,0.585458768230486,-0.585458768226634,0.612388615332172,0.266315777334845,1.46452790103418,NaN,NaN,-3.22874323693592,-1.30641165683258,0.633510389182822,-2.48387223734673,-2.4838722373478,NaN,0.495850994111877,-0.782614928566824,0.598347797219258,-1.7611027442251,-1.12219417420992,1.38653407630139,0.805732555023799,0.805732555024205,NaN,0.507024862578355,0.821283819315892
1256.3456,-1.07587617356429,-0.869451878329657,-1.43532537521425,1.75827097405049,1.04846792510005,1.0484679251003,NaN,0.556758672679449,0.232652795884385,-1.57424209654317,0.257500001139255,-1.57424209654308,0.41534311832965,-0.72777149735477,0.0587284158494348,-0.440586467974571,-1.56030189779955,-1.61867249676726,0.812441227963317,-1.6198793130274,0.812441227961174,-0.584120465520976,-1.13348003388981,-1.24908751063334,1.49878007678154,-0.979043451198282,NaN,0.527526200891499,-0.527526200887549,0.600278523691872,0.269682014287187,1.48263209888154,NaN,NaN,-3.20142913244037,-1.29434833273286,0.656679407088324,-2.50387466306122,-2.50387466306229,NaN,0.511125658355214,-0.774873435259587,0.618055108056107,-1.79320750816002,-1.12883911245544,1.41385604786034,0.805806958242386,0.805806958242803,NaN,0.544724576206255,0.812419282029572
1256.448,-1.08403919057065,-0.868764388846397,-1.44205570989198,1.7734793832183,1.04850763735806,1.04850763735832,NaN,0.556603960807124,0.23448367375923,-1.50553828348885,0.296877653389106,-1.50553828348878,0.38713378979992,-0.725293927065667,0.0355956957762878,-0.437881433277733,-1.57279475751368,-1.62336395547912,0.825215408411678,-1.62819834054313,0.825215408409564,-0.621891283363634,-1.1041851172699,-1.26981096699595,1.49446937394777,-0.964518296659841,NaN,0.468275612061426,-0.46827561205738,0.586697506608735,0.272479025596325,1.50014352549387,NaN,NaN,-3.17176297114941,-1.28116061849387,0.678850981641331,-2.52205900538093,-2.52205900538199,NaN,0.525890456274941,-0.76503319146815,0.635851067946742,-1.82250312795684,-1.13519611894837,1.44113766273997,0.80553183380026,0.805531833800687,NaN,0.581298137720295,0.803924185891531
1256.5504,-1.09224979787925,-0.866870783740827,-1.44813877931384,1.78788391594871,1.04845570404613,1.0484557040464,NaN,0.556991135394175,0.235153878261482,-1.4358502694304,0.336811579143384,-1.43585026943035,0.357520642672052,-0.721711998583462,0.0117118114556259,-0.434102086199723,-1.58557768671951,-1.62682240290261,0.83717109470145,-1.63604525163509,0.83717109469936,-0.660665155144704,-1.07251165606717,-1.29014793200608,1.48807484278792,-0.948235393427361,NaN,0.40782368788861,-0.40782368788447,0.571651637393332,0.274709892147874,1.5170193571574,NaN,NaN,-3.13976018405883,-1.2668356065512,0.70005819587998,-2.53838214946091,-2.53838214946197,NaN,0.540098781024028,-0.753002293936869,0.651670147973098,-1.84889935414708,-1.14126241499835,1.46818994106681,0.804887094074237,0.804887094074669,NaN,0.616653917188914,0.795760312924443
1256.6528,-1.10045016512889,-0.863794873674232,-1.45353771927933,1.80147740010251,1.04830813024391,1.04830813024419,NaN,0.557887411596387,0.234634868186727,-1.36534030351692,0.377249002949666,-1.36534030351688,0.326565048798282,-0.717023014692154,-0.0128696123017459,-0.429268184485907,-1.5986206081388,-1.62905411622736,0.848335058065929,-1.6434326290699,0.848335058063867,-0.700309277620021,-1.03849325327744,-1.30998492185469,1.47959870474185,-0.930224646255562,NaN,0.346293136541024,-0.346293136536783,0.555151432311148,0.276379217694356,1.53321762043529,NaN,NaN,-3.10543980902854,-1.25136057564646,0.720336703319367,-2.55280446343377,-2.55280446343483,NaN,0.553705818977125,-0.738692660337067,0.665452281123241,-1.87231213740649,-1.14703390579319,1.49481933094309,0.803850313586969,0.803850313587411,NaN,0.650700328295049,0.787885605311214
1256.7552,-1.10858001122318,-0.859564793618783,-1.45821599664646,1.8142519983935,1.04805872283033,1.04805872283062,NaN,0.559255068578538,0.232901069366884,-1.29417495499669,0.418133216532812,-1.29417495499668,0.294336223655796,-0.711229915612963,-0.0380905363426303,-0.423402434176972,-1.61189001361719,-1.63006701012495,0.858737883067874,-1.6503731339551,0.858737883065837,-0.74068017723748,-1.00217232710234,-1.32920291401404,1.4690464650901,-0.910520602308659,NaN,0.283812214215339,-0.283812214211,0.537212135333456,0.277493271982483,1.54869756337834,NaN,NaN,-3.06882448372068,-1.23472325747538,0.739724452806752,-2.56529003278125,-2.56529003278232,NaN,0.566668771835093,-0.722021105852433,0.677143217744853,-1.89266403470406,-1.15250509785169,1.52082863677344,0.802396836301186,0.802396836301639,NaN,0.683346155689129,0.78025450543921
1256.8576,-1.11657695621816,-0.854212938398585,-1.46213767957314,1.82619932349262,1.04769919496963,1.04769919496994,NaN,0.561051518489461,0.229929928055292,-1.22252473943693,0.459403760685581,-1.22252473943694,0.260911162135286,-0.704341276301547,-0.0638885610247059,-0.416530606361669,-1.62534905644943,-1.6298708528347,0.868413585229457,-1.65687948169933,0.868413585227438,-0.78162395036017,-0.963600206278026,-1.34767764388799,1.45642706055152,-0.889162245648912,NaN,0.220514219066846,-0.220514219062409,0.51785396431942,0.278060127971602,1.56342002437729,NaN,NaN,-3.02994041799129,-1.21691209061244,0.758261419601486,-2.57580689795446,-2.57580689795553,NaN,0.578947077584407,-0.702910430608042,0.686694890204242,-1.90988461644495,-1.15766900318979,1.54601799168353,0.800499904866702,0.800499904867163,NaN,0.714500881693727,0.772818315551177
1256.96,-1.12437689881949,-0.847775881607891,-1.46526772061214,1.83731055472578,1.0472192806406,1.04721928064093,NaN,0.563229391164751,0.225701956981354,-1.15056370171482,0.500996645185975,-1.15056370171486,0.226374524084339,-0.69637128048236,-0.0901970135868499,-0.408681626293512,-1.63895768616057,-1.62847747372476,0.877399183727948,-1.66296441109692,0.877399183725944,-0.82297658533462,-0.922837183960847,-1.36527995926539,1.44175298789862,-0.866192787351491,NaN,0.156536949268432,-0.1565369492639,0.497102316859639,0.278089784251073,1.57734779511778,NaN,NaN,-2.988817346773,-1.19791646088785,0.775989327164032,-2.58432729380501,-2.58432729380608,NaN,0.59050262764396,-0.681290502381397,0.694065775169566,-1.92391086255038,-1.16251703426659,1.57018587472447,0.798130811499634,0.7981308115001,NaN,0.744075012593173,0.765525579638937
1257.0624,-1.13191442004708,-0.840294272067785,-1.46757224981212,1.8475765475357,1.04660685706348,1.04660685706383,NaN,0.565736643517608,0.220200785245851,-1.07846895991655,0.542844605095233,-1.07846895991662,0.19081846893068,-0.687339663145012,-0.116945066240053,-0.399887622786747,-1.65267283885349,-1.62590095498557,0.885734234307257,-1.66864064255946,0.885734234305261,-0.864564370457933,-0.879952532874642,-1.381876238224,1.42504041073404,-0.841659451702988,NaN,0.0920221215617005,-0.0920221215570749,0.474987932710466,0.277594265378475,1.59044596707843,NaN,NaN,-2.94548846181828,-1.17772692668038,0.792951348496242,-2.590827885954,-2.59082788595506,NaN,0.60129997645063,-0.657099316996556,0.699221243880677,-1.93468754278738,-1.16703889935166,1.59313017688417,0.795259067998208,0.795259067998678,NaN,0.771980409602533,0.758322492280194
1257.1648,-1.13912320908809,-0.83181270344549,-1.46901887185351,1.85698793490623,1.04584807669077,1.04584807669115,NaN,0.568516703177841,0.213413223209333,-1.00642021750041,0.584877390547381,-1.0064202175005,0.154342442077377,-0.677271606130378,-0.144057876407035,-0.390183930554397,-1.66644869402853,-1.62215780494975,0.893460327027834,-1.67392082191237,0.893460327025838,-0.906204384324573,-0.835024487470273,-1.39732887032236,1.40630924341421,-0.815613261811562,NaN,0.0271147533549346,-0.0271147533502128,0.451547003678138,0.276587696168312,1.60268224666833,NaN,NaN,-2.89999032228302,-1.15633542653486,0.809191780187877,-2.59529000329762,-2.59529000329869,NaN,0.611306536596984,-0.630284011940313,0.702133892891871,-1.94216758179479,-1.17122251063071,1.61464931532178,0.791852589046831,0.791852589047308,NaN,0.798130631946121,0.751153338562174
1257.2672,-1.14593650314449,-0.822379554100512,-1.46957695839293,1.8655352273957,1.04492751242748,1.04492751242788,NaN,0.571508652159869,0.205329346300668,-0.934599248654542,0.627022085956368,-0.934599248654665,0.11705291553239,-0.666197572922243,-0.171456741341901,-0.379609046147127,-1.68023699427625,-1.61726711152698,0.900620554547461,-1.67881744854102,0.900620554545469,-0.947705066621181,-0.788140199947319,-1.41149680315224,1.38558321206297,-0.78810882794947,NaN,-0.0380374832214952,0.03803748322631,0.426821217955418,0.275086349966392,1.61402722856055,NaN,NaN,-2.85236274950797,-1.13373546767507,0.824755685235906,-2.59769987222672,-2.59769987222778,NaN,0.620492753090315,-0.60080180442371,0.702783847200153,-1.9463124082975,-1.1750539171496,1.63454338610101,0.787877880485894,0.787877880486376,NaN,0.822441295533299,0.743960967445992
1257.3696,-1.15228753357966,-0.812046796494243,-1.46921792852233,1.87320891832064,1.04382831774782,1.04382831774824,NaN,0.574647452023121,0.195942594633946,-0.863189356337274,0.669203453343882,-0.863189356337427,0.0790630834267297,-0.654153079221916,-0.199059265174411,-0.368204542662555,-1.69398741393236,-1.6112506733923,0.90725895660593,-1.68334278974952,0.907258956603939,-0.988866876916524,-0.739395669803943,-1.42423616162306,1.36288989430314,-0.759204139036566,NaN,-0.103284927520437,0.103284927525348,0.400857729758611,0.273108671530886,1.62445462316458,NaN,NaN,-2.80264871233722,-1.10992229548829,0.839688502912854,-2.59804885644532,-2.59804885644638,NaN,0.628832255433294,-0.56862083022523,0.701159025552491,-1.94709228445658,-1.17851727387463,1.65261533635449,0.783300223631418,0.783300223631906,NaN,0.844830444570974,0.736687296955399
1257.472,-1.15810997390349,-0.800869777713309,-1.46791551433593,1.87999959444373,1.04253239998717,1.04253239998761,NaN,0.577864209605999,0.185249883447862,-0.792374798088886,0.711344294345745,-0.792374798089066,0.0404925125079273,-0.64117840772649,-0.226779541738095,-0.356014950109308,-1.70764796209067,-1.60413310838154,0.913419946109458,-1.6875087859894,0.913419946107469,-1.02948305371208,-0.688895638081073,-1.43540094710547,1.33826074210843,-0.728960354512251,NaN,-0.168476611461232,0.168476611466233,0.37370905475455,0.270675273259013,1.633941438011,NaN,NaN,-2.75089420444802,-1.08489304269623,0.854035626472265,-2.59633369770095,-2.59633369770201,NaN,0.636301990961138,-0.533720872375687,0.697255358601795,-1.94448661202139,-1.18159485761247,1.66867213323422,0.778083851081059,0.778083851081547,NaN,0.865218929991418,0.729273846458603
1257.5744,-1.16333838831233,-0.788906973515074,-1.46564601186022,1.88589804658685,1.04102060254332,1.04102060254379,NaN,0.581086483328796,0.173251722762265,-0.722340174732768,0.753365825139922,-0.722340174732969,0.00146674853511307,-0.627318280422343,-0.254528357817142,-0.343087607031745,-1.72116541144423,-1.59594194087756,0.919147724261146,-1.69132695272485,0.919147724259152,-1.0693404792483,-0.636753437464923,-1.44484381677188,1.31173109298444,-0.69744159250897,NaN,-0.233460950702598,0.23346095070769,0.345432901100197,0.26780890311045,1.64246811549856,NaN,NaN,-2.6971481102245,-1.05864685458407,0.867841952196424,-2.59255674584566,-2.59255674584673,NaN,0.642882340395302,-0.496093981679154,0.691076950361886,-1.93848421169732,-1.18426714058185,1.68252591409029,0.772192117483312,0.772192117483801,NaN,0.883530790477888,0.721662292437404
1257.6768,-1.1679086808234,-0.776219719459388,-1.46238851941711,1.8908953740677,1.03927289074631,1.0392728907468,NaN,0.584238633283702,0.159952350361484,-0.65326978246194,0.795188056131307,-0.653269782462163,-0.0378831182728772,-0.612621497105108,-0.282213417666846,-0.329472482184566,-1.73448575534073,-1.58670766816259,0.924485695695008,-1.69480828157984,0.92448569569301,-1.10822064322515,-0.583090794873327,-1.45241693429932,1.28334017186204,-0.664714713389865,NaN,-0.298086439949,0.298086439954182,0.316091948125415,0.264534384413967,1.65001862960857,NaN,NaN,-2.64146205513769,-1.03118498740639,0.881151406274106,-2.58672616550307,-2.58672616550414,NaN,0.64855720735904,-0.455744997778589,0.682636168948506,-1.92908356430982,-1.18651293026672,1.69399511415529,0.765587672092377,0.765587672092863,NaN,0.899693638471733,0.713795046054924
1257.7792,-1.17175854230648,-0.762871923563996,-1.45812516360068,1.89498308328503,1.03726853748955,1.03726853749006,NaN,0.587242218660306,0.145359881554834,-0.585346936174027,0.836730166528822,-0.585346936174271,-0.0774209230889414,-0.597140539401484,-0.309739583678811,-0.315221958800657,-1.74755469973029,-1.57646380027017,0.929475895710287,-1.69796313940805,0.929475895708276,-1.14590069209288,-0.528037586252343,-1.45797287839551,1.25313108307596,-0.630849103697656,NaN,-0.362202343797927,0.362202343803192,0.285753578412441,0.260878532196305,1.65658054222386,NaN,NaN,-2.58389024157887,-1.00251088092368,0.894006461049956,-2.57885611026388,-2.57885611026495,NaN,0.653314069737598,-0.412691979113041,0.671953655932096,-1.9162929989684,-1.1883095749867,1.70290557340937,0.75823263548903,0.758232635489514,NaN,0.91363905772756,0.705615848496218
1257.8816,-1.17482788656382,-0.748929762651557,-1.45284130638413,1.89815318761236,1.03498630725658,1.03498630725712,NaN,0.590016441805803,0.129486469342106,-0.518753276816423,0.877910866411562,-0.518753276816684,-0.117005924744189,-0.580931133699506,-0.33700912461041,-0.300390577920528,-1.76031818519294,-1.56524686546157,0.934158439157497,-1.70080116516571,0.934158439155477,-1.1821545545613,-0.471731543292247,-1.46136559960167,1.22115079176447,-0.595916467958573,NaN,-0.425659372487473,0.42565937249282,0.254489563116151,0.256870056711722,1.66214501945807,NaN,NaN,-2.52448927675526,-0.972630209221106,0.906447657448618,-2.56896685936531,-2.56896685936638,NaN,0.657143989351953,-0.366966548124571,0.659058260380614,-1.90013082380053,-1.1896332204582,1.7090916207837,0.750088777030739,0.75008877703122,NaN,0.925303014074726,0.697070374701656
1257.984,-1.1770592613151,-0.734461360280124,-1.44652571981182,1.90039831445642,1.03240463900867,1.03240463900924,NaN,0.592478634734289,0.112348460607074,-0.453668076806354,0.918648743137897,-0.453668076806634,-0.156493323863222,-0.564051767014155,-0.363921961628727,-0.285034748527639,-1.77272292044956,-1.5530963792755,0.938570998052501,-1.70333116716941,0.938570998050468,-1.21675413979903,-0.414317911175554,-1.46245142131478,1.18745009426379,-0.559990632872908,NaN,-0.488310332869908,0.488310332875332,0.222375702034131,0.252539466757551,1.66670680924908,NaN,NaN,-2.46331799800083,-0.941550913474522,0.918513147861412,-2.55708491153352,-2.55708491153459,NaN,0.660041586261267,-0.318614157646008,0.643986917610646,-1.88062540618105,-1.1904590940302,1.71239712440588,0.741117689279568,0.741117689280043,NaN,0.934626270748727,0.688106832732769
1258.0864,-1.17839822009278,-0.719536441180402,-1.43917071316559,1.90171181672848,1.02950182935149,1.02950182935208,NaN,0.594544782839787,0.0939665348150275,-0.390267555421648,0.958862590748335,-0.390267555421942,-0.195734789684878,-0.546563153322953,-0.390375901592511,-0.269212439573841,-1.78471690537999,-1.54005478259719,0.942748317339609,-1.70556102054911,0.942748317337566,-1.24947060509086,-0.355949054668889,-1.46109008021558,1.15208357454312,-0.523147364470949,NaN,-0.550010748146492,0.550010748151993,0.189491424398483,0.247918980551717,1.67026418124752,NaN,NaN,-2.40043729618801,-0.909283218080115,0.93023826213234,-2.54324302883511,-2.54324302883618,NaN,0.662004982289891,-0.267694282915846,0.626784491086624,-1.85781521023874,-1.19076179675811,1.71267648562964,0.731280962112793,0.731280962113267,NaN,0.941554794458205,0.678676547042705
1258.1888,-1.17879364717979,-0.704225957100149,-1.43077220282756,1.90208787781034,1.02625621786441,1.02625621786502,NaN,0.596130078115243,0.0743658168196498,-0.328724208835231,0.998471720823368,-0.328724208835541,-0.234578985500332,-0.528527652380821,-0.416266849774621,-0.252982868172372,-1.79624992258049,-1.52616735379124,0.946721783724714,-1.70749756042258,0.946721783722658,-1.28007568849857,-0.296784007918374,-1.45714579892,1.11510954144987,-0.485464195901707,NaN,-0.610619444393625,0.610619444399201,0.155919357939503,0.243042444907462,1.6728188312742,NaN,NaN,-2.3359099392412,-0.875839631821341,0.941655091368242,-2.52748022496814,-2.52748022496921,NaN,0.66303570884159,-0.214280540628938,0.607503584795049,-1.83174879324198,-1.19051559369002,1.70979555119967,0.720540366030789,0.720540366031256,NaN,0.946040141411041,0.668734518338771
1258.2912,-1.17819803491146,-0.688601682506477,-1.42132972336291,1.90152159765642,1.02264637612478,1.02264637612542,NaN,0.597149490525307,0.0535759594246917,-0.269206150129321,1.03739625369165,-0.26920615012964,-0.272872089831354,-0.510008648083119,-0.441489002444792,-0.236406193827219,-1.80727397828811,-1.51148209528348,0.950519064432327,-1.70914646817206,0.950519064430257,-1.30834310165123,-0.236987965401514,-1.45048838447642,1.07658994372196,-0.447020261039694,NaN,-0.669999105969335,0.669999105974985,0.121744874751403,0.237945259413037,1.67437575650511,NaN,NaN,-2.26980040372184,-0.841234938535686,0.952792090514918,-2.50984169432262,-2.50984169432369,NaN,0.663138570032666,-0.158460733301767,0.586204323418481,-1.80248475576408,-1.18969470059544,1.70363242733184,0.708858053050922,0.708858053051387,NaN,0.948039816629312,0.658239957323516
1258.3936,-1.17656771649584,-0.672735783994168,-1.41084638477239,1.9000090536289,1.01865130037306,1.01865130037372,NaN,0.597518345619837,0.031631191642583,-0.211876452873509,1.07555738859507,-0.211876452873841,-0.31045831801982,-0.491069896525101,-0.465935027448362,-0.219543224515946,-1.81774368041471,-1.49604959418543,0.954163829027611,-1.7105121543053,0.954163829025526,-1.33404997475392,-0.176731715659569,-1.44099434572738,1.03659026498459,-0.407896128690376,NaN,-0.728016800330004,0.728016800335723,0.0870556253103257,0.232664303238581,1.67494311022389,NaN,NaN,-2.20217472600243,-0.805486184420718,0.963673712612965,-2.4903786754849,-2.49037867548599,NaN,0.662321458206053,-0.100336814477852,0.562954094801611,-1.77009163880132,-1.18827356779086,1.69407819380219,0.696196777417117,0.69619677741758,NaN,0.947517600888126,0.647156790222646
1258.496,-1.17386305826861,-0.656700369917317,-1.39932878305409,1.89754733664291,1.01425060566757,1.01425060566826,NaN,0.597152900685868,0.0085703270101908,-0.156892499943842,1.11287764823363,-0.156892499944182,-0.347180450279385,-0.47177485316851,-0.489496241796739,-0.20245513562111,-1.82761655269232,-1.47992285761979,0.957675561092565,-1.71159764430983,0.957675561090467,-1.35697834023499,-0.116191021482332,-1.42854801806957,0.995179403743686,-0.368173634512132,NaN,-0.784544467006231,0.784544467012014,0.0519410738010127,0.227237864790765,1.67453204470253,NaN,NaN,-2.13310038267923,-0.768612670682001,0.974320090488787,-2.46914823706004,-2.46914823706113,NaN,0.660595124972853,-0.0400247705182463,0.537827251806656,-1.734647764419,-1.18622716160989,1.68103752299406,0.682520136644793,0.682520136645251,NaN,0.944443840566701,0.635454130097008
1258.5984,-1.17004861424085,-0.6405670245937,-1.3867868690519,1.89413456424367,1.00942471828465,1.00942471828536,NaN,0.595970916133942,-0.0155632721741257,-0.104405346756441,1.14928108989204,-0.104405346756793,-0.382880367947582,-0.452185985585915,-0.51206279039564,-0.185203197968421,-1.8368532926334,-1.46315712288851,0.961069461720997,-1.71240447269531,0.961069461718887,-1.37691663633393,-0.0555459530889347,-1.41304268069501,0.952429541053441,-0.327935709937724,NaN,-0.83945936421306,0.839459364218907,0.0164920460161322,0.221705573454081,1.67315654887481,NaN,NaN,-2.06264620441352,-0.730635960053909,0.984746774581463,-2.44621297087936,-2.44621297088045,NaN,0.657972909287035,0.0223455819166531,0.510904771186429,-1.6962410172586,-1.18353124411925,1.66442920624653,0.667792835755162,0.667792835755614,NaN,0.938795697953114,0.623106703752732
1258.7008,-1.16509324350288,-0.624406327989805,-1.37323377660102,1.88976986806825,1.00415506325496,1.0041550632557,NaN,0.593892217063236,-0.040721775443126,-0.0545591077216571,1.18469347626836,-0.054559107722029,-0.417399595243488,-0.432364076638473,-0.533523825584577,-0.167848511382778,-1.84541798133181,-1.44580964304181,0.964356447233298,-1.71293258943367,0.964356447231179,-1.39366121145619,0.00501981646965783,-1.39438165248924,0.908415994467744,-0.287266208804404,NaN,-0.892644469227567,0.892644469233476,-0.0191997030718538,0.216108329097847,1.67083328331657,NaN,NaN,-1.99088232413061,-0.691579902656182,0.994964529514426,-2.42164058296233,-2.42164058296342,NaN,0.654470421617496,0.0866308824693899,0.482273866313685,-1.65496856261089,-1.18016265101502,1.64418658569601,0.651980978261628,0.651980978262076,NaN,0.930557361842917,0.610095222408667
1258.8032,-1.1589701897076,-0.608287361330229,-1.3586856095462,1.88445334981044,0.998424245317028,0.9984242453178,NaN,0.590839234241387,-0.0668530094753309,-0.0074903706329753,1.21904240387323,-0.00749037063335723,-0.450579842523241,-0.412367523307187,-0.553767686186035,-0.150451743435231,-1.85327824724977,-1.42793944883613,0.967543246395626,-1.71318028240781,0.967543246393504,-1.40701781742581,0.0653197500390986,-1.3724793568212,0.863217054548395,-0.246249734512297,NaN,-0.943988828338844,0.94398882834481,-0.0550418993072768,0.210488224276595,1.66758140928821,NaN,NaN,-1.91788016083227,-0.651470681326299,1.00497919310041,-2.39550338215887,-2.39550338215996,NaN,0.650105185695338,0.152674601672679,0.452027554670972,-1.61093650082938,-1.17609956601627,1.62025788727497,0.635052387969524,0.635052387969965,NaN,0.919720219878298,0.596406683734789
1258.9056,-1.15165712217292,-0.592277201263208,-1.34316118873374,1.87818600163923,0.992216224530923,0.992216224531728,NaN,0.586737512535852,-0.0939006291039611,0.0366723580252115,1.25225739148986,0.0366723580248206,-0.482263547084597,-0.392251635972117,-0.572682074639641,-0.133072874354067,-1.86040538060389,-1.4096070861273,0.970632601399142,-1.71314411658468,0.970632601397018,-1.41680308953448,0.125165225822613,-1.34726234925372,0.816913799128357,-0.204971471650469,NaN,-0.993387850491242,0.993387850497263,-0.0909421370401119,0.204888456484862,1.66342240546611,NaN,NaN,-1.8437124381886,-0.610336872405437,1.01479160564937,-2.36787767072802,-2.36787767072911,NaN,0.644896240896159,0.22030751305354,0.420264185859675,-1.56425946355789,-1.17132178912334,1.59260644536726,0.616976967788934,0.616976967789369,NaN,0.906282993883821,0.582034591927259
1259.008,-1.14313613730029,-0.576440407368051,-1.32668176057364,1.87096959204368,0.985516489617689,0.98551648961852,NaN,0.581516179421006,-0.121804336313627,0.0778091724419997,1.28426993236942,0.0778091724415961,-0.512294407807386,-0.372067942780952,-0.590154230935933,-0.115770951331989,-1.86677439106066,-1.39087432815532,0.973623572839775,-1.71281888722978,0.973623572837653,-1.42284601439277,0.18436636505342,-1.31867030480579,0.769589881044665,-0.163517024834549,NaN,-1.04074354129398,1.04074354130005,-0.12680824345588,0.1993532290209,1.65837986748194,NaN,NaN,-1.76845323187263,-0.568209518262031,1.02439761748176,-2.33884303943663,-2.33884303943772,NaN,0.638863706839487,0.289348273130074,0.387086936375572,-1.5150601556607,-1.16581099348621,1.56121080566632,0.597727101048592,0.597727101049021,NaN,0.890251836721227,0.566979082697739
1259.1104,-1.13339371692302,-0.56083850922935,-1.30927066777164,1.86280652048111,0.97831223017779,0.978312230178644,NaN,0.575108370811373,-0.150500150722209,0.115809243890131,1.31501351217844,0.115809243889718,-0.54051791151964,-0.351863506981036,-0.606071104754298,-0.0986038613900276,-1.87236399807113,-1.3718038678017,0.976511945919081,-1.7121975846038,0.976511945916958,-1.42498938259425,0.242732904336619,-1.28665696384247,0.721331289274138,-0.12197226570759,NaN,-1.08596468103523,1.08596468104135,-0.162548614118301,0.193927637465543,1.6524792891078,NaN,NaN,-1.69217803785135,-0.525122212864766,1.03378817595727,-2.30848157009904,-2.30848157010014,NaN,0.632028313223692,0.359604114831978,0.352603276843058,-1.46346884132691,-1.1595509601589,1.52606469991649,0.577278095283987,0.577278095284407,NaN,0.871640385503602,0.551246943686875
1259.2128,-1.12242064057132,-0.545529501274604,-1.29095298428326,1.85369964339025,0.970592505816958,0.970592505817829,NaN,0.567451613917337,-0.179920734057802,0.150571243141851,1.34442359381174,0.150571243141427,-0.566781850860827,-0.331680268673333,-0.620319530281549,-0.0816281351749213,-1.87715654371879,-1.35245899952792,0.979290731808132,-1.71127137135849,0.979290731806004,-1.42309121705173,0.300075097096584,-1.25119103653735,0.672226089542284,-0.0804231878664417,NaN,-1.12896695640802,1.12896695641419,-0.198072512383388,0.188657537175239,1.64574782609718,NaN,NaN,-1.61496385640773,-0.481111207650363,1.04294948469898,-2.27687695300677,-2.27687695300786,NaN,0.624410903210278,0.43087165452726,0.316924415961495,-1.4096227700759,-1.15252777906126,1.48717690030571,0.55560866235992,0.555608662360334,NaN,0.850469764953513,0.534851526487413
1259.3152,-1.11021185247052,-0.53056735585896,-1.27175512118907,1.84365207369471,0.962348409515722,0.96234840951661,NaN,0.558488168617854,-0.209995766346388,0.182003697683683,1.37243757320235,0.182003697683243,-0.590936833778404,-0.311554422328107,-0.632786408451415,-0.0648987889574475,-1.88113782466548,-1.33290329837307,0.981950752910787,-1.71002957782907,0.981950752908652,-1.4170261640453,0.356204624196612,-1.21225706458037,0.622364152741999,-0.0389557686450867,NaN,-1.16967305536739,1.1696730553736,-0.233290328495628,0.183589387185866,1.63821404187462,NaN,NaN,-1.5368892877391,-0.436215544710838,1.05186322438718,-2.2441135297484,-2.24411352974949,NaN,0.616031921506357,0.50293780959607,0.280164722022586,-1.35366553814173,-1.14473000950691,1.44457096784238,0.532701424906232,0.532701424906638,NaN,0.826768537129337,0.517812550397662
1259.4176,-1.09676628866304,-0.516001564473447,-1.2517044138354,1.83266695684659,0.95357322522278,0.953573225223686,NaN,0.548165330840403,-0.240652365519331,0.21002527648083,1.39899471710276,0.210025276480382,-0.612836785150885,-0.291515838016287,-0.643358900270228,-0.0484692029273986,-1.8842968490867,-1.31320029738909,0.984481295517315,-1.70845972078015,0.984481295515171,-1.40668683525358,0.410935497512415,-1.1698562378644,0.57183687565349,0.0023441648243826,NaN,-1.2080127295149,1.20801272952116,-0.268113798421813,0.178770067425716,1.62990762956301,NaN,NaN,-1.45803463187537,-0.390477215230096,1.06050682710249,-2.21027527245864,-2.21027527245973,NaN,0.606910898110398,0.575580822836882,0.242441124307138,-1.2957463827293,-1.13614879373876,1.3982849041975,0.508543436197266,0.508543436197663,NaN,0.800572595788155,0.50015579907781
1259.52,-1.08208667153546,-0.501876712263798,-1.23082869955612,1.82074722882347,0.944262583171443,0.944262583172361,NaN,0.536435702778264,-0.271815539428054,0.234564999737502,1.424036099803,0.234564999737042,-0.632339442569707,-0.271587530035792,-0.651924634468297,-0.0323910280470738,-1.88662553297547,-1.2934131627778,0.986870809939734,-1.70654754686711,0.986870809937581,-1.39198509055102,0.46408494682232,-1.1240071615471,0.520736893334805,0.0433910699284176,NaN,-1.24392282477884,1.24392282478514,-0.302456183792302,0.174246668234695,1.62085910176057,NaN,NaN,-1.37848198178386,-0.343941330684952,1.06885379656385,-2.17544471445388,-2.17544471445496,NaN,0.597065941104534,0.648571393048648,0.203872504268511,-1.23601941249247,-1.12677791184261,1.3483707098904,0.483126697421091,0.48312669742148,NaN,0.771925004303133,0.481912711548094
1259.6224,-1.06617927735128,-0.488232086841981,-1.20915589142356,1.80789536354124,0.934414615471895,0.934414615472821,NaN,0.523257432304031,-0.303408660759008,0.255562375734741,1.44750455585788,0.255562375734276,-0.649306849328765,-0.25178517615873,-0.658371933401702,-0.0167141127851316,-1.88811835393056,-1.27360436722386,0.989107637828014,-1.70427709744819,0.989107637825853,-1.37285324814287,0.515474283604092,-1.07474656377651,0.469157781208552,0.0840998270243936,NaN,-1.27734727989197,1.2773472798983,-0.336232413488185,0.170066250765546,1.61109944181717,NaN,NaN,-1.29831529945726,-0.296656291179778,1.07687406169637,-2.13970185567039,-2.13970185567148,NaN,0.586513255493209,0.721673913094014,0.164579090113686,-1.17464278560778,-1.11661376998631,1.29489385256231,0.456448655183594,0.456448655183977,NaN,0.740875780162168,0.463119870080086
1259.7248,-1.04905368074267,-0.475101323091617,-1.18671355244968,1.79411311542704,0.924030107122966,0.924030107123903,NaN,0.508594416412325,-0.335353958519036,0.272967473040891,1.46934466063918,0.272967473040419,-0.663605847886072,-0.232116696880794,-0.662590063823548,-0.00148644271505202,-1.88877197533677,-1.253835360671,0.991180748997347,-1.70163079159193,0.991180748995178,-1.34924520561788,0.564929734360769,-1.02212993193533,0.417193746633407,0.124385880544001,NaN,-1.30823709062804,1.30823709063441,-0.369359186633017,0.166275574065879,1.60065971668166,NaN,NaN,-1.21762047172593,-0.248673939383811,1.08453434960301,-2.10312307110389,-2.10312307110497,NaN,0.575266704045975,0.794647811469889,0.124681863855004,-1.11177785270696,-1.10565532795003,1.23793265748516,0.428512666840854,0.42851266684123,NaN,0.707481637544457,0.443818389990069
1259.8272,-1.03072248120299,-0.462512090933611,-1.16352847861501,1.7794012607771,0.913112628166086,0.913112628167035,NaN,0.492416455946108,-0.367573022192451,0.286740943244138,1.48950274454026,0.28674094324366,-0.675108579096202,-0.212581911718425,-0.664469524009695,0.013245912014414,-1.88858484723897,-1.23416623609458,0.993080471924996,-1.69858952791585,0.993080471922816,-1.32113745586217,0.612283234522435,-0.966232066545597,0.364939312046339,0.164165376623456,NaN,-1.33655023835595,1.33655023836235,-0.401755037313987,0.162920786382772,1.58957065825081,NaN,NaN,-1.1364853499079,-0.200049694533504,1.0917985717833,-2.0657800465565,-2.06578004655758,NaN,0.563337421220398,0.867248982644558,0.0843019816728435,-1.04758828267229,-1.09390398570269,1.17757764413572,0.399328429483355,0.399328429483723,NaN,0.671805705735382,0.424053222808764
1259.9296,-1.01120101850848,-0.450485839149331,-1.13962630425102,1.7637593460339,0.901668627715563,0.90166862771652,NaN,0.474699349370319,-0.399987313795431,0.296854014247192,1.50792694336597,0.296854014246708,-0.683692997755619,-0.193172291522038,-0.66390238399559,0.0274388457611304,-1.88755679363994,-1.21465539084993,0.994799198405599,-1.69513280907456,0.99479919840341,-1.28852998079224,0.657373175576426,-0.907147540047443,0.312488993640619,0.203355292654849,NaN,-1.36225158799711,1.36225158800354,-0.433340366061725,0.160047087262622,1.57786222882963,NaN,NaN,-1.05499977907161,-0.150842662900289,1.09862822807386,-2.02773876129108,-2.02773876129217,NaN,0.550733488395944,0.939231278817949,0.0435602017594898,-0.982239186964506,-1.08136345651739,1.11393084331201,0.368912373469191,0.368912373469547,NaN,0.633917240954245,0.40387239602756
1260.032,-0.990507084792855,-0.439037610112585,-1.1150311449965,1.74718546026434,0.889707474110817,0.889707474111777,NaN,0.455424924651079,-0.432518678316293,0.303288473885615,1.52456728541328,0.303288473885124,-0.689243419772541,-0.173870820490969,-0.66078269760888,0.0410502689358432,-1.88568860435721,-1.19535918777299,0.996332035362683,-1.69123889432264,0.996332035360482,-1.25144700193117,0.700045105144301,-0.844991039585788,0.259936979990799,0.241873560791189,NaN,-1.38531276667798,1.38531276668444,-0.464037452360644,0.157698375380096,1.56556319567731,NaN,NaN,-0.973255619231057,-0.101115717238168,1.10498283901716,-1.98905854050881,-1.9890585405099,NaN,0.537459680633774,1.01034802661386,0.00257631312249132,-0.915896257405192,-1.06803965432969,1.04710513141634,0.337288021962575,0.33728802196292,NaN,0.593891345592835,0.383326220612769
1260.1344,-0.968660639460395,-0.428175935778616,-1.08976528963537,1.72967605292116,0.877241434112516,0.877241434113479,NaN,0.434581019706878,-0.465089840375912,0.306036656193126,1.5393758113663,0.306036656192625,-0.691651112764934,-0.154651974028925,-0.655006998902909,0.0540401719421889,-1.88298165273804,-1.17633161697687,0.99767737486289,-1.68688498439393,0.997677374860687,-1.20993756317558,0.74015238692199,-0.779897565039671,0.207376813276202,0.279639189436534,NaN,-1.40571202999909,1.40571203000557,-0.493770468990092,0.155916896503488,1.55270073848945,NaN,NaN,-0.891346759252869,-0.0509355345672778,1.11082041637808,-1.94979120815514,-1.94979120815624,NaN,0.523517294982391,1.08035353643469,-0.0385314385043609,-0.848724930291691,-1.05394061645901,0.977223607315015,0.304486317440661,0.304486317440995,NaN,0.551808705560296,0.362466491251668
1260.2368,-0.945683527406716,-0.417902818951503,-1.06384894352169,1.71122581241887,0.864285589721136,0.864285589722099,NaN,0.412161420772532,-0.497624879953727,0.305101431582912,1.55230671823622,0.305101431582406,-0.690814928505785,-0.135481813787238,-0.646474882187509,0.0663707160507214,-1.87943756007293,-1.15762395286719,0.998837362715028,-1.68204743782852,0.998837362712819,-1.16407592093618,0.777556826218739,-0.712022454054777,0.154901073114161,0.316572378145258,NaN,-1.42343411128938,1.42343411129589,-0.52246551668429,0.154742899504108,1.53930009848103,NaN,NaN,-0.809369127595288,-0.000372584898380057,1.11609797290617,-1.90998037224648,-1.90998037224759,NaN,0.508904060050566,1.14900458840605,-0.0796469316425136,-0.780889581286951,-1.03907647317211,0.904419019382331,0.270545914945005,0.270545914945328,NaN,0.50775535223542,0.341345690246489
1260.3392,-0.921599195273776,-0.408213799464404,-1.03730001878173,1.69182761257627,0.850857693000463,0.850857693001423,NaN,0.388165760565875,-0.530049686447724,0.3004961945835,1.56331651738515,0.300496194582995,-0.686641963103976,-0.116318198445272,-0.635089652988111,0.0780063637808202,-1.87505792550587,-1.1392844021538,0.999818259170799,-1.67670201341465,0.999818259168586,-1.11396172238325,0.812129261107289,-0.641541214752511,0.102601062070342,0.352594613094367,NaN,-1.4384700432669,1.43847004327342,-0.550050690080322,0.154214303553567,1.52538426360156,NaN,NaN,-0.727420704842946,0.0504989305342246,1.12077206145678,-1.86966086717899,-1.86966086718011,NaN,0.493614113735194,1.21606189070881,-0.120656761992674,-0.712552746118747,-1.02345946620353,0.828833235840654,0.235513438603913,0.235513438604221,NaN,0.461822448700436,0.320016198930981
1260.4416,-0.896432403521962,-0.399098100976826,-1.01013396690495,1.67147252654266,0.836977963017621,0.836977963018583,NaN,0.362599379653832,-0.562292387076251,0.29224484230057,1.57236419769655,0.292244842300063,-0.679048228533831,-0.0971111052209283,-0.620759033866869,0.0889140506744698,-1.86984413313574,-1.12135774811054,1.00063069298872,-1.67082413291086,1.00063069298651,-1.05971996461809,0.843750117632523,-0.568649159826921,0.0505664932060034,0.387628734937527,NaN,-1.45081694548129,1.45081694548782,-0.576456178864775,0.154366376491551,1.5109736826163,NaN,NaN,-0.645601535171434,0.101601189660155,1.12479932811929,-1.82885836454485,-1.82885836454598,NaN,0.4776380326813,1.28129150394598,-0.161450849631807,-0.643874358977239,-1.0071040103967,0.750616743498147,0.199443694235393,0.199443694235689,NaN,0.414106093253497,0.298529522708884
1260.544,-0.870208942362099,-0.390538848909393,-0.982363655328635,1.65014989980476,0.822668835416374,0.822668835417332,NaN,0.335473163266024,-0.594283737037853,0.28038174149435,1.57941138720381,0.280381741493837,-0.667959323568354,-0.0778030521905941,-0.603395910837606,0.0990633892833826,-1.86379723653842,-1.10388500341207,1.0012898139448,-1.66438915775127,1.00128981394258,-1.00150074378405,0.872309927523493,-0.493560851976645,-0.00111481876520335,0.421598983243383,NaN,-1.46047777929851,1.46047777930505,-0.601614403041661,0.155231420662089,1.49608600554098,NaN,NaN,-0.564013724761372,0.152852906031405,1.12813706465639,-1.78758915154616,-1.7875891515473,NaN,0.460962903184775,1.34446621534513,-0.201923054020588,-0.575011004612728,-0.990026783641729,0.66992815860218,0.162399828888385,0.162399828888667,NaN,0.364707129544963,0.276935540035318
1260.6464,-0.842955365462332,-0.382513346162569,-0.95399929253203,1.62784746873789,0.807954679244441,0.807954679245394,NaN,0.306803367855546,-0.625957460198435,0.264951686735909,1.58442251322727,0.26495168673539,-0.65331109592932,-0.0583296072314273,-0.582919107583247,0.108426891157558,-1.85691790988391,-1.08690308322725,1.00181535268915,-1.65737267170747,1.00181535268693,-0.939478814011879,0.897709804029405,-0.416509383182358,-0.0523572604295222,0.4544310284544,NaN,-1.46746107790011,1.46746107790665,-0.625460178904579,0.156838462460701,1.48073585101847,NaN,NaN,-0.482761417511613,0.204169527187587,1.13074374770685,-1.74586007033466,-1.74586007033581,NaN,0.443572432570623,1.40536684333491,-0.241971777869954,-0.506115189725422,-0.972246821907093,0.586933737642404,0.124453429881952,0.12445342988222,NaN,0.313730951396792,0.255281787007248
1260.7488,-0.814698753942881,-0.374993395501876,-0.925048406209719,1.60455151300079,0.792861493968832,0.792861493969771,NaN,0.276611444342566,-0.657250539132207,0.246009853047817,1.58736496982045,0.246009853047284,-0.635050289747924,-0.0386199717457352,-0.559254177593055,0.116980193278786,-1.8492064494614,-1.07044450582546,1.00223159912389,-1.64975076226686,1.00223159912167,-0.873852973350222,0.919861869104514,-0.337745508991051,-0.103077712528751,0.486051999722177,NaN,-1.47178065917318,1.4717806591797,-0.647930910917969,0.159212946073651,1.46493460155088,NaN,NaN,-0.401950749612596,0.255463467039355,1.13257955392944,-1.70366861517397,-1.70366861517514,NaN,0.425447104897267,1.46378346338134,-0.281500536383226,-0.437334646263314,-0.953785597270638,0.50180688203311,0.0856845596447727,0.0856845596450243,NaN,0.261287291906516,0.233612786421889
1260.8512,-0.785466521417049,-0.367945665262344,-0.89551588200038,1.58024703545108,0.777416595066368,0.777416595067299,NaN,0.244923859411632,-0.688103456987623,0.223621744836625,1.58820930455644,0.223621744836073,-0.613135175617279,-0.0185976374339873,-0.532334211186081,0.124702279807662,-1.84066281271476,-1.05453712426207,1.00256730876844,-1.64150029662007,1.00256730876622,-0.804845283387049,0.938689625330037,-0.257536648400335,-0.15319582667635,0.516390513122077,NaN,-1.47345532887715,1.47345532888366,-0.668966801217829,0.162376434256873,1.4486902274016,NaN,NaN,-0.321689788268417,0.306644362757881,1.13360684120785,-1.66100318970331,-1.66100318970449,NaN,0.406564380911759,1.51951655834373,-0.32041847654883,-0.368811676439475,-0.93466706637863,0.414727635563028,0.0461817214317635,0.0461817214319977,NaN,0.20748999213589,0.211969425250554
1260.9536,-0.755286270579418,-0.361332100032541,-0.865404072882005,1.55491796854244,0.761648296209848,0.761648296210769,NaN,0.211771919048163,-0.718460388203708,0.197863139644097,1.58692943331961,0.197863139643534,-0.587536163103583,0.00181887898131562,-0.502100659305676,0.13157569296767,-1.83128668817223,-1.03920389295191,1.00285554188366,-1.63259919045586,1.00285554188144,-0.732700122801604,0.954128267017227,-0.176165752835094,-0.202634279229029,0.545376706827195,NaN,-1.47250858393059,1.47250858393708,-0.688511064727062,0.166346318090737,1.43200714065643,NaN,NaN,-0.242088452054034,0.357619349032729,1.13379058455649,-1.61784352519139,-1.6178435251926,NaN,0.386898937685204,1.57237809656816,-0.358640839011973,-0.300682543813681,-0.914917682690448,0.325882175802825,0.00604174447839788,0.00604174447861569,NaN,0.152456751905773,0.190388381462151
1261.056,-0.724185709238928,-0.355110376045694,-0.834712985969487,1.5285474114106,0.745585600858865,0.745585600859776,NaN,0.177191604138917,-0.7482693293649,0.168820020594908,1.58350288681999,0.168820020594334,-0.558236394530946,0.0227152231776125,-0.46850417303145,0.137586723738124,-1.82107759151748,-1.02446267835622,1.0031334357506,-1.6230266692933,1.00313343574838,-0.657683075545136,0.96612492782937,-0.0939300464746449,-0.251318994450948,0.572942294843688,NaN,-1.46896832841789,1.46896832842437,-0.706510138751692,0.171135538441926,1.41488608156396,NaN,NaN,-0.163258402394788,0.408293345494994,1.13309875301404,-1.57416125415498,-1.5741612541562,NaN,0.36642294704193,1.62219253097196,-0.396089353178508,-0.233076915706333,-0.894566364003568,0.235462299880316,-0.0346304268517444,-0.0346304268515418,NaN,0.0963088692655079,0.168901601514246
1261.1584,-0.692192628239302,-0.349234397853332,-0.803440546890037,1.50111790593591,0.729257918648842,0.729257918649743,NaN,0.141223428810912,-0.777482160988162,0.13658849025497,1.57791108931196,0.136588490254387,-0.525232316293951,0.0441803217326935,-0.431505451960531,0.142725568957858,-1.8100349821503,-1.01032612781204,1.00344190880777,-1.61276352403381,1.00344190880556,-0.580079658872586,0.974638868443228,-0.0111396411057997,-0.299179329348367,0.599020652600206,NaN,-1.46286661491497,1.46286661492142,-0.722913881487467,0.176752326173374,1.39732404024028,NaN,NaN,-0.0853128938550961,0.458569355396813,1.13150261638474,-1.52992062771574,-1.52992062771699,NaN,0.345106397076323,1.6687977036825,-0.432692551457944,-0.16611736648705,-0.873644404306558,0.143664903040268,-0.0757220532795112,-0.0757220532793211,NaN,0.0391709741888273,0.147535832311115
1261.2608,-0.659334938938299,-0.343654832365291,-0.771582937468244,1.47261175925868,0.712694817925317,0.712694817926203,NaN,0.103912327391416,-0.80605463639662,0.101274663328488,1.57013966849031,0.101274663327901,-0.48853422371529,0.0663054421570854,-0.391076093787263,0.14698644416931,-1.79815839491888,-0.996801607135575,1.00382529614165,-1.60179236325718,1.00382529613944,-0.500193902535516,0.97964161184108,0.0718839676014155,-0.34614821720191,0.623546945111428,NaN,-1.45423942135207,1.45423942135848,-0.737675758964999,0.183199971245996,1.37931421948362,NaN,NaN,-0.00836657435054231,0.508348775771429,1.128976977779,-1.48507936206487,-1.48507936206616,NaN,0.322917458616787,1.71204563985974,-0.468385989911214,-0.0999189541069913,-0.852185324449244,0.050691449040064,-0.117113035354781,-0.117113035354605,NaN,-0.0188292415990723,0.126312214442524
1261.3632,-0.6256407660664,-0.338319676429801,-0.739135000888656,1.44301141352939,0.695925819049749,0.695925819050623,NaN,0.0653075695641574,-0.833946300512332,0.0629945403040961,1.5601787950205,0.062994540303508,-0.448166775950312,0.0891831987726893,-0.347199440328282,0.150367649130602,-1.78544758300217,-0.983891208410021,1.00433091620143,-1.59009786326844,1.00433091619922,-0.418346794931849,0.981117030104233,0.15480950882394,-0.392162272820312,0.646458303575947,NaN,-1.44312647057088,1.44312647057724,-0.7507530205547,0.19047662787677,1.3608460470271,NaN,NaN,0.0674647679683021,0.5575317204265,1.12550033105101,-1.43958960031955,-1.43958960032088,NaN,0.299822894266092,1.7518032199271,-0.503112369855752,-0.0345888827957237,-0.830224668203338,-0.0432525644173852,-0.158676457266748,-0.158676457266586,NaN,-0.0775612987933384,0.105245945563442
1261.4656,-0.591138591682283,-0.333174854369913,-0.706090708552393,1.41229985700409,0.678980229092204,0.678980229093069,NaN,0.025462698521998,-0.861120343471999,0.0218738646779619,1.54802354988889,0.0218738646773757,-0.404169475729676,0.112906502452081,-0.299871416344671,0.152871587824742,-1.77190266966934,-0.97159182402477,1.00500856592227,-1.57766701573612,1.00500856592007,-0.334874611315384,0.97906137980053,0.237297633477436,-0.437161865116684,0.667694051195269,NaN,-1.42957109781265,1.42957109781898,-0.76210686057222,0.198575155729066,1.34190524510902,NaN,NaN,0.142064512034713,0.606017358037425,1.12105493933147,-1.39339897960483,-1.39339897960619,NaN,0.275788509938793,1.78795272444553,-0.536821563124956,0.0297737390915886,-0.807799758465273,-0.137958138048551,-0.200279230417578,-0.20027923041743,NaN,-0.136892208142973,0.0843460225051436
1261.568,-0.5558574461033,-0.328164842540862,-0.672443683354735,1.3804610689824,0.66188701810355,0.661887018104407,NaN,-0.0155645151213748,-0.887543392351628,-0.0219520349460837,1.53367431648637,-0.0219520349466663,-0.356597105983334,0.137567452823128,-0.249101354920304,0.154504745289901,-1.75752430994381,-0.959895284563855,1.00590993740485,-1.56448937339031,1.00590993740266,-0.250127133289515,0.973483278984172,0.319002685934483,-0.481091161823253,0.68719597639289,NaN,-1.41362017124143,1.41362017124771,-0.771702561735937,0.20748299168216,1.32247396250921,NaN,NaN,0.215315569011651,0.653704269297209,1.11562683010091,-1.34645179424953,-1.34645179425093,NaN,0.250779653135159,1.82039224606815,-0.569470547759739,0.0930780447356057,-0.784949425809986,-0.233213292755027,-0.24178283176845,-0.24178283176832,NaN,-0.196686750855942,0.0636150682102138
1261.6704,-0.519827141668329,-0.323233315856176,-0.638187772883686,1.347480493017,0.644674738369345,0.64467473837019,NaN,-0.057712108795294,-0.913185243932324,-0.0683384170033543,1.517137192348,-0.0683384170039327,-0.305520113675414,0.163256181461298,-0.194912797645048,0.155277624723404,-1.7423138670634,-0.948788559205118,1.00708794778234,-1.55055729273966,1.00708794778015,-0.164465760900074,0.964403614585085,0.399574542682173,-0.523898150872514,0.70490865223254,NaN,-1.39532407058078,1.39532407058701,-0.77950961872539,0.217182045576799,1.30253097163175,NaN,NaN,0.287100811050665,0.700490828512283,1.10920570923401,-1.29869024200438,-1.29869024200582,NaN,0.224761760951789,1.84903596203498,-0.601023256630068,0.155241459731636,-0.761713711316415,-0.328803574288262,-0.283044133318076,-0.283044133317962,NaN,-0.256807763268377,0.0430492467060735
1261.7728,-0.483078543425666,-0.318323805547444,-0.603317661254229,1.31334553625063,0.62737148923201,0.627371489232845,NaN,-0.100913954045271,-0.938018544990461,-0.117131311719768,1.4984244152669,-0.117131311720348,-0.251024931135919,0.19005966699101,-0.137344252758511,0.155204651040408,-1.72627360687763,-0.938254012511873,1.00859597709466,-1.53586616887003,1.00859597709248,-0.0782615122593689,0.951855363870466,0.478660513449564,-0.565534644925598,0.720779801560591,NaN,-1.3747367265357,1.37473672654187,-0.785501847537968,0.227648615206135,1.2820519310807,NaN,NaN,0.357303563829743,0.746275614439363,1.10178480546129,-1.2500557378946,-1.25005573789608,NaN,0.197700955145818,1.87381426405575,-0.631450332926049,0.216189655112825,-0.738133537748681,-0.424512539789168,-0.323916311808029,-0.323916311807931,NaN,-0.317116429179609,0.022638267694329
1261.8752,-0.445643866584604,-0.313380354303526,-0.567829502799702,1.27804609509552,0.610004929196009,0.610004929196832,NaN,-0.145099774717559,-0.96201843187329,-0.168167717030731,1.47755480008658,-0.168167717031299,-0.193214226084355,0.218060544939432,-0.0764498944044879,0.154304047096846,-1.70940690495184,-0.928269705912213,1.01048701603686,-1.52041465849317,1.01048701603468,0.00810709350291238,0.935883316266709,0.555907300994825,-0.605956275946768,0.7347607054021,NaN,-1.35191571941165,1.35191571941776,-0.789657492684811,0.238853318416882,1.2610097116244,NaN,NaN,0.425808152451769,0.79095785181622,1.09336065844657,-1.2004902852971,-1.20049028529863,NaN,0.169564676633903,1.89467375087141,-0.660728788605317,0.275856398826072,-0.71425034727155,-0.520122231315705,-0.364249820991892,-0.36424982099181,NaN,-0.377472582936867,0.00236548033138739
1261.9776,-0.407556986841617,-0.308348158548464,-0.531721559652507,1.24157510439271,0.592602331957681,0.592602331958492,NaN,-0.190195164441416,-0.985162142100087,-0.221275805811331,1.45455418276146,-0.221275805811897,-0.132207071217445,0.247335925112248,-0.0123001899773912,0.152597687934612,-1.69171845871124,-0.918809731676271,1.01281273189674,-1.5042048948049,1.01281273189458,0.0942562638063521,0.916543695064027,0.630963013100703,-0.645122483078095,0.746806648843232,NaN,-1.32692243293099,1.32692243293704,-0.791959342869981,0.250761040733573,1.23937478064081,NaN,NaN,0.492500486477813,0.834437881278948,1.08393285915927,-1.14993789802017,-1.14993789802173,NaN,0.14032234884776,1.9115770970384,-0.688841580380628,0.334183315571329,-0.690105716991778,-0.615413642647169,-0.403893411253497,-0.403893411253431,NaN,-0.437735025160983,-0.0177919484917815
1262.08,-0.368853750134625,-0.303174193746597,-0.494994829132917,1.20392909961057,0.575190674334306,0.575190674335104,NaN,-0.236121617857868,-1.00742860654724,-0.276275144013565,1.4294558663438,-0.27627514401413,-0.0681390212060063,0.277956221267755,0.0550175567896507,0.150110942014329,-1.67321450748274,-0.909844569391217,1.0156224647027,-1.48724270183831,1.01562246470054,0.179799253551275,0.893903689527896,0.703479215740426,-0.682996493082451,0.756877395738978,NaN,-1.29982225856453,1.29982225857051,-0.792394860469289,0.263330896013374,1.21711563832844,NaN,NaN,0.557268673142996,0.876617653156797,1.07350375068711,-1.09834606075775,-1.09834606075936,NaN,0.109946057091914,1.92450281389417,-0.715777138729439,0.39111958284394,-0.665740975434155,-0.710167179896204,-0.442695187869096,-0.442695187869045,NaN,-0.497761850932653,-0.0378627792051318
1262.1824,-0.329572273710208,-0.297807822533059,-0.457653653749509,1.16510877629672,0.557796736384468,0.557796736385253,NaN,-0.282796593466873,-1.02879802794529,-0.332976918447243,1.4023010605756,-0.332976918447805,-0.00116208012427346,0.309984002651008,0.125398765423228,0.146872512027595,-1.65390307259804,-0.901341456290732,1.01896217120268,-1.46953781177105,1.01896217120052,0.264348757814049,0.868040909222224,0.773113012665797,-0.719545289804341,0.764937680298149,NaN,-1.27068484163265,1.27068484163855,-0.79095632869305,0.276516199638228,1.19419929853713,NaN,NaN,0.620003647288733,0.917401238546066,1.0620781075093,-1.04566720153264,-1.0456672015343,NaN,0.0784112296674454,1.93344491485077,-0.741528893029061,0.446621595574315,-0.641196849693589,-0.804163109940351,-0.480503699461643,-0.480503699461606,NaN,-0.557410784747324,-0.0578813754954613
1262.2848,-0.289753236954919,-0.292201384693888,-0.41970631190254,1.12511953170826,0.54044719364124,0.540447193642006,NaN,-0.330133620260062,-1.04925145422274,-0.391184179864473,1.37313930427004,-0.391184179865039,0.0685554616363261,0.343472890320084,0.198721268273307,0.142914283197826,-1.63379422203001,-0.893264763909925,1.02287334469053,-1.45110408142047,1.02287334468838,0.347519352712021,0.839042774900486,0.839529136164179,-0.754739565553332,0.770957700788012,NaN,-1.23958435218651,1.23958435219233,-0.787641021158499,0.290264458856071,1.17059180642893,NaN,NaN,0.680599801826654,0.956695349174309,1.04966282619239,-0.991860138568608,-0.991860138570315,NaN,0.0456973068568767,1.93841249178955,-0.766094826517967,0.500652619596543,-0.616513172481456,-0.897181993246558,-0.517169039844252,-0.517169039844228,NaN,-0.616539510003395,-0.0778873191867586
1262.3872,-0.249440160481413,-0.286310759126784,-0.381165582337218,1.0839719760511,0.523168689459076,0.523168689459824,NaN,-0.378042448107768,-1.06877036246158,-0.45069212176258,1.34202886003745,-0.450692121763141,0.140829342772576,0.378466531022983,0.274845162059715,0.138271178995276,-1.61290034686634,-0.885576372749658,1.02739194900654,-1.43195969866107,1.02739194900439,0.428929959878427,0.807005868395849,0.902402037489245,-0.788553648298571,0.774913599755035,NaN,-1.20659975694802,1.20659975695376,-0.78245139396284,0.304517388645484,1.14625878309769,NaN,NaN,0.73895560074273,0.994409857913575,1.03626666510197,-0.936891461262759,-0.936891461264515,NaN,0.0117883856357511,1.9394292076204,-0.789477076743193,0.553182440439823,-0.591728666046456,-0.989005107579069,-0.552543936515799,-0.552543936515788,NaN,-0.67500598070664,-0.0979249754295003
1262.4896,-0.208679661724424,-0.280095874168653,-0.342049258612917,1.04168240040016,0.505987885214812,0.505987885215541,NaN,-0.426429234166197,-1.0873362765951,-0.51128842625186,1.30903707410485,-0.511288426252418,0.215459818244112,0.414997680360037,0.353612850987426,0.13298102452672,-1.59123642996983,-0.878236031580484,1.03254740873789,-1.41212736569255,1.03254740873575,0.508206314298468,0.772035266884274,0.961417971515153,-0.820965409527162,0.776787914913018,NaN,-1.17181506763819,1.17181506764384,-0.775395288964716,0.319210963226398,1.12116598506899,NaN,NaN,0.794974159251032,1.03045831335457,1.02190005496434,-0.880736809177207,-0.880736809179013,NaN,-0.0233261709305064,1.9365327118299,-0.811681583915113,0.604187013215607,-0.566880800013257,-1.07941487422257,-0.586484796870656,-0.586484796870662,NaN,-0.732668709045483,-0.118043023489724
1262.592,-0.167521662933768,-0.273521136404755,-0.302380575480884,0.998273189059434,0.488931491184423,0.488931491185134,NaN,-0.475196760519163,-1.10493044372255,-0.572753705278048,1.27424069789607,-0.572753705278604,0.292232333089703,0.453087418461689,0.434849303630914,0.127084424912962,-1.56882029377979,-0.871201683037402,1.03836169150426,-1.39163444516716,1.03836169150212,0.584983422180242,0.734243882898385,1.01627707476533,-0.851956170383039,0.776569984653681,NaN,-1.13531954515352,1.13531954515909,-0.766486126740226,0.334275515410629,1.0952798658862,NaN,NaN,0.848563781418421,1.06475844209949,1.0065749782177,-0.823382019568844,-0.823382019570699,NaN,-0.0596511718870609,1.9297739859242,-0.832717787040953,0.653648128297867,-0.542005705733291,-1.16819529559622,-0.618852691759496,-0.618852691759519,NaN,-0.789387026385598,-0.138293972181735
1262.6944,-0.126019524738043,-0.266555755169826,-0.262188510747304,0.953773170322202,0.472026282074931,0.472026282075622,NaN,-0.52424468640855,-1.12153358826879,-0.634862052214938,1.23772617284196,-0.634862052215496,0.370918392617449,0.492744513178575,0.518362538031849,0.120624669026253,-1.54567282234439,-0.864429738490685,1.04484850406433,-1.37051305940902,1.04484850406219,0.658908000381829,0.693751827434547,1.06669543846566,-0.881510627013389,0.774256293241601,NaN,-1.09720784505577,1.09720784506126,-0.755743066679035,0.349635897229532,1.06856812680109,NaN,NaN,0.899638452275944,1.09723263140274,0.990304906440987,-0.764824121743539,-0.764824121745438,NaN,-0.097185096459438,1.91921662245022,-0.852598370792794,0.701553113177982,-0.51713812793022,-1.25513240884573,-0.649514269563023,-0.649514269563063,NaN,-0.845021315619005,-0.158733680613215
1262.7968,-0.0842300867753518,-0.259173952838794,-0.221507940820577,0.908217908300512,0.455299102211898,0.45529910221257,NaN,-0.573469842804497,-1.13712575746534,-0.697381709394089,1.19958988393822,-0.697381709394643,0.451276633849602,0.533964941135275,0.603944343407912,0.113647664120673,-1.52181815329458,-0.857875292009122,1.05201261050773,-1.34880014100427,1.05201261050558,0.729640893087725,0.650685809085293,1.11240717987312,-0.909616810110186,0.76985074314885,NaN,-1.05758009423588,1.05758009424129,-0.743191119109519,0.365211713520753,1.04100024293817,NaN,NaN,0.948118284731213,1.12780838433734,0.973104796900083,-0.705072166441333,-0.705072166443274,NaN,-0.135919657496773,1.90493603930591,-0.871339066740483,0.747894586634539,-0.492311400446005,-1.34001475689129,-0.678342602302233,-0.678342602302292,NaN,-0.89943321449103,-0.179420903149684
1262.8992,-0.0422136079672971,-0.251355061470776,-0.180379643786902,0.861649943098318,0.43877686552685,0.438776865527506,NaN,-0.622766575612907,-1.15168627195919,-0.760075854813223,1.15993838461598,-0.760075854813779,0.533054094065249,0.576731571339005,0.691371236828062,0.106201899141102,-1.49728383012789,-0.851492269969773,1.05984927588032,-1.32653744101959,1.05984927587815,0.796859460873721,0.60517857595685,1.15316651096284,-0.936266085490783,0.76336484596932,NaN,-1.01654189047587,1.01654189048119,-0.728861201578707,0.380917635922429,1.01254795170959,NaN,NaN,0.993929920006669,1.15641874072808,0.954991162739187,-0.644147888068175,-0.644147888070154,NaN,-0.175839425977919,1.88701863333097,-0.888958509313018,0.792670271986711,-0.467557438735435,-1.42263387509067,-0.705217962892694,-0.705217962892769,NaN,-0.952485793505148,-0.200416876492495
1263.0016,-3.36072191894187e-05,-0.243083514770939,-0.13885015581677,0.814118979797364,0.422486549086706,0.422486549087349,NaN,-0.672027139995413,-1.16519379119888,-0.822703500162257,1.11888858263524,-0.822703500162812,0.615987653655858,0.621014003287474,0.780405632068991,0.0983384291198291,-1.47210090470158,-0.845233519690275,1.06834383997379,-1.30377150466956,1.06834383997161,0.860259919361104,0.55736840275118,1.18874978300721,-0.961453197494729,0.754817830138725,NaN,-0.97420421908973,0.974204219094963,-0.71279013217617,0.396663799006146,0.983185694249162,NaN,NaN,1.03700687870736,1.18300265914707,0.935982227010077,-0.582086202337862,-0.582086202339878,NaN,-0.216921509999556,1.86556088058469,-0.905478143458562,0.835882869734985,-0.442906743997491,-1.50278478909151,-0.73002852566021,-0.730028525660304,NaN,-1.00404371654558,-0.221784964842632
1263.104,0.042243386109092,-0.234348753680135,-0.0969714995127822,0.765682009118988,0.406455165769854,0.406455165770485,NaN,-0.721142143818041,-1.17762648249986,-0.885020468002429,1.07656785945672,-0.885020468002984,0.699805607499292,0.66676853673744,0.870797172147542,0.0901108672557955,-1.44630398901271,-0.839050854256582,1.07747142912872,-1.2805536194385,1.07747142912652,0.919559569924795,0.507398623125559,1.21895744942686,-0.985176353816017,0.744236670596706,NaN,-0.930683284892147,0.930683284897295,-0.695020547941001,0.412356275862698,0.952891009952765,NaN,NaN,1.07728986150187,1.20750535677098,0.916098149956622,-0.518935541061455,-0.5189355410635,NaN,-0.25913528598387,1.84066839269487,-0.920922175456436,0.877539981030748,-0.418388415545881,-1.58026652064929,-0.75267098275186,-0.752670982751972,NaN,-1.05397339765957,-0.243590363218924
1263.2064,0.084548150705608,-0.225145071676756,-0.0548008176428125,0.716403330334009,0.390709693396706,0.390709693397323,NaN,-0.7700010325359,-1.18896225929891,-0.94678040589333,1.03311408459313,-0.94678040589389,0.784229306510588,0.713938246784063,0.962284164853414,0.08157536085397,-1.41993126288673,-0.832895089539604,1.0871968188729,-1.25693972901984,1.08719681887069,0.974498840204601,0.455417204391206,1.24361586272671,-1.00743734269465,0.73165604727888,NaN,-0.886100259695234,0.886100259700288,-0.675600730769448,0.42789763277579,0.921644895198088,NaN,NaN,1.11472700038524,1.22987860300687,0.895361302250802,-0.454758023415804,-0.454758023417881,NaN,-0.302442179530628,1.81245494258408,-0.935317546807378,0.917654052176441,-0.394030174788684,-1.65488260309769,-0.773051079337188,-0.77305107933732,NaN,-1.10214317245292,-0.265899828736433
1263.3088,0.126809131087457,-0.215471425962721,-0.012399953116192,0.666354455050883,0.375276944282605,0.375276944283207,NaN,-0.818492601564933,-1.19917905177171,-1.00773581761442,0.988675489394864,-1.00773581761499,0.868974816959994,0.762453149282669,1.05459507032431,0.0727905186844365,-1.3930244406147,-0.826716118453785,1.09747446352508,-1.23299029729433,1.09747446352286,1.02484306299486,0.401576358017584,1.26257883008099,-1.02824166156493,0.717118236701078,NaN,-0.840580945206258,0.840580945211214,-0.654584324608367,0.44318757079796,0.88943214218105,NaN,NaN,1.14927406085528,1.25008096093365,0.873796558634246,-0.389629462561492,-0.389629462563593,NaN,-0.346795488973296,1.7810414819926,-0.94869390102916,0.956242288688524,-0.369858413699152,-1.72644161261409,-0.791084080340602,-0.791084080340757,NaN,-1.14842350357931,-0.288781387987809
1263.4112,0.168952807602532,-0.205331232770795,0.0301649907717708,0.615613892516442,0.360183374314126,0.360183374314715,NaN,-0.86650551791426,-1.20825509080241,-1.06763912263905,0.943410376827075,-1.06763912263961,0.953754561260069,0.812230456389211,1.14745000950654,0.0638172587683241,-1.36562868977516,-0.820463059091944,1.10824870674112,-1.20877010669609,1.10824870673887,1.07038395701208,0.34603217944125,1.2757288871658,-1.04759863069142,0.700672939504446,NaN,-0.794255351390023,0.794255351394875,-0.632029940052275,0.458123666343091,0.856241672188421,NaN,NaN,1.18089459283602,1.26807797161208,0.851431596856866,-0.323639209417509,-0.323639209419627,NaN,-0.392140245686804,1.74655518391909,-0.961083515387312,0.993326488360429,-0.345898283057943,-1.79475772174363,-0.806695182797641,-0.806695182797817,NaN,-1.19268723582184,-0.312303971469637
1263.5136,0.210904062941858,-0.194732156449228,0.0728240906040763,0.564266832984778,0.345454839830605,0.345454839831182,NaN,-0.91392883315316,-1.21616920324244,-1.12624376503854,0.897486654018383,-1.1262437650391,1.03827891773195,0.863174927054227,1.24056227622441,0.054718556167534,-1.33779248949568,-0.814084495384111,1.11945418386456,-1.18434798064246,1.11945418386229,1.11094080114846,0.288944316464652,1.28297828140669,-1.06552147090012,0.682377047659781,NaN,-0.74725718998519,0.747257189989939,-0.608000656706181,0.472602217775291,0.822066874462572,NaN,NaN,1.2095600245612,1.28384227947705,0.828297189275882,-0.25688984078342,-0.256889840785552,NaN,-0.438413111755145,1.70912854634946,-0.972521182978824,1.02893276721615,-0.322173828138892,-1.85965127879525,-0.819819883486403,-0.819819883486601,NaN,-1.23480990919853,-0.336536945207892
1263.616,0.25258654240979,-0.183685897936034,0.115504038008098,0.512404746046879,0.331116310248156,0.331116310248725,NaN,-0.960652475654901,-1.22290112012186,-1.1833053817326,0.851081181279842,-1.18330538173317,1.12225776488513,0.915179311517593,1.33363984008966,0.0455590851853483,-1.30956741867865,-0.807528811419955,1.13101642322538,-1.15979642531889,1.13101642322309,1.14636130826007,0.230475670324562,1.28426967309405,-1.08202733448206,0.662294355421206,NaN,-0.699723282324047,0.699723282328694,-0.582563439124411,0.486519195270176,0.786905956272421,NaN,NaN,1.23524969208804,1.29735369867384,0.804427471186379,-0.189496701319639,-0.189496701321783,NaN,-0.485542323012688,1.66889858209971,-0.983044045355957,1.06309118077962,-0.298708169293441,-1.92094941427864,-0.830404306895428,-0.830404306895649,NaN,-1.27467013085478,-0.361549531707698
1263.7184,0.293923013818266,-0.172207985904167,0.158128572968284,0.460124904008261,0.317191542890504,0.317191542891064,NaN,-1.00656771831566,-1.22843179707813,-1.23858302485304,0.804378940983717,-1.2385830248536,1.20540196119042,0.968124881887187,1.4263868293027,0.0364047659408302,-1.28100787573643,-0.800744607241424,1.14285264103443,-1.13519119418843,1.14285264103212,1.17652221710194,0.170792130091647,1.27957657341433,-1.09713728615046,0.640495218395908,NaN,-0.651792883212348,0.651792883216882,-0.555788481605102,0.499771282638353,0.75076230103784,NaN,NaN,1.25795080083678,1.30859922047639,0.779860173764122,-0.121587304447559,-0.121587304449719,NaN,-0.533447692016496,1.6260060956062,-0.992691383200243,1.09583526021185,-0.275523716335983,-1.97848667457409,-0.83840549328574,-0.838405493285986,NaN,-1.31215000145763,-0.387410131338252
1263.8208,0.334835733312315,-0.160317569906556,0.200618921172314,0.407529838292575,0.303702730614467,0.30370273061502,NaN,-1.0515676223083,-1.23274374662472,-1.29184042560833,0.757572042538355,-1.29184042560888,1.28742475785578,1.02188204145612,1.51850498821942,0.0273222388901142,-1.25217074464434,-0.793681174646505,1.15487270392233,-1.11061078884477,1.15487270392,1.20132963080896,0.110062331781836,1.26890354282572,-1.1108762356178,0.617056167252488,NaN,-0.603606927478746,0.60360692748317,-0.527748498918423,0.512256991502593,0.713644824167529,NaN,NaN,1.27765832208311,1.31757296254191,0.754636820944182,-0.0533005915714532,-0.0533005915736239,NaN,-0.582040689471155,1.58059502345445,-1.00150436972532,1.12720148703396,-0.252642396311733,-2.03210568282125,-0.843791638228186,-0.843791638228456,NaN,-1.34713558884225,-0.414185570983661
1263.9232,0.375246816189523,-0.148037211650988,0.242894236782949,0.354726741478412,0.290670139033667,0.290670139034215,NaN,-1.09554745670943,-1.23582138125138,-1.34284728592331,0.71085858953999,-1.34284728592387,1.36804314826566,1.07631101068348,1.60969511197041,0.0183782975638383,-1.22311502801725,-0.786289006570336,1.1669802177018,-1.08613591627486,1.16698021769945,1.22071912887382,0.0484574228001107,1.25228616545742,-1.1232728233154,0.592059486319197,NaN,-0.555307210587194,0.555307210591507,-0.498517985003493,0.523877817344992,0.675568314201755,NaN,NaN,1.29437483131896,1.32427606113914,0.728802897603023,0.0152139480864668,0.0152139480842879,NaN,-0.631224620371281,1.53281180444857,-1.00952578602157,1.15722872691553,-0.230085869439555,-2.08165782583518,-0.846542267538726,-0.846542267539018,NaN,-1.37951743677421,-0.44194031709421
1264.0256,0.415078602100092,-0.135392670403127,0.284872043659761,0.301826830442697,0.278111750201077,0.278111750201619,NaN,-1.13840509271476,-1.23765136069556,-1.39138058322568,0.664441436642991,-1.39138058322622,1.44697915707223,1.13126258704341,1.69965845955053,0.00963930558699838,-1.19390145954636,-0.778520313638461,1.1790737003984,-1.0618489224471,1.17907370039602,1.23465566998662,-0.0138491950598319,1.2297908012701,-1.13435925602723,0.565592769954271,NaN,-0.507035518203976,0.507035518208176,-0.468172464077558,0.534539396048745,0.636553749783989,NaN,NaN,1.30811029492131,1.32871650826753,0.7024079945545,0.0837972826504055,0.0837972826482214,NaN,-0.680894901098702,1.48280475144002,-1.0167996986872,1.185957637566,-0.207875716169011,-2.12700396149605,-0.84664833121569,-0.846648331216006,NaN,-1.40919109236957,-0.470735690153194
1264.128,0.454254000686946,-0.122412678451632,0.326468665188453,0.248944678780469,0.266042922649687,0.266042922650226,NaN,-1.18004137006826,-1.23822293045454,-1.43722586984867,0.618526857417883,-1.43722586984921,1.52396106489686,1.18657896814727,1.78809813759956,0.00117061602164901,-1.16459209709606,-0.770329524820185,1.19104780838618,-1.0378332167602,1.19104780838379,1.2431332935689,-0.0766821659348612,1.20151411102752,-1.14417108879402,0.537748468077297,NaN,-0.458932718651081,0.458932718655161,-0.436787754467092,0.544152616656855,0.596628587078597,NaN,NaN,1.3188818110147,1.33090894011481,0.675505926654278,0.15228194539658,0.152281945394394,NaN,-0.730939433687431,1.43072341610762,-1.02337110599025,1.21343006406873,-0.186033589538894,-2.16801513712222,-0.844112206796524,-0.844112206796862,NaN,-1.43605763892421,-0.500629108424668
1264.2304,0.492696813085563,-0.109128699021373,0.367599643069277,0.196197514198986,0.254476071763553,0.254476071764092,NaN,-1.2203604304705,-1.23752823641591,-1.48017854165501,0.573323137755282,-1.48017854165554,1.5987245605313,1.24209462436132,1.87472044231494,-0.00696399235321845,-1.1352498984648,-0.761673754121481,1.2027945962424,-1.01417269398952,1.20279459623999,1.24617462169813,-0.139864529543346,1.16758235226031,-1.15274695992822,0.508623426444621,NaN,-0.411137828184481,0.411137828188444,-0.404439257498363,0.552634656242516,0.555827011313433,NaN,NaN,1.32671331324009,1.33087439083576,0.648154809785212,0.220493227931224,0.220493227929041,NaN,-0.781239071734753,1.37671795863957,-1.02928556289622,1.23968844004461,-0.164581327537473,-2.20457331021279,-0.838947610478939,-0.838947610479302,NaN,-1.46002422968951,-0.531673378747095
1264.3328,0.53033204118727,-0.0955746542195023,0.408180162541714,0.143704472141534,0.243420374410642,0.243420374411181,NaN,-1.25927001302653,-1.23556260508382,-1.52004504631884,0.529039109115422,-1.52004504631936,1.67101381620054,1.29763721433533,1.95923615301352,-0.0147028506950466,-1.10593828427576,-0.752513221512161,1.21420479767142,-0.990951155355985,1.214204797669,1.24383016100022,-0.203218113899856,1.12815044946734,-1.16012829780785,0.478318420376394,NaN,-0.363787059710586,0.363787059714432,-0.371201277919338,0.559909920367809,0.51419014125594,NaN,NaN,1.33163524790622,1.32864002912722,0.620417078959388,0.288250449193588,0.288250449191406,NaN,-0.831668172452112,1.3209385430178,-1.03458879546396,1.26477521758971,-0.14354101509312,-2.23657206409454,-0.831179418491194,-0.831179418491584,NaN,-1.4810046220533,-0.56391604714024
1264.4352,0.567086206551213,-0.0817866103766239,0.44812551035939,0.0915858045966374,0.232881503399675,0.232881503400215,NaN,-1.29668171384481,-1.23232479097737,-1.55664400737946,0.485882641969917,-1.55664400737997,1.74058248938365,1.35302854716104,2.04136178185088,-0.0219869028596625,-1.07672068546962,-0.742811620011013,1.22516911601574,-0.968251731343887,1.2251691160133,1.23617740486768,-0.266563961484354,1.08340084453728,-1.16635901934447,0.446937675482166,NaN,-0.317012871311089,0.317012871314822,-0.337146381257092,0.565910885534631,0.471766173170482,NaN,NaN,1.33368423255316,1.32423889140233,0.592359439078659,0.355368290291299,0.355368290289122,NaN,-0.882095224416228,1.26353477245864,-1.03932631267136,1.28873234649841,-0.122934984340399,-2.26391730858871,-0.820843402836012,-0.820843402836424,NaN,-1.49891970636157,-0.597398823978444
1264.5376,0.602887697497499,-0.0678024142686009,0.487351585406789,0.0399620549205702,0.222861395755068,0.222861395755608,NaN,-1.33251121949241,-1.22781720551684,-1.58980725317382,0.444059128162357,-1.58980725317432,1.80719466092548,1.408085599499,2.12082079142819,-0.0287601703866754,-1.04766007088183,-0.732536419453858,1.23557950843403,-0.946156311254817,1.23557950843157,1.2233197417691,-0.329722778640055,1.03354213915652,-1.17148523289644,0.414588366530937,NaN,-0.270943033794358,0.270943033797979,-0.302344794986641,0.57057884307542,0.428610449972371,NaN,NaN,1.33290270225437,1.31770961998766,0.56405275431714,0.421658181770272,0.4216581817681,NaN,-0.932383537964971,1.20465517205364,-1.04354302298702,1.31160081793199,-0.102785746900745,-2.28652795349521,-0.807985887759633,-0.807985887760067,NaN,-1.51369801641867,-0.63215710327476
1264.64,0.637667150758972,-0.053661282515353,0.525775466211195,-0.0110467843096404,0.213358055533488,0.21335805553403,NaN,-1.366678525566,-1.22204614313574,-1.61938074861851,0.403769987404738,-1.61938074861898,1.87062571919129,1.46262159191554,2.19734479036233,-0.0349701673207545,-1.01881846345678,-0.721659096178472,1.24533043944152,-0.924744984420657,1.24533043943905,1.20538518943395,-0.39251539975006,0.978807553985322,-1.17555495156848,0.381380087088646,NaN,-0.225699733939228,0.22569973394274,-0.266863860948526,0.573864542104949,0.384785438139322,NaN,NaN,1.32933855191386,1.30909621185167,0.53557188579992,0.486929728990535,0.48692972898837,NaN,-0.982391987640184,1.14444672415064,-1.0472828667246,1.33342028279678,-0.0831158634871953,-2.30433654165823,-0.792663336294444,-0.7926633362949,NaN,-1.52527620580615,-0.668219594834283
1264.7424,0.671357861654103,-0.0394033542337762,0.563316024326763,-0.0613221154393003,0.204365390995811,0.204365390996357,NaN,-1.39910814796257,-1.21502200717418,-1.64522542605734,0.365211232049242,-1.64522542605779,1.9306631955274,1.51644711978957,2.27067470943174,-0.0405682502267095,-0.990256465236401,-0.710155282548263,1.25432007519289,-0.9040954985748,1.25432007519041,1.1825249894713,-0.454763264434055,0.919453240280632,-1.17861781977889,0.347424286788676,NaN,-0.181398725621134,0.181398725624539,-0.230767545806573,0.575728728866828,0.340360593116881,NaN,NaN,1.32304478345898,1.29844778068666,0.506995477615754,0.550992158128966,0.550992158126808,NaN,-1.03197579714766,1.08305446060101,-1.05058848036012,1.35422875071431,-0.0639477693465604,-2.31728982750129,-0.774941878781596,-0.774941878782071,NaN,-1.5335994742429,-0.705608079422227
1264.8448,0.703896209074293,-0.02506922231769,0.59989456285119,-0.110747571287385,0.195873087741742,0.195873087742292,NaN,-1.42972932839832,-1.20675952169364,-1.66721790586171,0.328572113252887,-1.66721790586214,1.98710755396612,1.56937132929019,2.34056195693949,-0.0455098964206995,-0.962032809135858,-0.698004838995983,1.26245139593602,-0.884282742175459,1.26245139593354,1.15491209757453,-0.516288912466329,0.855756476458496,-1.18072485575129,0.312833675309748,NaN,-0.138148535368676,0.138148535371974,-0.194116016997908,0.576142582920414,0.295412096639738,NaN,NaN,1.31407916258543,1.2858183304453,0.478405683428407,0.613655759519948,0.613655759517793,NaN,-1.08098735700896,1.02062111345614,-1.05350091009773,1.37406237350105,-0.0453035780858254,-2.32534929041008,-0.754896794553018,-0.754896794553512,NaN,-1.53862193189876,-0.74433728538986
1264.9472,0.73522207785965,-0.0106994602741315,0.635435455201323,-0.159209832095329,0.187866520964074,0.187866520964628,NaN,-1.45847622862714,-1.19727790927754,-1.68525110008485,0.294033857428295,-1.68525110008526,2.03977293954713,1.62120313199959,2.4067695544156,-0.0497549120156522,-0.934203948855914,-0.685191858230268,1.26963321475593,-0.865378254142838,1.26963321475344,1.12273959113504,-0.576916501616066,0.788013768431991,-1.18192821270089,0.277721590879896,NaN,-0.0960497223376841,0.0960497223408764,-0.156965294299995,0.575088054806386,0.25002245622472,NaN,NaN,1.30250388413107,1.27126653337935,0.449887831834574,0.67473330575057,0.674733305748417,NaN,-1.12927706616437,0.957286825734803,-1.05605938410556,1.39295531278974,-0.0272048791030941,-2.32849158111767,-0.732611953147682,-0.732611953148192,NaN,-1.5403068993797,-0.784414874456301
1265.0496,0.765279259614012,0.00366584168595516,0.669866759790049,-0.206599412304864,0.180326709112137,0.180326709112696,NaN,-1.48528810296492,-1.18660102089746,-1.69923470364266,0.261768493844302,-1.69923470364306,2.08848788856307,1.67175245541493,2.46907325436148,-0.0532675754674255,-0.906823693840696,-0.671704613728056,1.27578109717733,-0.847449757435329,1.27578109717483,1.08621900284775,-0.636472350016176,0.716538861389999,-1.18228095958265,0.242201331688604,NaN,-0.0551941894875262,0.0551941894906131,-0.119366987401841,0.572558111479548,0.204279969204059,NaN,NaN,1.28838524224848,1.25485550293174,0.421530039245328,0.734041431894787,0.734041431892633,NaN,-1.17669418932077,0.893188924466904,-1.05830113805645,1.41093967833562,-0.00967253595259606,-2.32670890452562,-0.708179218205286,-0.708179218205816,NaN,-1.53862715196565,-0.82584151653351
1265.152,0.794015816485242,0.0179875235751872,0.703120792689144,-0.252811408070599,0.173230308338055,0.173230308338617,NaN,-1.51010944045827,-1.17475741141633,-1.70909558238325,0.231937774978452,-1.70909558238362,2.13309599635272,1.72083152246653,2.52726263349282,-0.0560167255753714,-0.879942889005842,-0.657535464209385,1.28081817618406,-0.830560710321352,1.28081817618156,1.04557858333819,-0.694785501322414,0.641660667071933,-1.18183687874352,0.206385454056809,NaN,-0.0156645472232769,0.0156645472262701,-0.0813681227705233,0.568556893689028,0.158278067047901,NaN,NaN,1.27179330210638,1.23665255185941,0.393422778729678,0.791401975671854,0.791401975669701,NaN,-1.22308771978873,0.828461752633983,-1.0602612786526,1.42804551036219,0.0072735072163296,-2.32000934003841,-0.681697820042919,-0.681697820043469,NaN,-1.53356512135086,-0.868611029552538
1265.2544,0.821384403752151,0.0322277824374781,0.735134652857223,-0.297746203257442,0.166549644338749,0.166549644339317,NaN,-1.53289007469605,-1.16178035361358,-1.71477805570278,0.204692195881232,-1.71477805570315,2.17345652957262,1.76825614494122,2.58114214413395,-0.0579758054952062,-0.853609131939746,-0.642680724591476,1.28467585314556,-0.814769872947203,1.28467585314305,1.00106149548926,-0.751688309195966,0.563721111252643,-1.18065027576509,0.170385047892483,NaN,0.0224664591285786,-0.0224664591256797,-0.0430110515490258,0.563099785711835,0.112114561540882,NaN,NaN,1.25280157482529,1.21672892772824,0.365658402136187,0.846643279894823,0.846643279892669,NaN,-1.26830723289216,0.763236543711297,-1.06197267346497,1.4443007810486,0.0236144003197917,-2.3084170969648,-0.65327370933927,-0.653273709339841,NaN,-1.52511306584345,-0.912710560321803
1265.3568,0.847342560369693,0.0463505773209114,0.765850706938968,-0.341310136122818,0.160252777237645,0.160252777238216,NaN,-1.55358526455425,-1.14770777929302,-1.71624405510061,0.18017012026725,-1.71624405510097,2.20944496892007,1.81384701282242,2.6305321044243,-0.0591228706540307,-0.827866523576492,-0.627140511237416,1.28729437261552,-0.800130890234818,1.28729437261301,0.952923945899158,-0.807017037704378,0.483072908876351,-1.17877579870304,0.134309003923562,NaN,0.0591364389582273,-0.0591364389554194,-0.00433342344519623,0.556213395957915,0.0658908142188742,NaN,NaN,1.23148670381096,1.19515952041851,0.338330604195068,0.899601458506348,0.899601458504195,NaN,-1.31220371174857,0.697641312921194,-1.06346586717191,1.45973140721066,0.0393325336633902,-2.2919727016329,-0.623018908433369,-0.623018908433962,NaN,-1.51327321358643,-0.95812078692727
1265.4592,0.871852980704133,0.0603220103534265,0.795217044003695,-0.383416125664489,0.154303596269615,0.154303596270189,NaN,-1.57215575082325,-1.13258213970485,-1.71347314040671,0.158497017125918,-1.71347314040707,2.2409534765363,1.85743096591954,2.67526961684097,-0.0594405608246111,-0.802755456684522,-0.610918564719638,1.28862326277776,-0.786691893045175,1.28862326277527,0.901433264942441,-0.860612473958343,0.400077280497092,-1.17626826777635,0.0982632881817032,NaN,0.0942937448580604,-0.0942937448553402,0.0346317844568733,0.547935448608755,0.0197108531901799,NaN,NaN,1.20792817010344,1.17202253731978,0.311533820328744,0.950121619977005,0.95012161997486,NaN,-1.35463033155226,0.631800743603427,-1.06476903106746,1.47436128307401,0.0544116555611835,-2.27073311133623,-0.591050874115617,-0.591050874116233,NaN,-1.49805787493361,-1.00481613097444
1265.5616,0.894883773447654,0.0741106815136982,0.823187904074618,-0.423984248035928,0.148661943704972,0.14866194370555,NaN,-1.58856779348006,-1.11645019021583,-1.70646237507016,0.13978480777275,-1.70646237507051,2.26789129276717,1.89884223933241,2.71520941559355,-0.0589160339271301,-0.778312447889501,-0.594022050662181,1.28862164227073,-0.774495120878423,1.28862164226824,0.846865955442521,-0.912320545542647,0.315101634442073,-1.1731825173274,0.0623502387653407,NaN,0.127897750336785,-0.127897750334156,0.0738561834743109,0.538314589700033,-0.0263195342176162,NaN,NaN,1.18220801520687,1.14739914064901,0.285362560534489,0.998059029877057,0.998059029874916,NaN,-1.39544319971365,0.565836062983634,-1.06590795091477,1.48821234626205,0.0688369686430511,-2.24477174603723,-0.557491877421113,-0.557491877421751,NaN,-1.4794895128003,-1.05276497437568
1265.664,0.916408705633133,0.0876880136753873,0.849724076680338,-0.462942248710521,0.143283768717221,0.143283768717804,NaN,-1.60279319252196,-1.09936271344322,-1.6952260802636,0.124131324735216,-1.69522608026396,2.2901850690574,1.93792367246474,2.75022464449618,-0.0575408613445252,-0.754570016670958,-0.576461340657746,1.28725840198857,-0.763576571230548,1.2872584019861,0.78950573909473,-0.961992932375675,0.228517249980754,-1.16957324920918,0.0266678996959183,NaN,0.15991901739694,-0.159919017394396,0.113315824329339,0.527410113451599,-0.0720937061147946,NaN,NaN,1.15441057224636,1.12137304173856,0.25991068874862,1.04328018765203,1.0432801876499,NaN,-1.43450205870388,0.499864917979525,-1.0669060543809,1.50130468409337,0.0825952112144506,-2.21417842514274,-0.522468398211617,-0.522468398212277,NaN,-1.45760075923061,-1.1019298764034
