time,S1-D1,S1-D8,S1-D9,S1-D15,S2-D1,S2-D2,S2-D3,S2-D9,S3-D1,S3-D2,S3-D16,S4-D2,S4-D3,S4-D5,S5-D3,S5-D4,S5-D5,S6-D2,S6-D5,S6-D17,S7-D6,S7-D7,S8-D6,S8-D7,S8-D18,S9-D3,S9-D4,S9-D9,S9-D11,S9-D19,S10-D8,S10-D9,S10-D10,S10-D11,S11-D8,S11-D10,S11-D20,S12-D10,S12-D11,S12-D12,S13-D4,S13-D11,S13-D12,S14-D10,S14-D12,S14-D21,S15-D13,S15-D14,S16-D13,S16-D14,S16-D22
1057.4848,1.2303800189927,-1.23946046812618,0.567271792945241,-0.194447906013751,-1.10637182410311,-1.10637182410269,NaN,-1.28787662368954,0.417172677454036,1.26876971040904,2.90409863722995,1.26876971041013,0.954914910997338,-1.77184612418646,NaN,1.03657556760095,NaN,-0.0976320283357434,-0.124719520723274,-0.683536218587445,-0.124719520721933,1.13288318098983,-1.8009355165002,-0.566227589184254,0.0806349367301542,-0.705339383471039,NaN,NaN,-0.777059789391309,-0.692976895409881,-1.74741023434632,-0.783168144764257,-2.13531876952529,-0.873603131314482,-2.13667101456557,-1.90008573955945,0.582600445871513,-2.28211289300088,-2.28211289299832,-0.126669855822496,-1.09054535008747,NaN,NaN,0.956931351292945,0.441719465903065,1.89355927045759,-1.9764033930175,-1.97640339301627,1.13076612133984,-1.13076612134107,-0.495841798658369
1057.5872,1.20416210366931,-1.22630523710242,0.547862824239568,-0.236396360569876,-1.12177093299326,-1.1217709329928,NaN,-1.28125964645722,0.404073484672162,1.24896462540852,2.86298021495564,1.2489646254096,0.919212740964955,-1.74786229690232,NaN,1.01084100856552,NaN,-0.112076341817771,-0.149168520732191,-0.676579135741413,-0.149168520730876,1.07732097694835,-1.80274064304829,-0.628041310691739,0.0918901131545476,-0.694908179736488,NaN,NaN,-0.780028840761507,-0.656785200609404,-1.72608813361505,-0.796269180763797,-2.12128849848158,-0.866956998384544,-2.09692085576216,-1.87179818579781,0.606983998761779,-2.25839457861262,-2.25839457861006,-0.123519052399181,-1.04701019591697,NaN,NaN,0.980776897895477,0.461882965990807,1.91578304136048,-1.98252230733964,-1.98252230733838,1.16677482460642,-1.16677482460762,-0.413763573296768
1057.6896,1.17689798973962,-1.21176987874465,0.528151658490057,-0.278289954962252,-1.13635568228185,-1.13635568228136,NaN,-1.27312321729534,0.391261515561757,1.22813633077532,2.81919175625192,1.22813633077637,0.883657864683466,-1.72192291322825,NaN,0.986568988901675,NaN,-0.123048024925022,-0.172918609225617,-0.669434360542129,-0.172918609224324,1.02240057507066,-1.80360788170733,-0.688229553116652,0.102177816476532,-0.684257966262029,NaN,NaN,-0.783258730903085,-0.620506741034121,-1.70346042167062,-0.809450390273756,-2.10601590083859,-0.857652617490765,-2.05478330133365,-1.84015109718543,0.63164254459211,-2.23347041609361,-2.23347041609104,-0.121597822260366,-1.00309747541039,NaN,NaN,1.00526915908028,0.481732214610198,1.93696713328742,-1.98823213227546,-1.98823213227417,1.20223363005049,-1.20223363005165,-0.33259730500991
1057.792,1.14861229680976,-1.19582382178624,0.508180227700072,-0.320037982656192,-1.15003307731876,-1.15003307731824,NaN,-1.26347500109798,0.378727379422183,1.20628894904311,2.77288659888279,1.20628894904414,0.84829914473608,-1.69404437673592,NaN,0.963841006774419,NaN,-0.130457984474299,-0.195915037625343,-0.662085922240781,-0.195915037624081,0.968242511352646,-1.8035128614936,-0.74663788780562,0.111448429749091,-0.67337246567021,NaN,NaN,-0.786733997224254,-0.584206784124824,-1.67950952628878,-0.822813019286608,-2.08953741861207,-0.845680975077677,-2.01028759018072,-1.80515506199193,0.656513116643833,-2.2073850253716,-2.20738502536903,-0.120887575729652,-0.958837104869932,NaN,NaN,1.03038637295865,0.501188470826303,1.95704808490846,-1.99354590580794,-1.99354590580664,1.23707163221701,-1.23707163221814,-0.252501593720988
1057.8944,1.11932987674901,-1.17844033685696,0.487988578385826,-0.361550286311728,-1.16271235787936,-1.16271235787881,NaN,-1.25232616266597,0.366459684123965,1.18342713207033,2.72421926399052,1.18342713207134,0.813182075672725,-1.66424846521944,NaN,0.942731787890336,NaN,-0.134229903550504,-0.218106140423442,-0.654518139960454,-0.218106140422199,0.914960873351403,-1.80243407927563,-0.803121702284709,0.11965546679415,-0.66223676772331,NaN,NaN,-0.790439394829866,-0.547949217988954,-1.65422039475478,-0.836459598833109,-2.07189265533686,-0.831040994334081,-1.96346751328744,-1.76682918250844,0.681532318590001,-2.18018781093279,-2.1801878109302,-0.121366054354684,-0.914258860615255,NaN,NaN,1.05610516657567,0.52017403444462,1.97596621789113,-1.99847713239028,-1.99847713238896,1.27122163886182,-1.27122163886292,-0.173626484620659
1057.9968,1.08907549746656,-1.15959648958948,0.467614575746686,-0.402737629803937,-1.17430490449531,-1.17430490449473,NaN,-1.23969110440392,0.354444987792395,1.15955589374625,2.67334422762425,1.15955589374723,0.778348503463971,-1.63256216154595,NaN,0.923308794711248,NaN,-0.134300705033474,-0.239443430793927,-0.646715701118768,-0.239443430792704,0.862662792514175,-1.80035297793301,-0.857546826341238,0.126755821455915,-0.650837298552204,NaN,NaN,-0.79435976450573,-0.511796519424793,-1.62758033667188,-0.850493516533967,-2.05312399397718,-0.813739570358975,-1.91436101399947,-1.72520086556817,0.706636485848361,-2.15193278306169,-2.1519327830591,-0.123007371331527,-0.869392013681302,NaN,NaN,1.08240048116387,0.538612544530923,1.99366600568721,-2.00303975011996,-2.00303975011863,1.30462030464322,-1.3046203046443,-0.0961129804230172
1058.0992,1.05787352925759,-1.13927307617969,0.447093620139814,-0.443512077617143,-1.18472408477348,-1.18472408477286,NaN,-1.22558717732248,0.342667788172642,1.13468048535528,2.62041472834485,1.13468048535625,0.743836308629979,-1.59901747357505,NaN,0.905631689583335,NaN,-0.130621072825409,-0.25988174010417,-0.63866373840896,-0.25988174010296,0.811447956041732,-1.79725402634069,-0.909790138818437,0.132710014710964,-0.639161749199424,NaN,NaN,-0.798479851030795,-0.475809757213722,-1.59957884786459,-0.865018564023377,-2.03327618342653,-0.793791587163464,-1.86300976683125,-1.68030558707439,0.7317618458103,-2.12267832010886,-2.12267832010626,-0.125782093558314,-0.82426496628207,NaN,NaN,1.10924545309604,0.556429258904693,2.01009643340143,-2.0072480899247,-2.00724808992336,1.33720819565651,-1.33720819565757,-0.0200926439020507
1058.2016,1.02574762926785,-1.11745454297153,0.426458370463549,-0.483787379206357,-1.19388504121742,-1.19388504121677,NaN,-1.21003436638837,0.331110545574942,1.10880631400697,2.56558161978087,1.10880631400791,0.709679061165989,-1.56365124532086,NaN,0.889751765933373,NaN,-0.12315600571526,-0.279379388399583,-0.630347909520807,-0.279379388398389,0.76140814673988,-1.79312479893417,-0.959740143760204,0.137482440940533,-0.627198965419561,NaN,NaN,-0.80278407312578,-0.440048630348377,-1.57020740840023,-0.880138466868075,-2.01239589024638,-0.771219905260501,-1.80945873174322,-1.63218662046699,0.756844676349066,-2.09248686942632,-2.09248686942372,-0.129657364810103,-0.77890490086878,NaN,NaN,1.13661127400866,0.573551319358287,2.02521134194186,-2.01111683449387,-2.01111683449252,1.36892978878524,-1.36892978878627,0.0543126954757367
1058.304,0.9927204198594,-1.09412889873507,0.405738465371038,-0.523479353276779,-1.20170443733048,-1.2017044373298,NaN,-1.19305495700871,0.319753730523715,1.0819388999056,2.50899227386493,1.08193889990651,0.675905667394425,-1.52650495683994,NaN,0.87571136972325,NaN,-0.111885370617673,-0.297898365491943,-0.62175448257188,-0.297898365490764,0.712626826258058,-1.78795605280599,-1.0072974972343,0.141041616393294,-0.61493880572905,NaN,NaN,-0.80725625353375,-0.404571532463383,-1.5394592499526,-0.895956397874643,-1.99053121141746,-0.746055315656266,-1.75375568971987,-1.58089472948288,0.781821462426234,-2.06142458918573,-2.06142458918313,-0.134597061019797,-0.733337451753359,NaN,NaN,1.16446704558606,0.589908000896176,2.0389697466403,-2.01466098434623,-2.01466098434488,1.39973341611311,-1.39973341611412,0.126991125188163
1058.4064,0.958813180844095,-1.06928763410656,0.384960254637735,-0.562506266249217,-1.20810020251782,-1.20810020251712,NaN,-1.17467320042607,0.308575895415831,1.05408387901441,2.45078955549503,1.05408387901529,0.64254003828998,-1.48762451903629,NaN,0.863543336126693,NaN,-0.0968044295609582,-0.315404502533612,-0.6128704290746,-0.315404502532452,0.665178777993781,-1.78174180321802,-1.05237546812872,0.143360422612209,-0.602371984606121,NaN,NaN,-0.811879328455418,-0.369435627160155,-1.50732911008781,-0.91257446801816,-1.9677311623435,-0.718336467355479,-1.69595078882294,-1.52648784761451,0.806629050394673,-2.0295609463985,-2.0295609463959,-0.140561963337348,-0.687586412951703,NaN,NaN,1.19277962897338,0.605430944398553,2.05133612037194,-2.01789582921587,-2.01789582921451,1.42957117436765,-1.42957117436863,0.197840732737036
1058.5088,0.924045600307148,-1.04292566592248,0.364146576390399,-0.600789199225057,-1.21299133402689,-1.21299133402617,NaN,-1.15491500971975,0.297553776581985,1.02524706808071,2.3911109127578,1.02524706808157,0.6096008147114,-1.44706008358355,NaN,0.853270470423522,NaN,-0.0779243206293088,-0.331867612717232,-0.603683524633922,-0.33186761271608,0.619129825546481,-1.77447940054899,-1.09490031876428,0.144416326371322,-0.589489927717457,NaN,NaN,-0.816635066526363,-0.334696919502858,-1.47381301724864,-0.930093186175764,-1.94404517850983,-0.688109782880226,-1.636096152914,-1.4690307856528,0.831204797736931,-1.99696829807624,-1.99696829807364,-0.147509935148228,-0.641673505221923,NaN,NaN,1.22151348900357,0.620054379195704,2.06228063283554,-2.02083691492729,-2.02083691492593,1.45839881328797,-1.45839881328891,0.266769605157847
1058.6112,0.888435626181373,-1.01504132292375,0.343316613992862,-0.638252397320716,-1.21629781046025,-1.21629781045951,NaN,-1.13380772344332,0.28666242766467,0.995434604167978,2.33008763970224,0.995434604168815,0.577101179290726,-1.40486589168634,NaN,0.844905103902313,NaN,-0.0552724731384144,-0.347261586105626,-0.59418245360304,-0.347261586104482,0.574536641677564,-1.76616960906733,-1.13481158955458,0.144191558867259,-0.576284667541664,NaN,NaN,-0.821503832587129,-0.300410316012784,-1.43890816251818,-0.948610874370413,-1.91952267893038,-0.655429376355713,-1.57424560836129,-1.40859501057806,0.855486714682641,-1.96372148284688,-1.96372148284429,-0.155396091593177,-0.595618236894151,NaN,NaN,1.25063054746047,0.633715349153679,2.07177934147633,-2.02349999725832,-2.02349999725695,1.48617561046345,-1.48617561046436,0.333695760264006
1058.7136,0.851999437038031,-0.985636383039118,0.322485845737597,-0.674823595612503,-1.21794064992355,-1.21794064992279,NaN,-1.11137996241218,0.275875377470933,0.964653157525368,2.26784435681919,0.964653157526182,0.545048771080716,-1.36110017475511,NaN,0.838448749282536,NaN,-0.0288929370063372,-0.361564436240218,-0.584356911738293,-0.361564436239085,0.531446657451579,-1.75681668018963,-1.17206226996718,0.142673248329162,-0.562748798038021,NaN,NaN,-0.82646442430046,-0.266629670384958,-1.40261290348798,-0.968223020342773,-1.89421272633929,-0.620356981029737,-1.5104545636619,-1.34525852141146,0.879413596378977,-1.92989744154607,-1.92989744154348,-0.164172954236024,-0.549437891821512,NaN,NaN,1.28009006774908,0.64635396072142,2.07981433402931,-2.02590098276654,-2.02590098276517,1.51286425044674,-1.51286425044762,0.398547019537372
1058.816,0.814751529891437,-0.954716164755842,0.301666083716841,-0.710434316942468,-1.21784212370656,-1.21784212370578,NaN,-1.08766158358756,0.265164808110414,0.932910207502277,2.20449871868527,0.932910207503071,0.513445711454955,-1.31582510496469,NaN,0.833891869938506,NaN,0.00115339262880898,-0.374758304197858,-0.574197702304022,-0.374758304196733,0.489898072950737,-1.7464284085945,-1.20661884272243,0.139853510184025,-0.548875492757763,NaN,NaN,-0.831493992966817,-0.23340780983353,-1.36492691534326,-0.989021556736402,-1.86816379331207,-0.582961881696517,-1.4447800478472,-1.27910582215231,0.902925149275357,-1.89557487464784,-1.89557487464525,-0.173790588550999,-0.503147658913147,NaN,NaN,1.30984858433626,0.657913665325604,2.08637382586611,-2.02805586398786,-2.02805586398649,1.53843073559825,-1.53843073559911,0.461260830806195
1058.9184,0.776704914339884,-0.922289668762461,0.280865593116923,-0.745020137215619,-1.21592611941773,-1.21592611941694,NaN,-1.06268371669528,0.254501757376767,0.90021436880963,2.1401613217981,0.900214368810401,0.48228874613438,-1.26910678523395,NaN,0.831213768093202,NaN,0.0347886694058032,-0.386829430095196,-0.563696823156398,-0.386829430094081,0.449919965528289,-1.73501616524417,-1.23846119967677,0.135729500601725,-0.534658579968088,NaN,NaN,-0.83656804352257,-0.200796534788433,-1.32585147436744,-1.01109407465873,-1.84142362387467,-0.54332083994379,-1.37728089090823,-1.21022797305154,0.925962118135564,-1.86083393466675,-1.86083393466415,-0.184196726824784,-0.456760893740882,NaN,NaN,1.33985987370342,0.668341573839073,2.09145221650456,-2.0299806589389,-2.02998065893751,1.56284434679249,-1.56284434679333,0.521784049286114
1059.0208,0.737871403412298,-0.888369761210265,0.260089286916668,-0.778520915611281,-1.21211863416382,-1.21211863416302,NaN,-1.03647886358478,0.243856352660676,0.866575759101602,2.07493577762368,0.866575759102354,0.451569498192031,-1.2210152709084,NaN,0.830382589567437,NaN,0.0719181116858206,-0.397768102192202,-0.552847543917574,-0.397768102191085,0.411532489788705,-1.7225949097444,-1.26758243808425,0.130303435080644,-0.520092664245,NaN,NaN,-0.841660499976,-0.168846588966556,-1.2853898484105,-1.03452299113002,-1.81403917590341,-0.501517999827883,-1.30801802015153,-1.13872269575028,0.948466416771629,-1.82575594443853,-1.82575594443591,-0.195336884201924,-0.410289485106204,NaN,NaN,1.37007495904995,0.677588790583988,2.09505010743545,-2.03169136314161,-2.03169136314022,1.58607765082226,-1.58607765082309,0.580072682776159
1059.1232,0.698261997763057,-0.852973387739322,0.239338998568385,-0.810880990841504,-1.2063483759894,-1.20634837598858,NaN,-1.00908104880042,0.233198080268078,0.832006406587726,2.0089189380938,0.832006406588461,0.42127481766294,-1.17162462363457,NaN,0.831355439728158,NaN,0.112430135874049,-0.407568588948248,-0.541644471966795,-0.407568588947136,0.374747163343639,-1.70918318629545,-1.2939885478921,0.123582572439998,-0.505173285569775,NaN,NaN,-0.846743823596734,-0.137607600903845,-1.24354777362825,-1.05938468837725,-1.78605663348355,-0.457644763591267,-1.23705485065875,-1.06469451179951,0.970381259919005,-1.79042312919881,-1.79042312919616,-0.207154478780223,-0.363744294210178,NaN,NaN,1.40044215152837,0.685610749035888,2.09717427731105,-2.03320391618046,-2.03320391617906,1.60810653705486,-1.60810653705568,0.636091604081014
1059.2256,0.657887363425607,-0.816121809633809,0.218613837644737,-0.842049346025127,-1.19854746338905,-1.19854746338824,NaN,-0.980526022876201,0.222496088504324,0.79652070033761,1.94220128238017,0.79652070033833,0.391387217737218,-1.12101300038497,NaN,0.834078609880921,NaN,0.156196606811222,-0.416229054290932,-0.530083604886522,-0.416229054289823,0.339567235566458,-1.69480310509256,-1.31769799491711,0.115579168918277,-0.489897110745072,NaN,NaN,-0.851789178526428,-0.107127995738915,-1.20033400043787,-1.08574863804152,-1.75752147937765,-0.411799624747065,-1.16445775766298,-0.988254898068284,0.991651292808279,-1.75491835083831,-1.75491835083564,-0.219590967495236,-0.31713564016105,NaN,NaN,1.43090714214763,0.692367531698724,2.09783760360596,-2.0345341760913,-2.0345341760899,1.62891026343287,-1.62891026343366,0.689814231716463
1059.328,0.616758397730948,-0.777840857900483,0.197910625286733,-0.871979742336726,-1.18865222387984,-1.18865222387903,NaN,-0.950851523719868,0.211719519595256,0.760135879174056,1.87486746768494,0.760135879174763,0.361885398905814,-1.06926277276469,NaN,0.838487920068969,NaN,0.203073216832339,-0.423751448639622,-0.518162369864696,-0.423751448638508,0.30598814063626,-1.67948031033749,-1.33874119966296,0.106310409474172,-0.474262153988975,NaN,NaN,-0.856766645454696,-0.0774548729538643,-1.15576089019416,-1.11367652156216,-1.72847861537999,-0.364087942588455,-1.09029662193916,-0.909522442080943,1.01222271981718,-1.71932483833432,-1.71932483833163,-0.232586012147626,-0.27047381098853,NaN,NaN,1.46141315729592,0.697824165015151,2.09705891710514,-2.03569788855912,-2.03569788855772,1.64847148737488,-1.64847148737566,0.741222173404501
1059.4304,0.574886867177506,-0.73816120197413,0.1772243947774,-0.90063081897843,-1.17660408775358,-1.17660408775278,NaN,-0.920097591155878,0.200837866681274,0.722872542623718,1.80699701886228,0.72287254262441,0.33274486452934,-1.01646066085157,NaN,0.844509184605358,NaN,0.25290000932638,-0.430141361270385,-0.505879654350921,-0.430141361269272,0.273998031316446,-1.66324393535367,-1.35715991610836,0.0957983191544853,-0.458268021751886,NaN,NaN,-0.861645482823501,-0.0486338489116961,-1.10984504392054,-1.14322135940716,-1.69897251891199,-0.314621647045609,-1.01464543273901,-0.828622980033027,1.03204343757536,-1.68372591981413,-1.6837259198114,-0.246077693072361,-0.223769576798918,NaN,NaN,1.4919011729457,0.701950882476005,2.09486278130628,-2.03671063827676,-2.03671063827536,1.666776254356,-1.66677625435675,0.790304824801309
1059.5328,0.532286092850175,-0.697118623591055,0.156548937638192,-0.927966157291631,-1.16235055186846,-1.16235055186767,NaN,-0.888306913917389,0.189821354023089,0.684755161251337,1.73866510919752,0.684755161252013,0.303938617859348,-0.962697862089016,NaN,0.852058797690335,NaN,0.30550205249563,-0.435407826835325,-0.493235831445255,-0.435407826834217,0.243578377288918,-1.64612654189534,-1.37300652505057,0.0840696517192443,-0.441916172612643,NaN,NaN,-0.866394427413701,-0.0207088709891547,-1.0626079431328,-1.17442666888536,-1.66904742668759,-0.26351887291449,-0.937582920911905,-0.745689700662078,1.05106317495194,-1.64820476654722,-1.64820476654448,-0.260002783324863,-0.177034678970622,NaN,NaN,1.52231016219698,0.704723340352614,2.09127920070126,-2.03758777720574,-2.03758777720434,1.68381393329308,-1.68381393329381,0.83705892659197
1059.6352,0.488971653860226,-0.654754276968915,0.135877375622672,-0.953954309242148,-1.14584616615797,-1.14584616615721,NaN,-0.855525180828254,0.178641331753504,0.645812564894993,1.66994338387766,0.645812564895654,0.275437910668523,-0.908070158944329,NaN,0.861044423883918,NaN,0.360690256026207,-0.439563096491382,-0.480232781302331,-0.439563096490278,0.21470460691991,-1.62816403879416,-1.38634325999622,0.0711557520516744,-0.425210179812483,NaN,NaN,-0.870982019019114,0.00627798422969732,-1.01407657483938,-1.20732567764302,-1.63874753236045,-0.210903525140782,-0.859193183341039,-0.660863193326026,1.069233635061,-1.61284414567263,-1.61284414566987,-0.274297082098489,-0.130282274542524,NaN,NaN,1.55257735000812,0.706122772842684,2.08634326919517,-2.03834433240097,-2.03834433239957,1.69957710639446,-1.69957710639516,0.881488088818378
1059.7376,0.444962075775628,-0.611114913289419,0.115202737154017,-0.978568792821885,-1.12705349220608,-1.12705349220534,NaN,-0.821801413187327,0.167270664296011,0.606078388711615,1.60090079089296,0.606078388712263,0.247213006114567,-0.852677990630264,NaN,0.871365773099407,NaN,0.418262320657848,-0.442622396243975,-0.46687390844373,-0.442622396242875,0.187346777654846,-1.60939557682802,-1.39724137849297,0.0570923931352242,-0.408155983552237,NaN,NaN,-0.875376934639684,0.0322867170240231,-0.964284006896058,-1.24194061529813,-1.60811717678466,-0.156904772500993,-0.779566256550135,-0.574291413523635,1.08650863111828,-1.57772616164885,-1.57772616164607,-0.288895792054704,-0.0835273275739927,NaN,NaN,1.58263846610026,0.70613609639256,2.08009476827679,-2.03899490007029,-2.03899490006888,1.71406141798049,-1.71406141798118,0.923602281174959
1059.84,0.400279473989779,-0.566253054319216,0.0945185160063888,-1.00178805765064,-1.10594400131807,-1.10594400131735,NaN,-0.787188265330969,0.155684090939201,0.565591459051126,1.53160439571123,0.565591459051761,0.219233930909996,-0.796626472389334,NaN,0.882915445355593,NaN,0.478003814453971,-0.444603695825728,-0.45316415169141,-0.444603695824638,0.161470265134767,-1.58986341767699,-1.40578028748232,0.0419195929262694,-0.390762122155349,NaN,NaN,-0.879548324794801,0.0572796092883823,-0.913269886133399,-1.27828209195958,-1.57720100838752,-0.101656469645945,-0.698798607572319,-0.486129547045845,1.10284421178555,-1.54293197125272,-1.54293197124992,-0.30373391928754,-0.03678695283722,NaN,NaN,1.61242799803167,0.704755990616426,2.07257772117515,-2.03955353363926,-2.03955353363785,1.72726537568547,-1.72726537568613,0.963417281961911
1059.9424,0.354950135250598,-0.520227109544232,0.0738191982664254,-1.02359542321119,-1.08249889970697,-1.08249889970629,NaN,-0.751742286321725,0.14385855067228,0.524396108109115,1.46212016066877,0.524396108109737,0.191471209095461,-0.740025348207773,NaN,0.895579835879111,NaN,0.539689367484033,-0.445527498511139,-0.439109981885335,-0.44552749851005,0.137036459160144,-1.56961277438903,-1.4120466329386,0.0256814165939348,-0.373039934074173,NaN,NaN,-0.883466148701856,0.0812214297758191,-0.861080843749908,-1.31634856527697,-1.54604409926781,-0.0452965202494289,-0.616993527476985,-0.396539773526921,1.11819877655914,-1.5085414785845,-1.50854147858169,-0.318746673621638,0.00991927859380994,NaN,NaN,1.64187943970752,0.701980971437133,2.06383990829538,-2.04003362977238,-2.04003362977096,1.73919009353016,-1.7391900935308,1.00095408779464
1060.0448,0.309005036491784,-0.473101436013888,0.0531007571455281,-1.04397899164326,-1.05670987409177,-1.05670987409111,NaN,-0.715524138667435,0.131773475033161,0.482542415614427,1.39251367615623,0.482542415615035,0.16389657335498,-0.682988873151118,NaN,0.90924008683745,NaN,0.603083964973587,-0.445416641468654,-0.424719386253777,-0.445416641467564,0.114003452720484,-1.54869162308982,-1.41613336841718,0.00842576420908353,-0.355003726860397,NaN,NaN,-0.887101504036201,0.104079643211102,-0.807770802210857,-1.35612590271169,-1.51469201490126,0.0120337949558366,-0.534261426727586,-0.305690946390073,1.13253318021175,-1.47463302879042,-1.47463302878758,-0.333869847148616,0.0565690708657751,NaN,NaN,1.67092552123513,0.697815446645179,2.05393235016875,-2.04044781004608,-2.04044781004466,1.74983896861666,-1.74983896861727,1.03623829710879
1060.1472,0.262480305277558,-0.424946340567564,0.0323611202102592,-1.06293153769174,-1.02857974632765,-1.02857974632702,NaN,-0.678598773210378,0.119411051971383,0.440086380932648,1.32285084326157,0.440086380933248,0.136483642163897,-0.62563563186759,NaN,0.923773066433009,NaN,0.667944310712981,-0.444296089965302,-0.410001841440332,-0.44429608996421,0.0923267148828568,-1.52715049037188,-1.41813881686584,-0.00979586128148123,-0.336670914009488,NaN,NaN,-0.890426947767429,0.125824620728052,-0.753401184957339,-1.39758705471848,-1.48319084706366,0.0701905034747594,-0.450720036887919,-0.213758207857139,1.1458108191632,-1.44128311262235,-1.44128311261949,-0.349040151760818,0.103137179481854,NaN,NaN,1.69949841278244,0.692269738178604,2.04290876740413,-2.0408077965444,-2.04080779654299,1.75921729972508,-1.75921729972566,1.06929948440719
1060.2496,0.215417618347629,-0.375838023249287,0.0116006061158423,-1.08045037785048,-0.998123023020505,-0.998123023019912,NaN,-0.641035559624255,0.106756456294661,0.397090025928867,1.2531985141129,0.39709002592946,0.109208548530784,-0.56808829993965,NaN,0.939052361655216,NaN,0.734020242631361,-0.442192724389831,-0.394968274766476,-0.442192724388732,0.0719597457946933,-1.50504222159723,-1.41816573278603,-0.0289286087119803,-0.318062120942799,NaN,NaN,-0.89341680748958,0.14642984628293,-0.698041030131914,-1.44069185634593,-1.45158722045276,0.129027631747079,-0.366494519475075,-0.120922545322678,1.15799769224266,-1.40856608031108,-1.4085660803082,-0.364195500336201,0.149595235956854,NaN,NaN,1.7275299117655,0.685360070045748,2.0308250292521,-2.04112428433391,-2.0411242843325,1.7673318819481,-1.76733188194867,1.10017058030327
1060.352,0.167864524856484,-0.32585846017784,-0.00917768183945981,-1.09653721799912,-0.96536632851652,-0.965366328515967,NaN,-0.602908366385043,0.0937980396591173,0.353621421583265,1.18362508708249,0.353621421583845,0.0820505133202777,-0.510473346093714,NaN,0.954949281629586,NaN,0.801056201252326,-0.439135133275102,-0.379631010215673,-0.439135133273995,0.0528547120343701,-1.48242172899582,-1.41632036554159,-0.0489145496234222,-0.299201255905248,NaN,NaN,-0.896047481847368,0.165872121571887,-0.641766999621105,-1.48538696687085,-1.41992826954835,0.188397902714266,-0.281717475157363,-0.0273702840083257,1.1690624376772,-1.37655385809701,-1.3765538580941,-0.379275220339119,0.195911615763916,NaN,NaN,1.75495162588327,0.677108523594009,2.01773860052886,-2.04140681355351,-2.04140681355209,1.77419062177305,-1.7741906217736,1.12888726690234
1060.4544,0.11987468078445,-0.27509522453369,-0.0299675183578228,-1.11119797664334,-0.930348713474416,-0.930348713473903,NaN,-0.564295578555076,0.0805274790087637,0.309754629437683,1.11420103872953,0.309754629438255,0.0549923626568897,-0.452920667537863,NaN,0.971333870737845,NaN,0.868792755695504,-0.435153423401694,-0.364003698337563,-0.43515342340058,0.0349630521795585,-1.4593457126072,-1.41271152784709,-0.0696929526465639,-0.280115537778912,NaN,NaN,-0.898297724269237,0.184131781869464,-0.584663267686167,-1.53160594843104,-1.38826157074529,0.248153435718482,-0.196528844005533,0.0667074862375026,1.17897635837434,-1.34531566940571,-1.34531566940279,-0.394220195409966,0.242051341455849,NaN,NaN,1.78169515043556,0.667542940373808,2.00370799533074,-2.04166364278495,-2.04166364278353,1.77980220816527,-1.77980220816579,1.15548739662603
1060.5568,0.0715079925018055,-0.223641244038645,-0.0507592761400766,-1.12444258215615,-0.893121832670703,-0.893121832670237,NaN,-0.525280043911811,0.0669398874174843,0.265569556230953,1.04499936794435,0.265569556231512,0.0280209868906106,-0.395563155363808,NaN,0.988075923330393,NaN,0.936968177874737,-0.430279049481391,-0.348101236110813,-0.430279049480267,0.0182360356825388,-1.43587234978654,-1.4074496834503,-0.0912005544251102,-0.260835476418831,NaN,NaN,-0.900148901075523,0.201192932670646,-0.526821281761487,-1.57926948081061,-1.35663502094537,0.308146435835558,-0.111075690941215,0.161115543961169,1.18771344725038,-1.31491777343436,-1.31491777343142,-0.408972939462945,0.287976017450737,NaN,NaN,1.80769222723355,0.656696745051949,1.98879224651153,-2.04190162868027,-2.04190162867886,1.78417585858253,-1.78417585858304,1.18001044318794
1060.6592,0.0228306766358983,-0.171594492144966,-0.0715396944270732,-1.13628474679342,-0.853749983337892,-0.853749983337476,NaN,-0.485948945561147,0.0530338865192618,0.221151727951883,0.976095935402848,0.221151727952431,0.00112773131879261,-0.338536196422393,NaN,1.0050459843874,NaN,1.00532004155306,-0.424544659173995,-0.331939686270828,-0.424544659172869,0.00262525824387254,-1.41206095484393,-1.40064607372553,-0.113371832828592,-0.241394807819575,NaN,NaN,-0.901585216423247,0.217043700260879,-0.468339404120976,-1.62828570686448,-1.32509666824425,0.368229864246334,-0.0255118730908842,0.255655224713207,1.19525041347759,-1.28542323063249,-1.28542323062952,-0.423477619629933,0.333643800399606,NaN,NaN,1.83287487519432,0.644608693620027,1.97305039723388,-2.04212611873082,-2.04212611872941,1.78732113931828,-1.78732113931876,1.20249698525192
1060.7616,-0.0260847633890763,-0.119057611683247,-0.0922916950174596,-1.146741723694,-0.812309993627597,-0.812309993627234,NaN,-0.446393604034506,0.0388116311014477,0.176591988978048,0.907569694528656,0.176591988978585,-0.0256912949218153,-0.281977121716819,NaN,1.02211632091835,NaN,1.07358682223432,-0.41798394405966,-0.315536203532187,-0.417983944058521,-0.01191693745133,-1.3879716113985,-1.39241189777234,-0.136139292050865,-0.22183038903656,NaN,NaN,-0.902593901299283,0.231676472904099,-0.409322451434209,-1.67855070048472,-1.2936945071677,0.428258091756092,0.060002414230771,0.350125168725098,1.20156670146833,-1.25689168721731,-1.25689168721434,-0.437680058625821,0.379009415612057,NaN,NaN,1.85717549325043,0.63132258745637,1.95654101446136,-2.04234085953805,-2.04234085953664,1.78924784742374,-1.78924784742423,1.22298821269004
1060.864,-0.0751596578758815,-0.0661374738028126,-0.112994261302154,-1.15583405258417,-0.768890954247681,-0.768890954247376,NaN,-0.406709210096525,0.024278775088657,0.131986126619428,0.839502815131474,0.131986126619951,-0.0524350015951009,-0.226024607012511,NaN,1.03916185298865,NaN,1.14150947989604,-0.410631484724656,-0.298908974234184,-0.410631484723515,-0.0254371179837493,-1.36366477799595,-1.382857549103,-0.159433759969843,-0.202182054282857,NaN,NaN,-0.903165365639403,0.245088108003767,-0.349881145293501,-1.72994904480953,-1.26247624480215,0.488087539515659,0.145301214516987,0.444322131580275,1.20664449730367,-1.22937915497768,-1.22937915497469,-0.451527754793091,0.424024234171516,NaN,NaN,1.8805269476616,0.616886991222194,1.93932171791764,-2.04254791506695,-2.04254791506553,1.78996594174757,-1.78996594174805,1.24152544091269
1060.9664,-0.124309405060595,-0.0129446777956693,-0.133622400311661,-1.16358529706008,-0.723593792885841,-0.723593792885594,NaN,-0.366994483663755,0.00944437731013718,0.0874344212673631,0.771980695740467,0.0874344212678782,-0.0790971933390699,-0.170818026731547,NaN,1.05606102951577,NaN,1.20883300153394,-0.402522583368718,-0.282077178756978,-0.40252258336757,-0.0379804868518184,-1.33920086841229,-1.37209190429951,-0.183184684478582,-0.182492427342292,NaN,NaN,-0.903293307468623,0.257280092657336,-0.290131476982663,-1.78235449904441,-1.23148902955937,0.547577300002884,0.230213505450777,0.538041850072575,1.21046872809555,-1.20293775966872,-1.20293775966573,-0.464969952141041,0.468636423493155,NaN,NaN,1.90286266160618,0.601354968497627,1.92144871577885,-2.04274758542221,-2.0427475854208,1.78948551525657,-1.78948551525706,1.2581496170886
1061.0688,-0.173443823586861,0.0404070000302243,-0.154147196951099,-1.17002177409,-0.676530697491584,-0.676530697491394,NaN,-0.327351251619856,-0.00567923882066037,0.0430411300020077,0.70509185528148,0.0430411300025161,-0.105666533222565,-0.116496764078294,NaN,1.07269661666783,NaN,1.27530785353479,-0.393693090232382,-0.265060985883278,-0.393693090231219,-0.0495906751738536,-1.31463981458067,-1.36022166250752,-0.207320408978315,-0.162806681821476,NaN,NaN,-0.902974762332063,0.268258652197528,-0.230193986012397,-1.83563073029754,-1.20077912958224,0.606589705851072,0.314563997485721,0.631079930485001,1.21302706720225,-1.17761544510091,-1.17761544509791,-0.477957776355722,0.512791172635355,NaN,NaN,1.92411671927179,0.584783835238698,1.90297634379925,-2.04293832098418,-2.04293832098277,1.78781680700656,-1.78781680700706,1.27290080684483
1061.1712,-0.222467614638764,0.0938011972915556,-0.174535957814474,-1.17517227542933,-0.627824396469829,-0.627824396469703,NaN,-0.287883941967561,-0.0210766487792478,-0.00108608218184901,0.638927693880883,-0.0010860821813441,-0.132126587846357,-0.0631994860705975,NaN,1.08895634432689,NaN,1.34069125954424,-0.38417923681065,-0.247881581748421,-0.384179236809465,-0.0603095919302175,-1.2900406272148,-1.34735074695739,-0.231768416620671,-0.143172243335831,NaN,NaN,-0.902210066891685,0.278034791437653,-0.17019296033437,-1.8896321052487,-1.17039156582912,0.664990786863412,0.398174012208168,0.723232701647172,1.21430995589918,-1.15345564778713,-1.15345564778414,-0.490444433744033,0.556430981869547,NaN,NaN,1.94422398151578,0.567234927984375,1.88395661559293,-2.04311663463581,-2.0431166346344,1.78497025675824,-1.78497025675873,1.28581766277346
1061.2736,-0.271280925370475,0.147119589443347,-0.194752439848771,-1.17906778052173,-0.577607297898945,-0.577607297898882,NaN,-0.24869899923161,-0.0367295054215884,-0.044836755969955,0.573582112032796,-0.0448367559694542,-0.158455956329338,-0.0110633932309436,NaN,1.10473336060563,NaN,1.40474822870972,-0.37401748467655,-0.230561225555839,-0.374017484675339,-0.0701773394418538,-1.26546096771757,-1.33357978817168,-0.256455552328361,-0.123638435037419,NaN,NaN,-0.901002717026888,0.286624245137421,-0.11025557233469,-1.94420455778051,-1.14036972227349,0.722650573096024,0.48086242483675,0.814297992602005,1.21431064133314,-1.13049697636031,-1.13049697635732,-0.502385456396414,0.599496006274599,NaN,NaN,1.96312019475007,0.548773375033263,1.86443879917595,-2.0432770190318,-2.04327701903039,1.78095659864872,-1.78095659864922,1.29693688670068
1061.376,-0.319780016621839,0.200242552742112,-0.21475716355317,-1.18174116230554,-0.526020485635006,-0.526020485635017,NaN,-0.209904230024155,-0.052616754347369,-0.0880983055942444,0.509150975405444,-0.0880983055937463,-0.18462849386839,0.039776554442238,NaN,1.11992649824418,NaN,1.46725234332682,-0.3632443988422,-0.213123313220897,-0.363244398840963,-0.0792322027344884,-1.24095673625523,-1.31900570305291,-0.28130824287407,-0.104256073162814,NaN,NaN,-0.89935912757712,0.294047332332548,-0.0505109522370016,-1.99918655170754,-1.11075494497982,0.779443280636017,0.562446681008164,0.9040758677797,1.21302522010385,-1.1087729202371,-1.1087729202341,-0.513738971917058,0.641924450922674,NaN,NaN,1.98074207180726,0.529467844030435,1.84446903138899,-2.04341187584669,-2.04341187584529,1.7757869743279,-1.77578697432841,1.30629270583756
1061.4784,-0.367858044006868,0.253049880057404,-0.234507812337794,-1.18322689198595,-0.473212578946874,-0.473212578946956,NaN,-0.17160808699875,-0.0687149201118004,-0.130756759406297,0.445731415965581,-0.1307567594058,-0.210613639295561,0.0891884443840784,NaN,1.13444041744392,NaN,1.52798640824403,-0.351896559636696,-0.195592425069505,-0.351896559635427,-0.0875107133105876,-1.21658167505589,-1.30372136948021,-0.306252729769333,-0.0850770167577476,NaN,NaN,-0.89728832310002,0.300328741116939,0.00891081845844255,-2.05441014866828,-1.08158611829848,0.835247483773971,0.642743919089459,0.992369414297438,1.21045267608713,-1.08831158714531,-1.0883115871423,-0.52446597101169,0.683653020350819,NaN,NaN,1.99702733786617,0.509390233189572,1.82408997037289,-2.043511462302,-2.0435114623006,1.76947303494045,-1.76947303494097,1.31391639303071
1061.5808,-0.415405946032732,0.30542155476679,-0.253959708697912,-1.18356075429193,-0.419338482166581,-0.41933848216673,NaN,-0.133918901139733,-0.0849984724069584,-0.172697573426414,0.383420984698332,-0.172697573425918,-0.236376845269604,0.137044257453774,NaN,1.1481856977808,NaN,1.58674307410274,-0.34001052339657,-0.177994338480771,-0.340010523395274,-0.0950477755229478,-1.19238698680746,-1.28781538353733,-0.331215314990039,-0.0661536707030036,NaN,NaN,-0.894801585665017,0.305497289907804,0.0678798114527128,-2.10970217794267,-1.05289919879504,0.889946364048852,0.721572217737882,1.07898565950294,1.20659490827345,-1.06913545527804,-1.06913545527502,-0.534530534815603,0.72461742930897,NaN,NaN,2.01191475260755,0.488615280201738,1.80334047710154,-2.04356385810851,-2.04356385810711,1.76202700432017,-1.76202700432071,1.31983586425789
1061.6832,-0.462313390418074,0.35723856641445,-0.273066326535452,-1.18277958847733,-0.364558079357389,-0.364558079357611,NaN,-0.096944086263296,-0.101440232456323,-0.213806471401614,0.322316724969241,-0.213806471401119,-0.261880090810142,0.183220733982981,NaN,1.16107891906461,NaN,1.64332548310126,-0.327622833044312,-0.160355996360582,-0.32762283304299,-0.101876832078515,-1.16842097435665,-1.27137188018162,-0.356122609444092,-0.0475384469953301,NaN,NaN,-0.891912073805443,0.309585715377868,0.126267450137428,-2.16488548811208,-1.02472670009813,0.943428060189072,0.798751939436852,1.16373661918799,1.20145674899887,-1.05126113297668,-1.05126113297366,-0.543899981396491,0.764752987712775,NaN,NaN,2.02534412573727,0.467220074746136,1.78225531670501,-2.04355495430251,-2.04355495430111,1.75346168772641,-1.75346168772696,1.32407537525338
1061.7856,-0.508469686069983,0.408383729869707,-0.291779766608458,-1.18092106940111,-0.309034957284363,-0.309034957284666,NaN,-0.0607893610228541,-0.118011746538402,-0.253970224647417,0.262514285836836,-0.253970224646923,-0.287082434281239,0.227600210721694,NaN,1.17304274755791,NaN,1.69754792956374,-0.314770072597113,-0.142705433675562,-0.314770072595759,-0.108030038457636,-1.14472871560601,-1.25447039852797,-0.380901778940529,-0.0292832092680937,NaN,NaN,-0.888634431534024,0.31263052735305,0.183947766374819,-2.21978025224998,-0.997097148792594,0.995586088150019,0.874107084003286,1.24644040319825,1.19504596951263,-1.0346991408412,-1.03469914083817,-0.552544907548862,0.803995266851738,NaN,NaN,2.03725633837063,0.445283477601534,1.76086487678887,-2.04346846367265,-2.04346846367126,1.74379042375964,-1.74379042376022,1.32665532374142
1061.888,-0.553764572161549,0.458742462607773,-0.310051130069889,-1.17802353467788,-0.252935239784365,-0.252935239784747,NaN,-0.0255580416222884,-0.134683572080499,-0.293077299897601,0.204107186274417,-0.293077299897108,-0.311940557169272,0.270071374054639,NaN,1.18400604429398,NaN,1.7492365182056,-0.301488949724574,-0.125071674719788,-0.301488949723197,-0.113538422203033,-1.12135178783706,-1.23718577991434,-0.405480796506587,-0.0114387434093239,NaN,NaN,-0.884984423109334,0.314671944280708,0.240798652560271,-2.2742052999551,-0.970034559201998,1.04631978833084,0.947466548764002,1.32692228607483,1.18737326259287,-1.01945374654111,-1.01945374653808,-0.560439122316826,0.842280825176562,NaN,NaN,2.04759337487257,0.422885471409472,1.73919490680021,-2.04328594850414,-2.04328594850275,1.73302699001322,-1.73302699001383,1.32759215460307
1061.9904,-0.598088852902103,0.508203486997695,-0.327830776429807,-1.17412585209442,-0.196426579558298,-0.196426579558763,NaN,0.00864955824473785,-0.151425475108684,-0.331018366040327,0.147186273862925,-0.33101836603984,-0.336409261873287,0.310529899812013,NaN,1.19390401961852,NaN,1.79822982338921,-0.287816380223483,-0.107484617248811,-0.28781638022208,-0.118432016740942,-1.09832804762888,-1.2195880937142,-0.429788714557243,0.00594570589026574,NaN,NaN,-0.880978635181052,0.315753895616579,0.296703038690975,-2.32797944239014,-0.94355797826166,1.09553477990838,1.01866522889489,1.40501568882633,1.17845219051499,-1.00552287434374,-1.00552287434072,-0.567559484432256,0.879547942458339,NaN,NaN,2.05629835908023,0.400106478696083,1.7172662841252,-2.04298685610847,-2.04298685610707,1.72118548047308,-1.72118548047372,1.32689835920461
1062.0928,-0.64133490184562,0.556659443753754,-0.345068497847135,-1.16926731466591,-0.139677312356868,-0.139677312357421,NaN,0.0417366112995725,-0.168206572852651,-0.367686698702441,0.0918393579965633,-0.367686698701959,-0.360441906732488,0.348878980736231,NaN,1.20267845674941,NaN,1.84437956937662,-0.273789551144268,-0.0899749164161844,-0.273789551142836,-0.122739965544237,-1.07569146545194,-1.20174258545455,-0.453755959174755,0.02282281448595,NaN,NaN,-0.87663427356868,0.315924070894985,0.351549941962172,-2.38092274285476,-0.917681126932813,1.14314342852104,1.08754494437251,1.48056306843509,1.16829909682178,-0.99289809007787,-0.992898090074852,-0.573885672399086,0.915737310815464,NaN,NaN,2.06331558589044,0.377026676069235,1.695094808513,-2.04254854992492,-2.04254854992351,1.70828017176414,-1.7082801717648,1.32458255245886
1062.1952,-0.68339707501802,0.604007414977512,-0.361713650584139,-1.1634875509363,-0.0828557594563546,-0.082855759456991,NaN,0.0736101557114609,-0.184995452815821,-0.402978525919841,0.0381509769398639,-0.402978525919365,-0.383990774487756,0.385029757691374,NaN,1.2102780122291,NaN,1.88755134478595,-0.259445952652388,-0.0725738785257597,-0.259445952650927,-0.12649059166443,-1.05347201254958,-1.18370963949484,-0.477314633683161,0.0391474775202028,NaN,NaN,-0.871969058592513,0.315234003399921,0.405235364589106,-2.43285768726497,-0.892412137857213,1.1890653351473,1.15395520831185,1.55341672956219,1.15693299475477,-0.981564649145459,-0.981564649142436,-0.579399922511979,0.950792650506741,NaN,NaN,2.06859055248514,0.353725323001234,1.67269102337069,-2.04194632734971,-2.04194632734829,1.69432539061732,-1.69432539061801,1.32064960620269
1062.2976,-0.724172061687018,0.650149357138621,-0.377715272756732,-1.1568264416852,-0.0261296598054315,-0.0261296598061548,NaN,0.104181387848494,-0.201760280430774,-0.43679334217163,-0.013797737146764,-0.436793342171157,-0.407007374929007,0.41890166928039,NaN,1.21665857460665,NaN,1.927625331102,-0.244823374676667,-0.0553133714339942,-0.244823374675174,-0.129711432003849,-1.0316955974002,-1.16554475289672,-0.500398813882841,0.0548770392000208,NaN,NaN,-0.867001204933076,0.31373917512404,0.457663031597824,-2.48361022822682,-0.867753383413258,1.23322782594222,1.21775385064618,1.6234395517918,1.14437544929046,-0.971501597435271,-0.971501597432239,-0.58408675466111,0.984661228825405,NaN,NaN,2.072069998932,0.330280114226549,1.65006006701688,-2.04115342419089,-2.04115342418947,1.67933538817857,-1.67933538817929,1.31510082120803
1062.4,-0.763559186657349,0.694992441663898,-0.393022203792244,-1.14932403785367,0.0303342899860361,0.0303342899852326,NaN,0.133365884236671,-0.218468893219282,-0.46903420202124,-0.0639291221029671,-0.469034202020767,-0.429442686567785,0.45042272384379,NaN,1.22178363038594,NaN,1.96449697660105,-0.229959864076026,-0.0382257535622264,-0.229959864074506,-0.132429246163591,-1.01038404673203,-1.14729852611187,-0.52294482574501,0.0699714612406801,NaN,NaN,-0.861749462554823,0.311499112584641,0.50874495517553,-2.53301069710162,-0.843701404395985,1.27556638124161,1.27880749719821,1.69050558702382,1.13065046114535,-0.962681926809372,-0.962681926806317,-0.587932682324036,1.01729425785089,NaN,NaN,2.07370195184663,0.306766558517021,1.62720156653438,-2.04014101495705,-2.04014101495561,1.66332423039766,-1.66332423039841,1.30793413224809
1062.5024,-0.801460669588903,0.738449301584169,-0.407583212044137,-1.14102047628649,0.0863708135959205,0.0863708135950364,NaN,0.161083762326118,-0.23508887922926,-0.49960799359573,-0.112168996437414,-0.499607993595256,-0.451247350409429,0.479529688389186,NaN,1.22562456511224,NaN,1.99807751542995,-0.214893647903117,-0.0213438215577797,-0.21489364790157,-0.134670015595278,-0.989555125421137,-1.12901668184292,-0.544891506446307,0.0843934326469646,NaN,NaN,-0.856233192532852,0.308577429487073,0.558401802471124,-2.58089459040516,-0.820246965430213,1.31602491896231,1.33699189471644,1.7545004591523,1.11578435281521,-0.955072796497508,-0.955072796494438,-0.590925893737047,1.04864714491509,NaN,NaN,2.07343575645162,0.283257390371024,1.60410959250839,-2.03887822405153,-2.03887822405008,1.64630573680935,-1.64630573681012,1.29914435219163
1062.6048,-0.837781852100517,0.780438187983277,-0.421347139445887,-1.13195589072355,0.141816377304141,0.141816377303178,NaN,0.187259788895442,-0.251587647509902,-0.528425692402362,-0.158446629421478,-0.528425692401884,-0.472371834148665,0.506168191531065,NaN,1.22816083805571,NaN,2.0282942486832,-0.199663037574111,-0.00470077734310291,-0.199663037572542,-0.136458942530971,-0.969222593390529,-1.11074012044083,-0.566180450211992,0.0981084245042849,NaN,NaN,-0.850472457046123,0.305041777715348,0.606563051803163,-2.62710324085075,-0.797375257391653,1.35455586884571,1.3921920782542,1.81532151718091,1.09980565540757,-0.94863582657756,-0.948635826574462,-0.593055901259607,1.07867958081279,NaN,NaN,2.07122209453375,0.259822031065547,1.58077268774689,-2.03733216233559,-2.03733216233413,1.62829350988047,-1.62829350988128,1.28872346219043
1062.7072,-0.872431414939047,0.820883044752413,-0.434263081175286,-1.12217031739033,0.19650947813523,0.196509478134185,NaN,0.211823448214221,-0.267932506054482,-0.555402605618012,-0.20269468593229,-0.555402605617527,-0.492766580052662,0.530292749504601,NaN,1.22938000716027,NaN,2.05509056160004,-0.184306317868659,0.0116697862261067,-0.184306317867075,-0.137820445914281,-0.949396300347859,-1.0925050096718,-0.586756235945475,0.111084696992293,NaN,NaN,-0.844488113667729,0.300963686593636,0.653166945937657,-2.67148438392637,-0.775066244091705,1.39112002640407,1.44430239392858,1.87287774126218,1.08274499565464,-0.943327450983609,-0.943327450980479,-0.594313172521643,1.10735547654825,NaN,NaN,2.06701299699214,0.236526122734667,1.55717396973318,-2.03546799533507,-2.03546799533361,1.60930107071984,-1.60930107072067,1.27666094649229
1062.8096,-0.905321610406432,0.859713512505132,-0.446280619965373,-1.11170359503619,0.250290913007234,0.250290913006109,NaN,0.234708984493224,-0.28409076087248,-0.58045862494758,-0.24484917076559,-0.58045862494708,-0.512382140553042,0.551866733638271,NaN,1.22927761413315,NaN,2.07842570061895,-0.168861613599755,0.0277338851550047,-0.168861613598159,-0.13877814899726,-0.930082315144911,-1.07434289989263,-0.606566632673447,0.123293268139096,NaN,NaN,-0.838301910006518,0.296418287702039,0.698160270209428,-2.71389263252178,-0.753295132535845,1.42568621515541,1.49322640374482,1.92708943838341,1.06463498450366,-0.93909930708847,-0.939099307085302,-0.594688762424193,1.13464278117511,NaN,NaN,2.06076185988675,0.213431159421425,1.53329129811278,-2.03324904048387,-2.0332490404824,1.58934209144771,-1.58934209144856,1.26294416327463
1062.912,-0.936368526771957,0.896864874099972,-0.457350125206141,-1.10059525671525,0.303004042344956,0.303004042343755,NaN,0.255855433280615,-0.30002984230476,-0.603518506192615,-0.284849406262088,-0.603518506192106,-0.531169303535599,0.570862297564699,NaN,1.22785694354547,NaN,2.09827434072696,-0.153366737484363,0.0434571344736708,-0.15336673748276,-0.139354863352505,-0.911283081815564,-1.05628086187022,-0.625562782964677,0.134707854745066,NaN,NaN,-0.83193657132603,0.29148392988622,0.74149798648337,-2.75418987865008,-0.732032946358759,1.45823078983311,1.5388767026762,1.97788776949995,1.04551011293364,-0.935898651555333,-0.935898651552121,-0.594173959365812,1.1605132153837,NaN,NaN,2.05242346807342,0.190594231352877,1.50909750213281,-2.03063688938829,-2.03063688938681,1.56843071849263,-1.56843071849348,1.24755874506418
1063.0144,-0.965492390495539,0.932277956553254,-0.467423114600184,-1.08888441065133,0.354495064718005,0.354495064716735,NaN,0.275206654522137,-0.3157174598011,-0.624512188096053,-0.322638077495027,-0.624512188095532,-0.549079214392539,0.587260276323255,NaN,1.22512866047429,NaN,2.11462596009667,-0.137859031578556,0.0588047311618765,-0.137859031576947,-0.139572581028687,-0.89299759706697,-1.03834165472063,-0.643699370591107,0.145304794443644,NaN,NaN,-0.825415871042751,0.286241689420007,0.783142750832751,-2.79224564823362,-0.711247188785398,1.48873700917526,1.58117467751978,2.02521414652185,1.02540665945095,-0.933668808809239,-0.933668808805989,-0.592759958574267,1.18494194955983,NaN,NaN,2.04195402710284,0.168067887876797,1.48456066812937,-2.02759155401551,-2.02759155401401,1.54658198586488,-1.54658198586574,1.2304890274155
1063.1168,-0.992617908758859,0.965899006443366,-0.47645267146794,-1.07660961305377,0.404613320681011,0.404613320679667,NaN,0.292711376780146,-0.331121789327707,-0.64337515858045,-0.358161372154204,-0.643375158579916,-0.566063504211798,0.601050066189896,NaN,1.22111034224409,NaN,2.12748405482959,-0.122375197437256,0.0737414308192555,-0.12237519743564,-0.139452483281104,-0.875221607516443,-1.02054393137854,-0.660934781563487,0.15506295389201,NaN,NaN,-0.81876468193517,0.280774784788377,0.823064347189725,-2.82793743290726,-0.690902576087533,1.51719432670462,1.62005024065174,2.06901955424068,1.00436260495086,-0.932349653979751,-0.932349653976469,-0.590437581440986,1.20790725248057,NaN,NaN,2.0293112039302,0.145900111830587,1.45964448353288,-2.02407163487798,-2.02407163487646,1.52381229793972,-1.52381229794059,1.21171850530208
1063.2192,-1.01767466044049,0.997679555030343,-0.484393917020239,-1.06380874037158,0.453211638552192,0.45321163855078,NaN,0.30832325828194,-0.346211705162028,-0.660048876839136,-0.391369235197502,-0.660048876838591,-0.582074429996907,0.612229496994696,NaN,1.21582594962607,NaN,2.13686526858947,-0.106951089010547,0.088231522598169,-0.106951089008929,-0.139014969177497,-0.857947821094535,-1.00290247961665,-0.677231264294523,0.163963624586372,NaN,NaN,-0.812009018254732,0.275167915805355,0.861239076812715,-2.86115101421216,-0.670961810483312,1.54359767490543,1.65544157752673,2.10926387549384,0.982417544662119,-0.931878111775253,-0.931878111771931,-0.587197059527311,1.22939013259198,NaN,NaN,2.01445417574175,0.12413437870983,1.4343086274187,-2.02003450498202,-2.0200345049805,1.50013994034636,-1.50013994034725,1.19123031955367
1063.3216,-1.04059755168508,1.02757628617524,-0.491204546803053,-1.0505188676962,0.500146729097436,0.500146729095956,NaN,0.322000969128045,-0.360957071047036,-0.674481262102535,-0.422215756228724,-0.674481262101983,-0.597065030516745,0.620804714183464,NaN,1.20930529454975,NaN,2.14279852845827,-0.0916214471279986,0.102238810754157,-0.0916214471263794,-0.138279705138525,-0.841166121798885,-0.985428489009521,-0.692555086469694,0.171990409755897,NaN,NaN,-0.805176080046721,0.269506553621765,0.897649146110862,-2.89178078668004,-0.651386354064637,1.5679468179398,1.68729494948362,2.14591529927105,0.959612590385359,-0.932188637126656,-0.932188637123293,-0.583027897387187,1.24937399299283,NaN,NaN,1.99734368559164,0.10280975832492,1.40850919629872,-2.01543650161825,-2.01543650161671,1.47558557684124,-1.47558557684214,1.16900777759549
1063.424,-1.06132735657624,1.05555091857988,-0.496845445818599,-1.03677615714482,0.545279639777996,0.545279639776452,NaN,0.33370830525571,-0.375329097050298,-0.686627259216195,-0.450659713308501,-0.686627259215637,-0.610989304932427,0.626790092563305,NaN,1.20158353782178,NaN,2.14532424915215,-0.0764195792853795,0.115726609538371,-0.0764195792837626,-0.1372656998221,-0.824863777283287,-0.968129838153186,-0.706876679601159,0.17912911439201,NaN,NaN,-0.798294296250567,0.263876205294902,0.932282095984229,-2.91973008085578,-0.632137161835459,1.59024581918215,1.71556459392215,2.1789498705456,0.935990265142893,-0.933213646479435,-0.933213646476032,-0.577918824030361,1.26784432791656,NaN,NaN,1.97794210626864,0.0819610229886705,1.38219915714849,-2.01023312131674,-2.01023312131518,1.45017269610811,-1.45017269610902,1.14503490140426
1063.5264,-1.07981135676428,1.081570112122,-0.501281391016561,-1.02261575882519,0.588476284806303,0.588476284804692,NaN,0.34341435141042,-0.389300750996894,-0.696449480959767,-0.476665299123626,-0.696449480959205,-0.623802427514969,0.630208200664256,NaN,1.19270071399296,NaN,2.14449361953878,-0.0613770109743689,0.128657755539575,-0.0613770109727487,-0.135991418800344,-0.809025633228143,-0.95101141173139,-0.720170765559108,0.185367656553863,NaN,NaN,-0.791393346632349,0.258361664018348,0.965130309450282,-2.94491149273028,-0.613175341109103,1.61050263278493,1.74021275664996,2.20835120908997,0.911594398064584,-0.934883892422487,-0.934883892419051,-0.571857830794332,1.28478848325257,NaN,NaN,1.95621351049477,0.0616187486482896,1.35532882594869,-2.00437921824587,-2.0043792182443,1.42392797830858,-1.42392797830949,1.11929698537457
1063.6288,-1.09600406875489,1.1056054037933,-0.504481826623093,-1.0080717278289,0.629608059785646,0.629608059783971,NaN,0.351093701149531,-0.402847199777092,-0.70391890352107,-0.500203028159115,-0.703918903520511,-0.635461012327287,0.631089815803425,NaN,1.18270126086134,NaN,2.14036794886266,-0.0465231442166291,0.140994643117601,-0.0465231442150157,-0.134474956389346,-0.793634293496526,-0.934075465191517,-0.732416468289468,0.190696012771082,NaN,NaN,-0.78450413968752,0.253046244939304,0.996190615133913,-2.96724723404385,-0.594462727641368,1.62872880134517,1.7612098659227,2.23411038970255,0.886470023562183,-0.937128797333645,-0.937128797330172,-0.564832277372042,1.30019548377742,NaN,NaN,1.93212373712066,0.0418094130293188,1.3278463736997,-1.9978292083853,-1.99782920838371,1.39688156698947,-1.39688156699038,1.09178115417013
1063.7312,-1.10986801446089,1.12763317341188,-0.506421667042412,-0.993176962307044,0.668552529129995,0.668552529128254,NaN,0.356726720108685,-0.415946251273239,-0.709015564990039,-0.521250769364081,-0.709015564989485,-0.64592343025388,0.629473964957096,NaN,1.17163353620952,NaN,2.1330180395127,-0.0318849560083539,0.152699289884991,-0.0318849560067418,-0.13273426538812,-0.778670289342447,-0.917322041094114,-0.743597413786553,0.195106198766565,NaN,NaN,-0.777658734298595,0.248011010759412,1.02546398490359,-2.98666950974669,-0.575962383525465,1.64493923321031,1.77853482179345,2.25622594886078,0.860663280336979,-0.939876761546138,-0.939876761542631,-0.556829044334141,1.31405592215539,NaN,NaN,1.90564044677211,0.0225554971252883,1.29969835755418,-1.99053728077915,-1.99053728077755,1.36906725240853,-1.36906725240943,1.06247692056241
1063.8336,-1.12137447756639,1.14763463382091,-0.507082071800541,-0.977963167557838,0.705194155803645,0.705194155801842,NaN,0.360299826584496,-0.428578767794544,-0.71172920877806,-0.539794814230741,-0.711729208777507,-0.655150163311606,0.625407958174428,NaN,1.15954932096188,NaN,2.12252356499117,-0.0174867583654611,0.163733435961517,-0.0174867583638496,-0.130787421030204,-0.764112245307944,-0.900749419128614,-0.753701810737434,0.198592279503632,NaN,NaN,-0.770890206600114,0.243334005905035,1.05295531655098,-3.00312091082159,-0.557639019547886,1.6591520377102,1.79217535250937,2.27470397342719,0.834221303880558,-0.943055449518626,-0.943055449515093,-0.547834720696135,1.32636191489749,NaN,NaN,1.87673317782998,0.00387558245165261,1.27083026958069,-1.98245761706244,-1.98245761706083,1.34052258088349,-1.34052258088438,1.03137674269891
1063.936,-1.13050420201168,1.165595837345,-0.506451152623502,-0.962460848672871,0.739425040481224,0.739425040479363,NaN,0.361805768720069,-0.44072902549991,-0.712059829690546,-0.555830903477398,-0.712059829690001,-0.663104172212614,0.618947392141679,NaN,1.14650331861043,NaN,2.10897244961093,-0.0033500279767247,0.174058674829449,-0.00335002797511272,-0.128652883973593,-0.74993705067807,-0.884354570614361,-0.762722495341158,0.201150402896799,NaN,NaN,-0.764232468973373,0.239089527722468,1.07867329583519,-3.01655479823459,-0.539459334730682,1.67138840633303,1.80212839512336,2.28955823738343,0.807192111248302,-0.946592049826779,-0.946592049823222,-0.537835822432155,1.33710713918179,NaN,NaN,1.84537342848003,-0.014215579669536,1.24118709558019,-1.97354462175104,-1.97354462174941,1.31128889668331,-1.31128889668421,0.998476572211521
1064.0384,-1.13724799892809,1.18150769080771,-0.504524582643651,-0.946699333572483,0.771145645429239,0.77114564542732,NaN,0.361243885809947,-0.452384994608942,-0.710018093000738,-0.569365162656026,-0.710018093000199,-0.669751256592701,0.610156109150783,NaN,1.1325526583753,NaN,2.09246025143523,0.0105066951363608,0.183636608705575,0.0105066951379745,-0.126349735018219,-0.736120040129277,-0.868133591598656,-0.770656926405264,0.202778853489761,NaN,NaN,-0.757720043266374,0.235347462514912,1.10263033722363,-3.02693564981337,-0.521392258751597,1.68167253483649,1.80840047200809,2.30081036624219,0.779624479132939,-0.950413500950563,-0.950413500946983,-0.526819031152704,1.34628696166536,NaN,NaN,1.81153478989162,-0.0317070472879051,1.210713876765,-1.96375316587037,-1.96375316586871,1.2814113134469,-1.28141131344779,0.963776374913353
1064.1408,-1.14160721729348,1.19536597041213,-0.501306067029983,-0.930706830951974,0.80026547956137,0.8002654795594,NaN,0.358620340646543,-0.463538507468895,-0.705625587887932,-0.580414898475341,-0.705625587887396,-0.675060394913632,0.59910608994184,NaN,1.11775640003308,NaN,2.07308953598183,0.0240678417685212,0.192429020562908,0.0240678417701266,-0.123897869699969,-0.722635184144181,-0.852082102319558,-0.777507130778839,0.203478118885063,NaN,NaN,-0.751387787150959,0.232172703635837,1.12484259543112,-3.03423934896099,-0.503409093819744,1.69003157474609,1.81100803388475,2.30849000334704,0.751567812412293,-0.954446679999285,-0.954446679995693,-0.514771431538905,1.35389865628128,NaN,NaN,1.77519313496526,-0.0485917130788471,1.17935626742207,-1.95303884502839,-1.95303884502673,1.25093861482581,-1.2509386148267,0.92728060698718
1064.2432,-1.14359403014234,1.20717132604818,-0.496807631801708,-0.914510528083463,0.826703717249137,0.826703717247121,NaN,0.353948305098625,-0.474185286264512,-0.698914873902658,-0.589009200688276,-0.698914873902127,-0.679004057082683,0.585877255072288,NaN,1.10217503393953,NaN,2.05096921661874,0.0373207829171982,0.200398059668763,0.0373207829188004,-0.121318149291781,-0.709455294720792,-0.83619561478015,-0.783279612303622,0.203250956479989,NaN,NaN,-0.745270579307343,0.229624653548094,1.14533002253139,-3.03845340666758,-0.485483576301344,1.69649558952567,1.80997773266495,2.3126349382853,0.723071997322014,-0.958618567058462,-0.958618567054854,-0.501680729190858,1.35994168958281,NaN,NaN,1.73632684175019,-0.0648663487557175,1.14706108376719,-1.9413582500107,-1.94135825000902,1.21992308817783,-1.21992308817873,0.88899864208894
1064.3456,-1.1432315156996,1.21692926864052,-0.491049713361834,-0.898136727351695,0.850389730167263,0.850389730165209,NaN,0.347248081850457,-0.484324833092555,-0.689929308703673,-0.595189312250414,-0.689929308703144,-0.68155848826127,0.570557163138323,NaN,1.08586997471333,NaN,2.02621384956069,0.0502557382469284,0.207506443502023,0.0502557382485221,-0.118632506259651,-0.696552253330193,-0.820469873237237,-0.787985237835491,0.202102450095024,NaN,NaN,-0.739402977323093,0.227756802922791,1.16411643658753,-3.03957711044241,-0.467591888223136,1.70109749171009,1.80534659785957,2.31329116453357,0.694187237089211,-0.962856407372999,-0.962856407369382,-0.487535443263974,1.36441804111788,NaN,NaN,1.69491702824067,-0.0805316312107577,1.11377684026285,-1.92866924436357,-1.92866924436188,1.18842029548324,-1.18842029548414,0.848945151326812
1064.448,-1.14055354893008,1.22465014108204,-0.484061064211528,-0.881611012570751,0.871263525854935,0.871263525852844,NaN,0.33854715352766,-0.493960215002363,-0.678722681966556,-0.599008764114801,-0.678722681966037,-0.682703965971989,0.553240613518026,NaN,1.06890305403941,NaN,1.99894289246607,0.0628656238859779,0.213717679054136,0.0628656238875677,-0.115864003091464,-0.683897259999209,-0.80490116531897,-0.791639104138224,0.200040053173161,NaN,NaN,-0.733818863004084,0.226616382259395,1.18122957512587,-3.0376215870606,-0.449712637949895,1.70387295247304,1.79716211213437,2.31051285746581,0.664963875031246,-0.967087887448974,-0.96708788744535,-0.472325074110464,1.36733252579627,NaN,NaN,1.65094779600663,-0.0955921248394157,1.0794542696877,-1.91493124345002,-1.91493124344832,1.15648879707367,-1.15648879707458,0.807140436121838
1064.5504,-1.135604534818,1.23034907436909,-0.475878505812198,-0.864958432856101,0.889276094176337,0.889276094174215,NaN,0.327880161655495,-0.503097777569507,-0.665358691990223,-0.600533295493009,-0.665358691989709,-0.682425029394519,0.53402917042284,NaN,1.05133602149175,NaN,1.96927994371938,0.0751458368956862,0.218996302121985,0.0751458368972744,-0.113036843574739,-0.671461095749736,-0.789486595052175,-0.794260380800656,0.197073618629927,NaN,NaN,-0.72855108669697,0.226244088607544,1.1967011230604,-3.03260976721804,-0.431826813944229,1.70486028707298,1.78548219266349,2.30436227917011,0.635452213748666,-0.971241329499145,-0.971241329495523,-0.456040245433244,1.36869309048628,NaN,NaN,1.60440649458808,-0.110056217720613,1.04404682517195,-1.90010549333722,-1.90010549333551,1.12418985818656,-1.12418985818747,0.763610714830196
1064.6528,-1.12843901105049,1.23404592482393,-0.46654655902326,-0.848203693516783,0.904389662111288,0.904389662109137,NaN,0.315288824976378,-0.511746802482243,-0.649910294990904,-0.599840591537783,-0.649910294990397,-0.680710672858024,0.513030623874334,NaN,1.03323006243554,NaN,1.93735197678417,0.0870939860183974,0.223308130203221,0.087093986019985,-0.110176338672834,-0.659214391065103,-0.774224312836343,-0.79587212663817,0.193215412192297,NaN,NaN,-0.723631121349418,0.226673889888894,1.2105667144425,-3.02457625467381,-0.413917713593763,1.70410031978885,1.77037508224814,2.29490961506515,0.60570233684695,-0.975245906362593,-0.975245906358964,-0.438672820429839,1.36851106166563,NaN,NaN,1.55528401146708,-0.123936021396626,1.00751116643931,-1.88415534955133,-1.88415534954962,1.09158716217907,-1.09158716217997,0.718388368886265
1064.7552,-1.11912113963381,1.23576518350155,-0.45611697690116,-0.831371346313164,0.916577858205199,0.916577858203031,NaN,0.300821805141776,-0.519919113795322,-0.632458952627644,-0.597019871117818,-0.632458952627149,-0.677554495682327,0.490358397456379,NaN,1.01464534075499,NaN,1.90328857993067,0.0987095984545293,0.22662052196556,0.0987095984561193,-0.10730883692459,-0.647127895964638,-0.75911370869347,-0.796501089157538,0.188480099494044,NaN,NaN,-0.719088739032909,0.227932897547796,1.22286589975442,-3.01356711760878,-0.39597086466385,1.70163622663283,1.75191914840732,2.28223274000133,0.575763932900549,-0.979031884110412,-0.979031884106789,-0.420215992576727,1.36680132199861,NaN,NaN,1.50357507718675,-0.137247242790939,0.969807636095597,-1.86704655320936,-1.86704655320765,1.05874653793802,-1.05874653793893,0.671512158514692
1064.8576,-1.10772410333494,1.23553585248415,-0.444648198954196,-0.814485972132092,0.925825794859205,0.925825794857032,NaN,0.28453452167352,-0.527628644812705,-0.613093805120825,-0.592171349668425,-0.613093805120345,-0.672954807974591,0.4661309069273,NaN,0.995640573912854,NaN,1.86722120998568,0.109993832702021,0.228902633907986,0.109993832703618,-0.104461632274439,-0.635172748473,-0.744155579542246,-0.796177503165082,0.182884695013598,NaN,NaN,-0.714951723126602,0.230041288084467,1.23364205897189,-2.99963961921318,-0.377973967866824,1.6975133554434,1.73020258825207,2.26641691226658,0.545686114409718,-0.982530895170575,-0.982530895166954,-0.400664356333858,1.36358240075866,NaN,NaN,1.4492785716469,-0.150009030812533,0.930900731619441,-1.84874750068454,-1.84874750068282,1.02573570905144,-1.02573570905235,0.623027418268423
1064.96,-1.09432942395495,1.23339129192799,-0.432204742021224,-0.797572348433567,0.93213008204081,0.93213008203863,NaN,0.266488915497738,-0.534890990455209,-0.591910798675124,-0.585405594046186,-0.591910798674658,-0.666914697218152,0.440470873145807,NaN,0.97627264820828,NaN,1.82928247075507,0.120949205626678,0.230125668078325,0.120949205628283,-0.101662857111859,-0.623320735360611,-0.729352272813151,-0.794934896791867,0.176448467763699,NaN,NaN,-0.71124562427642,0.233012259040909,1.24294224436088,-2.98286188997705,-0.359916877640687,1.69177903078748,1.70532304305484,2.24755440326054,0.515517225185469,-0.985676232680089,-0.98567623267647,-0.38001396822234,1.35887648216712,NaN,NaN,1.39239783189567,-0.162243791348219,0.890759574715882,-1.82922950570807,-1.82922950570634,0.992624085218898,-0.992624085219822,0.572986237706557
1065.0624,-1.07902622072796,1.2293690457363,-0.418856542038007,-0.780655594944348,0.935498781524788,0.935498781522613,NaN,0.246753163555684,-0.541722970204301,-0.569011792182832,-0.57684278279792,-0.569011792182381,-0.659442059184787,0.413504597433105,NaN,0.956596280270969,NaN,1.78960542805603,0.131579327142306,0.230263112760657,0.131579327143922,-0.0989413618276967,-0.611544535774756,-0.714707798493349,-0.792809901479889,0.169192807584977,NaN,NaN,-0.707993561394659,0.236852018125071,1.25081695016862,-2.96331253575982,-0.341791620787917,1.68448235278981,1.67738713201855,2.22574407513498,0.485304638568675,-0.988403155751703,-0.988403155748083,-0.358262407424573,1.35270935252311,NaN,NaN,1.33294097713194,-0.173976960932929,0.849358376075834,-1.8084670551268,-1.80846705512506,0.959482620191908,-0.959482620192845,0.521447629484349
1065.1648,-1.0619104234654,1.22351064826323,-0.404678260237211,-0.763761294361519,0.935951299042015,0.935951299039844,NaN,0.225401351364924,-0.548142212156708,-0.544503660267552,-0.566611886447245,-0.544503660267117,-0.650549589947798,0.385361211264863,NaN,0.936663728533802,NaN,1.74832297053834,0.141888642969545,0.229290982643847,0.141888642971178,-0.0963265783252426,-0.599817941321373,-0.700227900432909,-0.789842059927279,0.161141058207604,NaN,NaN,-0.70521606644688,0.24155981135731,1.257319813415,-2.94108018008021,-0.323592448007937,1.67567399409377,1.64650991418226,2.20109091475261,0.455094555388806,-0.990649202742389,-0.990649202738769,-0.335408841292201,1.34511031027155,NaN,NaN,1.27092126342172,-0.185236733732748,0.8066768915808,-1.78643805781452,-1.78643805781276,0.926383745749754,-0.926383745750708,0.46847768922152
1065.2672,-1.04308394417299,1.21586140631558,-0.389748560740725,-0.746915588437838,0.933518202793749,0.933518202791585,NaN,0.202513110446513,-0.554166751207958,-0.518497399620673,-0.554849787833694,-0.518497399620255,-0.640254727429456,0.356171909831727,NaN,0.916524557542422,NaN,1.70556722127504,0.151882202188939,0.227188060991524,0.151882202190581,-0.0938483659510801,-0.588116051922369,-0.68592008458316,-0.786073634360185,0.152318320111859,NaN,NaN,-0.702930971811047,0.247127994541199,1.26250724769471,-2.91626294422609,-0.305315918353752,1.66540599628021,1.61281428253252,2.17370552733466,0.424931807809942,-0.992354510599823,-0.992354510596206,-0.311454098340572,1.3361120579584,NaN,NaN,1.20635746582082,-0.196053738955399,0.762700863234939,-1.763124083699,-1.76312408369723,0.893401365395002,-0.89340136539597,0.41414975060746
1065.3696,-1.02265380074384,1.20647014850735,-0.374149357424181,-0.730145252285418,0.92824095760695,0.9282409576048,NaN,0.178173222908288,-0.559814627171285,-0.491107237166123,-0.541700362558246,-0.491107237165724,-0.628579530102884,0.326069171945792,NaN,0.896225455024162,NaN,1.66146899927112,0.161565474314062,0.223936138777518,0.161565474315718,-0.0915368427541396,-0.576415449132568,-0.671793608982837,-0.781549425683562,0.142751223538067,NaN,NaN,-0.701153338239116,0.253542146466495,1.2664380064691,-2.88896786866871,-0.28696102192725,1.65373156292588,1.57643028870246,2.14370358677331,0.394859668607546,-0.993462136900377,-0.99346213689677,-0.28640074690356,1.32575058479047,NaN,NaN,1.13927427801418,-0.206460668838883,0.717422435841402,-1.7385105898506,-1.73851058984881,0.860610872939388,-0.860610872940372,0.358544533775392
1065.472,-1.00073118980395,1.19538893833771,-0.357965029083412,-0.713477749636083,0.920171572488382,0.920171572486242,NaN,0.152471191030661,-0.565103477384727,-0.462449738670292,-0.527313526971668,-0.46244973866991,-0.615550489987017,0.29518596443962,NaN,0.875810097331112,NaN,1.61615732432941,0.170944233826348,0.219520243924587,0.170944233828015,-0.0894222053414831,-0.564694348518125,-0.657859440614801,-0.776316610521633,0.132467672150136,NaN,NaN,-0.699895421843907,0.260781217535895,1.26917267133456,-2.85931027668133,-0.268529345731884,1.64070484025811,1.53749439409551,2.11120523351011,0.36491966213195,-0.993918383186449,-0.993918383182851,-0.260253175500212,1.3140650364036,NaN,NaN,1.06970272421597,-0.216491862322845,0.670840540968914,-1.71258713115348,-1.71258713115169,0.82808916129459,-0.828089161295587,0.301750280585162
1065.5744,-0.977430522309755,1.18267275302479,-0.341281615616978,-0.696941269325449,0.909372168344765,0.909372168342644,NaN,0.125500769799127,-0.570050135235436,-0.432642926376564,-0.511844250552529,-0.432642926376203,-0.601198287118776,0.263654933540037,NaN,0.855319059140026,NaN,1.56975896036135,0.180024517979732,0.21392885830029,0.180024517981411,-0.087534536813856,-0.552932731573144,-0.644130179048814,-0.770424591527913,0.121496560049117,NaN,NaN,-0.69916668064605,0.268817707576775,1.27077306849526,-2.82741307938254,-0.250025279092834,1.62638067882499,1.49614864901066,2.07633441607193,0.335151374485046,-0.99367311561498,-0.993673115611381,-0.233017673522102,1.30109756358845,NaN,NaN,0.997680587053377,-0.226182849394664,0.622961241105187,-1.68534755251837,-1.68534755251657,0.795914597154568,-0.795914597155579,0.243862867428251
1065.6768,-0.952868454580903,1.16837913719434,-0.324186023451369,-0.680564740683611,0.895914483214276,0.895914483212178,NaN,0.0973594673649133,-0.574670259495361,-0.401805429147564,-0.495451540866483,-0.401805429147227,-0.585557499849096,0.231607597832735,NaN,0.834789765097328,NaN,1.5223979992287,0.188812656962876,0.207154123602892,0.18881265696456,-0.0859036027299677,-0.541112455966092,-0.630619945614076,-0.763924847785002,0.109867469581623,NaN,NaN,-0.698973820301765,0.277617869798757,1.27130163454802,-2.79340602589753,-0.231456239832061,1.6108143813063,1.45253981849848,2.03921819105789,0.305592264996576,-0.99268006865342,-0.992680068649826,-0.204702515465267,1.28689314923597,NaN,NaN,0.923252852589664,-0.235569864940579,0.573798027981835,-1.65679015965839,-1.65679015965658,0.764166945653206,-0.764166945654233,0.184985883959323
1065.7792,-0.927162958576194,1.1525678513551,-0.306765273771883,-0.664377825601199,0.879879348715698,0.879879348713627,NaN,0.0681480311959255,-0.57897802144598,-0.370055699047143,-0.478297439962788,-0.370055699046832,-0.568666295116864,0.199173570818808,NaN,0.814256475266792,NaN,1.47419548960756,0.197315369449541,0.199192036613644,0.197315369451236,-0.0845586430156314,-0.529217342537615,-0.617344245083996,-0.756870772995504,0.0976103666036886,NaN,NaN,-0.699320869655211,0.287141939770353,1.27082077444265,-2.75742491318097,-0.212832886734511,1.59406145190169,1.40681849827227,1.99998601843099,0.276277487600449,-0.990897111260542,-0.99089711125696,-0.175318057552257,1.27149942936328,NaN,NaN,0.846472156415303,-0.244689355330843,0.523372071787773,-1.62691786642761,-1.62691786642579,0.732927229601467,-0.732927229602513,0.125230664061573
1065.8816,-0.9004324643266,1.13530054167879,-0.289105812400458,-0.648410889461665,0.861356179429865,0.861356179427826,NaN,0.0379699457056517,-0.582985859353667,-0.337511317299367,-0.460546088140649,-0.337511317299078,-0.550566129636133,0.166479842982683,NaN,0.793750284693469,NaN,1.4252691083483,0.205539902316051,0.190042632291858,0.205539902317755,-0.0835281773127888,-0.517233237554871,-0.604319817285873,-0.749317498600426,0.0847553188553133,NaN,NaN,-0.700209262760126,0.297344389350777,1.26939226043684,-2.71961077656022,-0.194169281438204,1.57617736213403,1.35913827532914,1.95876909519805,0.247239735795641,-0.988286464906057,-0.988286464902486,-0.144876856330489,1.25496653725312,NaN,NaN,0.767399207005023,-0.253577511082935,0.471712421575668,-1.59573831753803,-1.59573831753619,0.70227750570118,-0.702277505702246,0.0647162544798773
1065.984,-0.872795073811876,1.11664045026329,-0.271292870002865,-0.632694958683053,0.840442498149488,0.840442498147483,NaN,0.00693095808551366,-0.586704281222938,-0.304288377047964,-0.442362879849796,-0.3042883770477,-0.531301485286491,0.133650135238413,NaN,0.773299113645274,NaN,1.3757328591509,0.213494176097507,0.179710152220784,0.213494176099215,-0.082839840958188,-0.505148048987647,-0.591564495977019,-0.741321705366799,0.0713322609521144,NaN,NaN,-0.701637898957355,0.308174210054179,1.26707670263877,-2.68010907699305,-0.175482978129778,1.55721733397715,1.30965496436744,1.91569974644808,0.218509123982935,-0.984814882012632,-0.984814882009078,-0.113393811575441,1.23734699408748,NaN,NaN,0.686103176605868,-0.262269852130323,0.418856157193168,-1.56326398580794,-1.56326398580609,0.6723005496541,-0.672300549655176,0.00356931175532439
1066.0864,-0.844367818080244,1.09665217012601,-0.253409841588288,-0.617261673096922,0.817243487061126,0.817243487059159,NaN,-0.0248613728906469,-0.590141687911327,-0.270500902378435,-0.423913676401924,-0.270500902378196,-0.510919644214444,0.100804312133693,NaN,0.752927676942938,NaN,1.32569677861967,0.221186894831459,0.168203197266708,0.221186894833164,-0.0825202547906994,-0.492951758401318,-0.579097080028369,-0.73294142233667,0.0573708151119344,NaN,NaN,-0.703603165974584,0.319575235491237,1.26393309912386,-2.63906888945702,-0.156795035530138,1.53723612966139,1.2585259098031,1.87091085991949,0.19011311089911,-0.980453798750076,-0.980453798746543,-0.0808863308419466,1.21869564852557,NaN,NaN,0.602662063162378,-0.270800868420144,0.364848487523678,-1.52951224035683,-1.52951224035496,0.643079455443315,-0.643079455444397,-0.0580760771123298
1066.1888,-0.815265934438832,1.07540144064413,-0.235537664091046,-0.602143235456171,0.79187153943266,0.791871539430731,NaN,-0.0572981251136331,-0.59330421201163,-0.236260273530845,-0.405364014770762,-0.236260273530626,-0.489470496792942,0.068057838024415,NaN,0.732657438347526,NaN,1.27526664149357,0.228627596927883,0.15553486589971,0.228627596929586,-0.0825949183065673,-0.480636413266086,-0.566937210364299,-0.724235805374275,0.042900162336962,NaN,NaN,-0.706098932571395,0.331486511462526,1.26001846359148,-2.59664208448117,-0.138129948931987,1.51628784498238,1.2059093257565,1.82453534549684,0.162076463954807,-0.975179459761428,-0.97517945975791,-0.0473745167252903,1.19906965292036,NaN,NaN,0.517163021438216,-0.27920369349653,0.309742784473036,-1.4945053777479,-1.49450537774603,0.614697150798701,-0.614697150799787,-0.120078660823855
1066.2912,-0.785602166639615,1.0529549777479,-0.217754198154869,-0.587372353061223,0.764445793881819,0.764445793879937,NaN,-0.0902694737774714,-0.596195592427468,-0.20167466175046,-0.386878282941262,-0.201674661750265,-0.467006372170596,0.0355212726631397,NaN,0.712506564665689,NaN,1.22454367362399,0.235826648024702,0.141722879695078,0.235826648026405,-0.0830881137183638,-0.468196105593384,-0.555105245091116,-0.715264887407501,0.0279489529046622,NaN,NaN,-0.709116529999229,0.343842717491584,1.25538752639158,-2.55298248624174,-0.119515497593775,1.4944257174198,1.15196365912791,1.77670561918692,0.134421261859536,-0.968972996037407,-0.968972996033913,-0.0128813830684972,1.17852846272739,NaN,NaN,0.429702646463721,-0.287509788774185,0.253600544961654,-1.45827061039243,-1.45827061039054,0.58723582185619,-0.587235821857273,-0.182290392735985
1066.3936,-0.755486104969702,1.02938033056414,-0.20013363590826,-0.572982164470216,0.73509164246342,0.73509164246159,NaN,-0.123665165555572,-0.598817099823962,-0.166848494854132,-0.368618875237226,-0.166848494853961,-0.44358187784704,0.0032998140038956,NaN,0.692489893253081,NaN,1.17362428826399,0.242795191023342,0.12678969521131,0.242795191025048,-0.0840228123184697,-0.455626944830569,-0.543622131408118,-0.706089298164783,0.0125452452271469,NaN,NaN,-0.712644741544609,0.356574640047027,1.25009250024475,-2.50824499304474,-0.100982508505345,1.47170196186793,1.09684697446727,1.72755312022253,0.107166934313054,-0.961820443275009,-0.961820443271534,0.0225668968291397,1.15713384590387,NaN,NaN,0.340387182592464,-0.295748634907269,0.19649128237945,-1.42084001477213,-1.42084001477023,0.560776246873712,-0.560776246874791,-0.244556907602473
1066.496,-0.725023573707514,1.00474575430966,-0.182745947955825,-0.559006148376627,0.703940205797819,0.703940205796034,NaN,-0.157375001012278,-0.6011675096252,-0.131881966828899,-0.35074535196902,-0.131881966828748,-0.419253734025155,-0.0285071058487819,NaN,0.672618921776441,NaN,1.12259985704064,0.249545067247249,0.110762599670489,0.249545067248959,-0.0854205794872242,-0.442927033731442,-0.532509279012368,-0.696769959800269,-0.00328353558695394,NaN,NaN,-0.716669812890112,0.369609693534931,1.24418289346552,-2.46258465697309,-0.0825645517312427,1.44816763726904,1.04071635949478,1.67720786303973,0.0803303374782414,-0.953712710633487,-0.953712710630032,0.0589407215522642,1.13494988329799,NaN,NaN,0.249332634067386,-0.303947427417995,0.138492355177997,-1.38225044589748,-1.38225044589557,0.535397059174897,-0.535397059175979,-0.306718093679728
1066.5984,-0.694316063810675,0.97912009448512,-0.165656370147707,-0.545478014785334,0.671127774004196,0.671127774002467,NaN,-0.191289322985739,-0.603243119025925,-0.0968705952817315,-0.333413612637101,-0.0968705952816008,-0.394080598756155,-0.0598061724315773,NaN,0.652901822961774,NaN,1.07155651923349,0.256088712771377,0.0936737853722736,0.256088712773095,-0.0873014812007832,-0.430096450043247,-0.521788440904574,-0.687367767622642,-0.0195106243389181,NaN,NaN,-0.72117548854469,0.382872480883873,1.23770535241049,-2.4161557288089,-0.064297588564095,1.42387253921655,0.983727348678266,1.62579801897536,0.0539258635284757,-0.94464552313184,-0.944645523128402,0.0962067993138487,1.11204293600928,NaN,NaN,0.156664764560845,-0.312130759691101,0.0796887393766611,-1.34254342253017,-1.34254342252824,0.511173976178717,-0.511173976179804,-0.368608744164834
1066.7008,-0.663460219109197,0.952572684992884,-0.148924937095817,-0.532431576344833,0.636795223863985,0.63679522386231,NaN,-0.225299510353562,-0.605037821030246,-0.0619048355465558,-0.316775083116345,-0.0619048355464448,-0.368122892775942,-0.0905104885140462,NaN,0.633343482724239,NaN,1.02057502947984,0.26243903086032,0.0755603938261644,0.262439030862048,-0.0896839978777412,-0.417137228139886,-0.511481602069075,-0.677943255985467,-0.0361099279227976,NaN,NaN,-0.726143074264438,0.396285386412389,1.23070353107241,-2.36911067808457,-0.0462195797621523,1.39886511303762,0.926033369094305,1.57344952613744,0.0279655830938419,-0.934619349496379,-0.934619349492955,0.134327918341619,1.08848156394557,NaN,NaN,0.0625189829092801,-0.320320286179468,0.0201727470924367,-1.30176498537742,-1.30176498537549,0.488179027110352,-0.488179027111451,-0.430059283254036
1066.8032,-0.632547401503086,0.925173264756924,-0.132606085851511,-0.519900595135399,0.601087429870067,0.601087429868447,NaN,-0.25929847251571,-0.606543257368322,-0.0270697699261781,-0.300975927223784,-0.0270697699260828,-0.341442634991584,-0.120539813514662,NaN,0.613945559084283,NaN,0.969730645467821,0.2686092461768,0.0564645214956074,0.268609246178541,-0.0925849496450511,-0.404053329736878,-0.501610869637238,-0.668556236664495,-0.053056020339005,NaN,NaN,-0.731551523453668,0.409769200139316,1.22321800822681,-2.32159919728522,-0.0283700385787607,1.37319238746882,0.867785222980262,1.52028573601422,0.00245941974593061,-0.923639303200073,-0.923639303196664,0.173262762226462,1.064336400114,NaN,NaN,-0.0329598824913987,-0.328534392013718,-0.0399563094391229,-1.25996553021004,-1.2599655302081,0.466479788559951,-0.466479788561067,-0.490896571702571
1066.9056,-0.601663360461803,0.896991913597469,-0.116748355066774,-0.507918601915004,0.56415268319537,0.564152683193803,NaN,-0.293181134600777,-0.607749060070492,0.00755511076935548,-0.286156307535377,0.00755511076943316,-0.31410328985836,-0.149820730187852,NaN,0.594706559976497,NaN,0.919093059040078,0.274612746259071,0.0364331868374648,0.274612746260824,-0.0960194356990185,-0.390850594414155,-0.492198358207232,-0.659265394756982,-0.0703241170926287,NaN,NaN,-0.737377545796466,0.42324377792085,1.21528628022152,-2.27376719876412,-0.0107895054822454,1.34689993354373,0.809130624345354,1.46642711044182,-0.0225846444170501,-0.911714994807923,-0.911714994804527,0.212965774868599,1.03967999664402,NaN,NaN,-0.129617913111496,-0.336787912029346,-0.100592505490785,-1.21719962099095,-1.217199620989,0.446138622566129,-0.446138622567257,-0.55094479200427
1067.008,-0.57088801213509,0.868099003823475,-0.101394186994292,-0.496518688683435,0.526142123454727,0.526142123453217,NaN,-0.326844902039087,-0.608643169323124,0.0418960294749949,-0.272449721322849,0.0418960294750572,-0.286169617119235,-0.178286731581355,NaN,0.575621939719618,NaN,0.86872637359465,0.280462911183393,0.0155182626849303,0.280462911185154,-0.100000790440659,-0.377536667601615,-0.483266070883511,-0.650127839636327,-0.0878900275158106,NaN,NaN,-0.743595736265293,0.436628739187177,1.20694284408001,-2.22575581735246,0.00648106298164884,1.32003185269744,0.750213799114236,1.4119909774521,-0.0471603337088445,-0.898860326691717,-0.898860326688345,0.253387082645136,1.01458665063008,NaN,NaN,-0.227292525153814,-0.345091923063332,-0.161623735058953,-1.17352579011278,-1.17352579011082,0.427211922821673,-0.427211922822814,-0.610026401727999
1067.1104,-0.540295314806571,0.838565165510705,-0.0865798199491179,-0.485733277100294,0.487209183638192,0.487209183636736,NaN,-0.360190098948291,-0.609212210627853,0.0758849558823393,-0.259982420640132,0.0758849558823864,-0.257707516579822,-0.205878232311516,NaN,0.556684215023233,NaN,0.818689127333403,0.28617293027351,-0.00622362518521588,0.286172930275274,-0.104540560272109,-0.364120906703322,-0.474835780906315,-0.64119862271272,-0.105730085963342,NaN,NaN,-0.750178721087404,0.449844196997407,1.19821936630006,-2.17770043394688,0.0234009785280561,1.292630794743,0.69117514789781,1.35709134594908,-0.0712628173021719,-0.885093238316466,-0.885093238313111,0.294472484000916,0.989132201772102,NaN,NaN,-0.325812990349686,-0.353453599425266,-0.222932179686136,-1.12900632602461,-1.12900632602265,0.409749391730389,-0.409749391731535,-0.667963140998321
1067.2128,-0.509953229678629,0.808461269029814,-0.0723352580602648,-0.475593863240247,0.447509050478409,0.447509050477013,NaN,-0.393120383561387,-0.609441933913138,0.109459554412913,-0.248872906214279,0.109459554412945,-0.228783873491759,-0.232542513200919,NaN,0.537883100557851,NaN,0.769034358204344,0.291755604982347,-0.0287312342571257,0.29175560498411,-0.109648506083613,-0.350614260882395,-0.46692891485342,-0.632530232799523,-0.123821062078526,NaN,NaN,-0.757097315989734,0.462811512598136,1.18914492627109,-2.12972972894784,0.0399305630615963,1.26473800213636,0.632150967589328,1.30183877434163,-0.0948884237824179,-0.870435416276729,-0.870435416273388,0.336163516006129,0.963393781774781,NaN,NaN,-0.425001064141083,-0.361876104743786,-0.284394817471717,-1.083707038117,-1.08370703811504,0.393793372961119,-0.393793372962279,-0.724577086705884
1067.3152,-0.479923772934763,0.777858429268111,-0.0586843219077472,-0.466130735500086,0.407198143681835,0.407198143680499,NaN,-0.425543145425933,-0.609317733303688,0.142563041136085,-0.239231483004953,0.142563041136107,-0.19946641446479,-0.258233602329121,NaN,0.519205664161892,NaN,0.719809708087463,0.29722314191042,-0.0519388756323342,0.297223141912179,-0.11533263269025,-0.337029116199913,-0.459566430518144,-0.624172066276973,-0.142140046818268,NaN,NaN,-0.764320692247968,0.475454071506946,1.17974633273246,-2.08196476663881,0.0560319460652057,1.2363933744874,0.573273232299269,1.246340288993,-0.118034331172519,-0.854911979039298,-0.854911979035972,0.378397605747989,0.937449498480538,NaN,NaN,-0.524671735011433,-0.370358505828164,-0.345883980872023,-1.03769698599117,-1.0376969859892,0.379378250239073,-0.379378250240246,-0.779691753257968
1067.4176,-0.450263175182537,0.746828031060988,-0.0456447966958659,-0.457372659797225,0.366433615561969,0.366433615560696,NaN,-0.457369881427114,-0.608825260640836,0.175143937744247,-0.231159881532419,0.175143937744248,-0.169823573283996,-0.282912086360523,NaN,0.500636504995782,NaN,0.671057572883392,0.302586948663317,-0.0757766186210439,0.302586948665063,-0.1215992411432,-0.323379099390007,-0.452768678384417,-0.616169859429783,-0.160664307848102,NaN,NaN,-0.771816545280366,0.487698086562435,1.17004852652995,-2.03451810974288,0.0716699308996756,1.20763555137076,0.514669439754702,1.19069935466309,-0.140698228587994,-0.838551138403085,-0.838551138399776,0.421108312806145,0.911378057220642,NaN,NaN,-0.62463410329717,-0.378895720391365,-0.407267971932474,-0.991048163845514,-0.991048163843551,0.366529900411216,-0.366529900412412,-0.833133247234209
1067.52,-0.421022156431481,0.715441769617832,-0.0332286896915061,-0.449346527719259,0.325372870304439,0.325372870303227,NaN,-0.488516539076767,-0.60795112441603,0.207155716148855,-0.224750964960359,0.207155716148842,-0.139924354517743,-0.306544844581765,NaN,0.482157959975007,NaN,0.622815311420085,0.307857446693975,-0.100170532279125,0.307857446695704,-0.128453003193926,-0.309678834736028,-0.446555240417994,-0.608565076061494,-0.179371108738771,NaN,NaN,-0.779551258176765,0.499473435622804,1.1600750848062,-1.98749296877553,0.0868129424592743,1.17850201796611,0.45646252977441,1.13501590416515,-0.162877946352532,-0.82138383663846,-0.821383836635172,0.464225668867722,0.885258338783032,NaN,NaN,-0.724692387040594,-0.387478523576128,-0.468411737542071,-0.94383513541187,-0.943835135409909,0.355265178298347,-0.35526517829957,-0.884731484661608
1067.6224,-0.392246301343271,0.68377169319089,-0.0214425884414924,-0.442076974073906,0.284173098069986,0.284173098068839,NaN,-0.518903812667126,-0.606683633820931,0.238556349335962,-0.220088538964888,0.238556349335933,-0.109838181577885,-0.329104709183042,NaN,0.463750338906265,NaN,0.575115516100872,0.313043909128029,-0.125042968055037,0.313043909129744,-0.135897065191591,-0.295943651694843,-0.44094475169942,-0.601394267068779,-0.198237495944628,NaN,NaN,-0.787490053842952,0.510714525956887,1.14984881521891,-1.94098240590024,0.101434034498207,1.14902923511093,0.398770869836061,1.07938642546671,-0.184571059235159,-0.803443365285889,-0.803443365282614,0.50767661508479,0.859168954878158,NaN,NaN,-0.824647030109171,-0.396093625375669,-0.529177594016475,-0.896134622594723,-0.896134622592766,0.345591437749563,-0.345591437750806,-0.934321457691999
1067.7248,-0.363976492033638,0.65189022852443,-0.010288087053577,-0.435585988502628,0.242990812698448,0.242990812697364,NaN,-0.548457382387949,-0.605013516104002,0.269307816266593,-0.217247256933009,0.269307816266551,-0.0796347237346761,-0.350570074258007,NaN,0.445392178327082,NaN,0.527986324665736,0.318154331324775,-0.150312886250332,0.318154331326475,-0.143933188169108,-0.282189251748105,-0.435954720623524,-0.594688449443966,-0.217240073999507,NaN,NaN,-0.79559713655133,0.521361147933246,1.13939238374936,-1.89506863203146,0.115511880524511,1.11925278160581,0.341708281837406,1.02390408204915,-0.205774481372517,-0.784764982501157,-0.784764982497905,0.551385522392746,0.83318779695755,NaN,NaN,-0.924295857967853,-0.404723804672934,-0.58942597604641,-0.848025060769503,-0.848025060767545,0.337506138896685,-0.337506138897949,-0.981744497754055
1067.8272,-0.336249342768837,0.61987016993277,0.00023776550806369,-0.429892557148958,0.201981380494004,0.201981380492987,NaN,-0.57710809666295,-0.602934530551908,0.299375626336312,-0.216292583656825,0.299375626336256,-0.0493837087071482,-0.370924489487437,NaN,0.427060495091731,NaN,0.481451733096693,0.323195344986148,-0.175896226297898,0.323195344987827,-0.152561923437988,-0.268431353516851,-0.43160136585169,-0.588472567606016,-0.236354799211207,NaN,NaN,-0.803835830123704,0.53135926059721,1.12872889165297,-1.84982244254576,0.129031641078245,1.08920748454356,0.285384071378182,0.968658825947935,-0.22648408212544,-0.765385550392159,-0.765385550388917,0.595274765804726,0.807391591849153,NaN,NaN,-1.02343521505569,-0.413348070371215,-0.649016181877914,-0.799586139362386,-0.799586139360426,0.330996610849447,-0.330996610850719,-1.02684946189832
1067.9296,-0.309097594478751,0.58778462304439,0.0101420329733035,-0.425012363334765,0.161298537341891,0.161298537340947,NaN,-0.604792108003034,-0.600443935720966,0.328728414205279,-0.217280768595976,0.328728414205212,-0.0191547378300271,-0.39015627133203,NaN,0.40873101981063,NaN,0.435531870604008,0.328172180524028,-0.201706324662389,0.328172180525692,-0.161782817684003,-0.254685334820356,-0.427899482094429,-0.582765085596102,-0.255556816292901,NaN,NaN,-0.812168719829472,0.540661658413497,1.11788233244078,-1.80530282565486,0.141985621307934,1.05892751546576,0.22990302933597,0.913737469362229,-0.246694350718641,-0.745343206667179,-0.745343206663947,0.639265322889919,0.781855475371669,NaN,NaN,-1.12186104235866,-0.421941828206881,-0.707807097582856,-0.750898345790173,-0.750898345788213,0.326040028025322,-0.3260400280266,-1.06949379197166
1068.032,-0.282550456073747,0.555706905242128,0.0194354895230197,-0.420957557947156,0.121093902411956,0.121093902411084,NaN,-0.631450974443834,-0.597542810328355,0.357337620984097,-0.220258796015734,0.357337620984012,0.0109828804125951,-0.408258147979033,NaN,0.390378399886837,NaN,0.390243220323595,0.333088672173638,-0.227654393375495,0.333088672175286,-0.171594637102514,-0.240965882825179,-0.424862334502039,-0.577577726035126,-0.274820348527903,NaN,NaN,-0.820557800777445,0.549228494450318,1.10687790579675,-1.76155676011595,0.154373687265654,1.02844644699497,0.175365396144271,0.859223705252906,-0.266398126203819,-0.724677068436587,-0.724677068433363,0.683277377446324,0.756652587252342,NaN,NaN,-1.21936989495157,-0.430477051204453,-0.765657897303989,-0.702042526503941,-0.702042526501987,0.322603640028968,-0.32260364003026,-1.10954443657243
1068.1344,-0.25663390104319,0.523710408258218,0.0281322421417961,-0.417736596950477,0.0815164958303232,0.0815164958295212,NaN,-0.657031730361841,-0.594236247348755,0.385177250688292,-0.225264314931438,0.385177250688188,0.0409602773979405,-0.425226938013647,NaN,0.371976376923876,NaN,0.345598797022508,0.337947296471134,-0.253650069892557,0.33794729647277,-0.181995593264523,-0.227286660053845,-0.422501570688125,-0.572915344203661,-0.294118642192931,NaN,NaN,-0.828964633098639,0.55702766101871,1.09574220432536,-1.71861920526607,0.166203454978194,0.997797283582151,0.121866793569617,0.805198089779123,-0.285586396798773,-0.703426950294916,-0.703426950291705,0.727230920043509,0.731853679692975,NaN,NaN,-1.31575992456986,-0.438922464153301,-0.822428720523747,-0.653099473809703,-0.653099473807757,0.320645264804547,-0.320645264805847,-1.14687863978569
1068.2368,-0.231370933139963,0.491868426435649,0.036249365461044,-0.415354140444381,0.0427122581726607,0.0427122581719272,NaN,-0.681486920344345,-0.590533434838739,0.412223682882904,-0.232325581846737,0.412223682882781,0.0707091649712564,-0.441063254998897,NaN,0.353497952750233,NaN,0.301608305275075,0.342749239252204,-0.279602031573017,0.34274923925382,-0.192983549076372,-0.213659998257884,-0.420827138944924,-0.56877591353078,-0.313423962330328,NaN,NaN,-0.837350504728323,0.564035043609039,1.08450330048661,-1.6765132772569,0.177490282466819,0.967012486549839,0.0694981318166793,0.751738006016617,-0.304248163350807,-0.681633074175373,-0.681633074172174,0.771046341706817,0.707526728445359,NaN,NaN,-1.4108318554493,-0.447243752940298,-0.877981323140055,-0.604149541594434,-0.604149541592495,0.320114007834396,-0.320114007835696,-1.18138458644744
1068.3392,-0.20678182934151,0.460253950043433,0.0438065404212019,-0.413811009115635,0.00482356003107775,0.00482356003041187,NaN,-0.704774587107158,-0.586447625380703,0.438455527073622,-0.241461453506537,0.438455527073486,0.100161986288918,-0.455771229270202,NaN,0.334915557799833,NaN,0.258278296153786,0.347494497552987,-0.305418656350173,0.34749449755459,-0.20455618673127,-0.200096637430486,-0.419847210266643,-0.565150603324526,-0.332707636317677,NaN,NaN,-0.84567660313544,0.570234665155448,1.0731907523497,-1.6352506046553,0.188257086678661,0.936124006751433,0.0183454966816712,0.698917621528235,-0.32237035661228,-0.659335756885615,-0.659335756882427,0.814645020789448,0.683736542765659,NaN,NaN,-1.50438997369144,-0.455403799708601,-0.93217969891708,-0.555272284368333,-0.5552722843664,0.320951141728165,-0.320951141729466,-1.21296188322596
1068.4416,-0.182884355568871,0.428939416911645,0.0508256976311339,-0.413104196239087,-0.0320113185693438,-0.0320113185699392,NaN,-0.726858211307807,-0.581995987688404,0.463853515585305,-0.252681448108754,0.463853515585156,0.129252093583645,-0.469358242955613,NaN,0.316201231901392,NaN,0.215612330382211,0.352182030329528,-0.331008714443373,0.352182030331117,-0.216711126601805,-0.186605527650305,-0.419568109827582,-0.562023949848023,-0.351940143584308,NaN,NaN,-0.853904198246854,0.575618724058013,1.06183553097913,-1.59483186505638,0.198533987224387,0.905163328572951,-0.0315099861882902,0.646807840793494,-0.339937801761685,-0.636575075784336,-0.636575075781153,0.857949905356207,0.660544377234481,NaN,NaN,-1.59624313686735,-0.463362933295034,-0.984890675353714,-0.506546106134386,-0.506546106132463,0.323091093671685,-0.323091093672982,-1.24152185944863
1068.544,-0.159693940007484,0.397996413518782,0.0573306759474311,-0.41322693683769,-0.0676587593138605,-0.0676587593143908,NaN,-0.747706610571793,-0.577199332871542,0.488400442097165,-0.265985872041711,0.488400442097003,0.157913968946696,-0.481834682694539,NaN,0.297326825053273,NaN,0.173611148738127,0.356809963472726,-0.356282080359576,0.356809963474299,-0.229445989426222,-0.173193706809141,-0.419994262627724,-0.559374140763862,-0.371091253239991,NaN,NaN,-0.861994840946011,0.580187512140631,1.05046986104349,-1.55524750609546,0.208357766849038,0.874161522174577,-0.0799923208374606,0.595476243794895,-0.356933235103367,-0.613390524807873,-0.613390524804698,0.900886084840361,0.638007547541288,NaN,NaN,-1.68620579638335,-0.471079187167083,-1.0359844934879,-0.458047908484681,-0.458047908482769,0.326462512317449,-0.326462512318744,-1.26698768196127
1068.6464,-0.137223794626714,0.367495326747898,0.0633469065122268,-0.414168836469801,-0.101990428554441,-0.101990428554905,NaN,-0.767293808401145,-0.57208172249816,0.512081151115592,-0.281365999936437,0.512081151115413,0.186083491769663,-0.493213718050946,NaN,0.278264220125785,NaN,0.132272846227898,0.361375833361209,-0.381150449845476,0.361375833362768,-0.242758398421984,-0.159866257295258,-0.421128152722355,-0.557173427900218,-0.390130209749756,NaN,NaN,-0.869910580026691,0.583949197666718,1.03912696847722,-1.51647863463767,0.217771151173479,0.843149294857552,-0.127030850892257,0.544987000206829,-0.373337382002725,-0.589820680193071,-0.589820680189909,0.943381327389394,0.616179056450194,NaN,NaN,-1.77409901327068,-0.478508568975119,-1.08533537714795,-0.409852740537216,-0.40985274053532,0.330989385857929,-0.330989385859221,-1.28929429905822
1068.7488,-0.115484993740906,0.337504966011467,0.0689011241325757,-0.415916056201359,-0.134883923988721,-0.13488392398912,NaN,-0.78559888143206,-0.566669992534133,0.534882569220336,-0.298804296047454,0.534882569220142,0.213698233015742,-0.503511107691853,NaN,0.258985570211256,NaN,0.0915930460917156,0.365876835429791,-0.405528035858115,0.365876835431335,-0.25664593037487,-0.146626330245999,-0.422970294492627,-0.555388658222537,-0.40902595643664,NaN,NaN,-0.877614192705818,0.586919476622111,1.02784074182173,-1.47849802747964,0.226821938994859,0.812157029415889,-0.172560497624688,0.495400757431323,-0.389129093481121,-0.565902900042057,-0.565902900038899,0.985366547185978,0.595107252566938,NaN,NaN,-1.85975143507227,-0.485605345151359,-1.13282208783518,-0.362033464186547,-0.362033464184666,0.336592162330364,-0.336592162331644,-1.30838826076587
1068.8512,-0.094486529802999,0.308092187423866,0.0740211029544754,-0.418451541204404,-0.166223401639217,-0.166223401639557,NaN,-0.802605791822353,-0.560993244487923,0.556793755772388,-0.318274667790964,0.556793755772178,0.240697744005147,-0.512745027815879,NaN,0.239463538024509,NaN,0.0515650726470179,0.370310046336427,-0.429332208230354,0.370310046337952,-0.2711060377305,-0.133475214356367,-0.425519216877603,-0.55398188980158,-0.427747375410715,NaN,NaN,-0.885069416364446,0.589121117632804,1.01664532944557,-1.44127119921624,0.235562039144503,0.781214802237594,-0.216521998250642,0.446774513609952,-0.404285525313491,-0.541673079224316,-0.541673079221162,1.02677616925964,0.574835558517599,NaN,NaN,-1.94300019234315,-0.492322334378432,-1.17832845594424,-0.314660446293246,-0.314660446291375,0.343188807428641,-0.34318880742991,-1.3242274770424
1068.9536,-0.0742353648748118,0.279321548805331,0.0787354135630097,-0.421755274064923,-0.195900146732983,-0.195900146733258,NaN,-0.818303211526621,-0.555082348952108,0.577805947780125,-0.33974274685694,0.577805947779902,0.267023817237559,-0.52093591438195,NaN,0.219671526824917,NaN,0.0121801246734738,0.374672611514197,-0.452484042043706,0.374672611515699,-0.286135965902779,-0.12041242378802,-0.428771461423841,-0.552911046753074,-0.446263520085199,NaN,NaN,-0.892241168498606,0.590583442659098,1.00557471139153,-1.40475746633364,0.2440464843784,0.750352385113739,-0.258862116255904,0.399161495128023,-0.418782341003853,-0.517165464006839,-0.517165464003691,1.06754837815186,0.555402300245033,NaN,NaN,-2.02369167952015,-0.498611204034693,-1.22174387978802,-0.267801276533485,-0.267801276531623,0.350695743164967,-0.350695743166217,-1.33678094938743
1069.056,-0.0547364904009608,0.251255012120869,0.0830731978315642,-0.42580453164733,-0.223813069090736,-0.22381306909095,NaN,-0.83268434375103,-0.54896948812388,0.597912578209809,-0.363166198759009,0.597912578209571,0.292620714540977,-0.528106309735924,NaN,0.199583897551347,NaN,-0.0265725476327386,0.378961915023478,-0.474908755053198,0.37896191502496,-0.301732682556189,-0.107435784878335,-0.432721592076776,-0.552130562311176,-0.464543822272148,NaN,NaN,-0.899095745846724,0.591341795122733,0.99466229681873,-1.36891096229483,0.252332496466943,0.71959924418391,-0.299533804468769,0.352611059833418,-0.432593923534313,-0.492412507975893,-0.492412507972757,1.10762526137042,0.536840647067816,NaN,NaN,-2.10168220295935,-0.504422768592626,-1.26296378571398,-0.221520498302704,-0.221520498300856,0.359028636213571,-0.359028636214801,-1.34602846847155
1069.1584,-0.0359930017551572,0.223951695296492,0.0870639560115058,-0.430574129324271,-0.249869121253629,-0.249869121253789,NaN,-0.845746743020907,-0.542687745074505,0.617109258006238,-0.388495064344756,0.617109258005983,0.317435367970667,-0.53428070468199,NaN,0.179176171336177,NaN,-0.06470545806766,0.383175754682269,-0.496536040477895,0.383175754683727,-0.317892825652829,-0.0945415107877131,-0.437362213253712,-0.551591973647297,-0.482558266515419,NaN,NaN,-0.905600998912635,0.591437035733272,0.983940587343595,-1.3336815829166,0.260478653133577,0.688984548976502,-0.338496312792989,0.307168640256027,-0.445693584613271,-0.467444744672962,-0.46744474466984,1.14695287423819,0.519178651489867,NaN,NaN,-2.17683849556225,-0.509707281311353,-1.30189004411247,-0.175879342138473,-0.175879342136637,0.368103030749293,-0.368103030750497,-1.35196025146404
1069.2608,-0.0180061853194432,0.197467661038642,0.0907373415067956,-0.436036652100626,-0.273983653355511,-0.273983653355619,NaN,-0.8574921328122,-0.536270730201871,0.635393729471194,-0.415672135352332,0.635393729470925,0.341417559987816,-0.539485373104995,NaN,0.158425219305374,NaN,-0.102232689226805,0.387312526592633,-0.517300324390595,0.387312526594074,-0.334612667430745,-0.0817242658708073,-0.442683994912555,-0.551244473627127,-0.500277538814249,NaN,NaN,-0.911726484760021,0.590915064747869,0.973440906379917,-1.29901587272583,0.268544151269152,0.658537192684719,-0.375715246690357,0.262875724081503,-0.458053768938774,-0.442290671350788,-0.442290671347679,1.18548124968518,0.502439375661447,NaN,NaN,-2.2490381101448,-0.514414699054112,-1.33843134080456,-0.130935465793111,-0.13093546579129,0.377834850893127,-0.37783485089431,-1.35457651010797
1069.3632,-0.000775610788906344,0.171855723906374,0.0941229604127311,-0.442162687381327,-0.296080722737056,-0.296080722737113,NaN,-0.86792622095502,-0.529752227263195,0.652765810380768,-0.444633362538343,0.652765810380484,0.364520085749319,-0.54374820491747,NaN,0.13730944160773,NaN,-0.139169688181392,0.391371392962689,-0.537140983165872,0.391371392964111,-0.351888082217401,-0.068977233876324,-0.448675705568623,-0.55103545911923,-0.517673167085645,NaN,NaN,-0.917443605517949,0.589826331620134,0.963193158939103,-1.26485788074886,0.27658811634609,0.628285811820402,-0.411162593042894,0.219769853372288,-0.469646262827031,-0.41697666055963,-0.416976660556533,1.22316435997692,0.486641099768795,NaN,NaN,-2.31816971440588,-0.518494906077284,-1.3725035088769,-0.0867427188025658,-0.0867427188007577,0.388140827522669,-0.388140827523827,-1.35388697006998
1069.4656,0.0157007733568893,0.147165265264151,0.0972501721851684,-0.448921071914805,-0.316093363313527,-0.316093363313546,NaN,-0.877058514687082,-0.523165850972089,0.669227341298863,-0.475308292491589,0.669227341298558,0.386698896613038,-0.547098544907567,NaN,0.115808935816681,NaN,-0.175533057598361,0.395352396129695,-0.556002542226903,0.395352396131096,-0.369714502482124,-0.0562922081450758,-0.455324254471549,-0.550911103340995,-0.534717665700562,NaN,NaN,-0.922725737205088,0.588225301288609,0.953225592725744,-1.23115000096774,0.284668921244855,0.598258793210048,-0.444816725733324,0.177884626424823,-0.480442419124785,-0.391526915921623,-0.391526915918535,1.25996002872963,0.471797604909111,NaN,NaN,-2.38413331316987,-0.521897901613617,-1.4040298271501,-0.0433509473160447,-0.0433509473142575,0.398938893138979,-0.39893889314011,-1.34991037245809
1069.568,0.0314265349975036,0.12344206193598,0.100147888328302,-0.456279149112026,-0.33396380331793,-0.333963803317914,NaN,-0.884902136481544,-0.516544725033773,0.684782130380798,-0.507620530300742,0.68478213038048,0.407913223786409,-0.549567038674574,NaN,0.0939056541409404,NaN,-0.211340344763718,0.3992565097218,-0.573834852520342,0.399256509723185,-0.388086856580902,-0.0436597124617136,-0.462614744473293,-0.550816937907814,-0.551384680557583,NaN,NaN,-0.927548346431682,0.586169888123911,0.943564568626897,-1.19783378241354,0.292843530439742,0.568484269713053,-0.476662387752787,0.13724970515588,-0.490413400766517,-0.365963466497876,-0.365963466494799,1.29582980063001,0.45791851304353,NaN,NaN,-2.44684041471869,-0.524573972159566,-1.43294128799811,-0.000805838752108769,-0.000805838750342752,0.410148536108521,-0.410148536109618,-1.34267397508192
1069.6704,0.0464066357953895,0.100728142979909,0.102844368584444,-0.464203020048959,-0.349643615283086,-0.34964361528304,NaN,-0.891473639261959,-0.509921196339344,0.699435878552536,-0.541488228578426,0.699435878552206,0.428125683626086,-0.551185479575436,NaN,0.071583550709292,NaN,-0.246609826073429,0.403085659690213,-0.590593227209377,0.403085659691586,-0.406999494519844,-0.0310691466441081,-0.470530536540967,-0.55069840285865,-0.567649120440254,NaN,NaN,-0.931889088675025,0.583720899187738,0.934234377463182,-1.16485067636597,0.301166923092271,0.538990118761107,-0.506690635483808,0.0978908468312939,-0.499530434278885,-0.34030617185111,-0.340306171848042,1.33073878770475,0.445009666502113,NaN,NaN,-2.50621414355975,-0.526473877686569,-1.45917683266996,0.040851207084135,0.0408512070858814,0.421691069776218,-0.421691069777285,-1.33221305132097
1069.7728,0.0606472875085657,0.0790616823211527,0.105367015449095,-0.472657773674837,-0.363093792537041,-0.363093792536964,NaN,-0.896792817867075,-0.503326592665222,0.713196072197244,-0.576824605924069,0.713196072196898,0.447302368793689,-0.551986649082744,NaN,0.048828723941406,NaN,-0.281360281530349,0.406842755769959,-0.606238528463178,0.406842755771319,-0.426446109773024,-0.0185089476579999,-0.479053325438487,-0.550501333558572,-0.583487263751761,NaN,NaN,-0.935727883448608,0.580941520412302,0.925257133546748,-1.13214269879393,0.309691636716354,0.509803976895099,-0.534898733995196,0.0598299763948468,-0.5077650622902,-0.314572710123225,-0.314572710120162,1.36465551408242,0.433073531973066,NaN,NaN,-2.56218929030549,-0.527549070487915,-1.48268355202683,0.0815831938163086,0.0815831938180316,0.433489777105044,-0.433489777106079,-1.31857037571234
1069.8752,0.0741557922994648,0.0584769204334088,0.107742168446283,-0.481607698204629,-0.374284764116588,-0.374284764116478,NaN,-0.900882515150186,-0.496791015552663,0.726071845951812,-0.613538498251826,0.726071845951457,0.465412929837116,-0.552004148852104,NaN,0.0256295609115136,NaN,-0.31561075573612,0.410531738476157,-0.620737209269222,0.410531738477506,-0.446419659066869,-0.00596676461691797,-0.488163227012545,-0.550172394616611,-0.598876842670735,NaN,NaN,-0.939046967086718,0.577896838221187,0.91665273809323,-1.09965301376082,0.318467421535492,0.480953269154326,-0.561290006426995,0.0230852967432315,-0.515089392402541,-0.288778550511061,-0.288778550508,1.3975517779101,0.422109605932421,NaN,NaN,-2.61471228828418,-0.527751932896798,-1.50341685664377,0.121357635315949,0.121357635317648,0.445469923470889,-0.44546992347188,-1.30179569458139
1069.9776,0.0869403743564627,0.0390040998394456,0.109994897197444,-0.491016489705601,-0.383196366746823,-0.383196366746683,NaN,-0.903768423319339,-0.490343152211524,0.738073829045882,-0.651534944782268,0.738073829045513,0.482430648293284,-0.551272229088846,NaN,0.00197688643689051,NaN,-0.349380306254577,0.414157606739589,-0.634061327910928,0.414157606740923,-0.466912278795176,0.00657035108121838,-0.497838876883613,-0.549659500352119,-0.613797116660388,NaN,NaN,-0.941830928340539,0.574653357737152,0.908438876029166,-1.06732646266763,0.327540956450913,0.45246523867295,-0.585873651192542,-0.012328581899513,-0.521476349331023,-0.262936941286558,-0.262936941283491,1.42940253901364,0.412114790440646,NaN,NaN,-2.66374112019369,-0.527035999395174,-1.52134062480232,0.160146644304586,0.160146644306266,0.457558677838716,-0.457558677839671,-1.28194519789235
1070.08,0.0990100010846129,0.0206694044778688,0.112148786013096,-0.500847469150567,-0.389817779603783,-0.389817779603618,NaN,-0.905478880346818,-0.484010099134053,0.749213982696005,-0.690715808585805,0.749213982695625,0.498332497085242,-0.549825615770221,NaN,-0.022135888311458,NaN,-0.382687741785189,0.417726385486721,-0.646188558289651,0.417726385488043,-0.48791519729374,0.0191157444886949,-0.5080575357256,-0.548912245138283,-0.62822894360068,NaN,NaN,-0.944066729743431,0.571278492528539,0.900631020954646,-1.03511005746182,0.336955592160285,0.424366963478296,-0.608664535582759,-0.0464005081223682,-0.526899935767098,-0.237058943994204,-0.237058943991129,1.46018582973413,0.403083714839376,NaN,NaN,-2.7092451720834,-0.525356151884106,-1.53642733304386,0.19792698514824,0.197926985149898,0.469685012297491,-0.469685012298408,-1.25908101856277
1070.1824,0.110374183879154,0.00349490772050843,0.114225702489469,-0.511063802366498,-0.394147409959967,-0.394147409959781,NaN,-0.906044660039231,-0.477817206496935,0.759505421581319,-0.730980431435296,0.759505421580923,0.51309918072183,-0.547699332258066,NaN,-0.0467126283390441,NaN,-0.415551353368546,0.421245020429353,-0.657102203688024,0.421245020430662,-0.509418645271648,0.0316829520260518,-0.518795196347673,-0.547882327222756,-0.642154842890489,NaN,NaN,-0.945743710575681,0.567840040783999,0.893242456747724,-1.00295342881752,0.346751134552348,0.396685359794877,-0.629682959587598,-0.0791226478528708,-0.531335495375929,-0.211153523486684,-0.211153523483607,1.48988268376053,0.395008995327415,NaN,NaN,-2.75120504692361,-0.522668819265269,-1.54865816475575,0.234680078102934,0.23468007810457,0.481779636114956,-0.481779636115837,-1.23327077728278
1070.2848,0.121042751001886,-0.0125014559383652,0.116245550795751,-0.521628706309891,-0.396192713837135,-0.396192713836928,NaN,-0.905498754216248,-0.47178795978681,0.768962206369699,-0.772226323874428,0.76896220636929,0.52671514936536,-0.544928507940378,NaN,-0.0717543580022962,NaN,-0.447988643763021,0.424721216691086,-0.66679119702894,0.424721216692392,-0.531411768726982,0.0442854957007592,-0.530026694154889,-0.546523928930016,-0.655559035872951,NaN,NaN,-0.946853563831726,0.56440568643202,0.886284341502815,-0.97080920199809,0.356963708145086,0.369447179828352,-0.648954375947047,-0.110490321171198,-0.534759961653178,-0.185227685758063,-0.185227685754984,1.51847707943511,0.387881438257496,NaN,NaN,-2.78961233785089,-0.518932221227194,-1.55802308534625,0.270391954364386,0.270391954366003,0.493774988785834,-0.493774988786677,-1.20458716930529
1070.3872,0.131025594824601,-0.0273058859361736,0.118226017249105,-0.532505629555303,-0.395969948032349,-0.395969948032123,NaN,-0.903876145022835,-0.465943906304258,0.777599103255147,-0.814349889785857,0.777599103254723,0.539168586828134,-0.541548170863693,NaN,-0.0972591664436093,NaN,-0.480016058597014,0.42816324581401,-0.67525006906439,0.428163245815314,-0.553882545761285,0.0569366725226504,-0.541725826594449,-0.544794032628714,-0.66842745514963,NaN,NaN,-0.947390283982033,0.561042549334491,0.879765824995675,-0.938633286474426,0.367625717973709,0.342679011338627,-0.666509059817628,-0.140501808146174,-0.537152080015955,-0.159286648993776,-0.15928664899071,1.54595589217664,0.381690199706213,NaN,NaN,-2.8244693630461,-0.514106666175241,-1.56452087531636,0.30505316896439,0.305053168965988,0.505605291330654,-0.505605291331455,-1.17310757813284
1070.4896,0.140332407710249,-0.0409086828757496,0.120182319694236,-0.543658411699,-0.393503868256314,-0.393503868256076,NaN,-0.901213568216057,-0.460304616471711,0.785431324247076,-0.857247175108501,0.78543132424664,0.550451378031327,-0.537593031417787,NaN,-0.123222129283018,NaN,-0.511648721170244,0.4315797388138,-0.682478881973738,0.431579738815099,-0.576817706727392,0.069649333796562,-0.553865486263983,-0.542652690115014,-0.680747729784205,NaN,NaN,-0.947350091037768,0.557816769492933,0.873694199963598,-0.90638509533746,0.378765882017523,0.316407277358782,-0.682381739392706,-0.169158131576331,-0.538492605527547,-0.133334041367609,-0.133334041364566,1.5723088480922,0.37642291118654,NaN,NaN,-2.85578887224206,-0.508154884714481,-1.56815912480594,0.338658679167647,0.338658679169229,0.517206641440156,-0.517206641440921,-1.1389137097336
1070.592,0.148972428648038,-0.0533042006484372,0.122126976169319,-0.555051438441652,-0.388827395663574,-0.388827395663324,NaN,-0.897549275133679,-0.454887660274534,0.792474274043625,-0.900814614081248,0.792474274043173,0.560559062076874,-0.53309727362923,NaN,-0.149635241230729,NaN,-0.542900177351958,0.434979473910372,-0.688483133921443,0.434979473911668,-0.60020265892839,0.0824356559758962,-0.566417807323933,-0.540063281746887,-0.692509162621287,NaN,NaN,-0.946731342251865,0.554793088963027,0.868075054818218,-0.874027723213746,0.390409287061025,0.290658226521516,-0.696611212425548,-0.196462838335641,-0.538764491388121,-0.107372130052358,-0.107372130049328,1.59752846900068,0.372065775491718,NaN,NaN,-2.88359373729008,-0.501042374337615,-1.56895420248325,0.371207692957572,0.37120769295914,0.528517140856158,-0.52851714085688,-1.10209125338256
1070.6944,0.156954219950381,-0.0644907882349842,0.124069609857834,-0.566649802644569,-0.381981262230864,-0.381981262230603,NaN,-0.892922804295323,-0.449708587914758,0.798743324716499,-0.944949735708262,0.798743324716035,0.569490774296318,-0.528094370693476,NaN,-0.176487361076948,NaN,-0.573782161548161,0.438371161648886,-0.693273636060555,0.438371161650182,-0.624021416533423,0.0953069111953617,-0.579354317864097,-0.536992779731003,-0.703702710503946,NaN,NaN,-0.945534440246894,0.552034415908822,0.862912417727072,-0.841528095610122,0.402577451224379,0.265457910460663,-0.709239969107786,-0.222421793961598,-0.537953082502561,-0.0814020762631202,-0.0814020762601128,1.62160999787121,0.368603640586042,NaN,NaN,-2.90791663819551,-0.492737739091777,-1.56693120866443,0.402703490978086,0.402703490979638,0.539477044408501,-0.539477044409187,-1.06272958131784
1070.7968,0.164285484630008,-0.0744707129196739,0.126016805693741,-0.578419465121366,-0.373013629151959,-0.373013629151692,NaN,-0.88737477019706,-0.444780919917945,0.804253624616359,-0.989551795039783,0.804253624615888,0.577249177314641,-0.522616932295442,NaN,-0.20376417647748,NaN,-0.604304393238804,0.441763233910719,-0.696866355896514,0.441763233912013,-0.648256535199474,0.108273245687994,-0.592646089517352,-0.533411994156097,-0.714320964389348,NaN,NaN,-0.943761738088523,0.549601393119008,0.858208913450003,-0.808857078173876,0.415288420320745,0.240832157548226,-0.720313825587379,-0.247042986200745,-0.536046315336594,-0.0554241900330962,-0.0554241900301084,1.64455130329826,0.36602006189883,NaN,NaN,-2.92879974910301,-0.483213018247211,-1.56212391218264,0.433153228806481,0.433153228808015,0.550028908025976,-0.55002890802663,-1.0209214980023
1070.8992,0.170972931419145,-0.0832500527141021,0.127972032442902,-0.590327399316406,-0.36197967229582,-0.361979672295547,NaN,-0.88094667306438,-0.440116157407628,0.809019940713185,-1.03452229851606,0.809019940712709,0.58384037878983,-0.516696582890864,NaN,-0.23144819848426,NaN,-0.634474410917425,0.4451636531349,-0.699282219457498,0.445163653136203,-0.672889053984669,0.121343472909979,-0.606263880331368,-0.529295767172973,-0.724358117664305,NaN,NaN,-0.941417436323043,0.547552010437958,0.853965960716801,-0.775989528110031,0.428556934810051,0.216806552844414,-0.729881564797291,-0.270336328291269,-0.533034910335591,-0.029438158809281,-0.0294381588063119,1.66635278216202,0.364297347058623,NaN,NaN,-2.94629441566454,-0.472443997634584,-1.55457466232483,0.462567729809832,0.462567729811354,0.560117715576204,-0.560117715576816,-0.976763039363202
1071.0016,0.17702219897785,-0.0908385546614274,0.129935643847468,-0.602341709611814,-0.348941144730616,-0.348941144730339,NaN,-0.873680734026433,-0.435723813919645,0.813056542023902,-1.07976539328715,0.813056542023416,0.589273833867824,-0.510363870722118,NaN,-0.259518793996195,NaN,-0.664297449954579,0.448579755250782,-0.700546872719954,0.448579755252096,-0.69789845058943,0.134524888749552,-0.620178270087479,-0.524623102330498,-0.733809915939295,NaN,NaN,-0.938507469519121,0.545941280628359,0.850184013501216,-0.742904288651801,0.442394670176421,0.193406421410466,-0.737994589890683,-0.292313467195576,-0.528912540052999,-0.00344325008579874,-0.00344325008283725,1.68701728740916,0.363416561023868,NaN,NaN,-2.96046080564093,-0.460410483486957,-1.54433426755668,0.490961275969976,0.490961275971486,0.569690991160217,-0.569690991160787,-0.93035331409961
1071.104,0.182437855909563,-0.0972494684076163,0.131904970556545,-0.614431729228891,-0.333965939714043,-0.333965939713763,NaN,-0.865619763156764,-0.431611456784987,0.816377144692928,-1.12518809486597,0.816377144692434,0.59356223252258,-0.503648215242079,NaN,-0.28795225893502,NaN,-0.693776372040596,0.452018123256443,-0.70069041108474,0.452018123257767,-0.723262616104404,0.147823115599709,-0.634359788002763,-0.519377251522691,-0.742673595824543,NaN,NaN,-0.935039387692722,0.54482095969884,0.846862817800629,-0.709584150284646,0.456810510210138,0.17065679940776,-0.744706609019897,-0.31298761926387,-0.523675969195804,0.0225614874621174,0.0225614874650733,1.70655009191733,0.363357476174737,NaN,NaN,-2.97136751571878,-0.447096518136905,-1.53146184037205,0.518351394649099,0.518351394650597,0.578698926684499,-0.578698926685037,-0.881794381000325
1071.2064,0.187223488397534,-0.102499368450986,0.13387450745581,-0.626568113417592,-0.317127673402307,-0.317127673402032,NaN,-0.85680706754083,-0.42778474305311,0.818994938840868,-1.17070033976,0.818994938840373,0.596721372258273,-0.496577904639046,NaN,-0.31672192987885,NaN,-0.722911653017646,0.455484481546244,-0.699747086734062,0.455484481547574,-0.74895785342393,0.161241979843771,-0.648779032786335,-0.513545792104367,-0.750947827904241,NaN,NaN,-0.931022242469242,0.544239277573063,0.844001648347397,-0.676015805071203,0.471810804201301,0.148582375110588,-0.750073372221932,-0.332373458690062,-0.51732517672627,0.0485769988629217,0.0485769988658657,1.72495887804279,0.364098470665305,NaN,NaN,-2.97909113056488,-0.432490541731903,-1.51602461325134,0.54475863114927,0.544758631150755,0.587094556194841,-0.587094556195357,-0.83119115968377
1071.3088,0.191381872176453,-0.106607971428977,0.135836189541171,-0.638722935992491,-0.2985052893516,-0.298505289351329,NaN,-0.847286400512384,-0.424247445046345,0.820922700017329,-1.21621486548428,0.820922700016837,0.598770015378376,-0.489180147264303,NaN,-0.34579833006951,NaN,-0.751701429284799,0.458983609283355,-0.697755001505636,0.458983609284701,-0.774958899975455,0.174783424994805,-0.663406783525039,-0.507120701585419,-0.758632671437579,NaN,NaN,-0.926466483409281,0.544240668078936,0.841599512102108,-0.642189803995146,0.487399589840965,0.127207391692189,-0.754152467004743,-0.350487068626044,-0.509863468556079,0.0746039664121044,0.074603966415039,1.74225373312566,0.365616393531073,NaN,NaN,-2.98371574642255,-0.416585518435376,-1.49809772947887,0.570206299069209,0.570206299070676,0.594833991844735,-0.594833991845237,-0.778651371936461
1071.4112,0.194915209843157,-0.109597946669696,0.137779737988661,-0.650869782436075,-0.278182673177206,-0.278182673176941,NaN,-0.837101944195708,-0.421001472206471,0.8221729681724,-1.26164693871806,0.822172968171914,0.599729730634284,-0.481481166627207,NaN,-0.375149346794963,NaN,-0.780141594140985,0.462519274585075,-0.694755794722545,0.462519274586431,-0.801238971343825,0.188447458973299,-0.678214099209394,-0.500098406811832,-0.765729535530646,NaN,NaN,-0.921383861801209,0.544865520176155,0.83965532987088,-0.608100512891744,0.503578795343579,0.106555518044844,-0.757003160279508,-0.367345943078544,-0.501297577320246,0.10064253574393,0.100642535746867,1.75844713610742,0.367886423283344,NaN,NaN,-2.98533247742961,-0.399379034298285,-1.47776400748903,0.594720208501161,0.594720208502613,0.601876712053053,-0.60187671205353,-0.724285505430795
1071.5136,0.197825407761302,-0.111494717994059,0.139693051339632,-0.662983826741928,-0.256248266198692,-0.256248266198431,NaN,-0.826298311169221,-0.418046897789177,0.82275826894585,-1.30691397198172,0.822758268945365,0.599624722861962,-0.473506321317796,NaN,-0.40474043754004,NaN,-0.808225930717438,0.466094184753467,-0.690794339945131,0.466094184754832,-0.827769819672491,0.202232129424326,-0.693172406352805,-0.492479779977693,-0.77224113830265,NaN,NaN,-0.915787336478078,0.546149980944547,0.838168108151562,-0.573746065192115,0.520348433644783,0.0866497028610809,-0.758686265402484,-0.382969015893048,-0.491637739231311,0.126692049152173,0.1266920491551,1.77355393256914,0.370881942137781,NaN,NaN,-2.98403895665236,-0.380873364505652,-1.45511367373591,0.618328375949173,0.618328375950615,0.608185874684732,-0.608185874685182,-0.668206781278254
1071.616,0.200114371580703,-0.112326260762073,0.141562618251183,-0.675041887323897,-0.2327946778145,-0.232794677814247,NaN,-0.814920551976883,-0.415381991810985,0.822691357272681,-1.35193508109549,0.822691357272201,0.598481658136556,-0.465280234249156,NaN,-0.434534859083722,NaN,-0.835946268168909,0.469709939930943,-0.685918462148611,0.469709939932309,-0.854521801459179,0.216133519773229,-0.708253576146345,-0.484270081054172,-0.778171462730222,NaN,NaN,-0.909690979743795,0.548125815161444,0.837137091421855,-0.539128323179595,0.537706772833938,0.0675120247193129,-0.759264018206344,-0.397376697967093,-0.480897743630104,0.152750802057069,0.152750802059989,1.78759130117889,0.374574431270737,NaN,NaN,-2.97993883417557,-0.361075506957231,-1.43024406252499,0.641060720150927,0.641060720152353,0.613728625527711,-0.613728625528128,-0.610531106378327
1071.7184,0.201784307616653,-0.112122902050711,0.143373934479097,-0.687022470686022,-0.207918302330985,-0.207918302330742,NaN,-0.803014161627361,-0.413003255233417,0.821985471551561,-1.39663063191389,0.82198547155109,0.59632949112112,-0.456826924492898,NaN,-0.464493910226038,NaN,-0.863292650656847,0.473366973499873,-0.680178676832873,0.473366973501245,-0.881463953476315,0.230145762557658,-0.723429993218681,-0.475478875972773,-0.783525714697077,NaN,NaN,-0.903109884508501,0.550820293490586,0.836561868711168,-0.504252863145008,0.55565044891216,0.0491635407186167,-0.758799955997416,-0.410590917276235,-0.469094961912226,0.178815816976491,0.1788158169794,1.8005787079496,0.378933382805967,NaN,NaN,-2.97314126959051,-0.339997177437104,-1.40325929074667,0.662948748634678,0.662948748636093,0.61847638204543,-0.618476382045822,-0.55137701094087
1071.8208,0.202838019427686,-0.110917127994445,0.145111911019857,-0.698905814259162,-0.181718937866003,-0.181718937865772,NaN,-0.790625083173062,-0.410905453172601,0.820654588007158,-1.44092180871677,0.82065458800669,0.593199296192384,-0.448169940059966,NaN,-0.494577179517339,NaN,-0.890253511425537,0.477064471686718,-0.673627946484408,0.477064471688095,-0.908564077065652,0.244261071045843,-0.738674615266893,-0.466119955894467,-0.788310287283453,NaN,NaN,-0.896060072292049,0.554256080743277,0.836442422271413,-0.469128984479109,0.574174508864608,0.0316241323139586,-0.757358796736822,-0.422635161066106,-0.456250367555748,0.204882623431742,0.204882623434632,1.81253783823885,0.383926233610836,NaN,NaN,-2.96376041843534,-0.317654764331694,-1.3742699200427,0.684025240283674,0.684025240285081,0.622405085231279,-0.622405085231641,-0.490865592572752
1071.9232,0.203279187679843,-0.108743392703743,0.146761264376733,-0.710673928716699,-0.154299391877731,-0.154299391877503,NaN,-0.777799706420712,-0.40908165441346,0.818713660706385,-1.48473022017597,0.818713660705927,0.589124100044409,-0.439332488631522,NaN,-0.524742793441088,NaN,-0.916815845515045,0.480800285805592,-0.666321447649531,0.48080028580697,-0.935788827564992,0.258469790451919,-0.753961018753085,-0.45621125044766,-0.792532727560247,NaN,NaN,-0.888558398643281,0.558451127609464,0.836779138732952,-0.433769720056714,0.593272416127869,0.0149123557879251,-0.755006310529815,-0.433534510107921,-0.44238855314947,0.23094505144509,0.230945051447964,1.8234925017157,0.389518340307985,NaN,NaN,-2.9519149142725,-0.294069252760625,-1.34339261179819,0.704323929356001,0.704323929357398,0.625495414917163,-0.625495414917505,-0.42912048835768
