time,S1-D1,S1-D8,S1-D9,S1-D15,S2-D1,S2-D2,S2-D3,S2-D9,S3-D1,S3-D2,S3-D16,S4-D2,S4-D3,S4-D5,S5-D3,S5-D4,S5-D5,S6-D2,S6-D5,S6-D17,S7-D6,S7-D7,S8-D6,S8-D7,S8-D18,S9-D3,S9-D4,S9-D9,S9-D11,S9-D19,S10-D8,S10-D9,S10-D10,S10-D11,S11-D8,S11-D10,S11-D20,S12-D10,S12-D11,S12-D12,S13-D4,S13-D11,S13-D12,S14-D10,S14-D12,S14-D21,S15-D13,S15-D14,S16-D13,S16-D14,S16-D22
1096.0896,-0.433214237779328,-2.03348522471086,-1.72284957484291,-1.46588722090378,-4.05805261342938,-4.05805261342919,NaN,1.27649657684906,-0.48193515296943,2.3691513381445,-2.27913433488446,2.36915133814488,1.89400923452131,-0.13510871529835,1.98410494689739,4.20822069676155,1.52725038214722,4.06064177530484,3.48412426997889,NaN,3.01484292154388,0.672199075297327,-1.07979862906612,-0.92777803058379,NaN,-1.77800442080297,-1.29725926216897,1.30475442920409,-1.30475442920537,-1.57656134507982,0.429339237607607,-0.902415186028976,-0.871935798671323,NaN,-3.20180625330804,-1.68894571709713,-1.87313825547113,-0.776703391046793,-0.776703391043528,NaN,-3.66799210883634,-0.0659309877544358,NaN,-2.48366374702791,NaN,1.66807823431085,-0.302469850708076,-0.302469850707945,0.983389017657805,-0.996118651747799,NaN
1096.192,-0.447437966748693,-2.05337215140944,-1.74862774344816,-1.48341822802539,-4.1023812530937,-4.10238125309346,NaN,1.29732610222987,-0.511764332128493,2.37482847689884,-2.33270869659073,2.37482847689921,1.8802705886605,-0.108873984029571,1.98266793627485,4.14256687626397,1.43714737679245,3.97888245091328,3.44415837510415,NaN,2.96687356626688,0.657796752627546,-1.07923178838113,-0.9516388484396,NaN,-1.7543812423045,-1.27919199059576,1.33354245752009,-1.33354245752138,-1.52087873005589,0.439971783481708,-0.897202286966442,-0.841671567105329,NaN,-3.17544117613538,-1.66293891417789,-1.83198415261891,-0.739348372779354,-0.739348372776134,NaN,-3.7110151729738,-0.139066880743827,NaN,-2.52055380137374,NaN,1.67987911618247,-0.362572414016492,-0.362572414016392,1.00151879798474,-1.01759103650135,NaN
1096.2944,-0.46106275758995,-2.07209465210022,-1.77310566004411,-1.49912663196429,-4.14342884632779,-4.14342884632752,NaN,1.31691065823486,-0.540820482429907,2.37988369989816,-2.38422420044971,2.37988369989852,1.86438451476525,-0.0818524697666319,1.97930636992144,4.0735189568747,1.34464908668,3.89352489833144,3.40060196596905,NaN,2.91533699639795,0.642960818347809,-1.07769545651139,-0.974372195165061,NaN,-1.72923858235247,-1.26057988464932,1.36181021150987,-1.36181021151117,-1.46369467735523,0.450700646860155,-0.89158404859659,-0.810459364573915,NaN,-3.14675926326836,-1.63573438356256,-1.78788996652606,-0.702066378580376,-0.702066378577177,NaN,-3.7511774016157,-0.212130332551297,NaN,-2.55617053377206,NaN,1.69192348130364,-0.422967750165348,-0.422967750165285,1.01991586189479,-1.03905513572988,NaN
1096.3968,-0.474043207950536,-2.08960740472782,-1.79621296542191,-1.51300777821662,-4.18108516836683,-4.18108516836653,NaN,1.33518979965028,-0.569005884129916,2.38430685502999,-2.4336056887828,2.38430685503035,1.84639736425074,-0.054079414702692,1.97405242172399,4.00125300073497,1.2499707464753,3.80478103904953,3.35356938093192,NaN,2.86037068165203,0.627679406420542,-1.07514570138961,-0.995913492080003,NaN,-1.70269333974448,-1.24150758058051,1.38949896551529,-1.38949896551659,-1.40519870487542,0.461514804096406,-0.885600859499913,-0.778396392551705,NaN,-3.11586167414,-1.60744426137529,-1.74101495149874,-0.664880440775047,-0.664880440771878,NaN,-3.78833001638321,-0.284861402827812,NaN,-2.59042811915949,NaN,1.70419231938805,-0.483469283536209,-0.483469283536181,1.03855839754865,-1.06047390986695,NaN
1096.4992,-0.48633690025533,-2.10586522063962,-1.81788205661228,-1.52506169284248,-4.21524389973193,-4.2152438997316,NaN,1.35210783564939,-0.596226155681241,2.38808253612813,-2.48078452433425,2.38808253612848,1.82636351248465,-0.025592213497598,1.96694586066109,3.92595232627613,1.15333806167678,3.71287197318367,3.30318576422746,NaN,2.8021247227511,0.611940251290419,-1.07154092630267,-1.01620337891207,NaN,-1.67486570716563,-1.22206380899752,1.4165499384203,-1.4165499384216,-1.34558558838914,0.472401536327732,-0.879293659668087,-0.745584151438868,NaN,-3.08285582357453,-1.57818726071552,-1.69152940020054,-0.627811162950365,-0.62781116294722,NaN,-3.82232696599401,-0.357000402567877,NaN,-2.6232399418656,NaN,1.71666458404922,-0.543887035677612,-0.54388703567762,1.05742453980924,-1.08181052980014,NaN
1096.6016,-0.497904668955808,-2.12082300575973,-1.83804830032761,-1.53529279394773,-4.24580286911191,-4.24580286911155,NaN,1.36761414730615,-0.6223907679478,2.39118988238896,-2.52569881971037,2.3911898823893,1.80434491831887,0.00356981804288236,1.95803369192716,3.84780652583493,1.0549861115875,3.61802682587069,3.24958626056319,NaN,2.74076085323464,0.595730803167047,-1.06684231846508,-1.03518838336944,NaN,-1.64587868952071,-1.20234094714363,1.44290493409844,-1.44290493409973,-1.28505453110558,0.48334639923569,-0.872703592631949,-0.712127844200174,NaN,-3.04785499904109,-1.54808814611762,-1.63961398967728,-0.59087681799038,-0.590876817987257,NaN,-3.85302557135095,-0.428289302948664,NaN,-2.65451901742366,NaN,1.72931734113915,-0.604028634028279,-0.604028634028307,1.07649243399641,-1.1030285449201,NaN
1096.704,-0.508710837705632,-2.13443576918634,-1.85665025066202,-1.54370959992388,-4.2726643070304,-4.27266430703001,NaN,1.38166345925444,-0.647413520834384,2.39360247550643,-2.56829361808898,2.39360247550676,1.78041066548153,0.0333656685754505,1.94736977545977,3.7670105045871,0.955158191660404,3.52048159524602,3.19291520063234,NaN,2.67645141673957,0.579038370095018,-1.06101427871516,-1.05282150770566,NaN,-1.61585759516571,-1.18243452151008,1.46850693156615,-1.46850693156745,-1.22380831959214,0.494333236245409,-0.865871673145827,-0.678135725702361,NaN,-3.0109779541505,-1.51727715477331,-1.58545903893686,-0.554093453049845,-0.554093453046733,NaN,-3.88028719040871,-0.49847310461197,NaN,-2.68417841362819,NaN,1.74212590930063,-0.663700319397589,-0.663700319397637,1.09574029742828,-1.12409204613574,NaN
1096.8064,-0.518723424632733,-2.14665867664139,-1.87362986772458,-1.55032443645202,-4.29573510829257,-4.29573510829216,NaN,1.39421606186968,-0.671212977483378,2.39528833233881,-2.60852102677883,2.39528833233914,1.75463649046564,0.0637528506029786,1.93501442663393,3.68376355275107,0.854104609065945,3.42047801617888,3.13332528907029,NaN,2.60937833584604,0.561850297777305,-1.0540248402638,-1.0690627286408,NaN,-1.58492949923014,-1.1624426684603,1.49330062226312,-1.49330062226442,-1.16205246169271,0.505344233975477,-0.858838470161575,-0.643718399534155,NaN,-2.97234847130172,-1.48588936430422,-1.52926368933286,-0.517475007049217,-0.517475007046104,NaN,-3.90397790101296,-0.567301152927917,NaN,-2.71213166566495,NaN,1.755063989447,-0.722707944307813,-0.722707944307879,1.11514648046395,-1.14496582149395,NaN
1096.9088,-0.527914317397281,-2.15744714392728,-1.88893273553396,-1.55515314285717,-4.31492710188285,-4.31492710188242,NaN,1.40523798165942,-0.69371285309514,2.39620998831384,-2.64634030638499,2.39620998831416,1.72710429956557,0.0946876179355131,1.92103400420466,3.59826845205816,0.752081433745815,3.31826244125462,3.07097680024897,NaN,2.53973208036601,0.544154187133267,-1.04584608310406,-1.08387942347856,NaN,-1.55322268175708,-1.14246555753856,1.51723289425828,-1.51723289425958,-1.09999431297434,0.516360014906324,-0.851643802940024,-0.608988067940506,NaN,-2.93209489127898,-1.45406400429239,-1.47123501867314,-0.481033439685669,-0.481033439682551,NaN,-3.92396919628304,-0.634528397326709,NaN,-2.73829318552561,NaN,1.7681037845665,-0.780857966840948,-0.780857966841029,1.13468952710945,-1.16561550410397,NaN
1097.0112,-0.536259418021674,-2.16675696563339,-1.90250827603776,-1.55821477672047,-4.33015732768652,-4.33015732768607,NaN,1.41470109516384,-0.714842353764504,2.3963246672061,-2.68171791729021,2.39632466720641,1.69790167196607,0.126125191175782,1.9055004872446,3.51073061106935,0.649349199719119,3.21408473286709,3.00603678226579,NaN,2.46771063600992,0.525938135824947,-1.03645453836903,-1.09724673520534,NaN,-1.52086604526702,-1.1226047753606,1.54025326105222,-1.54025326105352,-1.03784220569383,0.527359765109361,-0.844326453142123,-0.574057744370219,NaN,-2.89034961340931,-1.42194370673945,-1.41158709261209,-0.444778859030792,-0.44477885902768,NaN,-3.94013868638981,-0.699916599282355,NaN,-2.7625786693136,NaN,1.78121611138365,-0.83795844631378,-0.837958446313881,1.15434823407081,-1.18600771263491,NaN
1097.1136,-0.543738754667577,-2.1745444787473,-1.91430995650412,-1.55953131626615,-4.34134832377037,-4.34134832376991,NaN,1.42258318018133,-0.734536459089962,2.39558453430204,-2.71462752363305,2.39558453430235,1.66712134024911,0.158020003849356,1.88849103818919,3.42135722375753,0.546171548824939,3.10819715942713,2.93867826788719,NaN,2.39351847123198,0.507190990144453,-1.02583157110138,-1.10914787779413,NaN,-1.48798851610291,-1.10296266684631,1.56231422849927,-1.56231422850057,-0.975804590845628,0.53832139524195,-0.836923898482167,-0.539040442593747,NaN,-2.84724856893531,-1.38967369429906,-1.35053994900004,-0.408719632971043,-0.408719632967938,NaN,-3.9523708009344,-0.763235490790375,NaN,-2.78490550916579,NaN,1.79437050537529,-0.893820042523303,-0.89382004252342,1.17410170661322,-1.20611018424899,NaN
1097.216,-0.55033655908616,-2.18076676565822,-1.9242954920938,-1.55912736270647,-4.34842843499387,-4.34842843499338,NaN,1.42886790182597,-0.752736143995204,2.39393703000016,-2.74504995372435,2.39393703000047,1.63486064180915,0.190325977566249,1.87008754923449,3.33035644973227,0.442813815001307,3.00085329375741,2.86907949385982,NaN,2.31736550308845,0.487902609279974,-1.01396373780757,-1.11957437118734,NaN,-1.45471843283362,-1.08364163814985,1.58337159654684,-1.58337159654814,-0.914089190982934,0.549221727902306,-0.829472069952412,-0.504048359458019,NaN,-2.80293066463251,-1.35740091396369,-1.28831851020202,-0.372862480090247,-0.372862480087152,NaN,-3.96055748560978,-0.824263879219993,NaN,-2.80519322007895,NaN,1.80753532414666,-0.948257015760055,-0.948257015760182,1.19392940781767,-1.22589189888074,NaN
1097.3184,-0.556041312070987,-2.18538190006817,-1.93242704800459,-1.55702984799191,-4.35133215504352,-4.35133215504302,NaN,1.43354473813812,-0.769388539939151,2.39132528072209,-2.77297311670183,2.39132528072239,1.60122094398136,0.222996820214866,1.8503761720506,3.23793661930354,0.339541560912606,2.8923069197161,2.79742313231951,NaN,2.23946606818382,0.468064154579386,-1.00084312505227,-1.12852619621365,NaN,-1.42118292696624,-1.06474343638626,1.60338471045289,-1.60338471045419,-0.852902149824474,0.560036702318393,-0.822005130971638,-0.46919206554346,NaN,-2.75753719032075,-1.32527313045821,-1.2251514282209,-0.337212546844711,-0.337212546841617,NaN,-3.96459888761637,-0.882790692570325,NaN,-2.82336388793343,NaN,1.82067785741925,-1.0010882212458,-1.00108822124593,1.21381119580305,-1.24532319244494,NaN
1097.4208,-0.560845759163869,-2.18834923194351,-1.93867144065971,-1.55326775654661,-4.35000050430522,-4.35000050430471,NaN,1.43660885522425,-0.784447038940259,2.38768858245732,-2.7983918775567,2.38768858245761,1.56630705179408,0.255986326122551,1.82944682966592,3.14430546615497,0.236619090010226,2.78281095585554,2.72389553414902,NaN,2.16003790388128,0.447668412118159,-0.986467678625609,-1.13601187351755,NaN,-1.38750730568474,-1.04636842500755,1.62231669357043,-1.62231669357174,-0.79244716555517,0.570741592736736,-0.814555278346434,-0.43457971050556,NaN,-2.71121118480944,-1.29343799116296,-1.16126988171064,-0.301773485678025,-0.301773485674957,NaN,-3.96440402650032,-0.938615963892261,NaN,-2.83934263149935,NaN,1.83376444938391,-1.05213809078459,-1.05213809078473,1.23372734494232,-1.26437585617537,NaN
1097.5232,-0.564746895487183,-2.18962970018081,-1.94300032949476,-1.54787187007957,-4.34438143234759,-4.34438143234709,NaN,1.4380609435274,-0.797871343163901,2.38296294798646,-2.82130789316948,2.38296294798673,1.53022660610355,0.289248655556698,1.80739270732627,3.04966938569961,0.134307958770002,2.67261640132305,2.64868597927935,NaN,2.07930114001142,0.426710146917617,-0.970841528256883,-1.14204847900754,NaN,-1.3538144481255,-1.02861486747443,1.6401346873645,-1.64013468736581,-0.732924606697847,0.581311243267105,-0.807152567977079,-0.400316243315271,NaN,-2.6640967598448,-1.26204206730727,-1.09690635057124,-0.26654755567165,-0.266547555668595,NaN,-3.95989144755021,-0.991551759328789,NaN,-2.85305806066857,NaN,1.84676063242488,-1.10123759618754,-1.10123759618768,1.25365855211048,-1.28302322121283,NaN
1097.6256,-0.567745916779546,-2.18918615895999,-1.94539038751712,-1.54087454018916,-4.33443022823794,-4.33443022823745,NaN,1.4379070270813,-0.809627464635545,2.3770817051208,-2.84172941083523,2.37708170512107,1.49308947724442,0.322738578803267,1.78430972032123,2.95423271580024,0.0328655112089594,2.56197130727554,2.57198593067153,NaN,1.99747730071457,0.405186477658166,-0.953975300200073,-1.14666160028101,NaN,-1.32022422345678,-1.01157822316661,1.65681009479732,-1.65681009479862,-0.674530619865101,0.591720319027011,-0.799824765006469,-0.366502647131076,NaN,-2.61633839031529,-1.23122987389551,-1.03229338864957,-0.231535773304001,-0.231535773300975,NaN,-3.95098985494283,-1.04142305440684,NaN,-2.86444271438156,NaN,1.85963126714244,-1.14822518955822,-1.14822518955836,1.27358593243613,-1.30124023019998,NaN
1097.728,-0.569848133976009,-2.18698370453872,-1.94582343956109,-1.53230948672317,-4.32010992600087,-4.3201099260004,NaN,1.43615825491382,-0.819687686003408,2.3699761337679,-2.8596710307,2.36997613376816,1.45500715796552,0.356411674881317,1.76029595776486,2.85819704011218,-0.0674565416361204,2.45111978033111,2.49398829347724,NaN,1.91478831967236,0.383097250870668,-0.935886394977154,-1.14988522642758,NaN,-1.28685293488395,-0.995350453964203,1.67231879649853,-1.67231879649983,-0.617456241919355,0.60194356376405,-0.792597211596467,-0.333235194875275,NaN,-2.56808018698657,-1.20114287380551,-0.967662404105513,-0.196738140409975,-0.196738140406961,NaN,-3.93763872446991,-1.08806855777768,NaN,-2.87343347000885,NaN,1.87234068422263,-1.19294771258704,-1.19294771258718,1.293491008442,-1.31900349826315,NaN
1097.8304,-0.571062848169543,-2.18298999159917,-1.94428655825908,-1.52221161614877,-4.30139169754678,-4.30139169754634,NaN,1.43283067633907,-0.828030493711913,2.36157613173456,-2.87515343477442,2.36157613173481,1.41609215843851,0.390224477295463,1.73545110145507,2.76176051871387,-0.166413473394006,2.3403010287197,2.41488668274834,NaN,1.83145557423293,0.360445388760276,-0.916599202142632,-1.15176156147151,NaN,-1.25381279224068,-0.980019338452291,1.68664130845249,-1.68664130845378,-0.561886528421825,0.611956052827341,-0.785492707314842,-0.300604737485546,NaN,-2.5194651694778,-1.171918474702,-0.903242447983541,-0.162153961909834,-0.162153961906824,NaN,-3.91978889816807,-1.13134147538077,NaN,-2.87997192251334,NaN,1.88485282392961,-1.23526126308213,-1.23526126308228,1.31335569492677,-1.33629136445336,NaN
1097.9328,-0.571403181985115,-2.17717553164122,-1.94077210925111,-1.51061685578456,-4.27825522617518,-4.27825522617476,NaN,1.42794499652673,-0.834640487795844,2.35181089778905,-2.88820308745763,2.3518108977893,1.37645740644475,0.424134564692152,1.70987582208398,2.66511725334265,-0.263768805225826,2.22974846300637,2.33487470311757,NaN,1.74769894371124,0.337237191819422,-0.896145233083685,-1.15234075731368,NaN,-1.22121141579663,-0.965667794180676,1.69976287046042,-1.69976287046172,-0.507999707391858,0.621733438163305,-0.7785314048599,-0.268696036369472,NaN,-2.47063455154997,-1.14368903010915,-0.839259010182684,-0.12778224320854,-0.127782243205533,NaN,-3.8974031609781,-1.17111020621289,NaN,-2.88400473323398,NaN,1.89713136829634,-1.27503200515437,-1.27503200515452,1.33316228119555,-1.35308393351511,NaN
1098.0352,-0.570885863826342,-2.16951396848671,-1.93527773922591,-1.4975620032352,-4.25068905307497,-4.25068905307458,NaN,1.42152631078484,-0.839508268678049,2.34060961762355,-2.89885191593197,2.34060961762379,1.33621565673835,0.45810060150705,1.68367115974292,2.56845669393637,-0.359295466318428,2.11968886094203,2.25414524314546,NaN,1.66373589582823,0.313482591614112,-0.874563168661137,-1.15168056798088,NaN,-1.18915137530069,-0.952373215935463,1.71167347349614,-1.71167347349743,-0.455966363515065,0.631252184088657,-0.77173072419937,-0.237587148250116,NaN,-2.42172704413998,-1.11658086007553,-0.775932826631921,-0.0936221447177542,-0.0936221447147509,NaN,-3.87045679274463,-1.20725896450858,NaN,-2.88548394814879,NaN,1.90913986451241,-1.31213691116659,-1.31213691116676,1.35289341190747,-1.36936310803838,NaN
1098.1376,-0.56953096370739,-2.15998232778071,-1.92780630359762,-1.48308459201319,-4.21869089169788,-4.21869089169751,NaN,1.41360382004081,-0.842630302433495,2.32790213917142,-2.90713698206266,2.32790213917166,1.29547891294417,0.492082336672673,1.65693789650322,2.47196308716068,-0.452776843288917,2.01034159944996,2.17288978309302,NaN,1.57978060181872,0.289195359460582,-0.851898829560227,-1.14984593052502,NaN,-1.15772977085422,-0.940206845744339,1.72236784223448,-1.72236784223578,-0.405948655304785,0.640489786770911,-0.765105281229899,-0.207348868677848,NaN,-2.37287817982211,-1.09071331193256,-0.713478705626751,-0.0596734708022463,-0.0596734707992387,NaN,-3.83893808251982,-1.23968832818036,NaN,-2.88436728758684,NaN,1.92084184405751,-1.3464644300227,-1.34646443002287,1.37253206838645,-1.38511261240111,NaN
1098.24,-0.567361584288745,-2.14856124077087,-1.918365737238,-1.46722277454858,-4.18226790966721,-4.18226790966688,NaN,1.40421053140739,-0.844008766074388,2.31361962702394,-2.91310015851727,2.31361962702417,1.25435786412833,0.526040564554812,1.62977592552843,2.37581496004894,-0.544007713805684,1.90191794911274,2.09129771117601,NaN,1.49604307776005,0.264393274425235,-0.828205075436442,-1.14690847841677,NaN,-1.1270378603951,-0.929233191484196,1.73184539225572,-1.731845392257,-0.358099567120032,0.649424968072126,-0.758666823379596,-0.178044237928318,NaN,-2.32421966442045,-1.0661978816586,-0.652104384979306,-0.0259371716342746,-0.0259371716312545,NaN,-3.80284879183942,-1.26831571409796,NaN,-2.8806184112723,NaN,1.93220094505784,-1.37791508363223,-1.3779150836324,1.39206155246995,-1.40031801064631,NaN
1098.3424,-0.564403515617125,-2.135235145741,-1.90696887808136,-1.45001522335406,-4.14143697970364,-4.14143697970334,NaN,1.39338294762884,-0.843651373652511,2.29769518891992,-2.916787817285,2.29769518892015,1.21296133835078,0.559937049390111,1.6022836198746,2.28018463275445,-0.632795062157664,1.7946204266045,2.00955564781567,NaN,1.41272835395444,0.239098239576569,-0.803541624931347,-1.14294599126084,NaN,-1.09716073117364,-0.919509501839718,1.74011017969612,-1.7401101796974,-0.312562199165126,0.658037840086417,-0.752424168110723,-0.149728108739302,NaN,-2.27587876128071,-1.04313740614091,-0.592009435603195,0.00758415945037398,0.0075841594534036,NaN,-3.76220455890475,-1.29307577554643,NaN,-2.87420716155785,NaN,1.94318104403215,-1.40640199246604,-1.40640199246622,1.41146547312307,-1.41496671881412,NaN
1098.4448,-0.560684862340861,-2.1199924703175,-1.89363325355829,-1.4315010492037,-4.09622489964635,-4.09622489964609,NaN,1.38116074842908,-0.841571184421025,2.28006447153231,-2.91825053061149,2.28006447153254,1.17139577637242,0.593734419683339,1.5745572077314,2.18523776453556,-0.718958773716872,1.68864220947783,1.92784678658403,NaN,1.33003568265086,0.213336322831837,-0.77797477442615,-1.13804177893795,NaN,-1.06817700856787,-0.911085297954086,1.74717085184092,-1.7471708518422,-0.269469099501185,0.666310043053409,-0.74638314722771,-0.12244677619246,NaN,-2.2279777093874,-1.02162532718247,-0.533384224706111,0.0408858026081775,0.0408858026112007,NaN,-3.71703524008221,-1.31392071160782,NaN,-2.86510978603376,NaN,1.95374640002407,-1.43185132229634,-1.43185132229653,1.43072773432612,-1.42904800995037,NaN
1098.5472,-0.55623564845337,-2.10282579706404,-1.87838083596219,-1.41171973274269,-4.04666858049539,-4.04666858049517,NaN,1.36758646473107,-0.837786393250514,2.26066622718809,-2.91754278189648,2.26066622718832,1.12976472698474,0.627396045677904,1.54669016242225,2.0911329448941,-0.802332203881755,1.58416662483161,1.84635026178141,NaN,1.24815779552739,0.187137701285185,-0.751576991477815,-1.13228399014257,NaN,-1.04015859859723,-0.904001968328849,1.753040595865,-1.75304059586627,-0.228941641059798,0.674224858888062,-0.740546563313115,-0.0962376773259387,NaN,-2.18063317176731,-1.00174503325983,-0.476408941894003,0.07396045099947,0.0739604510025103,NaN,-3.66738518450482,-1.33082047799664,NaN,-2.85330913811559,NaN,1.96386181300471,-1.4542026383461,-1.45420263834627,1.44983252337866,-1.44255301036722,NaN
1098.6496,-0.551087401859414,-2.08373201557554,-1.86123777090885,-1.39071106581937,-3.99281519948075,-3.99281519948057,NaN,1.35270514262059,-0.832320098790086,2.23944285448496,-2.914722684895,2.23944285448517,1.0881683620013,0.660885914157187,1.5187726123521,1.99802134039476,-0.882762619318027,1.48136672156346,1.76524054549109,NaN,1.16728021612968,0.160536504614384,-0.724426375591078,-1.12576483870863,NaN,-1.01317046268452,-0.898292441573302,1.75773707452211,-1.75773707452338,-0.191089444732846,0.681767297854159,-0.734914160925244,-0.0711291701906014,NaN,-2.13395570850295,-0.983569293891058,-0.42125268488428,0.106797789211489,0.106797789214524,NaN,-3.61331343315144,-1.34376289333272,NaN,-2.83879484788817,NaN,1.97349279958555,-1.47340915704065,-1.47340915704081,1.46876429971411,-1.4554746872878,NaN
1098.752,-0.545272723200034,-2.06271246384712,-1.84223408467831,-1.36851510160424,-3.93472231205995,-3.93472231205981,NaN,1.33656399174905,-0.825200044053991,2.21634091350819,-2.90985170194648,2.2163409135084,1.0467030123255,0.694168512838201,1.4908907787257,1.90604640130604,-0.960111516845605,1.3804049282993,1.68468687443408,NaN,1.08758062971345,0.133570573886203,-0.696606009650222,-1.11857976464322,NaN,-0.987270421739905,-0.893980946571605,1.76128233023786,-1.76128233023913,-0.156009847696533,0.688924155387145,-0.729482610994277,-0.0471403951693556,NaN,-2.08804927146662,-0.967159796272291,-0.368072603726072,0.139384129824133,0.139384129827192,NaN,-3.55489382928226,-1.35275364047471,NaN,-2.82156345363384,NaN,1.98260578527797,-1.48943789621443,-1.48943789621459,1.48750778387888,-1.46780782704236,NaN
1098.8544,-0.538824848765479,-2.03977305843384,-1.8214033789091,-1.34517211469213,-3.87245791683927,-3.87245791683916,NaN,1.31921201909479,-0.816458333533151,2.19131161248002,-2.90299434218522,2.19131161248022,1.00546073739531,0.727208732536943,1.46312645856875,1.81534362436591,-1.03425483323142,1.2814327901225,1.60485271112321,NaN,1.00922831457975,0.106281161988143,-0.668203246459932,-1.11082657056032,NaN,-0.962508987575901,-0.891082858359474,1.76370263729917,-1.76370263730044,-0.123787415126149,0.695684041379695,-0.724245509794818,-0.0242812167016224,NaN,-2.04301072536912,-0.952566781111489,-0.31701310628901,0.171702120679128,0.171702120682205,NaN,-3.49221502776036,-1.35781616803226,NaN,-2.80161849558804,NaN,1.99116830177169,-1.5022697338382,-1.50226973383834,1.50604794650392,-1.47954900131626,NaN
1098.9568,-0.531777219634661,-2.01492440999672,-1.79878252126164,-1.32072257151014,-3.80610047147461,-3.80610047147454,NaN,1.30069965966937,-0.806131140434614,2.16431125944043,-2.89421782595226,2.16431125944062,0.964528943743531,0.759971787479426,1.43555657030636,1.72604036000795,-1.10508306032863,1.18459077001256,1.52589524324641,NaN,0.932383635675343,0.0787125948193982,-0.639308967862246,-1.10260457297045,NaN,-0.938929224477418,-0.889604621413894,1.76502829617075,-1.76502829617202,-0.0944934954428282,0.702037388262943,-0.719193399618428,-0.0025522466323017,NaN,-1.99892940553341,-0.939828769872158,-0.268205128671089,0.203730523853636,0.203730523856733,NaN,-3.42538040064327,-1.35899150096587,NaN,-2.77897058475228,NaN,1.99914917109988,-1.51189938679843,-1.51189938679856,1.52436999868642,-1.49069652057179,NaN
1099.0592,-0.524163066661765,-1.98818192163445,-1.7744113389446,-1.29520711030418,-3.73573886059265,-3.73573886059261,NaN,1.28107842046185,-0.794258417146701,2.13530167310593,-2.88359172194156,2.13530167310611,0.92399005759693,0.792423146386571,1.40825276345539,1.63825565174438,-1.17250127748837,1.09000810104877,1.44796491875027,NaN,0.857197593148123,0.0509119029423726,-0.610016834327567,-1.09401378630053,NaN,-0.916566648560503,-0.88954373960459,1.76529338695841,-1.76529338695967,-0.068185825553059,0.707976442653111,-0.714313817772901,0.0180550475226428,NaN,-1.95588672284031,-0.928972379421238,-0.221765477393893,0.235444059651816,0.235444059654922,NaN,-3.35450784997337,-1.35633796587361,NaN,-2.75363745479166,NaN,2.00651866510475,-1.51833531483615,-1.51833531483625,1.54245938552161,-1.50125037752001,NaN
1099.1616,-0.51601501752051,-1.95956587018081,-1.74833232077488,-1.26866653061768,-3.66147231543285,-3.66147231543285,NaN,1.26040055015976,-0.780883616301575,2.10425055258127,-2.87118758156122,2.10425055258143,0.883921245052898,0.824528464460435,1.38128108036078,1.5521001052136,-1.23642911288752,0.997802683991244,1.37120501166463,NaN,0.783811415280804,0.0229284326805812,-0.580422533533202,-1.08515414057134,NaN,-0.895449174795486,-0.890888823429502,1.76453550992535,-1.7645355099266,-0.0449082008454148,0.713495242093402,-0.709591374742102,0.037558150768361,NaN,-1.91395582574065,-0.920012225568776,-0.17779625552808,0.266813307129891,0.266813307132998,NaN,-3.27972954449001,-1.34993082638033,NaN,-2.72564399149023,NaN,2.01324864155176,-1.52159954692655,-1.52159954692663,1.56030178302605,-1.51121218582471,NaN
1099.264,-0.507364729007643,-1.92910147020401,-1.72059033046065,-1.24114179233165,-3.5834102806696,-3.58341028066963,NaN,1.2387187401884,-0.766053425875161,2.07113181137013,-2.85707859515893,2.07113181137028,0.84439417309007,0.85625351072916,1.35470165982173,1.46767579335317,-1.29680064375651,0.90808103304949,1.29575121771926,NaN,0.712356190095176,-0.00518655608553186,-0.550623033949558,-1.07612473183256,NaN,-0.8755971184959,-0.893619690834906,1.76279553381199,-1.76279553381323,-0.0246902291487011,0.7185895783611,-0.705007859608735,0.0559832316796215,NaN,-1.87320133153658,-0.912950918966153,-0.136384383473856,0.297804652261768,0.297804652264856,NaN,-3.2011915914397,-1.33986181897642,NaN,-2.69502222893475,NaN,2.01931266441201,-1.52172742522473,-1.52172742522478,1.57788309791121,-1.52058511874827,NaN
1099.3664,-0.498242544315423,-1.8968189165851,-1.69123232814001,-1.21267402395302,-3.50167222052534,-3.5016722205254,NaN,1.21608585836636,-0.749817521232107,2.03592588172344,-2.84133927856054,2.03592588172358,0.805474810897458,0.887564094433822,1.32856848393808,1.38507620387786,-1.35356424044354,0.820938273807228,1.22173128424764,NaN,0.642952538218794,-0.0333803025454766,-0.520715847929329,-1.06702310907796,NaN,-0.857023249266122,-0.897707521852394,1.76011735497654,-1.76011735497777,-0.007547183796662,0.723256952165511,-0.70054237364855,0.0733648038802333,NaN,-1.83367913676796,-0.907779151629302,-0.0976012180824292,0.328380275669546,0.328380275672616,NaN,-3.1190536443938,-1.32623858608619,NaN,-2.66181130480775,NaN,2.02468611212526,-1.51876726570379,-1.51876726570381,1.59518946941673,-1.52937384944449,NaN
1099.4688,-0.488677172337177,-1.86275339974302,-1.66030709365432,-1.1833045408743,-3.41638735743882,-3.41638735743893,NaN,1.19255471637129,-0.732228337711433,1.99861999122306,-2.82404518250385,1.99861999122318,0.767223274795088,0.91842600081094,1.30292917703686,1.30438622989536,-1.40668235597162,0.736458193563105,1.14926468144744,NaN,0.575710334997621,-0.06159896088492,-0.490798314979035,-1.05794460599262,NaN,-0.839732888373824,-0.903115066939843,1.75654765209193,-1.75654765209314,0.00652004097525744,0.727496525602903,-0.696171494341438,0.0897453259762166,NaN,-1.79543630448906,-0.904475865207012,-0.0615022707054063,0.358498175382225,0.358498175385263,NaN,-3.03348844128826,-1.30918401264655,NaN,-2.62605736921762,NaN,2.02934627165786,-1.51277994129932,-1.51277994129932,1.61220727065874,-1.53758449074733,NaN
1099.5712,-0.478695386241825,-1.82694509003214,-1.62786494680299,-1.15307487568089,-3.32769434304938,-3.32769434304952,NaN,1.16817787203513,-0.713340864774748,1.95920840814117,-2.80527261515559,1.95920840814128,0.729693718612296,0.948804945661921,1.27782486351957,1.22568219813388,-1.45613126304518,0.654713338768624,1.07846232011404,NaN,0.510728488741866,-0.0897880053670638,-0.460966923707596,-1.04898172886419,NaN,-0.823724042089491,-0.909796908324316,1.75213561506424,-1.75213561506545,0.0175248810773862,0.731309072570427,-0.69186946602356,0.105174747435921,NaN,-1.75851101466226,-0.903008492611743,-0.0281270265352013,0.388112224107079,0.388112224110081,NaN,-2.9446812660216,-1.28883547715283,NaN,-2.5878134437859,NaN,2.03327241534986,-1.50383839984214,-1.50383839984211,1.62892310531539,-1.54522453086593,NaN
1099.6736,-0.468321740853961,-1.78943909131496,-1.59395746416728,-1.12202682236612,-3.23574086942512,-3.23574086942531,NaN,1.14300746497159,-0.693212457742076,1.91769264906576,-2.78509837622096,1.91769264906585,0.692934266920554,0.978666553167656,1.25329008409508,1.14903192398268,-1.50190074287893,0.575765149017286,1.00942631659238,NaN,0.448094776176737,-0.117892612005251,-0.431316687775636,-1.04022360858271,NaN,-0.808987569330785,-0.917699773282939,1.74693263898551,-1.74693263898671,0.0254949720001206,0.734696918606875,-0.687608406198243,0.119710004665633,NaN,-1.72293256413799,-0.90333327105816,0.00250113143437176,0.417172263769027,0.417172263771993,NaN,-2.85282932947274,-1.26534402775371,NaN,-2.54713923664474,NaN,2.03644586217258,-1.49202713199893,-1.49202713199889,1.64532379676872,-1.55230276352961,NaN
1099.776,-0.457578309353076,-1.75028536491561,-1.55863719375405,-1.09020249511348,-3.14068323142324,-3.14068323142347,NaN,1.11709508252211,-0.671902662181469,1.87408164466871,-2.76359950970431,1.87408164466879,0.656986985231352,1.0079763564579,1.22935276376135,1.07449478442274,-1.54399373228371,0.499664118087019,0.942249803380435,NaN,0.387885731836074,-0.145858007907492,-0.401940583246715,-1.03175551561568,NaN,-0.795507384845407,-0.926762895466467,1.74099199363238,-1.74099199363357,0.03047194319188,0.737663862003094,-0.683358517637602,0.133414470154521,NaN,-1.68872141153873,-0.905395626354635,0.0303748907633653,0.445624240596529,0.445624240599468,NaN,-2.75814107125202,-1.23887348925781,NaN,-2.5041009281145,NaN,2.03885002892796,-1.47744160050946,-1.47744160050941,1.66139636957137,-1.55882921359713,NaN
1099.8784,-0.44648443847315,-1.70953862432119,-1.5219573669685,-1.0576444013648,-3.04268584641168,-3.04268584641197,NaN,1.09049165379597,-0.649473049919227,1.82839186534925,-2.74085308340884,1.82839186534931,0.621887882036491,1.03669981739089,1.20603422416403,1.00212180934901,-1.58242593409857,0.426449981055958,0.877016784955831,NaN,0.330166589269111,-0.173629779425056,-0.372929051026337,-1.02365842973361,NaN,-0.783260699927295,-0.936918415620433,1.73436848806648,-1.73436848806766,0.0325111366914028,0.740215077281285,-0.679088303729371,0.146357361593066,NaN,-1.65588927003339,-0.909130621670047,0.0555028676117328,0.473410379481688,0.473410379484595,NaN,-2.66083539084028,-1.20959950101753,NaN,-2.45877093994131,NaN,2.04047047467438,-1.46018763226649,-1.46018763226641,1.67712802452176,-1.56481505893856,NaN
1099.9808,-0.435056521088453,-1.6672582004333,-1.48397160678996,-1.02439552780669,-2.94192073259428,-2.9419207325946,NaN,1.06324736971571,-0.625987069000242,1.78064741161372,-2.71693599655393,1.78064741161376,0.587666940349132,1.06480236267222,1.18334923632032,0.931955797970351,-1.61722539356938,0.356151932546749,0.813802039169022,NaN,0.27499127426527,-0.201154134459301,-0.344369562891494,-1.01600865353315,NaN,-0.772218303031049,-0.948091811892793,1.72711814321534,-1.72711814321652,0.031681245058512,0.742357009808957,-0.674764790090799,0.158613122143755,NaN,-1.62443925367439,-0.914463457806911,0.0779093572356985,0.500469393668268,0.500469393671147,NaN,-2.56114082033543,-1.1777084850289,NaN,-2.41122769078942,NaN,2.0412949355282,-1.4403807676242,-1.44038076762411,1.69250610879055,-1.5702725479884,NaN
1100.0832,-0.42330778663264,-1.62350787802909,-1.4447336329834,-0.990499435653457,-2.8385669479052,-2.83856694790556,NaN,1.03541162627881,-0.60150990994232,1.73088007329529,-2.69192480982415,1.73088007329532,0.554348178393834,1.09224943634272,1.1613061133421,0.864031465003772,-1.64843204155184,0.288788879931535,0.752671063633908,NaN,0.222402450505196,-0.228378124426917,-0.316346240444681,-1.00887745861816,NaN,-0.762344878349109,-0.960202356941907,1.71929787375238,-1.71929787375354,0.0280638650712891,0.744097270162891,-0.670353756210361,0.170260781362964,NaN,-1.59436608181741,-0.921310015936107,0.0976339900319834,0.526736731809516,0.526736731812354,NaN,-2.45929464697646,-1.14339654749441,NaN,-2.36155533379901,NaN,2.04131334383937,-1.41814556310355,-1.41814556310343,1.70751808207543,-1.57521491226166,NaN
1100.1856,-0.411248110164624,-1.57835570547438,-1.40429696641562,-0.956000359871161,-2.73280999231937,-2.73280999231977,NaN,1.00703298805531,-0.576108387420082,1.67912935997436,-2.66589558993192,1.67912935997439,0.52194974085973,1.11900657038767,1.13990684559035,0.798375617768506,-1.67609720233909,0.22436973306378,0.693680066787972,NaN,0.172431619404136,-0.255249836904061,-0.288939513749497,-1.00233075787198,NaN,-0.753599352096561,-0.973163608600021,1.71096517387067,-1.71096517387183,0.0217529696643187,0.745444532076301,-0.665819979226046,0.181383300180965,NaN,-1.56565634239933,-0.929577443336701,0.114731310366227,0.552144869495836,0.552144869498653,NaN,-2.35554198609308,-1.10686831957896,NaN,-2.30984347212347,NaN,2.04051782682477,-1.39361484956344,-1.3936148495633,1.72215147898761,-1.57965627373151,NaN
1100.288,-0.398883840250516,-1.53187377972423,-1.36271463396404,-0.92094330809775,-2.62484117289055,-2.62484117289099,NaN,0.978159167545506,-0.549850831953821,1.62544250190107,-2.63892376175822,1.62544250190109,0.490484022290819,1.14503947351295,1.11914727999062,0.735007360821929,-1.7002830637264,0.162893728298453,0.636876001356752,NaN,0.125099274874793,-0.281718566390057,-0.262225815431642,-0.996428808544491,NaN,-0.745935254949342,-0.98688394156251,1.70217780369894,-1.7021778037001,0.0128543058802468,0.746408435881934,-0.661127492253232,0.192066899079769,NaN,-1.53828880936563,-0.939164785182262,0.129270287562154,0.576623647331002,0.5766236473338,NaN,-2.25013480373912,-1.0683357456457,NaN,-2.25618685024149,NaN,2.03890267991555,-1.36692895267318,-1.36692895267303,1.73639386830061,-1.58361154682546,NaN
1100.3904,-0.386217647287049,-1.48413800717883,-1.32003887584446,-0.885374156984307,-2.51485692905248,-2.51485692905295,NaN,0.948837013927254,-0.522806984588337,1.56987441576419,-2.61108396350511,1.5698744157642,0.459957820292657,1.17031413421907,1.09901733900896,0.673938316948571,-1.72106211251647,0.104350776242136,0.582296631281193,NaN,0.0804151058575202,-0.307734964567406,-0.236277315285456,-0.991225958307902,NaN,-0.739301096394732,-1.0012671177217,1.69299348247935,-1.6929934824805,0.00148472938664642,0.746999499994316,-0.656239860388114,0.202400368479973,NaN,-1.51223480302906,-0.949963658039974,0.141333756484018,0.60010065061171,0.600100650614481,NaN,-2.14333089605408,-1.02801683234927,NaN,-2.20068501859414,NaN,2.03646430926928,-1.33823488710861,-1.33823488710844,1.75023281146345,-1.58709633431619,NaN
1100.4928,-0.373248396927901,-1.43522784023818,-1.27632085942256,-0.849339743180866,-2.40305811861699,-2.4030581186175,NaN,0.919112505293703,-0.495047888725961,1.51248762620896,-2.58244990253765,1.51248762620897,0.430372512672368,1.19479693375103,1.07950127064147,0.615172850696738,-1.73851654169864,0.0487218195721228,0.529970621853492,NaN,0.0383782357267458,-0.333251168144603,-0.211161699310408,-0.986770438570873,NaN,-0.733640750331941,-1.016212882296,1.68346959891443,-1.68346959891557,-0.0122285125573248,0.747229039038895,-0.651120473064421,0.212474361146046,NaN,-1.48745857806887,-0.96185895282287,0.151017778187609,0.622501625179171,0.622501625181909,NaN,-2.03539283833767,-0.986134373691719,NaN,-2.14344196937046,NaN,2.03320114291631,-1.307685537169,-1.30768553716882,1.76365582289364,-1.59012681636687,NaN
1100.5952,-0.359971055389047,-1.38522598994213,-1.23161040582152,-0.812887943627657,-2.28964926781806,-2.2896492678186,NaN,0.889030741159556,-0.466645773554532,1.45335213503766,-2.55309421050373,1.45335213503767,0.401724253177304,1.21845476797552,1.0605779231474,0.55870828844393,-1.75273763311293,-0.00402080533505232,0.479917650567045,NaN,-0.00102250613546972,-0.358220902032828,-0.186941991305117,-0.983104197524697,NaN,-0.728893848266185,-1.03161757122842,1.67366294034093,-1.67366294034206,-0.0281485404712546,0.747109079447942,-0.645732843491702,0.222380666393571,NaN,-1.46391772701572,-0.974729554646024,0.158430912629288,0.643750928461303,0.643750928464015,NaN,-1.92658691338146,-0.942914662914504,NaN,-2.08456574579055,NaN,2.02911352002759,-1.2754388299408,-1.27543882994061,1.77665033182604,-1.59271963248669,NaN
1100.6976,-0.346376634673272,-1.33421811586925,-1.18595573728476,-0.776067737664098,-2.17483779137679,-2.17483779137736,NaN,0.858635934426526,-0.437673924954865,1.39254523360057,-2.52308829790642,1.39254523360057,0.374004180890857,1.24125517693011,1.04222103852439,0.504535136369071,-1.76382511852653,-0.0539130025880051,0.432148539959641,NaN,-0.0378082820176361,-0.382599559621008,-0.163676412256741,-0.980262766750138,NaN,-0.724996173497627,-1.04737472271277,1.66362942915023,-1.66362942915135,-0.0461296415183216,0.74665225819602,-0.640040900248682,0.232211466619436,NaN,-1.44156359438453,-0.988449073583179,0.163693404756971,0.663772019585418,0.663772019588098,NaN,-1.8171820247349,-0.898586198335874,NaN,-2.02416803154578,NaN,2.02420357223696,-1.24165689872733,-1.24165689872714,1.78920364271484,-1.59489175700353,NaN
1100.8,-0.332452185584992,-1.28229249508703,-1.13940325350879,-0.738929243002882,-2.05883319197224,-2.05883319197283,NaN,0.827971403454267,-0.408206542963789,1.33015125658851,-2.49250221007492,1.33015125658851,0.347198636773865,1.26316647666793,1.02439955490822,0.452637297475997,-1.77188652362913,-0.100998547040455,0.386665408837977,NaN,-0.0720099186262949,-0.40634427212699,-0.141418268113783,-0.978275163901558,NaN,-0.72188004801804,-1.06337569508928,1.65342384825168,-1.65342384825279,-0.0660181079724915,0.745871690303036,-0.634009255950387,0.242058576880959,NaN,-1.42034170065991,-1.00288658697169,0.166936295297721,0.682487993101152,0.682487993103794,NaN,-1.70744860257915,-0.853378391003321,NaN,-1.96236372426265,NaN,2.01847510657472,-1.20650523298496,-1.20650523298477,1.80130289053031,-1.59666036925995,NaN
1100.9024,-0.318180842458915,-1.2295396716705,-1.09199734145019,-0.701523718780868,-1.94184624870614,-1.94184624870675,NaN,0.797079565064722,-0.378318585561376,1.26626127764293,-2.4614044856503,1.26626127764292,0.321289381885208,1.28415789074603,1.00707791061033,0.402992287277843,-1.77703649909968,-0.145328712117512,0.343461835597226,NaN,-0.103667562484904,-0.429413986649536,-0.120215849786179,-0.977163834166825,NaN,-0.719474704924999,-1.07951029801314,1.64309954305577,-1.64309954305687,-0.0876531123060688,0.744780797815027,-0.627603445732676,0.252012667152328,NaN,-1.40019217612386,-1.01790739599641,0.168300469393368,0.699822157520434,0.699822157523026,NaN,-1.59765751061312,-0.807520284716571,NaN,-1.89927049143721,NaN,2.011933493519,-1.17015181454577,-1.17015181454559,1.81293498935161,-1.59804271985811,NaN
1101.0048,-0.303541918037007,-1.17605208726949,-1.04378021752249,-0.663903531656834,-1.82408820124576,-1.82408820124639,NaN,0.766001930037395,-0.348085599258011,1.20097275055511,-2.42986201790278,1.2009727505551,0.296253817293408,1.30419968685988,0.990216352628428,0.355571449379135,-1.7793961417004,-0.186961894960408,0.302523031797762,NaN,-0.132830321237408,-0.451769565268311,-0.100112331252926,-0.976944624535917,NaN,-0.7177066460433,-1.09566744437272,1.63270810360158,-1.63270810360267,-0.110867611314125,0.743393107222269,-0.620790140884678,0.262162470618181,NaN,-1.38105020669253,-1.03337380027389,0.167935651030512,0.715698660336323,0.71569866033886,NaN,-1.48807895738307,-0.761239299733326,NaN,-1.83500830900633,NaN,2.00458555967508,-1.13276624262477,-1.1327662426246,1.82408657650627,-1.59905599455337,NaN
1101.1072,-0.288511045945164,-1.12192369368076,-0.994791800532513,-0.626122085294131,-1.70576993688732,-1.70576993688797,NaN,0.734779104765984,-0.317583541015531,1.13438910166213,-2.39793992133515,1.13438910166212,0.272065209371851,1.3232633236963,0.973771256235854,0.310340171769798,-1.77909231105008,-0.225963239756009,0.263826027640925,NaN,-0.159555892035533,-0.473373899669976,-0.081145665784688,-0.977626781323159,NaN,-0.716499991595466,-1.11173582969098,1.62229904375452,-1.6222990437556,-0.135489268314948,0.741722032540018,-0.613537349728391,0.27259398837872,NaN,-1.36284649670673,-1.04914589776945,0.165999347739945,0.730043165496159,0.730043165498648,NaN,-1.37898141174285,-0.714760010361274,NaN,-1.76969899156943,NaN,1.99643948148056,-1.09451885297163,-1.09451885297147,1.8347439559933,-1.59971717744944,NaN
1101.2096,-0.273060371090401,-1.06724955120934,-0.945069618128069,-0.588233718072623,-1.58710119105232,-1.587101191053,NaN,0.703450801647377,-0.28688859784365,1.06661927693796,-2.36570140820301,1.06661927693796,0.248692919552331,1.34132160342864,0.957695452298656,0.267258098836375,-1.7762569519211,-0.262404266301393,0.227339867410818,NaN,-0.183910182554862,-0.494192022426963,-0.0633484961801323,-0.97921296904789,NaN,-0.715776827650282,-1.127604638057,1.61191949498132,-1.61191949498239,-0.161341381624706,0.739780656618985,-0.605814613857208,0.283389699481447,NaN,-1.34550775129188,-1.06508241494188,0.162655752110905,0.742783582416371,0.742783582418802,NaN,-1.2706305264762,-0.668302966176848,NaN,-1.70346572926244,NaN,1.9875046751513,-1.0555798405667,-1.05557984056654,1.84489304275936,-1.60004291427428,NaN
1101.312,-0.257158787449894,-1.01212541917779,-0.894648750460859,-0.550293576614909,-1.46828976898758,-1.46828976898827,NaN,0.672055855193626,-0.256077007113236,0.997777246284816,-2.33320767688373,0.997777246284805,0.226102630494403,1.35834882075376,0.941938548932977,0.22627933081766,-1.77102642842781,-0.296362512720907,0.193025808827475,NaN,-0.205966932603144,-0.514191197572709,-0.0467480978763057,-0.981699317147262,NaN,-0.715457548996584,-1.14316425647117,1.60161392374431,-1.60161392374536,-0.188243810486977,0.737581512121712,-0.597593199262289,0.294627779928871,NaN,-1.32895717200207,-1.08104155601585,0.158074610724972,0.753850825802234,0.753850825804611,NaN,-1.16328808039872,-0.622083565223731,NaN,-1.63643264105293,NaN,1.9777916797231,-1.01611839616432,-1.01611839616417,1.85451930803228,-1.60004937538791,NaN
1101.4144,-0.24077221726168,-0.956647344882862,-0.843561809845952,-0.512357473456408,-1.34954078913261,-1.34954078913332,NaN,0.640632237983874,-0.225224878323832,0.927981471863102,-2.30051780624342,0.927981471863088,0.204256561688504,1.37432090592175,0.92644723862525,0.187352608217079,-1.7635408658403,-0.327921193300472,0.160837523627217,NaN,-0.225807337939755,-0.533340989397521,-0.0313663591567924,-0.985075500842605,NaN,-0.715461189686151,-1.15830696880774,1.59142387155799,-1.59142387155904,-0.216013893597531,0.735136361342897,-0.588846277740307,0.306381337748198,NaN,-1.3131149524556,-1.09688184526982,0.15243007352152,0.763179576794141,0.763179576796466,NaN,-1.05721094694754,-0.576310984200825,NaN,-1.56872434410119,NaN,1.96731203284003,-0.976301864593946,-0.976301864593799,1.86360772700801,-1.5997521177686,NaN
1101.5168,-0.22386392311851,-0.900911255392037,-0.79183895170444,-0.474481735700444,-1.23105594741702,-1.23105594741775,NaN,0.609217074054011,-0.194408018903315,0.857354351914049,-2.26768864659856,0.857354351914032,0.183113676277121,1.389215566168,0.911165595011804,0.15042148741451,-1.75394349031243,-0.357168863347403,0.13072130461379,NaN,-0.243519669003207,-0.551613323398209,-0.0172197862841812,-0.989324856712818,NaN,-0.715705737368455,-1.17292761077736,1.58138771277625,-1.58138771277729,-0.24446735798502,0.732455980805658,-0.579549098285867,0.318717676093758,NaN,-1.29789876657171,-1.11246294112028,0.145899536938386,0.770709027832682,0.770709027834937,NaN,-0.952650090547372,-0.531187169805902,NaN,-1.50046553825889,NaN,1.95607814166247,-0.936294931362012,-0.936294931361869,1.87214273127833,-1.59916594640631,NaN
1101.6192,-0.206394847648198,-0.845012555700586,-0.739507914347875,-0.436723047901908,-1.11303280727628,-1.11303280727702,NaN,0.577846650637274,-0.163701766519124,0.786021651928978,-2.23477470572541,0.786021651928956,0.162629888891953,1.40301242750607,0.896035370945024,0.115424518512241,-1.74237996286784,-0.384199080524846,0.102616289394693,NaN,-0.259198874047871,-0.568982549270846,-0.00431952251005488,-0.994424528703862,NaN,-0.716108437758546,-1.18692418817511,1.5715404287958,-1.57154042879683,-0.273419218591072,0.729549962904144,-0.569679155152452,0.33169759541315,NaN,-1.28322425698339,-1.12764641987123,0.138662493616388,0.776383607641073,0.776383607643269,NaN,-0.849849591499725,-0.486905897146612,NaN,-1.4317806114026,NaN,1.94410315274624,-0.896258842922632,-0.896258842922494,1.88010816845126,-1.59830477820561,NaN
1101.7216,-0.188323979436095,-0.789045738150557,-0.686594089621768,-0.399138289576864,-0.99566412406094,-0.995664124061702,NaN,0.546556427478323,-0.13318082387408,0.714111932959247,-2.20182803852179,0.714111932959219,0.142758284895205,1.4156931730394,0.880996307137705,0.0822954364262891,-1.72899771450827,-0.409110055052193,0.0764547096554281,NaN,-0.27294615975461,-0.585425499826933,0.00732861621791524,-1.00034563943337,NaN,-0.716586102124795,-1.20019847336016,1.56191339917518,-1.5619133991762,-0.302684670139505,0.726426545422045,-0.559216357995966,0.345374745325167,NaN,-1.26900553711865,-1.14229654007907,0.130899400777134,0.780153687463819,0.780153687465946,NaN,-0.749045702772897,-0.443651900749651,NaN,-1.3627932698898,NaN,1.93140082441628,-0.856350663196974,-0.856350663196846,1.88748726989424,-1.59718151324015,NaN
1101.824,-0.169608744135208,-0.73310400860019,-0.633120627069828,-0.361784367690811,-0.879137210580173,-0.879137210580951,NaN,0.515381041710083,-0.102919087530998,0.641755983451399,-2.16889814912673,0.641755983451364,0.123449354320176,1.4272416741252,0.865986453077117,0.0509633700750633,-1.71394529390988,-0.432004287763293,0.0521621677438692,NaN,-0.284868549892884,-0.600921533386951,0.017724080281102,-1.00705348183162,NaN,-0.717055426596542,-1.212656593588,1.55253420566649,-1.55253420566751,-0.33207997040548,0.72309246945398,-0.54814319933936,0.359795036182406,NaN,-1.25515571219332,-1.15628099805942,0.122790578632597,0.781976267735243,0.781976267737304,NaN,-0.650465939804558,-0.40160008275948,NaN,-1.29362618985232,NaN,1.91798540437079,-0.816722568315349,-0.816722568315214,1.89426262460141,-1.59580791715493,NaN
1101.9264,-0.150205416894195,-0.677278932533189,-0.579108570253904,-0.32471804557274,-0.763633345274018,-0.763633345274811,NaN,0.484354310141838,-0.0729894692835007,0.569086256049665,-2.13603190769535,0.569086256049626,0.104651236793447,1.43764411237072,0.850942495142069,0.0213530637591811,-1.69737173583942,-0.452988203384815,0.0296579342159417,NaN,-0.295078429417541,-0.615452553491085,0.0268714973874239,-1.01450772579198,NaN,-0.717433321923441,-1.22420961417542,1.54342644287752,-1.54342644287853,-0.361423309890865,0.71955285733622,-0.536444908632379,0.374996114351666,NaN,-1.24158741560342,-1.16947167678102,0.114515148981746,0.781815636854143,0.781815636856133,NaN,-0.55432820159766,-0.360914804667531,NaN,-1.22440068331574,NaN,1.90387151346533,-0.777521184610638,-0.777521184610515,1.90041615593428,-1.59419451610472,NaN
1102.0288,-0.130069551498391,-0.621660102253749,-0.524577021865054,-0.287995769837729,-0.649327222061746,-0.649327222062545,NaN,0.45350923396842,-0.0434637177711062,0.496236306381192,-2.10327348092393,0.496236306381152,0.0863099733103653,1.44688908753495,0.83580008491987,-0.00661490058294798,-1.67942595236561,-0.472171789389133,0.00885525919628548,NaN,-0.303693080952118,-0.62900300738308,0.0347805577445027,-1.02266263808386,NaN,-0.717637245016375,-1.23477410374587,1.53460953718539,-1.53460953718639,-0.390535660663117,0.715811105370969,-0.524109588078196,0.391006900262121,NaN,-1.22821335366103,-1.181745376875,0.10625001921266,0.77964398411525,0.779643984117155,NaN,-0.4608399278204,-0.32174926855811,NaN,-1.15523637950854,NaN,1.88907403383782,-0.738886975228244,-0.738886975228133,1.90592909943819,-1.59235050361009,NaN
1102.1312,-0.109156423938599,-0.566334826422354,-0.469543336406826,-0.251673496384287,-0.536386442759286,-0.536386442760097,NaN,0.422878008518229,-0.014412246048037,0.423340230509027,-2.07066427609167,0.423340230508984,0.068369762733138,1.45496770702359,0.820494163201007,-0.0330238843903742,-1.66025614392592,-0.489668243188402,-0.0103383006060508,NaN,-0.310834212226569,-0.6415598728337,0.0414658808157392,-1.03146731775133,NaN,-0.717585521855815,-1.24427265379059,1.52609858902411,-1.52609858902511,-0.41924159652646,0.711868794312124,-0.511128332695337,0.407847190286829,NaN,-1.21494684687381,-1.192984502939,0.0981689075320065,0.775441946250821,0.775441946252644,NaN,-0.370197308313132,-0.284244987964556,NaN,-1.08625092551385,NaN,1.87360800041066,-0.700953675501421,-0.700953675501306,1.91078198159406,-1.59028365733667,NaN
1102.2336,-0.0874214876522781,-0.511387843661519,-0.414023339122864,-0.215806516934742,-0.424971054126357,-0.424971054127173,NaN,0.39249203759705,0.0140960358161179,0.35053210269274,-2.03824289794211,0.350532102692697,0.0507732206036845,1.46187366155901,0.804959279391486,-0.0579609690267818,-1.64000922588193,-0.505593619769567,-0.0280205283805911,NaN,-0.316627466131093,-0.653112649891794,0.0469468791281072,-1.0408659457653,NaN,-0.717197653001469,-1.25263432324075,1.51790425810268,-1.51790425810367,-0.447370075977838,0.707725619596536,-0.497495334143869,0.425527327160799,NaN,-1.20170235142622,-1.20307767513663,0.0904414007836014,0.769199075741533,0.769199075743285,NaN,-0.282584563131716,-0.248531343429063,NaN,-1.01755970805811,NaN,1.85748849971167,-0.663847774467109,-0.663847774466994,1.91495460112786,-1.58800026418017,NaN
1102.336,-0.0648208356124031,-0.456901062846057,-0.358031568572328,-0.180449288308386,-0.315233131996489,-0.315233131997303,NaN,0.36238195257302,0.0419938835996583,0.277945420498525,-2.00604511782039,0.27794542049848,0.0334616389347657,1.4676032971325,0.789129910078647,-0.0815167147514165,-1.61883027023656,-0.520066468352333,-0.0442941559645312,NaN,-0.321201906047215,-0.663653365698061,0.0512476285287902,-1.05079804481526,NaN,-0.716394595041624,-1.25979499552117,1.51003270073742,-1.5100327007384,-0.474755179769052,0.703379336185873,-0.483207959905214,0.444047944881777,NaN,-1.18839594760128,-1.21192025253016,0.0832320417237226,0.760914229972605,0.760914229974282,NaN,-0.198173301414839,-0.214725217748316,NaN,-0.949275595325593,NaN,1.84073058255649,-0.627688043304167,-0.627688043304051,1.91842601670944,-1.58550505448366,NaN
1102.4384,-0.0413116666156113,-0.402953334414428,-0.301581543333389,-0.145655265528055,-0.207316416849587,-0.207316416850398,NaN,0.332577638147478,0.0692158740284682,0.20571256489617,-1.97410385608616,0.205712564896125,0.0163752489724887,1.47215568883395,0.772940781781506,-0.103784889747768,-1.59686196708869,-0.533207448655151,-0.0592664291649432,NaN,-0.324689473622863,-0.673176577927706,0.0543967314043082,-1.06119875036401,NaN,-0.715099014253496,-1.26569765506788,1.50248555577699,-1.50248555577796,-0.501236797151984,0.698825713000262,-0.468266798456757,0.463399796047054,NaN,-1.17494579042042,-1.21941477497975,0.0766994485343156,0.750595882079977,0.750595882081576,NaN,-0.117121959539605,-0.182930706781657,NaN,-0.881508697349261,NaN,1.82334919601742,-0.592585113827063,-0.592585113826949,1.92117454472384,-1.58280114765966,NaN
1102.5408,-0.016852755047859,-0.349620256527009,-0.244686054702104,-0.111476737606842,-0.101356004016741,-0.101356004017555,NaN,0.303108266642834,0.0956985500766268,0.133964280325761,-1.94244917797771,0.133964280325715,-0.000546509084990518,1.47553271590192,0.756327201868806,-0.124862159877324,-1.57424410943378,-0.545138919706799,-0.0730486296043676,NaN,-0.327224418819158,-0.681679352770849,0.0564271484779826,-1.07199909847273,NaN,-0.713235515865147,-1.27029259820799,1.49525997035221,-1.49525997035317,-0.526661256779515,0.694058499199221,-0.452675667976513,0.483563670603275,NaN,-1.16127252442437,-1.22547133910476,0.0709954697679092,0.738262351952984,0.738262351954509,NaN,-0.0395753166194059,-0.153238902770932,NaN,-0.814366143730165,NaN,1.80535913877282,-0.558641108917286,-0.55864110891717,1.92317776794286,-1.57989001042729,NaN
1102.6432,0.00859508080528719,-0.296974014190064,-0.18735747974081,-0.0779646631134916,0.00252191447950075,0.00252191447869026,NaN,0.274002339018908,0.121380560690405,0.0628291772475905,-1.91110830042237,0.0628291772475421,-0.0173647034973133,1.47773913543467,0.739225402744871,-0.144847735902091,-1.55111310026079,-0.555984498098181,-0.0857555558460969,NaN,-0.328942702428758,-0.689161210277821,0.0573759899045511,-1.08312633595349,NaN,-0.710730860712587,-1.27353759221439,1.48834865581039,-1.48834865581133,-0.550881900913074,0.689069409442732,-0.43644159233518,0.504510412662432,NaN,-1.14729966898922,-1.2300079218727,0.0662643782171258,0.723941961637284,0.723941961638724,NaN,0.0343359182533483,-0.125727750736727,NaN,-0.747951877791575,NaN,1.78677504162082,-0.525949326213313,-0.525949326213201,1.92441255359321,-1.57677142761704,NaN
1102.7456,0.0350685228819173,-0.245083241583993,-0.129608098449722,-0.0451685015344553,0.104200264597,0.10420026459619,NaN,0.245287724796163,0.146202804030379,-0.00756674227193622,-1.88010560626256,-0.00756674227198684,-0.0341406084082032,1.47878265216801,0.7215729056833,-0.163842983589798,-1.52760147988047,-0.565868589779085,-0.0975049679077436,NaN,-0.329981372854923,-0.69562405214812,0.057284275333265,-1.09450426023694,NaN,-0.707514182381169,-1.27539799027472,1.48173996716657,-1.4817399671675,-0.573759606528535,0.683848135647712,-0.419574748940593,0.526201041253354,NaN,-1.13295398256214,-1.23295065810448,0.0626421104303962,0.707673128209914,0.707673128211292,NaN,0.104495455045657,-0.10046198283055,NaN,-0.682366467010646,NaN,1.76761136891084,-0.494593977507494,-0.49459397750738,1.92485507924112,-1.57344348515617,NaN
1102.848,0.0626013218211757,-0.194012895890569,-0.0714503967161296,-0.0131360374726365,0.203571269501212,0.203571269500403,NaN,0.216991691561478,0.170108579749044,-0.0771005376612913,-1.84946266298685,-0.0771005376613455,-0.0509353798263105,1.47867398098311,0.703308904181523,-0.181951009499086,-1.50383747375643,-0.574915906533869,-0.108417002932752,NaN,-0.330477924198396,-0.701072090212465,0.0561966754186842,-1.10605359639663,NaN,-0.703517208502176,-1.27584679878356,1.47541800633364,-1.47541800633455,-0.595163257863036,0.678382390573488,-0.402088391093782,0.548586980266553,NaN,-1.11816580687324,-1.23423406846437,0.0602555604426084,0.689504402255734,0.689504402257041,NaN,0.170801711763856,-0.0774931364174105,NaN,-0.617706926207111,NaN,1.74788243124011,-0.464649987329891,-0.464649987329774,1.92448086612377,-1.56990256442844,NaN
1102.9504,0.0912238954729043,-0.14382413727065,-0.0128973464518402,0.0180868018830903,0.300536596471083,0.300536596470278,NaN,0.189140920989235,0.193043747182036,-0.145652766346037,-1.81919824521036,-0.145652766346093,-0.0678097181573058,1.47742689796185,0.684374656021145,-0.1992762368753,-1.4799445603531,-0.583250979471074,-0.118613572489602,NaN,-0.330569645737061,-0.705511782034067,0.05416124123855,-1.11769240994769,NaN,-0.698674476018151,-1.27486468159098,1.46936275144519,-1.4693627514461,-0.614970168723925,0.672657984231993,-0.383998747467624,0.571610394595353,NaN,-1.10286937903185,-1.23380122642274,0.0592219330206674,0.669494439760557,0.669494439761802,NaN,0.233168039092802,-0.0568596572414983,NaN,-0.554066543217385,NaN,1.72760240234259,-0.436182851850527,-0.436182851850401,1.92326481982081,-1.56614334656813,NaN
1103.0528,0.120962954117127,-0.0945742166947592,0.0460373329925619,0.0484561335456132,0.395007467576285,0.395007467575483,NaN,0.161761513322776,0.21495688406533,-0.213107909199714,-1.78932836346978,-0.213107909199772,-0.0848235267979811,1.47505827521018,0.664713871271008,-0.215923979934103,-1.45604105525966,-0.590997675640463,-0.128217747205265,NaN,-0.33039296803009,-0.708951769182941,0.0512291232899587,-1.12933654447566,NaN,-0.692923525229727,-1.27243988379593,1.46355020934146,-1.46355020934235,-0.633066447756272,0.666658930115398,-0.365324903871436,0.595204616972537,NaN,-1.08700309728315,-1.23160385130869,0.0596481581193916,0.647711879407423,0.647711879408597,NaN,0.29152287151135,-0.0385870810711723,NaN,-0.49153469813814,NaN,1.7067853400508,-0.409248552916868,-0.409248552916737,1.92118127704796,-1.56215882515475,NaN
1103.1552,0.151841145409148,-0.0463163754690739,0.105338923368624,0.0779303078249344,0.486904726492255,0.486904726491454,NaN,0.134878980184902,0.23579944474445,-0.279354786015833,-1.75986630357513,-0.27935478601589,-0.102035568665782,1.47158809363999,0.644273091221731,-0.23200001500245,-1.43223970884646,-0.598278715693069,-0.1373531260459,NaN,-0.330082804051595,-0.711402807641258,0.0474542745884356,-1.14090007643783,NaN,-0.686205066363804,-1.26856806960183,1.45795258679511,-1.45795258679599,-0.649347301567063,0.660367577059623,-0.346088673946971,0.619294644953837,NaN,-1.07050973815695,-1.22760232219695,0.0616303700778736,0.624235102436288,0.624235102437399,NaN,0.345809797631438,-0.0226882810908191,NaN,-0.430196678005551,NaN,1.68544521249224,-0.383893519119561,-0.383893519119419,1.9182040572399,-1.55794032649965,NaN
1103.2576,0.183876716591011,0.000900241017062329,0.164991462168147,0.106470098015023,0.57615885695037,0.576158856949575,NaN,0.108518223182239,0.255525919143692,-0.344286956787809,-1.73082267915744,-0.344286956787862,-0.119503116672002,1.4670394296068,0.623002060474809,-0.247610141135737,-1.4086473188375,-0.60521518659014,-0.146143183758944,NaN,-0.329771881566598,-0.712877681425964,0.0428931280941881,-1.15229579063514,NaN,-0.678463124789848,-1.26325208309051,1.45253848343139,-1.45253848343226,-0.663717275154901,0.653764764352609,-0.326314463456217,0.643797694679261,NaN,-1.05333663424083,-1.22176561713355,0.0652534563005064,0.599151869557074,0.599151869558126,NaN,0.395987549724786,-0.00916376863613457,NaN,-0.37013349435943,NaN,1.66359592722578,-0.360154629119759,-0.360154629119613,1.91430651892485,-1.5534775373907,NaN
1103.36,0.217083198402953,0.0470306557023097,0.224977507572376,0.134038888173098,0.662709955499948,0.662709955499161,NaN,0.0827034970647479,0.274093994961483,-0.40780310438436,-1.70220549688266,-0.407803104384407,-0.137281594830308,1.46143841910899,0.600854097674073,-0.262859723200453,-1.38536435882856,-0.611926043588841,-0.154710590867287,NaN,-0.329590062767716,-0.713391104034385,0.0376042483733266,-1.16343568451516,NaN,-0.669645175423189,-1.25650164496916,1.44727311683832,-1.44727311683918,-0.676090431800841,0.646829999753638,-0.306029127674374,0.668623811685822,NaN,-1.03543582368933,-1.21407118590627,0.0705906739621746,0.572558841058353,0.572558841059334,NaN,0.442029919352468,0.0019979601733607,NaN,-0.311421706123013,NaN,1.64125136145764,-0.338059254352425,-0.338059254352263,1.90946162102284,-1.54875853996279,NaN
1103.4624,0.25146911757908,0.0920341215360515,0.285277921911604,0.160602856435121,0.746507666551053,0.746507666550276,NaN,0.0574583578641667,0.29146472865387,-0.469807397714763,-1.67402023229731,-0.469807397714801,-0.155424208592892,1.45481420921315,0.577786471363375,-0.27785321378674,-1.36248461922452,-0.61852759738366,-0.163176503671277,NaN,-0.329663647268881,-0.712959623223237,0.0316479686915721,-1.17423150648458,NaN,-0.659702271870598,-1.24833299656231,1.44211858917022,-1.44211858917107,-0.686390473631415,0.639541658555766,-0.285261815027781,0.693676548085781,NaN,-1.01676417569037,-1.20450476493866,0.0777033266395798,0.544560988681633,0.544560988682565,NaN,0.48392560832197,0.0108200351081622,NaN,-0.254133242899172,NaN,1.61842539554991,-0.317625335922495,-0.317625335922336,1.90364198741279,-1.54376985292961,NaN
1103.5648,0.287037741948125,0.135874175976176,0.345871679557479,0.186131152829002,0.827511086701548,0.827511086700781,NaN,0.0328055969620908,0.307602730040588,-0.53020983813676,-1.64626991531225,-0.53020983813679,-0.173981563630795,1.44719890075075,0.55376078389505,-0.292693655350793,-1.34009485717846,-0.62513298666398,-0.171659828151856,NaN,-0.330114658735354,-0.711601537570165,0.0250860206156749,-1.18459532916127,NaN,-0.648589168328948,-1.23876850084441,1.43703419691257,-1.43703419691341,-0.694550802086787,0.631877199342308,-0.264043787488543,0.718853715595984,NaN,-0.997283487450714,-1.19306014273245,0.0866404940030003,0.515270907247442,0.515270907248319,NaN,0.521678021708958,0.017336780913524,NaN,-0.19833521932573,NaN,1.59513195219508,-0.298861489562347,-0.298861489562174,1.89681997195476,-1.53849647852177,NaN
1103.6672,0.323786857676711,0.17851868972978,0.406735699772203,0.210596071584071,0.905688640267219,0.905688640266463,NaN,0.00876716074121741,0.322476360964999,-0.588926593849222,-1.61895522556709,-0.588926593849242,-0.193001274572426,1.43862747649972,0.528743358779314,-0.307482170743982,-1.31827445995364,-0.631851644364492,-0.180276468914153,NaN,-0.33106012251141,-0.709336822428445,0.0179811541478397,-1.19444015725244,NaN,-0.636264427846799,-1.22783620498314,1.43197678078401,-1.43197678078484,-0.700514520939717,0.623813392659665,-0.242408210249351,0.744048221217706,NaN,-0.976960545602811,-1.17973887877779,0.0974388134316455,0.484808035234798,0.484808035235618,NaN,0.555305007723231,0.0215932455260155,NaN,-0.144089730137842,NaN,1.57138504086124,-0.281767135621427,-0.281767135621247,1.88896772278933,-1.53292195537128,NaN
1103.7696,0.361708575462333,0.219939907485889,0.467844700181685,0.233973215880698,0.981017925884407,0.981017925883663,NaN,-0.0146359478588071,0.336057947925466,-0.645880326294084,-1.59207459692579,-0.645880326294093,-0.212527569286048,1.42913770861003,0.50270562221735,-0.322317454819499,-1.29709513321089,-0.638788771769632,-0.189138574828956,NaN,-0.332611343598588,-0.706187064553088,0.0103967468445106,-1.20368057180928,NaN,-0.622690507171102,-1.21556935842812,1.42690111346239,-1.42690111346322,-0.704234391043158,0.615326559116339,-0.220389905376387,0.769148988828512,NaN,-0.95576714434219,-1.16454996841502,0.110122315627346,0.453297793960347,0.453297793961104,NaN,0.584838551963459,0.0236446913933467,NaN,-0.091453618470672,NaN,1.5471988088376,-0.266332655061895,-0.266332655061706,1.8800572474469,-1.52702841860814,NaN
1103.872,0.400789162328951,0.260114475826817,0.529171064718792,0.256241650554031,1.05348553550344,1.0534855355027,NaN,-0.0373837911823372,0.348324010593656,-0.701000509226667,-1.56562432698443,-0.701000509226667,-0.232600896624868,1.41877004736576,0.475624471306309,-0.337295277348507,-1.2766206260129,-0.646044832588945,-0.198353786555496,NaN,-0.334873189903389,-0.702175407850814,0.00239640487704021,-1.21223340937648,NaN,-0.607833806373451,-1.20200587488514,1.42176032094631,-1.42176032094714,-0.705672746216384,0.606392813016979,-0.198025068451363,0.79404196106078,NaN,-0.933680049484305,-1.14750944111827,0.124702317145331,0.42087065251487,0.420870652515561,NaN,0.610324436104297,0.0235560588680594,NaN,-0.0404782168766832,NaN,1.52258760402077,-0.252539572332189,-0.252539572331999,1.87006048031123,-1.52079666789625,NaN
1103.9744,0.441008898029776,0.299023453861246,0.590684722219598,0.277384039894066,1.12308684591449,1.12308684591376,NaN,-0.0594576443735509,0.359255505292522,-0.754223735101885,-1.53959868519318,-0.754223735101874,-0.253257546389297,1.40756750091338,0.447482624364776,-0.352508001001556,-1.25690650312041,-0.653715073185985,-0.208024488723982,NaN,-0.337943385266983,-0.697326507578784,-0.00595643710889664,-1.22001845811156,NaN,-0.591664676694452,-1.18718773561466,1.41650632400673,-1.41650632400756,-0.704801374662986,0.596988310617322,-0.175350957693515,0.81861116185065,NaN,-0.910680901273155,-1.12863988914263,0.141177377104248,0.387661132225694,0.38766113222632,NaN,0.631821866565885,0.0214014093954814,NaN,0.00879092894204241,NaN,1.49756605248347,-0.240360763318528,-0.240360763318332,1.85894935317393,-1.51420624325266,NaN
1104.0768,0.482341959179917,0.336652303152949,0.652353036214432,0.297386771356557,1.18982577890958,1.18982577890887,NaN,-0.0808401643504364,0.368838074680644,-0.805493996475896,-1.51399001528406,-0.80549399647588,-0.274529293125262,1.39557551770039,0.418268946806464,-0.368044115373771,-1.23799997668925,-0.661889073169562,-0.218247077570649,NaN,-0.341911826175815,-0.691666486763989,-0.0145989029627875,-1.22695913222639,NaN,-0.574157390139517,-1.17116035032719,1.4110902751165,-1.41109027511733,-0.70160136717291,0.587089505264613,-0.152405575228236,0.842739787010394,NaN,-0.886756062347228,-1.10796994209971,0.159533332712319,0.353806785676088,0.353806785676653,NaN,0.649403069229702,0.0172633470109255,NaN,0.0563143338061005,NaN,1.4721491474525,-0.229760688720065,-0.229760688719873,1.84669587284446,-1.50723551015581,NaN
1104.1792,0.524756337575377,0.37299085467648,0.71414071019629,0.31624006726935,1.25371452528562,1.25371452528491,NaN,-0.101515569574242,0.377062288993705,-0.854762927725559,-1.48878883203418,-0.854762927725539,-0.296443076734959,1.38284188126711,0.387978743440161,-0.383987789161011,-1.21993980846381,-0.670650331249955,-0.229111262308094,NaN,-0.346859943413604,-0.685222893908317,-0.0234690263206535,-1.23298307951077,NaN,-0.555290081230459,-1.15397190292541,1.40546296127634,-1.40546296127717,-0.696062932185678,0.576673411220107,-0.129227361595877,0.866311286592202,NaN,-0.861896427003024,-1.08553371365722,0.179743428187294,0.319447198757275,0.319447198757786,NaN,0.663152840784632,0.0112324095827205,NaN,0.102058822047038,NaN,1.44635234297692,-0.220695659218002,-0.220695659217812,1.83327221372421,-1.49986175752257,NaN
1104.2816,0.568213799957152,0.40803325395219,0.776009715613387,0.333938085621046,1.31477323290214,1.31477323290145,NaN,-0.121469818196174,0.383923865047978,-0.90198999668833,-1.46398391576707,-0.901989996688307,-0.319020724976084,1.36941662236207,0.356614014242452,-0.400418441425987,-1.20275628549212,-0.680075888011743,-0.240699413458591,NaN,-0.352860123016458,-0.678024668708234,-0.0325060440155584,-1.23802269056923,NaN,-0.535044674140689,-1.13567270553167,1.39957514870505,-1.39957514870588,-0.688185177604093,0.565717878754361,-0.105854919476002,0.889210413969248,NaN,-0.836097206991252,-1.06137024273075,0.201768540304458,0.284723051162798,0.284723051163237,NaN,0.673168051917258,0.00340642357733221,NaN,0.145997737250102,NaN,1.42019164727272,-0.213114140835669,-0.213114140835475,1.81865083205666,-1.4920613113258,NaN
1104.384,0.612669894438362,0.441777888893782,0.837919250228305,0.350479009871511,1.3730296648839,1.37302966488322,NaN,-0.140690775302685,0.3894238534395,-0.947142641581395,-1.43956240970831,-0.94714264158137,-0.342278710820417,1.35535194656493,0.324183680292327,-0.417410330488809,-1.18647126333396,-0.690235982662479,-0.253085961699075,NaN,-0.359975188709429,-0.670102121373284,-0.0416506225458499,-1.24201550188707,NaN,-0.513406809114479,-1.11631457581683,1.39337786157271,-1.39337786157355,-0.677975861428914,0.554201887013522,-0.0823267767244395,0.911324235137307,NaN,-0.809357707503284,-1.03552294344388,0.225557492577546,0.249775244024107,0.249775244024474,NaN,0.6795571056015,-0.00611017785242936,NaN,0.188111108207389,NaN,1.39368371295619,-0.206957106624448,-0.206957106624255,1.80280460485742,-1.48380966480215,NaN
1104.4864,0.658074003441887,0.474227304260231,0.899825729263391,0.365865126245264,1.42851883379044,1.42851883378978,NaN,-0.159168362251869,0.393568785678218,-0.990196352091267,-1.41550992462545,-0.990196352091241,-0.366227935749809,1.34070216836914,0.290703784899134,-0.43503216401952,-1.17109827018431,-0.701193745021682,-0.266336852019212,NaN,-0.368257947961543,-0.661486919135051,-0.0508450296428284,-1.24490450495746,NaN,-0.490365779344484,-1.09595024604915,1.38682260492841,-1.38682260492924,-0.665451115223175,0.542105859227345,-0.0586811907175046,0.932543103278017,NaN,-0.781681109873563,-1.00803907160507,0.251047448242878,0.214744083686063,0.21474408368635,NaN,0.682439353127873,-0.0172070717969174,NaN,0.228385769670892,NaN,1.36684591904505,-0.20215843934843,-0.202158439348239,1.78570699452769,-1.47508162536911,NaN
1104.5888,0.704369436328487,0.505388103552856,0.961682803787024,0.380102884955198,1.48128261181802,1.48128261181737,NaN,-0.17689468076959,0.396370771971085,-1.03113469642384,-1.39181065379029,-1.03113469642381,-0.390873539068275,1.32552363840361,0.256197663005331,-0.453346744911109,-1.1566426732705,-0.713004935725174,-0.280509066792972,NaN,-0.377750814125595,-0.652212063736945,-0.0600332775682343,-1.24663838498901,NaN,-0.465914485071836,-1.07463280503756,1.37986155131492,-1.37986155131576,-0.65063514317192,0.529411993059054,-0.0349559846932755,0.952761602249368,NaN,-0.753074275702708,-0.978969208355348,0.278164375085544,0.179768506349714,0.179768506349938,NaN,0.681944463224277,-0.0297687962604277,NaN,0.266815432294763,NaN,1.33969643568724,-0.19864538935835,-0.19864538935817,1.76733223863719,-1.46585147761488,NaN
1104.6912,0.751493551092554,0.535270837413705,1.02344139622309,0.393202941460592,1.53136931142888,1.53136931142826,NaN,-0.193864105743985,0.397847542213387,-1.06994929817704,-1.36844750259794,-1.06994929817701,-0.416214740041254,1.30987465055202,0.220696064687092,-0.472410669342783,-1.14310191564338,-0.725717751080364,-0.295650231513154,NaN,-0.388485520772585,-0.642311845684971,-0.0691612626892194,-1.2471717121255,NaN,-0.440049408803495,-1.05241516877326,1.37244771262304,-1.37244771262387,-0.63355989779852,0.516104588082281,-0.0111884009567927,0.971879452818692,NaN,-0.723547576835808,-0.94836675731837,0.306823575408398,0.144985338512303,0.144985338512458,NaN,0.678211737458735,-0.0436755297260116,NaN,0.303400692736516,NaN,1.31225426598395,-0.196339089131799,-0.196339089131624,1.74765556259156,-1.4560931613268,NaN
1104.7936,0.799377895403668,0.563889876854964,1.08504974319475,0.405180175108895,1.57883322909585,1.57883322909525,NaN,-0.210073344397895,0.39802242841624,-1.10663976624401,-1.34540223832847,-1.10663976624397,-0.442244718406465,1.29381531945526,0.184237221861085,-0.492274081352336,-1.13046582970912,-0.739372698067247,-0.311798306319888,NaN,-0.400482935394784,-0.63182176869397,-0.0781769123171459,-1.24646509509166,NaN,-0.412770612818363,-1.02934957611932,1.36453511881559,-1.36453511881642,-0.614264734897442,0.502170353334519,0.0125850387103598,0.989802367009545,NaN,-0.693114747430023,-0.916287452865339,0.336930272563628,0.110528598332775,0.110528598332874,NaN,0.671389370399976,-0.0588038881435842,NaN,0.338148978828932,NaN,1.28453926927985,-0.195155120496404,-0.19515512049623,1.72665341248036,-1.44578046416051,NaN
1104.896,0.84794836220987,0.591263268476185,1.14645343955765,0.416053681795854,1.62373415041439,1.62373415041381,NaN,-0.225521463090608,0.396924292903515,-1.14121357853434,-1.32265566189972,-1.14121357853431,-0.468950534975981,1.27740742751021,0.146866855878004,-0.512980475713289,-1.11871702613637,-0.754002532016335,-0.328981356230462,NaN,-0.413752967334387,-0.620778446015289,-0.0870303340159403,-1.24448529089533,NaN,-0.384081756975773,-1.00548710797618,1.35607901912418,-1.35607901912503,-0.592796055783413,0.487598687891266,0.0363286665168064,1.00644283902127,NaN,-0.661792754567923,-0.882788878357328,0.368380246253567,0.0765288396889911,0.0765288396890074,NaN,0.661633659889674,-0.0750277244085639,NaN,0.371074432290203,NaN,1.25657217607247,-0.195004124407211,-0.19500412440704,1.70430370601887,-1.4348872290739,NaN
1104.9984,0.897125361732569,0.617412569309191,1.20759548370882,0.425846735537844,1.66613682586812,1.66613682586756,NaN,-0.240209885621541,0.394587409775575,-1.17368591814848,-1.30018779808962,-1.17368591814846,-0.496313091451569,1.26071425223303,0.108638132529969,-0.534566537434215,-1.10783134927913,-0.769632244407472,-0.347217389169693,NaN,-0.428294557286466,-0.60921947928831,-0.0956739525999979,-1.24120526038493,NaN,-0.353990133617871,-0.980877227848735,1.34703610569173,-1.34703610569257,-0.569206951819059,0.472381936622837,0.0600077941125035,1.02172087332078,NaN,-0.629601686124862,-0.847929991266499,0.401060512678999,0.0431125338183484,0.0431125338183027,NaN,0.649108177650571,-0.092218916911315,NaN,0.402197733094382,NaN,1.22837460213879,-0.195792439220952,-0.19579243922078,1.68058610000865,-1.42338757633129,NaN
1105.1008,0.946824016403831,0.642362663838111,1.26841633170107,0.43458671578978,1.70611043350032,1.70611043349978,NaN,-0.254142369032364,0.39105130760868,-1.20407946050636,-1.2779780984325,-1.20407946050634,-0.524307125577124,1.24380038890282,0.06961157632573,-0.557062009291489,-1.09777838559938,-0.786279089613722,-0.366514253099515,NaN,-0.444095735173752,-0.597183333827718,-0.104062623925471,-1.23660417265444,NaN,-0.322506717082673,-0.955567343030758,1.33736474676181,-1.33736474676266,-0.543556866649036,0.456515627979315,0.0835888271482128,1.03556465766519,NaN,-0.596564654758586,-0.811770652004186,0.434850046390938,0.0104014859187606,0.0104014859186556,NaN,0.633982912165182,-0.110248138236045,NaN,0.431545866092775,NaN,1.19996906393023,-0.197422755009239,-0.19742275500907,1.65548227302301,-1.41125613886389,NaN
1105.2032,0.996954385544742,0.666141570905566,1.32885397130575,0.442305002253026,1.74372804126875,1.74372804126823,NaN,-0.267324964136393,0.38636058246044,-1.23242411215543,-1.25600565083417,-1.2324241121554,-0.552901234727267,1.22673157349866,0.0298549540868958,-0.580489584725415,-1.08852201193371,-0.803952644629099,-0.386869590189798,NaN,-0.461133739018753,-0.584709217479803,-0.112153726781772,-1.23066737319056,NaN,-0.289646226391486,-0.929602393163816,1.32702521925738,-1.32702521925824,-0.515911281669907,0.439998701932533,0.107039362574865,1.04791118471191,NaN,-0.562707718204553,-0.774371159853069,0.469620538362313,-0.0214877065261539,-0.0214877065263119,NaN,0.616433395045144,-0.128985601555599,NaN,0.459151831984341,NaN,1.17137899334953,-0.199794778089236,-0.199794778089065,1.62897622205092,-1.39846830866466,NaN
1105.3056,1.04742172334445,0.688780246696362,1.38884402327288,0.449036842264151,1.77906607280389,1.77906607280339,NaN,-0.279765967079834,0.38056468962738,-1.2587567031645,-1.23424938979767,-1.25875670316448,-0.582057922656195,1.20957449811205,-0.0105568704252067,-0.604864830167956,-1.08002097746091,-0.822654903589354,-0.408270853959594,NaN,-0.479375196386802,-0.571836960375339,-0.119907239106058,-1.22338632319081,NaN,-0.255427199581775,-0.903024481500945,1.31597994063772,-1.31597994063858,-0.486341418973009,0.422833731954155,0.130328262410504,1.05870681787729,NaN,-0.528059818407825,-0.735791808951298,0.505237190309836,-0.0524441359958441,-0.0524441359960507,NaN,0.596639821537865,-0.148301788025208,NaN,0.485054311542038,NaN,1.14262874827845,-0.202805906535631,-0.202805906535453,1.60105457196127,-1.38500049219047,NaN
1105.408,1.09812677176184,0.710312384005506,1.4483198713745,0.454821195143025,1.81220377705514,1.81220377705467,NaN,-0.291475865065727,0.373717715100145,-1.28312063354038,-1.212688303625,-1.28312063354036,-0.611733671699787,1.19239660739138,-0.0515421192083986,-0.630196146654448,-1.0722295219661,-0.842380416320555,-0.430695400568361,NaN,-0.498776377399882,-0.558606888461733,-0.12728580014167,-1.21475850085965,NaN,-0.219872076316986,-0.875872562016516,1.30419370158567,-1.30419370158652,-0.454923954415592,0.405027134972633,0.153425705919021,1.06790779344868,NaN,-0.492652741377943,-0.696092478818895,0.541559558744149,-0.0823629885445685,-0.0823629885448213,NaN,0.574786173776593,-0.168068159294303,NaN,0.509297292751408,NaN,1.11374361513439,-0.206351919854761,-0.206351919854575,1.57170689679352,-1.37083037442103,NaN
1105.5104,1.148966091121,0.730774204945491,1.50721282184025,0.459700553609563,1.84322270778649,1.84322270778603,NaN,-0.30246727729938,0.365878119864302,-1.30556547375574,-1.19130164273114,-1.30556547375572,-0.641879050924228,1.17526586657747,-0.0930123362635415,-0.656484783187632,-1.06509803644551,-0.863116483368399,-0.454110665710143,NaN,-0.519283531942399,-0.545059685286217,-0.134254756040664,-1.20478725025734,NaN,-0.183007284374194,-0.848182180461382,1.29163389376354,-1.29163389376439,-0.421740740707538,0.386589354554529,0.176303231247094,1.07548065134802,NaN,-0.456521096258338,-0.655332263379488,0.578442466620776,-0.111145867212909,-0.11114586721321,NaN,0.55105934748534,-0.188157854578854,NaN,0.53192966255738,NaN,1.0847498016552,-0.210327682343569,-0.210327682343371,1.54092605132748,-1.35593719235466,NaN
1105.6128,1.19983243130376,0.75020424558028,1.56545229378791,0.46372073921054,1.87220622240639,1.87220622240595,NaN,-0.312754893408732,0.357108451436117,-1.3261465214909,-1.17006913891537,-1.32614652149088,-0.672438873646561,1.1582504933462,-0.134872695931906,-0.683724911708071,-1.05857377050022,-0.884843417258983,-0.478474435502488,NaN,-0.540833323389016,-0.531236240806895,-0.140782186695627,-1.19348157128924,NaN,-0.144863328204244,-0.81998525466258,1.27827072103251,-1.27827072103336,-0.386878547227349,0.367535001511879,0.198933778408453,1.08140258652267,NaN,-0.419702310503438,-0.613569131485081,0.615736989707406,-0.138701055554634,-0.138701055554989,NaN,0.525648274926173,-0.208446365918543,NaN,0.553004758627885,NaN,1.05567442090466,-0.214627852074316,-0.214627852074114,1.50870851008224,-1.34030201789226,NaN
1105.7152,1.25061514323802,0.768643133652387,1.62296604114502,0.466930670194448,1.89923900472287,1.89923900472245,NaN,-0.322355411216939,0.34747502285319,-1.34492431894382,-1.14897123839635,-1.34492431894381,-0.703352413556829,1.14141865108337,-0.177022394550675,-0.711903766395709,-1.05260158664748,-0.907534872381319,-0.503735214477143,NaN,-0.563353364544482,-0.517177491240765,-0.146838912040521,-1.18085585437209,NaN,-0.105474881086928,-0.79130988197138,1.26407738267704,-1.26407738267789,-0.350428821118667,0.347882943127454,0.221291736389937,1.08566170923784,NaN,-0.3822366382003,-0.570859611878778,0.653291509015548,-0.164943746405563,-0.164943746405951,NaN,0.498743040210587,-0.228812183788362,NaN,0.572579879188617,NaN,1.02654546791021,-0.219147583851826,-0.219147583851617,1.47505470778927,-1.32390804641478,NaN
1105.8176,1.30120062604383,0.786133361257295,1.67968040313317,0.469382102957103,1.92440660895144,1.92440660895103,NaN,-0.331287468940703,0.33704756142151,-1.36196413799309,-1.1279893375524,-1.36196413799307,-0.734553679649495,1.12483811002194,-0.219355122353204,-0.741001840173379,-1.04712475206332,-0.931158234696251,-0.529832684083813,NaN,-0.586762846799579,-0.502924255546385,-0.152398477368129,-1.16692956860103,NaN,-0.064880880450762,-0.762180175497976,1.24903021931851,-1.24903021931937,-0.312487461802919,0.327656341399443,0.243352985640407,1.08825719860038,NaN,-0.344167174173233,-0.527258504338605,0.690952805353558,-0.189796248802757,-0.189796248803182,NaN,0.470533994617212,-0.249137408810814,NaN,0.590715760089275,NaN,0.997391790169821,-0.223783218221199,-0.223783218220978,1.43996937035498,-1.30674088239742,NaN
1105.92,1.35147280372369,0.802719052238681,1.73552057769978,0.471129348915322,1.94779501943369,1.9477950194333,NaN,-0.339571558017044,0.325898826413483,-1.37733544285245,-1.10710600492534,-1.37733544285242,-0.765971741699741,1.10857588728723,-0.261759600987947,-0.770993121366793,-1.04208574461031,-0.955675050113432,-0.556698234358265,NaN,-0.610973238875792,-0.488517068024468,-0.157437123921543,-1.15172691464934,NaN,-0.0231246192351865,-0.732616143473881,1.23310881696747,-1.23310881696834,-0.273154589496308,0.306882645103701,0.265094924539707,1.08919933709005,NaN,-0.305539858223728,-0.482818628755589,0.728567161018246,-0.213188166290478,-0.213188166290941,NaN,0.441210887514305,-0.269308329449248,NaN,0.60747604254552,NaN,0.968243057500738,-0.228432952679953,-0.228432952679728,1.40346182382248,-1.28878881189942,NaN
1106.0224,1.40131362921645,0.818445723790115,1.79041091561025,0.472228969535821,1.96949022418543,1.96949022418505,NaN,-0.347229900414262,0.314104189297696,-1.39111133778707,-1.08630517640943,-1.39111133778705,-0.797531094978681,1.09269787812697,-0.304120168100723,-0.80184535097662,-1.03742704094521,-0.981041465702609,-0.584255549755795,NaN,-0.635889029096626,-0.473996000649398,-0.161933756814918,-1.13527645469577,NaN,0.0197461770276789,-0.70263362971885,1.21629607674886,-1.21629607674973,-0.232534289214134,0.285593540099454,0.286496475938541,1.088509427258,NaN,-0.266403451976843,-0.43759062790063,0.765981435858625,-0.235056523955698,-0.235056523956192,NaN,0.410962029582357,-0.289215967473703,NaN,0.622926760670626,NaN,0.939129740961039,-0.232997490839032,-0.232997490838798,1.3655462750263,-1.27004305525879,NaN
1106.1248,1.4506036201194,0.833360045476096,1.84427524115891,0.472739454374498,1.98957780810085,1.98957780810048,NaN,-0.354286281097006,0.3017411682187,-1.40336800272962,-1.06557231400324,-1.4033680027296,-0.829152055057403,1.07726849078436,-0.346317392669367,-0.83352029000365,-1.03309185420295,-1.00720866558708,-0.612421239464719,NaN,-0.661408494813809,-0.459400471266581,-0.165869919558519,-1.11761073065657,NaN,0.0636792943012316,-0.672244328520822,1.19857827000214,-1.19857827000301,-0.190734320647867,0.263824860870848,0.307538078454543,1.08621960516515,NaN,-0.226809477798971,-0.391622835369375,0.803044099468522,-0.255345822899935,-0.255345822900461,NaN,0.379973501386441,-0.308756593521266,NaN,0.637135868966691,NaN,0.910083107201735,-0.23738066438935,-0.237380664389107,1.32624206603133,-1.25049799776213,NaN
1106.2272,1.49922243517385,0.847509601398465,1.89703721139164,0.47272088850137,2.00814257639405,2.00814257639369,NaN,-0.360765836041234,0.288888913361177,-1.41418411823142,-1.04489452142811,-1.4141841182314,-0.860751178198278,1.06235029306315,-0.388228712081316,-0.86597399903072,-1.02902479465224,-1.03412329603414,-0.641105513450431,NaN,-0.687424494213435,-0.444769037544585,-0.16922978149017,-1.09876588274382,NaN,0.108618000304873,-0.641455880693619,1.17994509793095,-1.17994509793183,-0.14786578951905,0.241616464041823,0.328201670893615,1.08237256772606,NaN,-0.186812114454076,-0.344961213479794,0.839606214845658,-0.274008014792931,-0.274008014793492,NaN,0.34842841421822,-0.327832216110045,NaN,0.650172817565241,NaN,0.88113522839468,-0.241490024827184,-0.241490024826939,1.28557390726792,-1.23015139817993,NaN
1106.3296,1.5470495016653,0.860942659757489,1.94862072570657,0.472234614963722,2.02526821728193,2.02526821728157,NaN,-0.366694800461744,0.275627643836192,-1.42364028515464,-1.02426061420807,-1.42364028515463,-0.892241710067357,1.04800367137783,-0.42972909351128,-0.899157142963082,-1.02517243893939,-1.06172788689641,-0.670212913498083,NaN,-0.713825285970139,-0.430139173884357,-0.172000149133208,-1.07878128485884,NaN,0.154501049894868,-0.610272050022776,1.160389766316,-1.1603897663169,-0.104042774946031,0.219012062407251,0.348470676538143,1.07702122383976,NaN,-0.146468042602437,-0.29764936030626,0.875522375148527,-0.291002400146736,-0.291002400147336,NaN,0.316506223100066,-0.346351050731271,NaN,0.662108177008254,NaN,0.852319004809957,-0.245237407114904,-0.245237407114653,1.24357209089154,-1.20900457481835,NaN
1106.432,1.59396469618105,0.873707951456964,1.99895038910045,0.47134289520187,2.04103700756282,2.04103700756246,NaN,-0.372100222660575,0.262038038465394,-1.43181845004258,-1.00366114626844,-1.43181845004257,-0.923534072019922,1.03428649883291,-0.470691731402492,-0.933015341805254,-1.02148381274382,-1.08996128878497,-0.699643111623744,NaN,-0.740495390101496,-0.415547028347884,-0.174170513008081,-1.05769921407029,NaN,0.201262734428955,-0.578692967899155,1.13990908158403,-1.13990908158494,-0.059381905700516,0.196059019565329,0.368329988260127,1.07022827127372,NaN,-0.105836235745896,-0.249728577715107,0.910651597362035,-0.30629546569112,-0.306295465691749,NaN,0.284382083888991,-0.364227977241474,NaN,0.673013307565981,NaN,0.823668191862104,-0.248539474082016,-0.24853947408176,1.20027268030285,-1.18706256727095,NaN
1106.5344,1.63984906174264,0.885854456735752,2.04795201320832,0.470108567899227,2.0555295572775,2.05552955727715,NaN,-0.377009655354247,0.248200595789258,-1.43880134915437,-0.983088399427651,-1.43880134915435,-0.954536389604173,1.02125381045757,-0.51098878704877,-0.967489582837346,-1.01791080765904,-1.11875914503111,-0.72929177410719,NaN,-0.767316495140737,-0.401027168291333,-0.175733126853543,-1.03556456332839,NaN,0.24883297330256,-0.546715423684897,1.11850357213498,-1.1185035721359,-0.0140018813823967,0.172808111489194,0.387765948870439,1.06206570097874,NaN,-0.0649777069056759,-0.201237985160346,0.944858171896757,-0.319860694707448,-0.319860694708109,NaN,0.252226242084356,-0.381384984187888,NaN,0.68296005649018,NaN,0.795217415512853,-0.251318249816802,-0.251318249816532,1.15571766679459,-1.16433427077618,NaN
1106.6368,1.68458552649518,0.897431196241416,2.09555312165266,0.468594706979839,2.06882458329248,2.06882458329213,NaN,-0.381450844197061,0.23419499693149,-1.44467198136383,-0.9625363453984,-1.44467198136382,-0.985155052670451,1.00895748845044,-0.550492157307035,-1.0025166863505,-1.01440854928074,-1.14805439637786,-0.759051460441421,NaN,-0.794168389834491,-0.386612334930778,-0.176683099896303,-1.01242459494802,NaN,0.297137436096181,-0.514333176561532,1.09617763548649,-1.09617763548742,0.031977058155862,0.149313268065444,0.406766316387091,1.05261423448684,NaN,-0.0239552359724709,-0.152214663348629,0.978012454309025,-0.331678395295653,-0.331678395296353,NaN,0.220203445819052,-0.397751579706636,NaN,0.692020464143943,NaN,0.767002159039326,-0.253501637496169,-0.253501637495887,1.10995508169703,-1.14083253984773,NaN
1106.7392,1.72805959182582,0.908487023450418,2.14168342894414,0.466864281525618,2.08099870282387,2.08099870282353,NaN,-0.385451429579349,0.220099501043479,-1.44951311415384,-0.942000589395141,-1.44951311415382,-1.01529528773609,0.99744596148718,-0.589074249382997,-1.03802979765844,-1.01093571220135,-1.1777777936312,-0.788812514014144,NaN,-0.820929880097034,-0.372333225862905,-0.177018479385543,-0.988328723670946,NaN,0.346097687301208,-0.481537271198617,1.07293971519757,-1.07293971519851,0.0784337032071049,0.125631308915306,0.425320201970992,1.04196269888189,NaN,0.0171668996190978,-0.102693816969554,1.00999158049172,-0.34173557953026,-0.341735579530984,NaN,0.188472384846996,-0.413265137816489,NaN,0.700266473516412,NaN,0.739058712277341,-0.255023902872711,-0.25502390287242,1.06303905482205,-1.11657425902292,NaN
1106.8416,1.77015997669833,0.919070419180995,2.18627528161057,0.464979821045851,2.09212624496769,2.09212624496735,NaN,-0.389038667368675,0.205990380452668,-1.45340682173571,-0.921478300873298,-1.45340682173569,-1.0448617272216,0.98676392002198,-0.626608744020326,-1.07395887814431,-1.00745476466561,-1.20785838994096,-0.818463916642511,NaN,-0.84747966071515,-0.358218316914934,-0.176740304151266,-0.96332831172862,NaN,0.395631356702777,-0.448316350968393,1.04880251523794,-1.04880251523889,0.1252464632493,0.101821682674273,0.443417972667508,1.03020734220442,NaN,0.0583231833033893,-0.0527089513407698,1.04068009857451,-0.350025896657939,-0.350025896658684,NaN,0.157185162717851,-0.42787115637578,NaN,0.707769652240635,NaN,0.711424083080713,-0.2558261009394,-0.2558261009391,1.01502981675743,-1.09158038118703,NaN
1106.944,1.81077921916372,0.929229290599957,2.22926406398922,0.463003087738289,2.102279081881,2.10227908188066,NaN,-0.392239169617961,0.191941392134424,-1.45643405408315,-0.900968133555175,-1.45643405408314,-1.07375896590806,0.976952049709756,-0.662971335539864,-1.11023117810064,-1.00393213402018,-1.23822399534949,-0.847894096506332,NaN,-0.87369712842263,-0.344293725292576,-0.175852615967203,-0.93747645369801,NaN,0.445652343670746,-0.414656973176625,1.02378324859202,-1.02378324859298,0.17229395133559,0.0779462116602191,0.461051121846705,1.0174510984468,NaN,0.0994471097882838,-0.00229206211571428,1.06997052066513,-0.356549600861234,-0.356549600861985,NaN,0.126486808880953,-0.441523419659147,NaN,0.714600937770223,NaN,0.68413587445979,-0.255856431000733,-0.255856431000429,0.965993645809898,-1.06587593519183,NaN
1107.0464,1.84981424040107,0.939010774330957,2.27058857321207,0.460994755742203,2.11152648041011,2.11152648040977,NaN,-0.395078665137717,0.178023287145767,-1.45867423729133,-0.880470133200868,-1.45867423729131,-1.10189209945993,0.96804678875474,-0.69804044016123,-1.14677168307701,-1.00033829708264,-1.26880158759407,-0.876991684545141,NaN,-0.899463132812255,-0.33058310380571,-0.174362429340804,-0.910827734644934,NaN,0.496071058563095,-0.380543933843842,0.997903899528217,-0.997903899529194,0.219455554706562,0.0540688376695413,0.47821212071387,1.00380281910122,NaN,0.140471431191124,0.0485261599622131,1.09776379275368,-0.361313530969492,-0.361313530970239,NaN,0.0965148342513599,-0.454184070902411,NaN,0.720830406110208,NaN,0.657232131649113,-0.255070518072794,-0.255070518072481,0.916002755186761,-1.0394900011731,NaN
1107.1488,1.88716688001689,0.948461042109266,2.31019137016618,0.459014098018289,2.11993497634939,2.11993497634905,NaN,-0.397581777380511,0.164303361294396,-1.46020490405325,-0.859985626376645,-1.46020490405324,-1.12916724663046,0.960080119927055,-0.73169786884956,-1.18350353198842,-0.996647800693696,-1.29951767911552,-0.905646217380419,NaN,-0.924660665954072,-0.317107550845696,-0.172279674931257,-0.883437964454893,NaN,0.546794698370165,-0.345960606598274,0.971191475873497,-0.971191475874484,0.266612001392409,0.0302553591702085,0.494894270038617,0.989376488567737,NaN,0.181328401371384,0.0997161047797211,1.12396967814918,-0.364331082804702,-0.364331082805452,NaN,0.0673988329493563,-0.465823603370966,NaN,0.726527055509538,NaN,0.630751164740841,-0.253431625665061,-0.253431625664735,0.865135109782269,-1.01245564750498,NaN
1107.2512,1.92274441331326,0.957625111115981,2.34801911740627,0.457118682065137,2.12756827658451,2.12756827658418,NaN,-0.399771818880388,0.150845047700891,-1.4611013516007,-0.839517081121345,-1.46110135160069,-1.15549206208353,0.953079409482722,-0.763829465928501,-1.22034841156384,-0.992839213060772,-1.33029864439903,-0.933748790844774,NaN,-0.949175494535776,-0.30388553002778,-0.169617131115545,-0.855363905943882,NaN,0.597727557712596,-0.310889299433926,0.943678236965048,-0.943678236966042,0.313645936725069,0.0065731482280243,0.5110915693398,0.974290433414937,NaN,0.221950022734971,0.151248993067663,1.14850706185189,-0.365622156092025,-0.365622156092765,NaN,0.0392601353177578,-0.476420776502418,NaN,0.731758600209176,NaN,0.604731352808453,-0.250910801234084,-0.250910801233745,0.813474163410935,-0.98480982385675,NaN
1107.3536,1.95646005586428,0.966546664791939,2.38402291260237,0.455364073484129,2.13448719466442,2.13448719466408,NaN,-0.401670610104997,0.137707555619818,-1.46143632655541,-0.81906793576056,-1.46143632655539,-1.18077624745265,0.947067298906974,-0.794325718684547,-1.25722693879004,-0.988895007409816,-1.36107101814031,-0.961192674038543,NaN,-0.972896741729721,-0.290932807448204,-0.166390342387154,-0.826663007976686,NaN,0.648771384764868,-0.275311632166445,0.915401885300895,-0.915401885301903,0.360442512872372,-0.0169091559438117,0.526798607225866,0.95866652647142,NaN,0.26226830222535,0.203096600703784,1.17130419638353,-0.365213062308886,-0.365213062309595,NaN,0.0122115165011966,-0.485962460424594,NaN,0.736591278588434,NaN,0.579210930504697,-0.247486946823942,-0.247486946823583,0.761108513978574,-0.956593209331093,NaN
1107.456,1.98823345124377,0.975267890225642,2.41815861780889,0.453803544982486,2.14074962314324,2.1407496231429,NaN,-0.403298337386573,0.124945564059213,-1.46127973838195,-0.79864240348866,-1.46127973838194,-1.20493206467304,0.942061643036021,-0.8230823456446,-1.294059045334,-0.984801383244768,-1.39176177779204,-0.987873894147447,NaN,-0.995717427668979,-0.278262421943303,-0.162617508995699,-0.797393140041347,NaN,0.699825789578984,-0.239208929587206,0.886405702055448,-0.88640570205647,0.406889980619866,-0.0401219644342943,0.542010458686622,0.942629382835444,NaN,0.302215521184549,0.255230968087727,1.19229890743877,-0.363136390338967,-0.36313639033965,NaN,-0.0136430414835437,-0.494443408656687,NaN,0.74108968115354,NaN,0.554227752029437,-0.2431468032955,-0.243146803295132,0.708131479592808,-0.927850018592489,NaN
1107.5584,2.01799113325503,0.983829335069672,2.45038717876179,0.452487792907962,2.14641053955552,2.14641053955519,NaN,-0.404673465932593,0.112608975402106,-1.46069840259813,-0.778245271585022,-1.46069840259812,-1.22787484754131,0.938075479292193,-0.850000866971439,-1.33076437077647,-0.980548032728017,-1.42229861848192,-1.01369179509349,NaN,-1.01753497409052,-0.265884704395017,-0.158319328391228,-0.767612318416579,NaN,0.750788698904873,-0.202562616718945,0.856738594754511,-0.856738594755548,0.452880263935187,-0.0629950479502313,0.55672257029401,0.926305548783699,NaN,0.341724519366657,0.307624110058617,1.21143876337134,-0.359430836359743,-0.35943083636041,NaN,-0.0382085410499166,-0.501865958812181,NaN,0.745316593782192,NaN,0.529819029089502,-0.237884841795154,-0.237884841794775,0.654640601913737,-0.898627771282925,NaN
1107.6608,2.04566695648998,0.992269780117884,2.48067492614562,0.451464671543645,2.15152203046993,2.1515220304696,NaN,-0.405812725910312,0.100742734242095,-1.4597558112488,-0.757881717999285,-1.45975581124879,-1.24952349791456,0.935117019074345,-0.874989146840473,-1.36726265810199,-0.976127861806021,-1.45261021731116,-1.03854956199965,NaN,-1.03825167093059,-0.253807362465642,-0.153518768035749,-0.737378412714819,NaN,0.801556841108252,-0.16535460176728,0.826455011513944,-0.826455011514994,0.498309499513528,-0.0854578253629371,0.570930626760028,0.909822695559828,NaN,0.380728994995811,0.360247736586966,1.22868119683315,-0.354141003855035,-0.354141003855678,NaN,-0.0613991182108955,-0.508239662906513,NaN,0.749332835550228,NaN,0.506021047967489,-0.231703063014017,-0.231703063013631,0.600737083212178,-0.868977029493249,NaN
1107.7632,2.07120249113862,1.00062611802119,2.50899384892877,0.450778958511322,2.15613331119033,2.15613331119,NaN,-0.406731187871464,0.0893867241209129,-1.45851192480954,-0.7375571592879,-1.45851192480953,-1.26980094893606,0.933189668563295,-0.897961884978756,-1.4034741337494,-0.971536676432299,-1.48262647461715,-1.06235469536441,NaN,-1.0577750945694,-0.242035645986817,-0.148240751914798,-0.70674882494613,NaN,0.852026247512911,-0.127567635325924,0.795614679506022,-0.795614679507084,0.543078533075157,-0.10743962774615,0.584630407498319,0.89330884150667,NaN,0.419163828729378,0.413072991977678,1.24399355637508,-0.347317172236051,-0.347317172236684,NaN,-0.0831381490041695,-0.513580846513754,NaN,0.753197063280295,NaN,0.482868876916672,-0.224610704788437,-0.224610704788035,0.546525160246933,-0.838951103434083,NaN
1107.8656,2.09454737468929,1.00893323237124,2.53532182939753,0.450472156940119,2.16029073090862,2.16029073090829,NaN,-0.407442427211425,0.0785757513828021,-1.45702298423403,-0.717277128573333,-1.45702298423402,-1.28863458538118,0.932292090363103,-0.918841040767307,-1.43931985866565,-0.966772846974894,-1.51227872411992,-1.08501942496044,NaN,-1.07601847047443,-0.230572593492699,-0.142511765942368,-0.675780152016932,NaN,0.902092764785781,-0.0891856359411333,0.764282163751908,-0.764282163752983,0.587093367403672,-0.128869940217009,0.597817646318519,0.876891622797537,NaN,0.456965435676467,0.46607022506911,1.25735306746216,-0.339015030061545,-0.339015030062166,NaN,-0.103358312591639,-0.5179121002373,NaN,0.756965529985695,NaN,0.460396076215958,-0.216623863128947,-0.216623863128531,0.492111420198824,-0.808605723382148,NaN
1107.968,2.11565960900604,1.01722388226759,2.55964283295437,0.450582327653794,2.16403777538148,2.16403777538115,NaN,-0.407958754162172,0.068339605589047,-1.45534135227366,-0.697047174394004,-1.45534135227364,-1.30595662634791,0.932418304970481,-0.937556196087862,-1.47472205567302,-0.961836971419623,-1.54149992226593,-1.10646107250983,NaN,-1.09290098928661,-0.219419332591634,-0.136359423706399,-0.644527864669395,NaN,0.951652571542918,-0.0501939772541339,0.732526290714301,-0.732526290715389,0.630265550562804,-0.149678630125081,0.610487901920626,0.860697610753151,NaN,0.494072133189701,0.519208801996172,1.26874669820004,-0.329295376601542,-0.329295376602154,NaN,-0.122001614281366,-0.521261724310019,NaN,0.760691810012224,NaN,0.438634423131625,-0.207765049049379,-0.207765049048945,0.437604077418071,-0.77799868145362,NaN
1108.0704,2.13450579269667,1.0255286038467,2.58194705120083,0.451143941436802,2.16741508795768,2.16741508795736,NaN,-0.408291477129943,0.0587031736448419,-1.45351539545486,-0.676872773213273,-1.45351539545484,-1.32170448132892,0.933557822076399,-0.954044874007543,-1.50960442818265,-0.956731557333222,-1.57022483530435,-1.1266023809205,NaN,-1.10834809312146,-0.208575390542037,-0.12981204703309,-0.61304603282447,NaN,1.00060268450102,-0.0105797444923258,0.700419497476157,-0.70041949747726,0.672512493582273,-0.169796174953625,0.622636442018878,0.84485165535686,NaN,0.530424500775684,0.572456957843217,1.27817094336684,-0.318223805182369,-0.318223805182973,NaN,-0.139019371229266,-0.523663154611165,NaN,0.764426517241642,NaN,0.417613662608591,-0.198062712470789,-0.198062712470351,0.383112240932481,-0.747189452126841,NaN
1108.1728,2.15106128495439,1.03387563862445,2.60223100136274,0.452187750969115,2.17046051945463,2.17046051945431,NaN,-0.408451178791221,0.0496865914496128,-1.45158940940341,-0.656759250984583,-1.45158940940339,-1.33582108143741,0.935695794440575,-0.968252818946741,-1.54389247688578,-0.951460729539564,-1.5983902317576,-1.1453718181559,NaN,-1.12229173872182,-0.198038984529302,-0.122898292361059,-0.581387104528486,NaN,1.04884144090847,0.0296680215274909,0.668037148237099,-0.668037148238213,0.713757719455573,-0.189153902075468,0.634258145943233,0.829476240729317,NaN,0.56596571408059,0.625781667101784,1.28563154971801,-0.305870379480421,-0.305870379481009,NaN,-0.154372159412317,-0.525154385438712,NaN,0.76821704044798,NaN,0.397361290295666,-0.187550751674457,-0.187550751674014,0.328745196988275,-0.716238798744221,NaN
1108.2752,2.16531030155256,1.04229089411707,2.62049758625417,0.453740691771531,2.17320920348093,2.17320920348061,NaN,-0.408448002390715,0.0413054217515834,-1.44960358344939,-0.63671171049093,-1.44960358344936,-1.348255179986,0.938813189038631,-0.980134234760178,-1.57751381508322,-0.946029965212012,-1.62593508132987,-1.16270385719853,NaN,-1.13467063788026,-0.187807287530845,-0.115646823977214,-0.549601733414175,NaN,1.09626895223332,0.0705580792185894,0.63545683815694,-0.635456838158065,0.75393105269563,-0.207684246192807,0.645347432748496,0.814690854575082,NaN,0.600641846059618,0.679148513555564,1.29114320759783,-0.292309304575873,-0.292309304576438,NaN,-0.168029721674672,-0.52577739445953,NaN,0.772107312423513,NaN,0.377902370005345,-0.17626801262864,-0.176268012628188,0.274611713959707,-0.685208367809322,NaN
1108.3776,2.17724594222656,1.05079793630026,2.63675611380653,0.455825819607538,2.17569364763198,2.17569364763166,NaN,-0.408291953501054,0.0335708395228525,-1.44759400207122,-0.616734964268237,-1.44759400207119,-1.35896162343773,0.942886966978464,-0.989651986198144,-1.61039848918547,-0.940445868631258,-1.65280076930076,-1.17853923975805,NaN,-1.14543048376058,-0.177876675382408,-0.108086026193171,-0.517738649052068,NaN,1.14278752675142,0.112096742622841,0.602757699195078,-0.60275769919621,0.792968756255321,-0.225321024227736,0.655898217279632,0.800611376656821,NaN,0.634402131332894,0.732521556256742,1.29472923103799,-0.277618595319238,-0.277618595319788,NaN,-0.179970843829154,-0.525577578542604,NaN,0.776137622015821,NaN,0.359259383503706,-0.164257781690711,-0.164257781690239,0.22081936454374,-0.654160268916184,NaN
1108.48,2.18687014472865,1.05941800662041,2.6510222671622,0.458462280380218,2.17794383141281,2.17794383141249,NaN,-0.407993214916466,0.0264898045091315,-1.4455926850758,-0.596833474732052,-1.44559268507577,-1.3679016051965,0.947890264903815,-0.996777780999933,-1.64247931371858,-0.934716003803388,-1.67893133952425,-1.19282523445224,NaN,-1.15452417649881,-0.168242952141417,-0.100243751919583,-0.485844560231553,NaN,1.18830205834179,0.154287654665529,0.570019721383595,-0.570019721384733,0.830813621191261,-0.241999725762835,0.665903890594991,0.787349483183463,NaN,0.667199187006909,0.785863203805569,1.29642123481609,-0.261879749908017,-0.261879749908563,NaN,-0.190183210183354,-0.524603210303758,NaN,0.780344470577284,NaN,0.341452105826228,-0.151567275955237,-0.15156727595475,0.167473861481097,-0.623156638190739,NaN
1108.5824,2.19419356279573,1.06817005374681,2.66331801642206,0.461665299239807,2.17998730622683,2.17998730622651,NaN,-0.407562460490871,0.0200652121580012,-1.44362766914441,-0.577011300401122,-1.44362766914438,-1.37504291566795,0.953792579089982,-1.00149234656285,-1.67369222146585,-0.928848789812018,-1.70427376793124,-1.20551589200922,NaN,-1.1619120515393,-0.15890154728491,-0.0921471077351231,-0.453964080159455,NaN,1.23272038164658,0.197131589662268,0.537323099723855,-0.537323099724991,0.86741501396799,-0.257657820462548,0.675357321107146,0.77501205751031,NaN,0.698989185442876,0.839134111536675,1.29625879683574,-0.245177430724109,-0.245177430724646,NaN,-0.198663246240074,-0.52290491984335,NaN,0.784760467199276,NaN,0.324497497044575,-0.138247131852879,-0.138247131852366,0.114678414156592,-0.592259188199182,NaN
1108.6848,2.19923537486497,1.07707077317037,2.67367147362915,0.465446176231717,2.18184929893724,2.18184929893691,NaN,-0.407011151908511,0.014296025870543,-1.44172312970374,-0.557272044859084,-1.44172312970371,-1.38036019247386,0.960559960044747,-1.00378560138871,-1.70397661903184,-0.92285344331078,-1.72877825381077,-1.21657229129571,NaN,-1.16756210159722,-0.149847686197488,-0.0838222734148517,-0.422139672154042,NaN,1.2759535959063,0.240626282227498,0.504747621653817,-0.504747621654953,0.902728879443469,-0.272235087338373,0.684250876003351,0.763700596971071,NaN,0.729731982483573,0.892293102579113,1.29428908770783,-0.227599145979087,-0.227599145979614,NaN,-0.205415947183904,-0.52053520287139,NaN,0.789414251544718,NaN,0.308409602395952,-0.124350894157234,-0.124350894156708,0.0625331221313527,-0.56152875458556,NaN
1108.7872,2.2020230366558,1.08613465161499,2.68211670072548,0.469812284141286,2.18355282215876,2.18355282215843,NaN,-0.406351807149877,0.00917739912996891,-1.43989953768308,-0.537618808296321,-1.43989953768305,-1.38383516436862,0.968155222213869,-1.00365681195394,-1.73327573457489,-0.916739945226083,-1.7523985110481,-1.22596276763557,NaN,-1.17145018030235,-0.141076542698752,-0.0752943505636269,-0.390411620620363,NaN,1.31791635754373,0.284766267481331,0.472372114067084,-0.472372114068219,0.936717691679267,-0.285673966375266,0.692576460726052,0.753510610670183,NaN,0.759391207070335,0.945297098075125,1.29056646098864,-0.209234929388853,-0.209234929389377,NaN,-0.210454684473955,-0.51754795551976,NaN,0.794330433797502,NaN,0.29319945495472,-0.109934513404894,-0.109934513404346,0.0111344210877341,-0.531024854413004,NaN
1108.8896,2.2025919870328,1.09537401616541,2.68869347883579,0.474767073896132,2.18511879007775,2.18511879007742,NaN,-0.40559823039286,0.00470079880101046,-1.43817384312697,-0.518054145885111,-1.43817384312695,-1.38545687571161,0.976538165495644,-1.0011147224414,-1.76153694447201,-0.910519016301764,-1.7750920436135,-1.2336631146337,NaN,-1.17356017841103,-0.132583383080952,-0.0665872331208089,-0.358818029700399,NaN,1.35852713869751,0.329542718661294,0.440273955010725,-0.440273955011863,0.969350349390429,-0.297919923016261,0.700325569067943,0.744531012509073,NaN,0.787934312498665,0.998101041707818,1.2851520100558,-0.190177022353347,-0.190177022353869,NaN,-0.213800983972822,-0.51399803381167,NaN,0.79952955069824,NaN,0.278874979631919,-0.0950558593569046,-0.0950558593563437,-0.0394254084113456,-0.500805272674688,NaN
1108.992,2.20098531132004,1.10479909026102,2.69344704401896,0.480310099913957,2.18656613604127,2.18656613604094,NaN,-0.404765696783224,0.000854140928553318,-1.43655967624333,-0.49858003639896,-1.43655967624331,-1.38522187516782,0.985665805795041,-0.996177641052613,-1.7887120654561,-0.9042020934289,-1.79682039143261,-1.23965674962849,NaN,-1.1738841631454,-0.124363704590327,-0.0577234979657723,-0.327394851250496,NaN,1.39770845212952,0.37494327866978,0.408528637120155,-0.408528637121297,1.00060202138338,-0.308921812268417,0.70748933827383,0.736843524361482,NaN,0.8153325896923,1.05065781657076,1.27811310083884,-0.170519560235468,-0.170519560235998,NaN,-0.215484270952515,-0.509940832703073,NaN,0.805028044675674,NaN,0.265440904622673,-0.0797742524437395,-0.0797742524431545,-0.0890586646808897,-0.470925689135292,NaN
1109.0944,2.19725336657763,1.1144180595142,2.69642779546294,0.486437080900496,2.18791193110628,2.18791193110596,NaN,-0.403871097145935,-0.00237805374993347,-1.43506755589151,-0.479197859673009,-1.43506755589149,-1.38313435263661,0.995492620718913,-0.988873462423877,-1.81475760052789,-0.897801300713122,-1.81754933485052,-1.24393483312353,NaN,-1.17242246907179,-0.116413361953978,-0.0487243215847405,-0.296175942609788,NaN,1.43538705155138,0.420951893254149,0.377209370088815,-0.377209370089957,1.03045395221904,-0.318632232780554,0.714058610799058,0.73052211106668,NaN,0.841561152890112,1.10291816442542,1.2695228882959,-0.150358257483607,-0.150358257484158,NaN,-0.215541575706904,-0.505431878559588,NaN,0.810838270558382,NaN,0.25289869264106,-0.0641500119443942,-0.0641500119437851,-0.13768258725115,-0.441439341644229,NaN
1109.1968,2.19145337532084,1.12423714941845,2.69769098327387,0.493140010299973,2.1891715048341,2.18917150483378,NaN,-0.402933049632356,-0.00501448089803535,-1.4337050971087,-0.459908378725357,-1.43370509710869,-1.37920621261069,1.0059708192177,-0.979239608838303,-1.83963493502251,-0.891329414115313,-1.83724905423798,-1.24649633759375,NaN,-1.16918373332269,-0.108728673801249,-0.0396094264534157,-0.265193147116349,NaN,1.47149412036054,0.467548659879556,0.34638672113991,-0.346386721141055,1.05889324100372,-0.327007863453249,0.720024005711161,0.725632467173008,NaN,0.866598914395062,1.15483062155258,1.25945982439366,-0.129790087300602,-0.129790087301173,NaN,-0.214017193995858,-0.50052643292952,NaN,0.816968527204324,NaN,0.241246504637998,-0.048244021411548,-0.0482440214109117,-0.185219673607431,-0.41239670660077,NaN
1109.2992,2.18364899254461,1.13426071467702,2.69729638002983,0.500407322462527,2.1903585664867,2.19035856648639,NaN,-0.401971969940137,-0.00707684527466973,-1.43247721488013,-0.440711724057852,-1.43247721488011,-1.37345708268454,1.01705063540554,-0.967322888726301,-1.86331049251202,-0.884799825420402,-1.85589425470394,-1.2473480712699,NaN,-1.16418488013292,-0.101306507234716,-0.0303970532111497,-0.234476386741732,NaN,1.505965455951,0.514709705216348,0.316128297619594,-0.316128297620736,1.08591260435324,-0.334009777628953,0.725375999137294,0.722231563834973,NaN,0.890428559060194,1.20634148163725,1.24800716505322,-0.108912957748279,-0.108912957748856,NaN,-0.210962303308853,-0.495279113985162,NaN,0.823423109743629,NaN,0.230479200868954,-0.0321173158800722,-0.0321173158794109,-0.231597960952982,-0.383845183650677,NaN
1109.4016,2.17390984691086,1.14449133693485,2.69530793475323,0.508224105605443,2.19148532114239,2.19148532114209,NaN,-0.401010085088481,-0.00858962175132703,-1.43138632879202,-0.421607381396563,-1.43138632879201,-1.36591426968651,1.02868063696558,-0.953179290899738,-1.88575586680459,-0.878226511611013,-1.87346427165376,-1.24650466922993,NaN,-1.15745106835908,-0.0941443446047335,-0.021103953015462,-0.20405376299466,NaN,1.53874164737778,0.562407096943181,0.286498472470607,-0.28649847247175,1.11151012518644,-0.339603736910146,0.730105011425159,0.720367247535634,NaN,0.91303651732501,1.25739478791424,1.23525247943749,-0.0878253885283872,-0.0878253885289789,NaN,-0.206434545576124,-0.489743547265775,NaN,0.830202383245769,NaN,0.220588371426022,-0.0158306964626728,-0.0158306964619847,-0.276751270096187,-0.355828792062107,NaN
1109.504,2.1623110553474,1.15492992597341,2.69179340538542,0.516572340187244,2.19256257654211,2.19256257654182,NaN,-0.40007139609008,-0.00957979240955594,-1.43043257582184,-0.402594186338042,-1.43043257582183,-1.35661268018183,1.04080803560093,-0.936873739108941,-1.90694793809184,-0.871624010764147,-1.88994316446103,-1.24398855953217,NaN,-1.14901561225108,-0.0872403348800749,-0.0117453995317337,-0.173951669183559,NaN,1.56976823776271,0.61060878628751,0.257558145309047,-0.257558145310191,1.13568898074005,-0.343760470374227,0.734201497230074,0.720077872409859,NaN,0.93441292876412,1.30793234919954,1.22128715854555,-0.0666261896299331,-0.0666261896305312,NaN,-0.200497591788146,-0.483972053887274,NaN,0.837302882583715,NaN,0.211562379784372,0.00055562569401327,0.000555625694725481,-0.320619403515492,-0.328387896522748,NaN
1109.6064,2.148932712039,1.16557582009663,2.68682396783453,0.525431142251238,2.19359984016037,2.19359984016008,NaN,-0.399181620277192,-0.0100765765961977,-1.42961403450419,-0.383670328608523,-1.42961403450418,-1.34559471226795,1.05337898929761,-0.918479819676285,-1.92686896899409,-0.865007402578368,-1.90531979405472,-1.23982990305507,NaN,-1.13891987665656,-0.0805933226540677,-0.00233522822724546,-0.144194916838442,NaN,1.59899586092404,0.659278570927504,0.229364522117394,-0.22936452211854,1.15845714528079,-0.346455939735483,0.737656032284477,0.721391953361704,NaN,0.954551590137355,1.35789377085195,1.20620591669557,-0.0454141389984008,-0.0454141389990036,NaN,-0.193220699471286,-0.478015377484153,NaN,0.844717439974962,NaN,0.203386405397808,0.0169823572017962,0.0169823572025298,-0.363148294272974,-0.301558974752963,NaN
1109.7088,2.13385935455526,1.17642688404367,2.68047380295759,0.534777003833383,2.19460540723685,2.19460540723656,NaN,-0.398368141634795,-0.0101111656963593,-1.42892695842781,-0.364833366019565,-1.4289269584278,-1.33291011336005,1.06633889017174,-0.898079479652615,-1.94550667151545,-0.858392290044799,-1.91958787568627,-1.23406650151027,NaN,-1.12721314160763,-0.0742028429159118,0.00711408674961006,-0.114806875645478,NaN,1.62638034525362,0.708376068477312,0.201970896398512,-0.201970896399662,1.17982706992062,-0.347671583994634,0.740459391226513,0.724327841822775,NaN,0.973449887755118,1.40721649407215,1.19010628151567,-0.0242876538995855,-0.0242876539001904,NaN,-0.18467826489833,-0.471922446788569,NaN,0.852435337131437,NaN,0.196042481686545,0.033391423336991,0.0333914233377437,-0.404290110976356,-0.275374424855289,NaN
1109.8112,2.11717941087579,1.18747960569834,2.67281966567305,0.544584035734337,2.19558644033532,2.19558644033505,NaN,-0.397659970653596,-0.00971646105504663,-1.4283660136734,-0.346080245148621,-1.4283660136734,-1.31861579386845,1.07963263684275,-0.875762685091126,-1.9628542355647,-0.851794776097116,-1.93274599708997,-1.22674366672972,NaN,-1.11395242746805,-0.0680690815453158,0.0165913193665425,-0.0858096243767231,NaN,1.65188278519081,0.757856699465898,0.175426429830158,-0.175426429831314,1.19981534506789,-0.34739453539309,0.742602616446669,0.728893439817361,NaN,0.991108717636861,1.4558358447951,1.17308807305411,-0.00334445113479939,-0.00334445113540027,NaN,-0.174949365910646,-0.465740167771439,NaN,0.860442480892029,NaN,0.18950953542775,0.0497262455043927,0.0497262455051751,-0.444003329300836,-0.249862398975367,NaN
1109.9136,2.09898463308955,1.19872919436568,2.66394044318806,0.55482422520403,2.19654904146911,2.19654904146884,NaN,-0.397087698400059,-0.0089268074681482,-1.42792451235494,-0.327407323733116,-1.42792451235494,-1.30277558725698,1.09320489557299,-0.851627026952211,-1.97891030980833,-0.845231429290117,-1.94479759240481,-1.21791404261978,NaN,-1.09920226990146,-0.0621928192369914,0.0260863602762956,-0.0572241084309544,NaN,1.67546958521855,0.807671688300464,0.149775945331265,-0.149775945332425,1.21844235287584,-0.345617801852196,0.744077085920995,0.735085976600075,NaN,1.00753239721081,1.50368510128528,1.15525287758879,0.0173188025565485,0.01731880255595,NaN,-0.164117289835508,-0.459513237360741,NaN,0.868721604672435,NaN,0.18376343820003,0.0659320016391976,0.0659320016400047,-0.482252775298595,-0.225046654438006,NaN
1110.016,2.07936952541358,1.21016968313074,2.65391671082812,0.565467721511285,2.19749831739972,2.19749831739947,NaN,-0.396683437588836,-0.0077777207058052,-1.42759463362426,-0.308810390935842,-1.42759463362426,-1.2854599498608,1.10700035696648,-0.825777263975762,-1.9936789311235,-0.838719237703066,-1.95575086840942,-1.20763737398451,NaN,-1.08303443821319,-0.0565753774468677,0.0355900889322896,-0.0290702940044651,NaN,1.69711248072154,0.857768094790164,0.12505974397643,-0.125059743977597,1.23573192048614,-0.342340415154567,0.744874591814367,0.742891871466518,NaN,1.02272857108756,1.55069559271082,1.1367035252117,0.0376068399566831,0.037606839956115,NaN,-0.15226904326978,-0.453283973291837,NaN,0.877252495054639,NaN,0.178777079448838,0.0819558731147457,0.0819558731155848,-0.51900963918104,-0.200946422021845,NaN
1110.1184,2.0584307731295,1.22179403619943,2.64283029195916,0.576483154705731,2.1984384367109,2.19843843671064,NaN,-0.396480761242006,-0.00630561806162201,-1.42736762718325,-0.290284686092667,-1.42736762718326,-1.26674560134209,1.12096399277091,-0.798324801142481,-2.00716941051077,-0.832275555721701,-1.96561869115459,-1.19598022607432,NaN,-1.06552760139377,-0.0512185693850547,0.0450942604335361,-0.00136730246183577,NaN,1.7167885385893,0.908088887387556,0.101313446126889,-0.10131344612806,1.25171098368746,-0.337567543240408,0.744987433851834,0.752286693389832,NaN,1.0367081123276,1.59679683935667,1.11754358032032,0.0574261314740638,0.0574261314735135,NaN,-0.139494847034992,-0.447092161227034,NaN,0.886012235467445,NaN,0.174520463390756,0.0977472754570008,0.0977472754578693,-0.554251463186858,-0.1775762859902,NaN
1110.2208,2.03626667532632,1.23359425945313,2.63076382342348,0.587837978813714,2.19937267551635,2.19937267551611,NaN,-0.396514654495056,-0.00454756596096403,-1.42723400196898,-0.27182492023905,-1.42723400196899,-1.24671511804223,1.135041311981,-0.769387117425542,-2.01939619018288,-0.825918049296521,-1.974418447265,-1.18301566622642,NaN,-1.0467669540718,-0.0461246502240596,0.0545914092737732,0.025866489414561,NaN,1.73448014034893,0.958573062573945,0.078567854590647,-0.0785678545918215,1.26640926215266,-0.331310561015276,0.74440851808413,0.763235210626259,NaN,1.04948501918742,1.64191673809799,1.09787684927974,0.0766852096751227,0.0766852096745776,NaN,-0.125887626480581,-0.440974925327641,NaN,0.894975454609196,NaN,0.170960822456706,0.113258067776065,0.113258067776962,-0.587962113206097,-0.154946065728277,NaN
1110.3232,2.01297658122683,1.24556151056048,2.61780032388891,0.599498820239136,2.20030344909314,2.20030344909291,NaN,-0.3968214766231,-0.00254105249720654,-1.42718370806216,-0.253425304202623,-1.42718370806219,-1.22545649743835,1.1491786109249,-0.739087165301447,-2.03037868228385,-0.819664641271491,-1.98217188938662,-1.16882291699241,NaN,-1.02684381278768,-0.041296267975898,0.0640747727226784,0.0526133860638224,NaN,1.75017495015582,1.00915580492292,0.0568488477348892,-0.0568488477360688,1.27985893990965,-0.32358707496311,0.743131448824913,0.775691516346786,NaN,1.06107630472879,1.68598178639515,1.07780690283173,0.0952949882629076,0.0952949882623701,NaN,-0.111542506708283,-0.434966628447031,NaN,0.90411457159731,NaN,0.168062737675273,0.128442736930276,0.1284427369312,-0.620131740210523,-0.133060696173747,NaN
1110.4256,1.98866033041119,1.25768620545013,2.60402276329235,0.611431813269972,2.20123233065644,2.20123233065621,NaN,-0.397438913652056,-0.000323783033683115,-1.42720631764079,-0.235079583851959,-1.42720631764082,-1.2030627056806,1.16332320995397,-0.707552758789833,-2.04014109108178,-0.813533453664851,-1.98890496650676,-1.15348698364275,NaN,-1.0058551864072,-0.0367364250898491,0.0735382401337281,0.0788563414540022,NaN,1.76386586743931,1.05976867672322,0.036177317073512,-0.036177317074702,1.29209434469634,-0.314420901317554,0.741150609608552,0.789599222959347,NaN,1.07150187450902,1.72891733269095,1.05743660808141,0.113169085199897,0.113169085199377,NaN,-0.0965563149384354,-0.429098804627071,NaN,0.913400040248415,NaN,0.1657882629506,0.143258554411663,0.14325855441261,-0.650756731388566,-0.111920111351254,NaN
1110.528,1.96341770065117,1.2699581195375,2.58951363564242,0.623602913811083,2.20216006361863,2.20216006361842,NaN,-0.398405914090582,0.00206650368692178,-1.4272912035203,-0.216781080085446,-1.42729120352034,-1.17963120840563,1.17742367134656,-0.674915952998704,-2.04871221373162,-0.80754274220745,-1.99464763360526,-1.1370982540841,NaN,-0.983903318766474,-0.0324484590578419,0.0829763329755695,0.104578953992947,NaN,1.7755509607322,1.11033982847994,0.0165691568941515,-0.0165691568953487,1.30315162425742,-0.303841999087144,0.738461235434533,0.804891726892803,NaN,1.08078438940678,1.77064784543923,1.03686766754499,0.13022415249074,0.130224152490215,NaN,-0.0810270874713947,-0.423400121806087,NaN,0.922800600252226,NaN,0.164097056396639,0.15766570804306,0.157665708044032,-0.679839642890597,-0.0915191431139205,NaN
1110.6304,1.93734786944058,1.28236648356932,2.57435454053279,0.635978193127414,2.20308657452007,2.20308657451986,NaN,-0.399762614007703,0.00459219829096259,-1.42742770807484,-0.198522729183058,-1.42742770807489,-1.1552634781473,1.19143000054437,-0.64131240684747,-2.05612521054162,-0.801710819546763,-1.99943363180484,-1.11975206613853,NaN,-0.961095197515388,-0.0284360408406225,0.0923842110944299,0.129765481392638,NaN,1.78523338046986,1.16079422829198,-0.0019646948638185,0.00196469486261223,1.31306842198734,-0.291886359385836,0.735059481050173,0.821492549990717,NaN,1.08894911685432,1.81109720220968,1.01620016753518,0.1463802061471,0.146380206146582,NaN,-0.0650535789542287,-0.417896368127207,NaN,0.93228353947038,NaN,0.162946523896821,0.171627415157769,0.171627415158756,-0.707389093276471,-0.0718474634803644,NaN
1110.7328,1.91054889543253,1.29490007529736,2.55862577971447,0.648524121505161,2.20401099101775,2.20401099101754,NaN,-0.40155024024032,0.00721596722425227,-1.42760529373853,-0.180297119364618,-1.4276052937386,-1.1300644708937,1.20529383952527,-0.606880716373386,-2.0624173361104,-0.79605596554615,-2.00330023112427,-1.10154823579746,NaN,-0.937542022324247,-0.024703177467919,0.101757688371822,0.154400866508532,NaN,1.79292125514035,1.21105391404836,-0.0194181677669244,0.0194181677657112,1.32188355866181,-0.27859585366288,0.730942492076658,0.839315765328329,NaN,1.09602377896054,1.8501890058413,0.995532141982309,0.161560946044236,0.161560946043715,NaN,-0.0487347712051628,-0.412610453761907,NaN,0.941814965334509,NaN,0.162291982258815,0.18511002391727,0.185110023918277,-0.733419592173906,-0.0528896088013404,NaN
1110.8352,1.88311722514274,1.30754730847257,2.54240597449808,0.66120785222542,2.20493166797077,2.20493166797058,NaN,-0.40381096202984,0.0099008945475718,-1.42781366886782,-0.162096522748426,-1.42781366886789,-1.10414206766766,1.21896865790846,-0.571761711281002,-2.06762963032697,-0.790596326136979,-2.00628793536854,-1.08259054370262,NaN,-0.913358631273018,-0.0212541999039263,0.111093238592264,0.178470769740764,NaN,1.79862757853315,1.2610382761023,-0.0357899308117716,0.0357899308105519,1.3296367294108,-0.264018043868953,0.726108485030354,0.85826651299707,NaN,1.1020384047343,1.88784693321198,0.974959158835728,0.175694058405571,0.175694058405034,NaN,-0.0321693781179582,-0.407562423601309,NaN,0.951360076550114,NaN,0.162086849941535,0.198083104130139,0.198083104131162,-0.75795129115771,-0.0346251129942778,NaN
