time,S1-D1,S1-D8,S1-D9,S1-D15,S2-D1,S2-D2,S2-D3,S2-D9,S3-D1,S3-D2,S3-D16,S4-D2,S4-D3,S4-D5,S5-D3,S5-D4,S5-D5,S6-D2,S6-D5,S6-D17,S7-D6,S7-D7,S8-D6,S8-D7,S8-D18,S9-D3,S9-D4,S9-D9,S9-D11,S9-D19,S10-D8,S10-D9,S10-D10,S10-D11,S11-D8,S11-D10,S11-D20,S12-D10,S12-D11,S12-D12,S13-D4,S13-D11,S13-D12,S14-D10,S14-D12,S14-D21,S15-D13,S15-D14,S16-D13,S16-D14,S16-D22
111.8208,-0.731637477713247,0.398524867950375,-0.597039643210753,1.62177766784716,-0.172230513223156,-0.172230513223701,NaN,-1.33417256460105,-0.695805545663442,-1.23950950818602,0.536151771400566,-1.23950950818602,-1.70705387342189,-1.00654183815054,-2.02048906217136,-0.221750281277838,0.0357484868758459,-0.289176680676758,0.602653155651533,NaN,0.299197501798904,-1.24829937999342,0.350075687390108,-1.62214581198051,NaN,1.90120083460584,0.945200970946949,0.135127820162561,-0.135127820165068,-0.675688313499679,-0.411799447212961,2.13752460967385,0.757339926104709,NaN,-0.961983048964621,-2.50847261027276,-0.751402005477769,-1.10478699128181,-1.10478699128021,NaN,-2.42615662480193,-0.206042012648193,NaN,-0.40925702400785,NaN,0.484887765273539,-2.13076687346746,-2.13076687346553,-0.06604767033782,-0.0439426717011305,NaN
111.9232,-0.753111059214404,0.391137179626828,-0.628679848010811,1.62626758817048,-0.150927543196621,-0.150927543197271,NaN,-1.34784149845186,-0.720488366941756,-1.25880667579891,0.528704512385094,-1.25880667579891,-1.74492062665033,-1.02003226525519,-2.06186432944288,-0.246396079249813,0.04008553102924,-0.320999031439228,0.599390406300076,NaN,0.291785149437265,-1.26929296400479,0.353246268524165,-1.65337215118333,NaN,1.90003465939628,0.952655916170773,0.11561432321681,-0.1156143232193,-0.629888906775517,-0.406670847737464,2.14366310113711,0.764403543901201,NaN,-0.954847053307753,-2.52334743447311,-0.736469852216934,-1.10701197154919,-1.10701197154759,NaN,-2.40400375462125,-0.227256661010472,NaN,-0.41080934783413,NaN,0.493550469303123,-2.14479206368581,-2.14479206368391,-0.0656353120441264,-0.0508037829431264,NaN
112.0256,-0.773934844147556,0.382978187399408,-0.660098525105734,1.62970383931017,-0.129791684391609,-0.129791684392373,NaN,-1.36058983440569,-0.744423184546233,-1.2780003601024,0.521482034967725,-1.27800036010241,-1.78155486838207,-1.03337341430996,-2.10200584295758,-0.270713257138613,0.0444425678593539,-0.352329199549989,0.59597982334605,NaN,0.283765783049012,-1.28960035024999,0.356414965310443,-1.68343006296436,NaN,1.89684042816649,0.96003145531345,0.0963424764772102,-0.0963424764796772,-0.582944833472132,-0.40148933983846,2.14821600523378,0.770709742623389,NaN,-0.947850923130603,-2.53700658933442,-0.721118584877183,-1.10883976761315,-1.10883976761156,NaN,-2.37915881631712,-0.247897944350437,NaN,-0.411713174620638,NaN,0.503032595815467,-2.15697117999916,-2.15697117999727,-0.0649433448610021,-0.0577340470164821,NaN
112.128,-0.794094042292413,0.374067504589444,-0.691263137511217,1.63210636923439,-0.108829296450583,-0.108829296451497,NaN,-1.37236000820383,-0.767579370304627,-1.29712943853532,0.514516193217393,-1.29712943853533,-1.81694420715952,-1.04655951500224,-2.14089953474796,-0.294692716743687,0.0488662929009994,-0.383113315438953,0.592435080040096,NaN,0.275150289807715,-1.30924139995516,0.359619332460991,-1.71229890821796,NaN,1.89165149231842,0.967382120942419,0.0773412085773398,-0.0773412085797916,-0.534892975651592,-0.396231010268642,2.15124728191406,0.776309251904668,NaN,-0.941035281876261,-2.54944538454903,-0.705364122372688,-1.11026262451191,-1.11026262451033,NaN,-2.35163885101436,-0.267904302841522,NaN,-0.41199820185799,NaN,0.513331077668813,-2.16728948391038,-2.16728948390852,-0.0640097699095798,-0.0646795518364088,NaN
112.2304,-0.813577090856424,0.364424348361424,-0.722145375386979,1.63349784600463,-0.0880432332119746,-0.0880432332130513,NaN,-1.38309669227399,-0.789931752714084,-1.31623337743045,0.507836392407705,-1.31623337743047,-1.85108095473545,-1.05958515079927,-2.17853596066719,-0.31832606350885,0.0534010658279031,-0.413300563298049,0.588769882787779,NaN,0.26595154134218,-1.32823955643561,0.362895934510114,-1.73996559948836,NaN,1.88450523762269,0.974759648091307,0.058636743449279,-0.058636743451711,-0.485767957497382,-0.390872857339272,2.15282376997179,0.781253544882335,NaN,-0.934438095397477,-2.56065992788444,-0.689220128128193,-1.11127208473965,-1.11127208473807,NaN,-2.32146922899369,-0.287218932017163,NaN,-0.41169413950545,NaN,0.524438035724193,-2.17573887871261,-2.17573887871077,-0.0628731240223682,-0.0715872919768986,NaN
112.3328,-0.832375567307777,0.354067446051703,-0.752721119074254,1.63390353455509,-0.0674331394743051,-0.0674331394755624,NaN,-1.39274709563258,-0.811460660025632,-1.33535193224426,0.50146955054733,-1.3353519322443,-1.88396198127063,-1.07244533602787,-2.2149101923177,-0.341605425420619,0.0580886177693172,-0.44284317471511,0.584997933957925,NaN,0.256184350703718,-1.34662148999502,0.366280004912617,-1.76642448996266,NaN,1.87544289169042,0.982212657094324,0.0402527877724469,-0.0402527877748679,-0.43560233149502,-0.385393050479578,2.15301483739387,0.785594461078477,NaN,-0.928094697948451,-2.57064713752567,-0.672698068047912,-1.11185906803805,-1.11185906803647,NaN,-2.28868367858357,-0.305789842131724,NaN,-0.41083047202074,NaN,0.536340797596323,-2.18231779115552,-2.1823177911537,-0.0615722867970659,-0.0784053396218867,NaN
112.4352,-0.850484083681739,0.343014971462272,-0.782970357384194,1.63335113842917,-0.0469957609644843,-0.0469957609658997,NaN,-1.40126126426225,-0.832151938173423,-1.35452484711453,0.495440067404209,-1.35452484711459,-1.91558857145173,-1.08513557570246,-2.25002170313372,-0.364523266891761,0.0629677609477552,-0.471696413038671,0.581132892126751,NaN,0.245865419067565,-1.36441671850399,0.369805121994955,-1.79167719648093,NaN,1.86450934494494,0.989786391989202,0.0222107247867356,-0.0222107247891429,-0.38442678545094,-0.379771154715221,2.15189204975196,0.789383865539836,NaN,-0.922037818490877,-2.57940476595468,-0.655807268869667,-1.11201396540007,-1.11201396539849,NaN,-2.25332431698251,-0.323569880456794,NaN,-0.409436239884639,NaN,0.549021945971062,-2.18703100596226,-2.18703100596047,-0.0601463012284889,-0.085082990623202,NaN
112.5376,-0.867900156372655,0.33128449256587,-0.812877067563218,1.63187062607529,-0.0267252761317214,-0.0267252761333011,NaN,-1.40859238684123,-0.85199694480021,-1.37379154370452,0.489769811765768,-1.3737915437046,-1.94596627047079,-1.09765192209835,-2.2838742435253,-0.387072210708051,0.0680741174893814,-0.499818552669887,0.577188325661279,NaN,0.235013272488365,-1.38165720806555,0.373502892495079,-1.81573237753931,NaN,1.85175295021319,0.997522483284713,0.00452982719369315,-0.00452982719608563,-0.332270376745658,-0.373988342670465,2.14952883859661,0.792673317643142,NaN,-0.916297611805913,-2.58693141892226,-0.638554970204169,-1.11172674478533,-1.11172674478375,NaN,-2.21544168829974,-0.340516732306722,NaN,-0.407539833953894,NaN,0.562459403678732,-2.18988946631557,-2.1898894663138,-0.0586342029364551,-0.0915708902413171,NaN
112.64,-0.884624049944656,0.318892907339205,-0.842429072370121,1.62949405777527,-0.00661366233257326,-0.00661366233431131,NaN,-1.41469711178913,-0.870992526448315,-1.39319079882572,0.48447813511062,-1.39319079882582,-1.9751047080866,-1.10999104726788,-2.3164757013304,-0.409244881615151,0.0734398827283304,-0.527170859533157,0.573177659052919,NaN,0.223648188094268,-1.39837695262616,0.377402627235872,-1.83860548678239,NaN,1.8372252749316,1.00545871040529,-0.0127724973377297,0.0127724973353505,-0.279160795934995,-0.368027616146606,2.14600015245896,0.795513723724808,NaN,-0.910901706827794,-2.59322656168146,-0.620946378804625,-1.11098707220271,-1.11098707220116,NaN,-2.17509479379277,-0.356592917786978,NaN,-0.405168797523028,NaN,0.576626557793957,-2.19091005523728,-2.19091005523555,-0.0570748526877123,-0.0978211452274086,NaN
112.7424,-0.900658600656979,0.305856355447936,-0.871617890288914,1.62625541822217,0.0133488968379067,0.0133488968360512,NaN,-1.41953587758738,-0.889140986624069,-1.41276042134905,0.479581910378203,-1.41276042134916,-2.00301740025868,-1.12215034301819,-2.3478379515787,-0.43103378002854,0.0790936280957293,-0.55371758054048,0.569114117985636,NaN,0.211792110478528,-1.41461153259897,0.381531005452539,-1.86031850715137,NaN,1.82098080217544,1.01362876173295,-0.0296804201844714,0.0296804201821084,-0.22512465538973,-0.361874039392298,2.14138208694171,0.797954970124715,NaN,-0.905875286518441,-2.59829052453897,-0.602984739913962,-1.10978445497738,-1.10978445497584,NaN,-2.13235109744945,-0.371765785138786,NaN,-0.402349634156506,NaN,0.59149242467986,-2.19011536631265,-2.19011536631094,-0.055506765728722,-0.103787430849471,NaN
112.8448,-0.916009028683749,0.29219010424051,-0.900438590965035,1.622190450178,0.0331735669334416,0.033173566931498,NaN,-1.42307325422951,-0.906450047866645,-1.43253693942505,0.475095588428675,-1.43253693942518,-2.02972153903191,-1.13412804803325,-2.37797670562834,-0.452431188529969,0.085060141381861,-0.579425947826224,0.565010681593977,NaN,0.1994685599834,-1.43039766012043,0.385911740804715,-1.88089965977247,NaN,1.80307658908987,1.02206199993695,-0.046179365944109,0.0461793659417686,-0.170187795166277,-0.355514972243822,2.13575149963676,0.800045548690363,NaN,-0.90124120408658,-2.60212452688345,-0.584671436656876,-1.10810841023294,-1.10810841023143,NaN,-2.0872865048855,-0.386007490901639,NaN,-0.399107619846465,NaN,0.607021857503925,-2.18753346922266,-2.18753346922097,-0.0539679287183622,-0.109425099279203,NaN
112.9472,-0.930682751875679,0.277908416220998,-0.928889666221277,1.61733647811294,0.0528723976473307,0.0528723976453037,NaN,-1.42527828606659,-0.922932808345706,-1.45255531132798,0.47103126511103,-1.45255531132814,-2.05523778779526,-1.14592338820403,-2.40691137057615,-0.473429117059756,0.0913603070928586,-0.604266203915766,0.560880043692737,NaN,0.186702532501775,-1.4457727245139,0.390565266671723,-1.90038308519532,NaN,1.78357190408648,1.03078324794227,-0.0622556668174347,0.0622556668151236,-0.114375592908492,-0.348940278251204,2.12918562339046,0.801832200825164,NaN,-0.897020120116136,-2.60473072615407,-0.566006117570743,-1.10594865008644,-1.10594865008495,NaN,-2.03998531643588,-0.399294953321307,NaN,-0.39546661727036,NaN,0.623175787558328,-2.1831976685842,-2.18319766858253,-0.0524955986265689,-0.114691289317965,NaN
113.0496,-0.944689214560898,0.263024414513072,-0.956972920891831,1.61173221325337,0.0724578566276394,0.0724578566255318,NaN,-1.42612481563998,-0.938607686729451,-1.47284867701982,0.467398757297335,-1.47284867702,-2.07959009431701,-1.157536705635,-2.43466492120996,-0.494019294990933,0.0980110384342898,-0.628211649596147,0.556734576400195,NaN,0.173520388652107,-1.46077434211569,0.395508445167013,-1.918808497632,NaN,1.76252787399462,1.0398126192138,-0.0778962325154114,0.0778962325131274,-0.0577132632027628,-0.342142478053852,2.12176169963751,0.803359614052263,NaN,-0.893230635958662,-2.60611228262899,-0.546986842728503,-1.10329526595448,-1.10329526595302,NaN,-1.99054013671726,-0.411609757136427,NaN,-0.391448890494757,NaN,0.639911479985166,-2.17714624082107,-2.17714624081942,-0.0511260882193672,-0.119545030771152,NaN
113.152,-0.958039732827524,0.247549962022486,-0.984693373613888,1.60541754277983,0.0919423657660592,0.0919423657638967,NaN,-1.42559176794723,-0.953498339851776,-1.49344815649712,0.464205692605242,-1.49344815649732,-2.10280551635144,-1.16896955815953,-2.46126377245741,-0.514193206800391,0.105025271431973,-0.651238700576453,0.552586289648689,NaN,0.159949731169035,-1.47543989444032,0.400754286266529,-1.93622080460644,NaN,1.74000715723917,1.04916540514172,-0.0930882569975818,0.0930882569953216,-0.000226144016795938,-0.335116842828362,2.11355664630025,0.804670182403963,NaN,-0.889889412590582,-2.60627342714527,-0.527610240727036,-1.10013889996057,-1.10013889995914,NaN,-1.93905171060661,-0.422937987282203,NaN,-0.38707492421014,NaN,0.657182791913716,-2.16942213058822,-2.16942213058659,-0.0498945463252486,-0.1239473374784,NaN
113.2544,-0.970747343000848,0.231495554345342,-1.01205915134526,1.59843331142536,0.111337830775233,0.111337830773019,NaN,-1.4236633926247,-0.96763354602673,-1.51438268164399,0.461457618579965,-1.5143826816442,-2.12491404298054,-1.18022479426759,-2.48673763818396,-0.533942159771924,0.112412024932014,-0.67332693296674,0.548446784455825,NaN,0.146019269657901,-1.48980603280494,0.406311661146702,-1.95266967776722,NaN,1.71607363099555,1.05885200946183,-0.107818953504163,0.107818953501929,0.0580600169401338,-0.327861454434212,2.10464675180043,0.805803805755816,NaN,-0.887011278415637,-2.60521952263689,-0.507871676122439,-1.09647090603825,-1.09647090603685,NaN,-1.88562867155379,-0.433269991547456,NaN,-0.382363261580849,NaN,0.674940442697709,-2.16007260755979,-2.16007260755819,-0.0488347347378303,-0.127861291861493,NaN
113.3568,-0.982826639487815,0.214870211199675,-1.03908137201356,1.59082109816919,0.13065516204599,0.130655162043744,NaN,-1.42032948211561,-0.98104706902284,-1.5356788410811,0.459158132396079,-1.53567884108133,-2.14594840127384,-1.191306626141,-2.51111937524968,-0.55325738185122,0.120176525511962,-0.69445911570392,0.544327198559007,NaN,0.131758670244291,-1.50390814314502,0.412185007716657,-1.96820906709241,NaN,1.6907920701347,1.06887791151529,-0.122075297685627,0.122075297683407,0.117118764579396,-0.320377261224573,2.09510737100074,0.806797693490315,NaN,-0.884609327419617,-2.60295711457095,-0.487765427587702,-1.0922835123128,-1.09228351231142,NaN,-1.83038721715886,-0.442600100443208,NaN,-0.37733038011905,NaN,0.693132318599088,-2.14914890866457,-2.149148908663,-0.0479788005800177,-0.131252129994794,NaN
113.4592,-0.994293597905527,0.19768135455989,-1.06577401906339,1.58262298496264,0.149903798039602,0.149903798037332,NaN,-1.4155855827811,-0.993777520647976,-1.55736072575542,0.457309027665869,-1.55736072575566,-2.16594384720558,-1.20222071756548,-2.53444481834877,-0.572130159407955,0.128320394395076,-0.714621246553718,0.540238141840941,NaN,0.117198388085918,-1.51777978116841,0.418374039399336,-1.98289665975169,NaN,1.66422780974921,1.07924365283278,-0.135843772024123,0.135843772021923,0.176922631304876,-0.312668137922658,2.08501260582303,0.807686157295495,NaN,-0.882695003713203,-2.59949396884174,-0.467284874733001,-1.08756999511685,-1.08756999511549,NaN,-1.77345073449546,-0.45092633617426,NaN,-0.371990620028926,NaN,0.711703823240825,-2.136705888208,-2.13670588820645,-0.0473570486189367,-0.134087332001384,NaN
113.5616,-1.00516538760412,0.179934680104274,-1.09215380802206,1.57388131577901,0.169091245139058,0.169091245136755,NaN,-1.40943319547135,-1.00586822038174,-1.57944977834014,0.455910454031749,-1.57944977834039,-2.18493794244223,-1.21297428149181,-2.55675260513295,-0.59055202238518,0.136841894174973,-0.733802604407534,0.536189619983808,NaN,0.102369484786905,-1.53145209415,0.424873472831803,-1.9967932886928,NaN,1.63644640385964,1.08994485833173,-0.149110123691487,0.149110123689302,0.237442837675328,-0.304740938686008,2.07443497464049,0.808500403587497,NaN,-0.88127817057797,-2.59483909791934,-0.446422691226237,-1.08232486759911,-1.08232486759778,NaN,-1.71494937749992,-0.458250123321299,NaN,-0.366356165747098,NaN,0.730598261304916,-2.12280167216255,-2.12280167216104,-0.0469977245282539,-0.136336712634629,NaN
113.664,-1.01546018141047,0.161634040095513,-1.1182400412205,1.56463845253852,0.188222643747968,0.188222643745659,NaN,-1.40187994909853,-1.01736703690345,-1.60196465812356,0.454961085062347,-1.60196465812382,-2.20297031955787,-1.22357616813368,-2.57808398660898,-0.608514967609632,0.145736226605273,-0.751995812172497,0.532190947662449,NaN,0.0873034372297487,-1.54495324932131,0.431672789890158,-2.00996230263753,NaN,1.60751329694489,1.10097230257621,-0.161859153358777,0.161859153356599,0.298649010487878,-0.296605527347828,2.06344508992475,0.809268347768681,NaN,-0.880367167750687,-2.58900277876202,-0.425171039462778,-1.07654407798544,-1.07654407798413,NaN,-1.6550195882291,-0.464576000480482,NaN,-0.360437067951331,NaN,0.749757232993851,-2.1074973050349,-2.10749730503341,-0.0469268206786892,-0.137972501757371,NaN
113.7664,-1.02519696710005,0.14278135152511,-1.14405444593248,1.55493654484377,0.207300367274016,0.207300367271728,NaN,-1.39293973410319,-1.0283261964635,-1.62492112256531,0.454458288972868,-1.62492112256556,-2.22008243437359,-1.23403692980065,-2.59848261618761,-0.626011688456908,0.154995854687377,-0.769196887650409,0.528250655152745,NaN,0.0720319460776147,-1.55830789056215,0.438756045591881,-2.02246891775857,NaN,1.5774935070638,1.11231201306103,-0.174074541081861,0.174074541079682,0.360508923326113,-0.288274782096803,2.05211136070764,0.810014460780937,NaN,-0.879968866315865,-2.58199656738245,-0.40352176059887,-1.07022520872787,-1.07022520872658,NaN,-1.59380357506061,-0.469911337998276,NaN,-0.354241293244287,NaN,0.769121027440555,-2.09085639802437,-2.09085639802292,-0.0471679087604189,-0.138969410163309,NaN
113.8688,-1.03439535644147,0.123376535750462,-1.16962098625941,1.54481733130793,0.226323660768619,0.226323660766362,NaN,-1.38263278796488,-1.03880204954626,-1.64833190928194,0.454398296053601,-1.64833190928218,-2.23631729810823,-1.24436886102309,-2.6179943098467,-0.643035773850629,0.164610817653527,-0.785405256311027,0.524376393301716,NaN,0.0565867515598272,-1.5715366382538,0.446101725459677,-2.03437957119394,NaN,1.54645130565493,1.12394539213261,-0.18573870067159,0.185738700669409,0.422988257283908,-0.279764586129149,2.04049972140653,0.810759639800146,NaN,-0.880088731108212,-2.57383330968272,-0.381466556868329,-1.06336766880774,-1.06336766880647,NaN,-1.53144877996398,-0.474266076557976,NaN,-0.347774798850216,NaN,0.788629012853509,-2.07294479659561,-2.07294479659418,-0.0477419965420571,-0.139304682616872,NaN
113.9712,-1.04307538483484,0.103417493833113,-1.19496563714065,1.53432197728954,0.245288329478628,0.245288329476453,NaN,-1.37098572644936,-1.04885479805122,-1.67220660061702,0.454776355964466,-1.67220660061726,-2.25171918540771,-1.25458601729211,-2.63666677495255,-0.659581862238365,0.174569028527961,-0.800623714216426,0.520574840897486,NaN,0.0409994622119941,-1.5846556347648,0.453682647261349,-2.04576128800138,NaN,1.51444988837437,1.13584934883556,-0.196832651345223,0.196832651343036,0.486050377703526,-0.271093809658386,2.02867337815745,0.811521094440872,NaN,-0.88073089174233,-2.5645271410208,-0.358997163841936,-1.05597287519615,-1.0559728751949,NaN,-1.46810735236891,-0.477652497654799,NaN,-0.341041635199303,NaN,0.808220018471414,-2.05383026973175,-2.05383026973032,-0.0486674110135623,-0.138958134840202,NaN
114.0736,-1.05125730045655,0.0829001211133301,-1.22011611654864,1.52349094067818,0.264186488246206,0.26418648824406,NaN,-1.35803151844425,-1.05854819289871,-1.6965514665018,0.455586878396848,-1.69655146650204,-2.26633332228781,-1.26470421326051,-2.65454931191759,-0.675645760787155,0.184856562084652,-0.814858349074953,0.516851615304741,NaN,0.0253013986522412,-1.59767613155544,0.461465900137525,-2.05668106485049,NaN,1.48155104758035,1.14799644558806,-0.207335905276863,0.207335905274683,0.549656128496757,-0.262284273385537,2.01669256652511,0.812312253050558,NaN,-0.881898214176718,-2.55409346615912,-0.336105507544617,-1.04804442351141,-1.04804442351019,NaN,-1.40393562102457,-0.480085024978872,NaN,-0.334044079332232,NaN,0.827832700291366,-2.03358221150805,-2.03358221150664,-0.04995971894143,-0.137912163686409,NaN
114.176,-1.05896134820267,0.0618183630577549,-1.24510158081342,1.51236385464067,0.283006376891729,0.283006376889649,NaN,-1.34380940800403,-1.06794921187776,-1.72136929689806,0.456823553555243,-1.7213692968983,-2.28020556242422,-1.27474099817294,-2.67169249586884,-0.691224544324955,0.195457936813245,-0.828118437260685,0.513211184332143,NaN,0.0095234508633331,-1.61060411874379,0.469412822301056,-2.06720527017181,NaN,1.44781486340327,1.16035507145209,-0.217226380396836,0.217226380394651,0.613763650406539,-0.253360676438168,2.00461432379403,0.813142703868708,NaN,-0.883592363848854,-2.54254891597876,-0.312783841756642,-1.0395882496666,-1.03958824966541,NaN,-1.33909354500466,-0.481580051403181,NaN,-0.326782801962262,NaN,0.847405886033447,-2.01227135002545,-2.01227135002407,-0.0516316918444084,-0.136151723759019,NaN
114.2784,-1.06620755775719,0.0401643158130946,-1.26995229190537,1.50097941927818,0.301732243339186,0.301732243337158,NaN,-1.32836478744493,-1.07712772545871,-1.74665924622909,0.458479451503489,-1.74665924622931,-2.29338206515076,-1.28471560304848,-2.68814784893627,-0.706316641814892,0.206356384405614,-0.840416333705811,0.509656777849721,NaN,-0.00630405350561311,-1.62344000546359,0.477479026851514,-2.07739906112169,NaN,1.41329943059557,1.17288965789748,-0.226480353662204,0.226480353660026,0.678328230467218,-0.244350467133004,1.99249228612639,0.814018192996703,NaN,-0.885813852627093,-2.52991128254395,-0.2890248634199,-1.03061278263352,-1.03061278263235,NaN,-1.27374412472518,-0.482155793393658,NaN,-0.319257066717896,NaN,0.866878899550827,-1.98996946334666,-1.9899694633453,-0.0536933123121017,-0.13366427303664,NaN
114.3808,-1.07301554733119,0.0179283782771598,-1.2946992657117,1.48937530003208,0.320344300535744,0.320344300533802,NaN,-1.3117490192993,-1.08615615480689,-1.77241671236014,0.460547100688927,-1.77241671236036,-2.30590899093947,-1.29464885006526,-2.70396751448373,-0.720921915600351,0.21753410251007,-0.851767365942595,0.506190299280553,NaN,-0.022151470953575,-1.63617835869766,0.485614482269569,-2.08732582094338,NaN,1.3780606349969,1.18556095057736,-0.23507247347504,0.235072473472874,0.743302193231036,-0.235283635001086,1.98037652357546,0.814940702420029,NaN,-0.888562059101666,-2.51619943481269,-0.264821801966256,-1.02112908561511,-1.02112908561397,NaN,-1.20805275680017,-0.481832182118594,NaN,-0.31146495123187,NaN,0.886191866711724,-1.96674910162975,-1.96674910162841,-0.0561518210658903,-0.130439689871606,NaN
114.4832,-1.0794043503437,-0.00490053813954967,-1.31937390560332,1.47758804038684,0.338818765987311,0.338818765985458,NaN,-1.29401919893019,-1.09510911776514,-1.79863325805783,0.463018548821685,-1.79863325805805,-2.31783222059103,-1.30456301501543,-2.71920393566435,-0.735041740279086,0.228972498508222,-0.862189735438916,0.50281223626094,NaN,-0.0379899531596884,-1.64880770154254,0.493763644319284,-2.09704662310742,NaN,1.34215198190785,1.19832633556412,-0.242975848015726,0.242975848013563,0.808634846346505,-0.226192422271341,1.96831342227988,0.815908614176104,NaN,-0.89183521198257,-2.50143321266419,-0.240168472256646,-1.01115098175612,-1.011150981755,NaN,-1.14218652468343,-0.480630798799942,NaN,-0.303403579483228,NaN,0.90528600475776,-1.94268331388374,-1.94268331388243,-0.0590118149186676,-0.126470155462731,NaN
114.5856,-1.08539226233047,-0.0283347425758839,-1.34400761836429,1.46565300107913,0.357127985842838,0.357127985841084,NaN,-1.27523785120607,-1.10406305188965,-1.8252965653711,0.465885412408505,-1.82529656537132,-2.32919708969123,-1.31448164255125,-2.73390953013707,-0.748679083226574,0.240652436950379,-0.871704418125713,0.499521569363581,NaN,-0.0537915449396192,-1.66131036743388,0.501865631061037,-2.10661972835693,NaN,1.30562446591967,1.21114020294132,-0.250162213030293,0.250162213028131,0.874272483070006,-0.21711098044725,1.95634561184666,0.816916939807618,NaN,-0.895630335140355,-2.48563329285953,-0.215059281993457,-1.00069515934133,-1.00069515934024,NaN,-1.07631342728802,-0.478574853512747,NaN,-0.295069366291058,NaN,0.924103897529419,-1.91784537647017,-1.91784537646888,-0.0622754043538922,-0.121749995340042,NaN
114.688,-1.09099670095274,-0.0523874498719633,-1.36863141064955,1.45360433018219,0.375240633410753,0.375240633409065,NaN,-1.25547256536582,-1.11309580595136,-1.85239040924135,0.469138920905357,-1.85239040924158,-2.34004812611872,-1.32442932541215,-2.7481363536554,-0.761838573160597,0.252554490411454,-0.880335044664733,0.496315681374351,NaN,-0.0695292673223271,-1.67366240899992,0.509854435990526,-2.11610011962256,NaN,1.26852647132434,1.22395432849288,-0.256602166363708,0.256602166361542,0.940158429281091,-0.208075005584519,1.94451192602039,0.817957583075135,NaN,-0.899943162099134,-2.46882102170321,-0.18948919919246,-0.989781245554858,-0.989781245553795,NaN,-1.01060156331329,-0.475689195528577,NaN,-0.286458278037114,NaN,0.942589757594708,-1.89230851637653,-1.89230851637526,-0.0659424235695482,-0.116275485055156,NaN
114.7904,-1.09623407696924,-0.077072431065419,-1.39327547317106,1.44147495747552,0.393121965970649,0.393121965969001,NaN,-1.23479558207221,-1.12228619694518,-1.87989464415909,0.472769958986451,-1.87989464415931,-2.35042878599085,-1.33443146255547,-2.76193575394407,-0.774526531422971,0.264659177695362,-0.888107737889116,0.493190273503361,NaN,-0.0851771857302971,-1.68583356638769,0.517659182958483,-2.1255390777676,NaN,1.23090370307758,1.23671826218484,-0.262265451393586,0.262265451391416,1.00623311972026,-0.199121372612239,1.93284738666386,0.819019615148802,NaN,-0.90476802913397,-2.45101821343193,-0.163453700903316,-0.978431830713113,-0.978431830712074,NaN,-0.945218308191251,-0.472000331911974,NaN,-0.277566101402442,NaN,0.960689670919948,-1.8661456167257,-1.86614561672447,-0.0700106732447473,-0.110044636727354,NaN
114.8928,-1.10111967995296,-0.102403635615146,-1.41796876194349,1.4292966034733,0.410734130900499,0.410734130898921,NaN,-1.21328334432712,-1.1317135337107,-1.90778520559161,0.476769107996684,-1.90778520559184,-2.36038119158888,-1.34451400296353,-2.7753580208811,-0.786750950901039,0.276947177304328,-0.89505089617383,0.490139293132638,NaN,-0.100710464849667,-1.697787303666,0.52520443577163,-2.13498379411465,NaN,1.19279915916512,1.2493797254006,-0.267121276706418,0.26712127670424,1.07243419686931,-0.19028776706055,1.92138321112167,0.82008956358318,NaN,-0.910097752085048,-2.43224691573332,-0.136948723826996,-0.966672426655429,-0.96667242665441,NaN,-0.880329521394842,-0.467536430527961,NaN,-0.268388706180009,NaN,0.978351815346398,-1.83942889140411,-1.83942889140288,-0.0744761791211716,-0.103056983625643,NaN
114.9952,-1.10566758583599,-0.128394776780082,-1.4427385788826,1.41709979479963,0.428036528755704,0.428036528754217,NaN,-1.19101601185547,-1.14145711347057,-1.93603413432801,0.481126682730843,-1.93603413432824,-2.3699458812578,-1.35470316800093,-2.78845203974127,-0.798521432503876,0.289399522853265,-0.901194931233546,0.487154871613273,NaN,-0.116105412820783,-1.70948092350849,0.532410580908091,-2.14447701039913,NaN,1.15425316242639,1.26188503602631,-0.271138669208267,0.271138669206084,1.13869663507381,-0.181612287848789,1.91014685171366,0.821151739887485,NaN,-0.915923485359204,-2.41252914259127,-0.109970622289578,-0.954531351848164,-0.95453135184717,NaN,-0.816098794545389,-0.462327296351299,NaN,-0.258922297520805,NaN,0.995526644836389,-1.81222952147241,-1.8122295214712,-0.0793334623225667,-0.0953133704265715,NaN
115.0976,-1.10989059611987,-0.15505886268901,-1.46761015082911,1.40491387622115,0.444986251521767,0.444986251520387,NaN,-1.16807692994872,-1.15159570222271,-1.96460963639368,0.485832751992641,-1.96460963639392,-2.37916158784603,-1.36502513748106,-2.80126495751683,-0.809849103519878,0.301997795701264,-0.906571982172266,0.484227266868139,NaN,-0.131339517613843,-1.72086577273151,0.539194299983332,-2.15405668345236,NaN,1.11530347225992,1.27417958945645,-0.274286870508421,0.274286870506238,1.20495289771212,-0.173132978877546,1.89916208104937,0.822188645317478,NaN,-0.922234553428676,-2.39188657450227,-0.0825161250501285,-0.942039541093683,-0.942039541092714,NaN,-0.752686720720337,-0.456404320316508,NaN,-0.24916365901801,NaN,1.01216703455488,-1.78461725023306,-1.78461725023186,-0.0845758264286001,-0.086815746026173,NaN
115.2,-1.11380021627992,-0.182407665903105,-1.49260621085047,1.39276701095194,0.461538602139828,0.46153860213851,NaN,-1.14455204702811,-1.16220700990444,-1.99347618439797,0.490877127689105,-1.99347618439821,-2.38806506102094,-1.37550569183348,-2.81384187397758,-0.82074653515041,0.314724319718712,-0.911215626480094,0.481344806785901,NaN,-0.14639147720509,-1.73188754719422,0.545469137358288,-2.16375568130484,NaN,1.07598548229058,1.28620840708593,-0.27653578835694,0.276535788354752,1.27113313260046,-0.164887260992826,1.88844913516201,0.823181482954326,NaN,-0.929018246118746,-2.37034023074246,-0.0545822797748976,-0.929230281757782,-0.929230281756841,NaN,-0.690250160327117,-0.449800402682346,NaN,-0.239110385393188,NaN,1.02822838598592,-1.75665993717787,-1.75665993717668,-0.0901956672528648,-0.0775669510061384,NaN
115.3024,-1.11740667045769,-0.210451148858039,-1.5177465911397,1.38068617257799,0.477647671650925,0.4776476716497,NaN,-1.12052928650548,-1.17336716839882,-2.02259464773011,0.496249313093789,-2.02259464773035,-2.39669093428007,-1.38616982121993,-2.82622556248026,-0.831227659751574,0.327562347405832,-0.915160598151179,0.478493832896691,NaN,-0.161241222667646,-1.74248669040575,0.551146152617694,-2.17360151597436,NaN,1.03633247747325,1.29791672687155,-0.277856494467242,0.277856494465043,1.33716539819018,-0.156911280079153,1.8780249133982,0.824110763329395,NaN,-0.936259585898608,-2.34791012261709,-0.0261663809589947,-0.916138888087617,-0.9161388880867,NaN,-0.628941494524137,-0.442549856947332,NaN,-0.228761105477022,NaN,1.04366869620688,-1.72842308243835,-1.72842308243715,-0.0961848107092557,-0.0675704922760234,NaN
115.4048,-1.12071894176364,-0.23919687897496,-1.54304783948985,1.36869714453536,0.493266932275201,0.493266932274055,NaN,-1.09609788782972,-1.18515021896853,-2.05192243057784,0.501938412678071,-2.05192243057808,-2.40507162413178,-1.39704132549997,-2.83845621789473,-0.841307680174777,0.340496223426679,-0.918442514084319,0.475658646138622,NaN,-0.175869931861359,-1.75259887048104,0.556134640030206,-2.18361611270412,NaN,0.996375905007045,1.30925058865073,-0.27822173727504,0.278221737272831,1.40297590049021,-0.149239224167678,1.86790322082555,0.824956955459549,NaN,-0.943941091202973,-2.32461489415991,0.00273411386923244,-0.902802331218447,-0.902802331217562,NaN,-0.56890787005174,-0.434688303952675,NaN,-0.218115701915479,NaN,1.05844859755212,-1.69996934662587,-1.69996934662467,-0.102534884177348,-0.0568303000424524,NaN
115.5072,-1.12374483256689,-0.268649461324964,-1.56852287311649,1.35682454112685,0.508349815274857,0.508349815273783,NaN,-1.07134773268707,-1.19762761625845,-2.08141361095911,0.507933013249764,-2.08141361095935,-2.41323725215322,-1.40814242486441,-2.85057123050862,-0.851002970935701,0.353511525843308,-0.921097608127198,0.472821456307613,NaN,-0.190260032961619,-1.76215552599807,0.560342904220543,-2.1938156151664,NaN,0.95614563140498,1.32015738216922,-0.277606439785833,0.277606439783623,1.46848922067336,-0.141902659878739,1.85809504306462,0.825701139232736,NaN,-0.952042555864197,-2.30047145102044,0.0321216712461629,-0.889258834067108,-0.889258834066252,NaN,-0.510290440805892,-0.426252562023328,NaN,-0.207175530901796,NaN,1.07253137281158,-1.67135809228591,-1.67135809228471,-0.10923772301721,-0.045350468026401,NaN
115.6096,-1.12649104742169,-0.298809999685403,-1.59418068107541,1.34509184997816,0.522850263906889,0.522850263905922,NaN,-1.04636866827286,-1.21086775471717,-2.11101909054442,0.514221045374434,-2.11101909054467,-2.42121559066414,-1.41949338822187,-2.86260498937574,-0.86033098104656,0.366595201101089,-0.923162472973535,0.469962335956117,NaN,-0.204395199986391,-1.77108447784348,0.563679089897164,-2.20421022479183,NaN,0.915670188965357,1.33058635587701,-0.275988170188353,0.275988170186137,1.53362852268638,-0.134929911046971,1.84860885568946,0.826325642525181,NaN,-0.960540850598846,-2.27549457761198,0.0619987659184463,-0.875547430930891,-0.87554743093007,NaN,-0.453223614211065,-0.417280531993334,NaN,-0.195943637457136,NaN,1.08588295232479,-1.64264496338324,-1.64264496338204,-0.11628580450339,-0.0331349870988231,NaN
115.712,-1.12896329672453,-0.32967558691757,-1.62002607363958,1.33352148279979,0.536723260232006,0.536723260231116,NaN,-1.02124983970073,-1.22493551770716,-2.14068676281609,0.520789633854466,-2.14068676281633,-2.42903203163212,-1.43111218061765,-2.87458871524074,-0.869310145595016,0.379735707090442,-0.924673807652272,0.467059180801064,NaN,-0.218260344502611,-1.77931059201173,0.566052053200157,-2.21480406662232,NaN,0.874977027597663,1.34048910015435,-0.273347581465426,0.273347581463204,1.59831573576806,-0.128345485241654,1.83945096739237,0.826814658220013,NaN,-0.969409747206872,-2.24969654874907,0.0923679548752496,-0.861707502134851,-0.861707502134068,NaN,-0.39783432260982,-0.407811071791092,NaN,-0.184424963532604,NaN,1.09847190355621,-1.61388150628003,-1.61388150627883,-0.123672687824778,-0.0201874894502417,NaN
115.8144,-1.13116640594687,-0.361238826779885,-1.64605946172604,1.32213481562233,0.549925321527978,0.549925321527197,NaN,-0.996079049708412,-1.23989184501838,-2.1703616926976,0.527624949784023,-2.17036169269784,-2.43670956964509,-1.44301413332918,-2.88655031571914,-0.877959802626278,0.392923162288822,-0.925668167375228,0.464087681836784,NaN,-0.23184160804424,-1.7867564594208,0.567372239817084,-2.22559507437832,NaN,0.834092783864736,1.34982001689686,-0.269668814164005,0.26966881416179,1.66247170850554,-0.122169556044486,1.830625879745,0.827154826392618,NaN,-0.978619768429135,-2.22308675003861,0.123231927520149,-0.847778315409229,-0.847778315408474,NaN,-0.344241347715377,-0.397883856853203,NaN,-0.172626554421741,NaN,1.11026942349776,-1.58511482464255,-1.58511482464134,-0.131393429051373,-0.00651101845732743,NaN
115.9168,-1.13310441344307,-0.393487393558967,-1.67227665037099,1.31095220227013,0.562414964872321,0.562414964871623,NaN,-0.970942164009603,-1.25579331696618,-2.19998629279744,0.534712074269507,-2.19998629279767,-2.44426878980821,-1.45521164013395,-2.89851425537489,-0.886300110164563,0.406149486889524,-0.926181720574771,0.461021316631878,NaN,-0.245126357196255,-1.79334306172308,0.567552530124625,-2.23657489950869,NaN,0.793043571491566,1.3585367774023,-0.264939859694561,0.264939859692361,1.72601634164105,-0.116417510765685,1.82213663775259,0.827335761170845,NaN,-0.988138064193943,-2.19567132615945,0.154593518359007,-0.833798607947587,-0.833798607946864,NaN,-0.292554717048029,-0.387539229909669,NaN,-0.160557768933928,NaN,1.12124933538826,-1.55638725817006,-1.55638725816885,-0.139444946828374,0.00789217073832094,NaN
116.0192,-1.13478065347287,-0.426403637224239,-1.69866864785653,1.29999295745842,0.57415314674516,0.574153146744573,NaN,-0.945922568466763,-1.27269175698726,-2.22950048533697,0.542034873829492,-2.2295004853372,-2.45172785904565,-1.46771387813372,-2.91050143861629,-0.894351963762001,0.419408522522881,-0.926250025374248,0.45783136624472,NaN,-0.258103178373354,-1.79899041606828,0.566509031130314,-2.24772886157447,NaN,0.751855287771179,1.36660075647277,-0.259152891639371,0.259152891637179,1.78886872502014,-0.111099564832112,1.81398515160304,0.827350511446029,NaN,-0.997928309704046,-2.1674528749525,0.186455682077114,-0.819806222310462,-0.819806222309765,NaN,-0.242875177419553,-0.376818045240726,NaN,-0.148230489744766,NaN,1.13138808144807,-1.52773608299435,-1.52773608299313,-0.147826334366889,0.0230207852467369,NaN
116.1216,-1.13619782996873,-0.459964243365023,-1.72522150407938,1.28927532397147,0.585103679606761,0.585103679606308,NaN,-0.921100672644392,-1.29063385242221,-2.25884184459522,0.549575884252627,-2.25884184459544,-2.45910251707447,-1.48052655364973,-2.92252910205043,-0.90213691223856,0.432696122519013,-0.925907829137327,0.454486960591476,NaN,-0.27076186666013,-1.8036182076715,0.564161814675856,-2.25903595585806,NaN,0.71055391554823,1.3739774182038,-0.25230457166645,0.252304571664262,1.85094730818939,-0.106220441914075,1.80617247716549,0.827195949891086,NaN,-1.00795062589359,-2.13843019889583,0.21882144119735,-0.80583779307112,-0.805837793070455,NaN,-0.195293748545686,-0.365761504568684,NaN,-0.135659324715027,NaN,1.14066470438939,-1.49919324072104,-1.49919324071981,-0.15653912385313,0.038874648607263,NaN
116.224,-1.13735807999986,-0.494139962994645,-1.7519161880422,1.27881644681701,0.595233608972214,0.595233608971853,NaN,-0.89655345538771,-1.30966079369136,-2.28794571791478,0.557316209497845,-2.28794571791499,-2.46640605137975,-1.49365168773943,-2.93461070702038,-0.909677058777491,0.446010206339159,-0.925188878111533,0.450955153009862,NaN,-0.283093405914898,-1.80714641489078,0.56043560342881,-2.27046892401014,NaN,0.669165791121974,1.38063663124885,-0.24439631883664,0.244396318834464,1.91217011608328,-0.101779128473051,1.79869903967208,0.826873075722129,NaN,-1.01816153878635,-2.108598118176,0.25169380677633,-0.791928484469301,-0.791928484468654,NaN,-0.149891363931846,-0.354410982678916,NaN,-0.122861792135311,NaN,1.14906082001985,-1.47078510516255,-1.47078510516131,-0.165587501980723,0.0554548305929807,NaN
116.3264,-1.1382630197651,-0.528895430323397,-1.77872850912043,1.2686323685595,0.604513525018948,0.604513525018688,NaN,-0.872354053914576,-1.32980794154547,-2.3167453324363,0.565235452611854,-2.3167453324365,-2.47364923790882,-1.50708746432843,-2.94675582384913,-0.916994931268732,0.459350772245647,-0.924125719067707,0.4472010252771,NaN,-0.295089942717743,-1.80949592437884,0.555260398587453,-2.28199439240026,NaN,0.627717818797115,1.38655291274581,-0.235434518795792,0.235434518793607,1.97245500304718,-0.0977687117852772,1.79156478264632,0.826387215157804,NaN,-1.02851400335325,-2.07794734328621,0.285075654640987,-0.778111786486962,-0.778111786486342,NaN,-0.106738599540917,-0.342807853134081,NaN,-0.109858486770486,NaN,1.15656058639263,-1.44253229268238,-1.44253229268112,-0.174978466411139,0.0727637408863228,NaN
116.4288,-1.13891377258512,-0.56418907765318,-1.80562908822963,1.25873804611858,0.612917792477586,0.612917792477396,NaN,-0.848571398551339,-1.35110453835258,-2.34517190843764,0.573311693449295,-2.34517190843784,-2.48084024228691,-1.52082815367112,-2.95897000778784,-0.92411331519033,0.472719866426115,-0.922749484798095,0.443187824481686,NaN,-0.306744758666121,-1.81058913608136,0.548572042682001,-2.29357308739128,NaN,0.586237635466161,1.39170562150351,-0.225430659473764,0.225430659471587,2.03171993706894,-0.0941762951026938,1.784769236878,0.825748121867802,NaN,-1.03895750919944,-2.04646440218734,0.318969538853884,-0.764419372302262,-0.764419372301661,NaN,-0.0658954763783932,-0.33099332392248,NaN,-0.0966732233545383,NaN,1.16315066975623,-1.41444951744756,-1.4144495174463,-0.184721915297533,0.0908051776882849,NaN
116.5312,-1.13931098842982,-0.599973140881626,-1.8325833857001,1.24914738189292,0.620424702817966,0.620424702817799,NaN,-0.825269894524341,-1.37357347565396,-2.37315480291809,0.581521514351915,-2.37315480291828,-2.4879844949068,-1.53486410600112,-2.97125467740128,-0.931055057159827,0.486121512510435,-0.921089671786022,0.438877131269506,NaN,-0.318052242443739,-1.81035056129208,0.540312719672215,-2.30516012982211,NaN,0.544753743419273,1.39607912176398,-0.21440140047122,0.214401400469055,2.08988331246878,-0.0909829726109381,1.77831152293012,0.824969997632975,NaN,-1.04943826626856,-2.01413162025505,0.353377445271816,-0.750881010088391,-0.7508810100878,NaN,-0.0274113221667213,-0.319008276567692,NaN,-0.0833331492992429,NaN,1.16882020563165,-1.38654548857653,-1.38654548857526,-0.194830672267052,0.109584332096835,NaN
116.6336,-1.13945486758208,-0.63619373920001,-1.85955178907594,1.23987325938891,0.627016572873108,0.627016572872898,NaN,-0.802509152315889,-1.39723112232349,-2.40062169352256,0.589840062169992,-2.40062169352275,-2.4950845655183,-1.54918179888736,-2.98360701340776,-0.937842857337597,0.499561606924573,-0.919173931565844,0.434229055242277,NaN,-0.329007860199466,-1.80870741427464,0.530431401655338,-2.31670539604338,NaN,0.503295631885661,1.39966292457241,-0.202368597266818,0.202368597264662,2.14686429217827,-0.088163850868027,1.77219030941192,0.82407145472763,NaN,-1.05989944959111,-1.98092715577808,0.388300511188536,-0.737524516057521,-0.737524516056945,NaN,0.00867531023373476,-0.306893095694758,NaN,-0.0698688153836294,NaN,1.17356075625004,-1.35882284543437,-1.3588228454331,-0.205320460740939,0.129107762090437,NaN
116.736,-1.13934519579738,-0.672791013312882,-1.88648975821668,1.23092757199158,0.63267982070629,0.632679820706079,NaN,-0.780343766238268,-1.42208720862398,-2.42749879349212,0.598241133062614,-2.42749879349231,-2.50214005976456,-1.56376392058649,-2.99601989248139,-0.944499067452564,0.513047782083925,-0.917027898254304,0.429202449072085,NaN,-0.339608123719175,-1.80559019350611,0.518884250488163,-2.32815392671375,NaN,0.461893901868587,1.40245180339921,-0.189359300234219,0.189359300232075,2.20258317610802,-0.0856881126882834,1.76640374667056,0.82307543304577,NaN,-1.07028147572031,-1.946825093636,0.423738741333691,-0.724375734758551,-0.724375734757979,NaN,0.0423366674581087,-0.294687489461033,NaN,-0.0563141981491847,NaN,1.17736626620849,-1.33127813135982,-1.33127813135855,-0.216209843464023,0.14938335393911,NaN
116.8384,-1.13898138809328,-0.709699314440094,-1.91334801848301,1.22232123361655,0.637405035898674,0.637405035898455,NaN,-0.758823141451343,-1.44814475710236,-2.45371107642541,0.606697273068054,-2.45371107642559,-2.50914754447415,-1.57858947979586,-3.00848185877131,-0.951045502124772,0.526589236686448,-0.914675063985439,0.423755131397408,NaN,-0.349850557267807,-1.80093324520199,0.505634975430837,-2.33944636922082,NaN,0.420580396208346,1.4044458793385,-0.175405731394945,0.175405731392811,2.25696177900902,-0.0835191245884098,1.76094938522654,0.822009075801643,NaN,-1.08052229434175,-1.9117955960804,0.459690737781372,-0.711458536519653,-0.711458536519091,NaN,0.0735557709075974,-0.282430317788893,NaN,-0.0427066770840451,NaN,1.18023301597997,-1.30390181229793,-1.30390181229666,-0.227520131348371,0.170420276220676,NaN
116.9408,-1.13836253386938,-0.746847443152816,-1.94007279240739,1.21406416138967,0.641187043748861,0.641187043748636,NaN,-0.737991375048066,-1.47540006047405,-2.47918249680085,0.615179893184481,-2.47918249680103,-2.51610050042921,-1.59363394195758,-3.02097713197575,-0.957503267324381,0.540196536015883,-0.912136705257707,0.417844111254581,NaN,-0.359733662866158,-1.79467529794846,0.490655139307663,-2.3505194455532,NaN,0.379388328847861,1.4056506754665,-0.160545226660517,0.160545226658383,2.30992379202202,-0.0816145867922697,1.75582407750707,0.820903563853735,NaN,-1.09055769015674,-1.87580510416263,0.49615344945233,-0.698794826503289,-0.698794826502734,NaN,0.102326348681725,-0.270159449300064,NaN,-0.0290869741368022,NaN,1.18215957112186,-1.27667835120913,-1.27667835120785,-0.239275255033643,0.192228918094089,NaN
117.0432,-1.13748744350955,-0.78415893506473,-1.96660606783101,1.20616522057969,0.64402496007729,0.644024960077081,NaN,-0.717887198220632,-1.5038427202017,-2.50383621487962,0.623659397713968,-2.50383621487979,-2.52298931093259,-1.60886939350367,-3.03348566045131,-0.963892618016082,0.553881396257382,-0.909431865387925,0.411425811261249,NaN,-0.369256882635488,-1.78675995712405,0.473924404458873,-2.36130643897942,NaN,0.338352416771717,1.4060771494447,-0.144820137121466,0.144820137119332,2.36139511013758,-0.0799267157272474,1.75102386255923,0.819793916290345,NaN,-1.10032158763819,-1.83881657855387,0.533121943447768,-0.686404559842327,-0.686404559841782,NaN,0.128652722581672,-0.257911660689811,NaN,-0.0154990596179885,NaN,1.18314672328107,-1.24958634439187,-1.24958634439058,-0.25150159352034,0.214820802884054,NaN
117.1456,-1.13635470473044,-0.821552381984087,-1.99288590415222,1.19863211976155,0.645922240869527,0.645922240869317,NaN,-0.69854397903945,-1.53345575838358,-2.52759484954325,0.63210532137171,-2.52759484954342,-2.52980130462073,-1.62426472904852,-3.04598323500556,-0.970232866261721,0.567656476443918,-0.906577403205225,0.404456289820567,NaN,-0.378420558196299,-1.77713615503902,0.455430719538264,-2.37173769105213,NaN,0.297509034760878,1.40574172375269,-0.128277698856275,0.128277698854149,2.41130412372699,-0.0784024402451532,1.74654384457727,0.818718777269027,NaN,-1.10974634439076,-1.80078976961684,0.570589198994385,-0.674305756511816,-0.674305756511275,NaN,0.152549647986173,-0.24572258327753,NaN,-0.00199002369905966,NaN,1.18319741690914,-1.22259870991259,-1.22259870991131,-0.264227760631918,0.238208475492684,NaN
117.248,-1.13496275619881,-0.858941774333112,-2.01884677535677,1.19147124352902,0.646886733105216,0.646886733104958,NaN,-0.679989778943585,-1.56421580402075,-2.55038077861421,0.64048647021331,-2.55038077861437,-2.5365208662721,-1.63978585225255,-3.05844167287232,-0.976542356508698,0.581535195318387,-0.903588117075587,0.396891463004212,NaN,-0.387225889592023,-1.76575855888062,0.435170454997065,-2.38174110111596,NaN,0.256896416241108,1.4046663350234,-0.110969885365117,0.110969885362993,2.45958198088718,-0.0769835913622538,1.74237807942898,0.817720211904152,NaN,-1.1187630222474,-1.76168151320218,0.608545922361275,-0.662514514581597,-0.66251451458107,NaN,0.174042107591485,-0.233626696622073,NaN,0.0113900887641617,NaN,1.18231665523665,-1.19568290523801,-1.19568290523672,-0.277484354062063,0.26240536892022,NaN
117.3504,-1.13330998219221,-0.896236858925239,-2.04441995005924,1.18468741449988,0.646930727774048,0.646930727773795,NaN,-0.662247458677921,-1.59609334976438,-2.57211649489326,0.648771065772644,-2.57211649489341,-2.54312961768532,-1.65539588319191,-3.07082907105532,-0.982838510105394,0.59553157054571,-0.900476949443594,0.388687325263479,NaN,-0.395674897287412,-1.75258793716436,0.413148488107882,-2.39124262827371,NaN,0.216554910691951,1.40287851528155,-0.0929532517137921,0.0929532517116663,2.50616283118425,-0.0756070691256981,1.73851947253226,0.816843525587694,NaN,-1.12730163455698,-1.72144605397384,0.646980382056858,-0.65104502740286,-0.65104502740234,NaN,0.193165064785257,-0.221657369196567,NaN,0.0245884829545502,NaN,1.18051138178821,-1.16880115500193,-1.16880115500063,-0.29130366987135,0.28742565495962,NaN
117.4528,-1.13139483054546,-0.933343516194268,-2.06953391431819,1.17828358678317,0.646071010834001,0.646071010833707,NaN,-0.645334833266474,-1.62905307222144,-2.5927250147519,0.656926896413453,-2.59272501475204,-2.5496066615438,-1.6710553687166,-3.08311012091333,-0.98913792751019,0.609660062533485,-0.897255270702755,0.379800167757166,NaN,-0.403770389349159,-1.73759148433223,0.389378229950875,-2.400166806203,NaN,0.176527289665386,1.40041150041175,-0.0742887749311504,0.0742887749290127,2.55098406525618,-0.0742049810337855,1.73495968072603,0.816137107356046,NaN,-1.13529137404145,-1.68003540116345,0.685878267262742,-0.63990961034118,-0.639909610340666,NaN,0.209963188229703,-0.209846944716139,NaN,0.0375498635667271,NaN,1.1777903403017,-1.14191068706713,-1.14191068706585,-0.30571938050847,0.313284076874246,NaN
117.5552,-1.12921595185525,-0.970164164135962,-2.0941148401234,1.17226049218423,0.644328899998292,0.644328899998004,NaN,-0.629264872442519,-1.66305419517566,-2.61213032257643,0.664921480825499,-2.61213032257656,-2.55592887183146,-1.68672249514584,-3.09524646805677,-0.995456522674442,0.623935401096828,-0.893933224508903,0.370186797318727,NaN,-0.411515931195238,-1.72074310435703,0.363881587857012,-2.40843728173634,NaN,0.136859072155307,1.39730433512344,-0.0550416875496605,0.0550416875475075,2.59398656032174,-0.0727047737964534,1.7316890110892,0.815652276878761,NaN,-1.14266083190551,-1.63739972666422,0.725222571835452,-0.629118738158962,-0.629118738158461,NaN,0.224490556126702,-0.198226862110814,NaN,0.0502167371969149,NaN,1.17416392571459,-1.11496399375292,-1.11496399375164,-0.320766175082532,0.339995756482581,NaN
117.6576,-1.12677234880899,-1.00659819532865,-2.11808709069351,1.16661628020748,0.641730243565,0.641730243564702,NaN,-0.614045936993633,-1.6980508620189,-2.63025782303209,0.672722244702091,-2.6302578230322,-2.56207120580011,-1.70235330785716,-3.10719709548716,-1.00180965145145,0.638372376139605,-0.890520095846446,0.35980476517089,NaN,-0.418915809184512,-1.70202364977393,0.336688861619531,-2.41597737354899,NaN,0.0975988206021089,1.39360192119677,-0.0352812891974549,0.0352812891952783,2.63511492705669,-0.0710294115262141,1.72869631432843,0.815443092747019,NaN,-1.14933822722592,-1.59348781855405,0.764993500903574,-0.618681092845638,-0.618681092845151,NaN,0.236810338055619,-0.186827785202142,NaN,0.0625297747930168,NaN,1.16964404444415,-1.08790914549149,-1.08790914549022,-0.336479368323947,0.367575971210024,NaN
117.76,-1.1240635181837,-1.04254245286734,-2.14137374562359,1.16134619323648,0.63830535606847,0.638305356068161,NaN,-0.599682040206793,-1.73399249088365,-2.64703477193446,0.680296705434023,-2.64703477193456,-2.56800701268034,-1.71790194827159,-3.11891871041062,-1.00821220058746,0.652985583984038,-0.88702466083031,0.348612613645591,NaN,-0.425974978576827,-1.68142110661452,0.307838575001629,-2.42271063247936,NaN,0.0587983573274943,1.38935496012132,-0.0150807155567806,0.0150807155545772,2.67431774196961,-0.0690976554195135,1.72596887036396,0.815566078218194,NaN,-1.15525166641501,-1.54824759585789,0.805168394468753,-0.608603622581915,-0.608603622581445,NaN,0.246994448223329,-0.175679720813339,NaN,0.0744282335757081,NaN,1.16424399715245,-1.06069018097814,-1.06069018097688,-0.352894490908205,0.396039904548964,NaN
117.8624,-1.1210895704427,-1.07789175074077,-2.16389713160076,1.15644229913265,0.634088878117397,0.634088878117113,NaN,-0.586173128341277,-1.77082410745637,-2.66239066513696,0.687612658384025,-2.66239066513705,-2.57370832245944,-1.73332091942196,-3.13036612317933,-1.01467862769031,0.667789135259208,-0.883455499213585,0.336570140635101,NaN,-0.432698992885709,-1.65893071797581,0.27737724519272,-2.42856138722642,NaN,0.0205128696594719,1.38461977044599,0.00548335217446459,-0.00548335217669234,2.71154774960556,-0.0668244713238781,1.72349226022986,0.816079841007772,NaN,-1.16032944495466,-1.50162667590681,0.845721664335417,-0.598891612370906,-0.598891612370452,NaN,0.255123166792665,-0.164812117484577,NaN,0.0858504290233388,NaN,1.15797838718078,-1.03324758650929,-1.03324758650803,-0.370046871922574,0.425402377492416,NaN
117.9648,-1.11785132087263,-1.11253943965588,-2.18557935204684,1.15189328473364,0.62911956294431,0.629119562944007,NaN,-0.573515378457654,-1.80848666420558,-2.67625757958822,0.694638361662814,-2.67625757958829,-2.57914610908721,-1.7485613838935,-3.14149261445929,-1.02122296533718,0.682796338741951,-0.87982127606142,0.323638675801042,NaN,-0.439093917671671,-1.63455504765579,0.245359094364874,-2.43345527183838,NaN,-0.0171991033699622,1.37945798862213,0.0263310447850565,-0.0263310447873149,2.74676202678472,-0.0641215606498322,1.72125022014752,0.817044588560845,NaN,-1.16450039399765,-1.45357297695896,0.886624742189393,-0.589548765203732,-0.589548765203292,NaN,0.261284727607829,-0.154253942777846,NaN,0.0967342431882781,NaN,1.15086305057019,-1.00551886440206,-1.0055188644008,-0.387971219001982,0.455677566621129,NaN
118.0672,-1.11435035691577,-1.14637800822026,-2.20634281389892,1.14768430105999,0.623440005814724,0.623440005814412,NaN,-0.561701510703797,-1.84691735434916,-2.68857048042896,0.701342715506016,-2.68857048042902,-2.58429053704453,-1.7635734861616,-3.15225029603813,-1.02785881104685,0.69801937814448,-0.876131009155391,0.309781363186508,NaN,-0.445166233528376,-1.60830399533692,0.211845716491475,-2.43731973547459,NaN,-0.0542757842893548,1.37393617997509,0.0473797201722237,-0.0473797201745044,2.77992211129288,-0.0608979860267688,1.71922448638517,0.818521565294521,NaN,-1.1676942601432,-1.40403534122553,0.927846037779902,-0.580577287671576,-0.580577287671147,NaN,0.265574872685216,-0.144033732456235,NaN,0.107017653348269,NaN,1.142915000144,-0.977439172467927,-0.977439172466672,-0.406701200211084,0.486878711824043,NaN
118.1696,-1.11058909263861,-1.17929970182153,-2.22611075180037,1.14379684327774,0.617096340752045,0.617096340751675,NaN,-0.550721109125262,-1.88604992246819,-2.69926751975417,0.707695428032727,-2.69926751975422,-2.58911120998843,-1.77830668461426,-3.16259047738796,-1.03459932149383,0.71346899915111,-0.872394333587155,0.294963445039993,NaN,-0.450922734023967,-1.58019478357168,0.176905726717634,-2.44008452937924,NaN,-0.0906523361251467,1.36812539319984,0.0685444093270172,-0.068544409329336,2.8109941068601,-0.0570608473733645,1.71739465189972,0.820572456721719,NaN,-1.16984209299967,-1.35296417300635,0.969350910858904,-0.571977970188362,-0.571977970187942,NaN,0.268096379904617,-0.134179601899031,NaN,0.11663926245403,NaN,1.13415237799325,-0.948941999174835,-0.948941999173581,-0.426269031421577,0.519017815763658,NaN
118.272,-1.10657081685206,-1.2111971467722,-2.2448077484485,1.14020865440835,0.610137923530958,0.610137923530531,NaN,-0.540560944039883,-1.92581496670316,-2.70829033791266,0.713667158770785,-2.70829033791269,-2.59357743088803,-1.7927100820739,-3.17246404260354,-1.0414572189069,0.72915421990723,-0.868621763500573,0.279152540729821,NaN,-0.456370423759508,-1.55025193736488,0.140614423295723,-2.44168216297227,NaN,-0.126261086243111,1.36210067886978,0.0897382666145257,-0.0897382666168713,2.83994877959884,-0.0525159717110789,1.71573805012383,0.823258796597934,NaN,-1.17087662034743,-1.30031209568529,1.01110166620293,-0.563750258110797,-0.563750258110379,NaN,0.268958573063053,-0.124719215870238,NaN,0.125538811755598,NaN,1.12459441655608,-0.919959842221232,-0.91995984221998,-0.446705071113814,0.552105337081425,NaN
118.3744,-1.10229972875772,-1.24196397682435,-2.26236024148983,1.13689365873601,0.602617005156457,0.602617005155944,NaN,-0.531205289067364,-1.9661402241027,-2.71558434989535,0.719229635147214,-2.71558434989536,-2.59765846284909,-1.806732751959,-3.1818218262977,-1.04844480664171,0.745082071942477,-0.86482494054385,0.262318916814313,NaN,-0.461516416264629,-1.51850726473093,0.103053476572797,-2.4420483223197,NaN,-0.16103180564628,1.35594056727501,0.110873018152065,-0.110873018154439,2.86676165163153,-0.0471686083201711,1.71422966297873,0.826641382128351,NaN,-1.17073261261272,-1.24603463159004,1.05305758140811,-0.555892320938206,-0.555892320937796,NaN,0.268276814062895,-0.115679724794108,NaN,0.133657659625418,NaN,1.11426140913971,-0.890424880672939,-0.890424880671699,-0.468037427189666,0.586149881397494,NaN
118.4768,-1.09778094739357,-1.27149546270969,-2.27869700071601,1.13382194008429,0.594588390189233,0.594588390188624,NaN,-0.522636228083643,-2.00695083511856,-2.72109899306355,0.72435574295415,-2.72109899306355,-2.60132377238502,-1.82032406366185,-3.19061497244887,-1.0555739854015,0.761257374218708,-0.861016854368113,0.244435747260901,NaN,-0.466367826765328,-1.48499983138688,0.0643106402852678,-2.44112224620038,NaN,-0.194892066407227,1.34972649055777,0.131859422083071,-0.131859422085486,2.89141308134585,-0.0409241408769866,1.71284204067415,0.830779681956287,NaN,-1.16934725214967,-1.19009090016022,1.09517497109023,-0.548401128938378,-0.548401128937966,NaN,0.266171965323518,-0.107087685393337,NaN,0.140939220447968,NaN,1.10317468428695,-0.860269648141497,-0.860269648140274,-0.490291587031336,0.621157898579045,NaN
118.5792,-1.09302048655403,-1.29968914354339,-2.29374956455311,1.13095977380686,0.586109076469543,0.586109076468808,NaN,-0.514833950790049,-2.04816959117202,-2.72478793433202,0.729019597697741,-2.72478793433202,-2.60454324877078,-1.83343401331882,-3.1987952725378,-1.06285626007037,0.777682538306534,-0.857212022415351,0.225479362802437,NaN,-0.470931657495359,-1.44977591934673,0.0244794733274078,-2.43884705948612,NaN,-0.227767681298769,1.34354214925116,0.152607754533471,-0.152607754535907,2.91388831401396,-0.0336888220740647,1.71154522710294,0.835731229553385,NaN,-1.16666051631348,-1.13244432202167,1.13740728347969,-0.541272538936001,-0.541272538935592,NaN,0.262769811426539,-0.0989689803807443,NaN,0.147329365313573,NaN,1.09135657479503,-0.829427713691712,-0.829427713690501,-0.513490082694104,0.657133396272738,NaN
118.6816,-1.08802519891622,-1.32644545344124,-2.30745263547363,1.12826970785954,0.577237884636724,0.577237884635875,NaN,-0.507777034783997,-2.08971717271883,-2.72660925806831,0.733196603113305,-2.72660925806829,-2.60728741119766,-1.84601356269934,-3.20631549521328,-1.07030272938424,0.794357399558726,-0.853426622239333,0.205429487551003,NaN,-0.4752146786424,-1.4128889675996,-0.0163409348111207,-2.43517007061553,NaN,-0.259583201773893,1.33747284518403,0.173028316485881,-0.173028316488353,2.93417749574095,-0.0253705147655781,1.71030669839131,0.841551018179604,NaN,-1.16261556552084,-1.07306331484377,1.17970522270526,-0.534501382466384,-0.534501382465981,NaN,0.25820043661195,-0.091348737884928,NaN,0.152776783772021,NaN,1.07883037444903,-0.79783436418774,-0.797834364186548,-0.537652196740982,0.694077675928753,NaN
118.784,-1.082802701705,-1.35166833210364,-2.31974444104515,1.12571067857473,0.568035094217859,0.568035094216913,NaN,-0.501442709393728,-2.13151238392169,-2.72652565949272,0.736863494910844,-2.72652565949269,-2.60952762387629,-1.85801498089182,-3.21312972462871,-1.07792405794752,0.811279071523025,-0.849678578053464,0.184269461544522,NaN,-0.479223309354078,-1.37439949952735,-0.0580462352380162,-2.43004304154183,NaN,-0.290262438820893,1.33160480821165,0.193031940225799,-0.1930319402283,2.95227565471494,-0.0158794110406667,1.70909133279674,0.848290928725136,NaN,-1.15715911504947,-1.01192196967009,1.22201689349749,-0.528081546992546,-0.52808154699215,NaN,0.252597558380755,-0.0842512414301972,NaN,0.157233301666553,NaN,1.06562027876718,-0.765427271001657,-0.765427271000482,-0.562793708491479,0.731989092948782,NaN
118.8864,-1.07736129657776,-1.37526581272802,-2.33056707116253,1.1232381486047,0.558562094559868,0.558562094558846,NaN,-0.495807099930701,-2.17347238716707,-2.72450465383499,0.739998363304024,-2.72450465383495,-2.61123633047119,-1.86939217974368,-3.21919371478312,-1.08573043398562,0.828441821822549,-0.845987607948865,0.161986448684646,NaN,-0.482963501394207,-1.33437503584077,-0.100527088696028,-2.42342242983513,NaN,-0.319728985770667,1.32602452997367,0.212530477179377,-0.212530477181901,2.96818265696049,-0.00512870932217658,1.70786142890906,0.855999214388717,NaN,-1.1502417748767,-0.949000702162675,1.26428796909128,-0.522006046516301,-0.522006046515911,NaN,0.246097821034992,-0.0776998204815511,NaN,0.160654155447298,NaN,1.05175131006322,-0.732147127655618,-0.732147127654466,-0.588926676979713,0.770862839558207,NaN
118.9888,-1.07170989072502,-1.397150589783,-2.33986680186545,1.12080426802759,0.548881044129646,0.548881044128532,NaN,-0.490845454094886,-2.21551293716785,-2.72051879406949,0.742580652032984,-2.72051879406945,-2.61238730237112,-1.88010103741282,-3.22446525242502,-1.093731513455,0.845836964497753,-0.842375237046541,0.138571629337762,NaN,-0.486440625245698,-1.29288998148581,-0.143669440473401,-2.41526959488647,NaN,-0.347906748625207,1.32081809779373,0.231437263028638,-0.231437263031179,2.98190314415012,0.00696475115744826,1.70657677781473,0.86472004554443,NaN,-1.14181835748049,-0.884286877509636,1.30646188687993,-0.516267084270022,-0.516267084269632,NaN,0.238840057991307,-0.0717167130233065,NaN,0.16299823380312,NaN,1.03724922965198,-0.697938257637376,-0.697938257636236,-0.61605925610287,0.810690748146862,NaN
119.0912,-1.06585791976093,-1.41724057140011,-2.34759440995913,1.11835807364003,0.53905453077588,0.539054530774662,NaN,-0.48653234530932,-2.25754861267884,-2.71454588187488,0.744591135916096,-2.71454588187482,-2.61295588692358,-1.89009970879797,-3.2289045148084,-1.10193635238314,0.863452767236227,-0.838864780661169,0.114020376177974,NaN,-0.489659354830855,-1.25002547412557,-0.187354813832166,-2.4055509654235,NaN,-0.374720504696453,1.31607050917444,0.249667560776933,-0.249667560779498,2.99344646344386,0.0204798857732278,1.70519478508582,0.874493102852403,NaN,-1.13184815928063,-0.817775404773999,1.34848008266258,-0.510856108167952,-0.510856108167567,NaN,0.230964528499533,-0.0663228955725348,NaN,0.164228299764972,NaN,1.02214043605773,-0.662749198847438,-0.662749198846317,-0.644195543708068,0.851461117349884,NaN
119.1936,-1.05981526763558,-1.43545942025425,-2.35370547548967,1.11584574390661,0.52914523151522,0.529145231513899,NaN,-0.482841842200827,-2.29949304795581,-2.70656915664979,0.746011879358397,-2.70656915664973,-2.61291924479072,-1.89934892640144,-3.23247441334354,-1.11035333660435,0.881274384511635,-0.835481301106159,0.0883324116904722,NaN,-0.49262354522398,-1.20586918677248,-0.23146063500058,-2.39423817460955,NaN,-0.400096509497416,1.31186494614394,0.267138982591588,-0.267138982594168,3.00282659629659,0.0354907725212587,1.70367063492774,0.885353201355487,NaN,-1.12029521775932,-0.749469288882439,1.39028227587745,-0.505763854308536,-0.505763854308152,NaN,0.222612123675107,-0.0615378843961109,NaN,0.164311196311696,NaN,1.0064518419535,-0.626533272097881,-0.626533272096781,-0.673335474452566,0.89315856901345,NaN
119.296,-1.05359217591462,-1.45173708874046,-2.35816066703946,1.1132109179753,0.519215567271278,0.519215567269872,NaN,-0.479747642349519,-2.34125917280125,-2.69657745178367,0.746826179267974,-2.6965774517836,-2.61225657056078,-1.90781230026482,-3.23514092091579,-1.11899012127686,0.899283836803449,-0.832251538439615,0.0615119466831305,NaN,-0.495336100117414,-1.16051507739118,-0.275860602836912,-2.38130816950757,NaN,-0.423963163049459,1.30828199842364,0.283771900518359,-0.28377190052096,3.01006208167088,0.0520660577303988,1.70195748714162,0.897329929316179,NaN,-1.10712854760032,-0.679380124857657,1.4318068081457,-0.500980375001657,-0.500980375001286,NaN,0.213923534575931,-0.0573795199870943,NaN,0.16321802894674,NaN,0.99021072310736,-0.589249141148394,-0.58924914114731,-0.703474764240252,0.935763941737716,NaN
119.3984,-1.04719913504949,-1.46601034970548,-2.36092600178169,1.11039507424239,0.509327341449786,0.509327341448255,NaN,-0.477223180480463,-2.38275946705587,-2.68456531507933,0.747018499639295,-2.68456531507924,-2.61094929019524,-1.91545662331124,-3.23687337921714,-1.12785358500667,0.917460051802261,-0.829203808251297,0.0335678003482655,NaN,-0.497798830936898,-1.11406307415811,-0.320425118377088,-2.36674329768982,NaN,-0.446251731322968,1.30539884365403,0.299489864882491,-0.299489864885113,3.01517591917359,0.0702683539153854,1.70000669584574,0.910447291922784,NaN,-1.09232236553048,-0.607528522389988,1.47299102188431,-0.496495055511962,-0.496495055511609,NaN,0.205038389463822,-0.0538637519745692,NaN,0.160924319345236,NaN,0.973444541268838,-0.550861364089298,-0.550861364088234,-0.734604902668273,0.979254217850229,NaN
119.5008,-1.04064674923244,-1.47822330968543,-2.36197306039533,1.10733795152883,0.499541351907597,0.499541351905956,NaN,-0.47524172074507,-2.42390621828739,-2.67053309489933,0.746574407547581,-2.67053309489923,-2.60898122263944,-1.92225217753132,-3.23764477222587,-1.13694978795624,0.935778969754708,-0.826367849266715,0.00451350168944805,NaN,-0.500012314794467,-1.06661868039015,-0.365021790994988,-2.35053136800078,NaN,-0.466897098893799,1.30328841468744,0.314220043147836,-0.314220043150461,3.01819543415063,0.0901536338078427,1.69776804078203,0.924723358371937,NaN,-1.07585631432079,-0.533944453352059,1.51377165356146,-0.492296630838364,-0.492296630838016,NaN,0.196094389999524,-0.0510044395322744,NaN,0.157410123691086,NaN,0.956180751069037,-0.511340915018707,-0.511340915017679,-0.76671317898323,1.02360247542225,NaN
119.6032,-1.03394556524507,-1.48832788224278,-2.36127912857435,1.10397798880685,0.489916972275963,0.489916972274243,NaN,-0.473776433509838,-2.46461175662752,-2.65448699116929,0.745480516970909,-2.65448699116917,-2.60633869025547,-1.92817302735606,-3.23743194587867,-1.14628391338272,0.954213704229044,-0.823774598676974,-0.0256326300617218,NaN,-0.501975760355225,-1.01829248311803,-0.409516031835576,-2.33266567360413,NaN,-0.485838518854992,1.30201859285358,0.327893677265006,-0.327893677267638,3.01915208837547,0.11177062867232,1.69518996904636,0.940169917519097,NaN,-1.05771568867996,-0.458667516301769,1.55408521455155,-0.488373214701657,-0.48837321470133,NaN,0.18722648672638,-0.0488131693560542,NaN,0.152660104126957,NaN,0.938446600317013,-0.47066563749755,-0.470665637496561,-0.799782722821664,1.06877785740671,NaN
119.7056,-1.02710586197175,-1.49628420531246,-2.35882724917178,1.10025276397658,0.480511705567555,0.480511705565707,NaN,-0.472800453598531,-2.50478864718328,-2.63643906892189,0.743724440169136,-2.63643906892176,-2.60301057231411,-1.93319728790084,-3.23621576363858,-1.15586017741388,0.972734744417523,-0.821455885356331,-0.0568474266351224,NaN,-0.503686886647269,-0.969199561875567,-0.45377173109976,-2.31314496649375,NaN,-0.503020335555382,1.30165145316933,0.340446549578074,-0.340446549580706,3.0180812308064,0.135160241764146,1.69221984988724,0.956792151838563,NaN,-1.03789165999986,-0.381747119254926,1.59386834404192,-0.484712350791358,-0.484712350791047,NaN,0.178566112428973,-0.0472990828360796,NaN,0.146663547856461,NaN,0.9202689295098,-0.428820599549927,-0.428820599548983,-0.833792547386668,1.11474555341473,NaN
119.808,-1.02013740870371,-1.50206099959313,-2.35460619269078,1.09609942375528,0.471380720884727,0.47138072088279,NaN,-0.472286923681116,-2.54434984260399,-2.61640723519347,0.741294742033998,-2.61640723519333,-2.59898831101903,-1.93730736373765,-3.23398120530139,-1.16568170597543,0.991310181258876,-0.819444054849674,-0.0891028281922217,NaN,-0.505141814193486,-0.919458818010572,-0.497652000913286,-2.2919733915969,NaN,-0.518392673620901,1.302242566627,0.351819449107371,-0.351819449109997,3.01502180274427,0.160354992051939,1.68880424229682,0.974588341268018,NaN,-1.01638149921378,-0.303242597479551,1.63305813509392,-0.481301095313809,-0.481301095313514,NaN,0.170240453934734,-0.0464687129880783,NaN,0.13941434329707,NaN,0.901673979368508,-0.385798351575267,-0.385798351574366,-0.868717597630606,1.16146679575453,NaN
119.9104,-1.01304920800737,-1.50563586831589,-2.34861036559617,1.09145510237573,0.462576394917534,0.462576394915507,NaN,-0.472209033268903,-2.58320881377941,-2.59441518304712,0.738180892077396,-2.59441518304696,-2.59426588784473,-1.94049015639395,-3.23071742529864,-1.17575039088304,1.00990594334783,-0.817771555724151,-0.122365850729631,NaN,-0.506334967342553,-0.869192263130896,-0.541019954073594,-2.26916040323375,NaN,-0.531912090726169,1.30384035999164,0.361958630955428,-0.361958630958058,3.01001602531985,0.187378506393528,1.68488917343096,0.993549610038465,NaN,-0.993188797441781,-0.223223288783345,1.67159244642146,-0.478126133892795,-0.478126133892515,NaN,0.162371734068601,-0.0463258482746245,NaN,0.130910925301474,NaN,0.882687219156508,-0.341599115986452,-0.341599115985598,-0.904528816674105,1.20889887546889,NaN
120.0128,-1.00584923968421,-1.50699553276085,-2.34083967242793,1.08625732461561,0.454147886478116,0.454147886476052,NaN,-0.472540062454826,-2.62127967663192,-2.57049230790141,0.734373209293257,-2.57049230790124,-2.58883978592203,-1.94273723452885,-3.22641778314636,-1.18606674356729,1.02848603987251,-0.81647051637176,-0.156598563458981,NaN,-0.507258990592243,-0.818524302625647,-0.583739486462513,-2.24472067849507,NaN,-0.54354218049621,1.30648554522613,0.370816258686793,-0.370816258689412,3.00310909331174,0.216245076348607,1.68042043124963,1.01365973073277,NaN,-0.968323678452261,-0.141768576657093,1.70941021312448,-0.475173925159142,-0.47517392515888,NaN,0.155076498700235,-0.0468714425109632,NaN,0.121156193867568,NaN,0.863333203855695,-0.296230941296119,-0.296230941295312,-0.941193241351942,1.25699518010319,NaN
120.1152,-0.998544218562512,-1.50613599771872,-2.33129934295436,1.08044438637475,0.446140766718287,0.446140766716158,NaN,-0.473253433441268,-2.6584773261226,-2.54467360062386,0.729862794668074,-2.54467360062368,-2.58270894710097,-1.94404495990514,-3.22107985158858,-1.19662975965752,1.04701280971783,-0.81557233212184,-0.19175808201747,NaN,-0.507904684573075,-0.767581031342001,-0.625676042837556,-2.21867402722863,NaN,-0.553254105001205,1.31021063618256,0.378350818282958,-0.378350818285573,2.99434888861552,0.246959286917865,1.67534387893078,1.0348949950228,NaN,-0.941802992938207,-0.0589678974236686,1.74645176146337,-0.472430859562348,-0.47243085956209,NaN,0.148464921072425,-0.0481035800735367,NaN,0.110157410261104,NaN,0.843635458395255,-0.249709840981627,-0.24970984098087,-0.97867412955964,1.30570524943856,NaN
120.2176,-0.991139375565666,-1.50306264662923,-2.31999973567903,1.07395570466321,0.438596716930812,0.438596716928638,NaN,-0.474322766576864,-2.69471758343908,-2.51699952273725,0.724641443937176,-2.51699952273705,-2.57587472954302,-1.94441456593727,-3.21470540676247,-1.20743679774265,1.06544716909677,-0.815107274118199,-0.227796584206344,NaN,-0.508260967112276,-0.716489542433769,-0.666697361845245,-2.19104529433263,NaN,-0.561027037797851,1.31503956471114,0.384527490891719,-0.384527490894337,2.98378572224929,0.27951571874513,1.6696057995086,1.05722415653087,NaN,-0.913650482362676,0.0250792968503683,1.78265912623504,-0.469883426160004,-0.469883426159759,NaN,0.142640138208892,-0.0500174971971411,NaN,0.0979260807891565,NaN,0.823616380745686,-0.202059920588984,-0.202059920588274,-1.01693111761777,1.35497484806102,NaN
120.32,-0.983638273348286,-1.49779026592823,-2.30695613111892,1.06673212596078,0.431553300143314,0.431553300141082,NaN,-0.475721934413265,-2.72991736382729,-2.48751587846752,0.718701530517056,-2.4875158784673,-2.56834087776843,-1.94385218637306,-3.20730041080805,-1.21848347636022,1.08374885235956,-0.815104130480107,-0.264661353647889,NaN,-0.50831486286552,-0.665377247740734,-0.706674201013322,-2.16186425265442,NaN,-0.566848498572829,1.32098740731351,0.38931846756403,-0.389318467566647,2.97147211380194,0.313898735030576,1.66315328166866,1.08060846003301,NaN,-0.883896896166053,0.110263626078299,1.81797637111868,-0.467518382757396,-0.467518382757164,NaN,0.137697635556072,-0.052605655445639,NaN,0.0844778397970557,NaN,0.803297154621704,-0.153313482246912,-0.153313482246252,-1.05592040702384,1.40474605973516,NaN
120.4224,-0.976042672049352,-1.49034299343878,-2.29218852998699,1.05871618177272,0.425043812312519,0.425043812310236,NaN,-0.477425109735616,-2.76399487660717,-2.45627370673523,0.712035848530393,-2.45627370673499,-2.5601135222915,-1.94236882793024,-3.19887500085538,-1.22976360040328,1.10187664726812,-0.815589894789195,-0.302294855764445,NaN,-0.508051523244498,-0.614371213146492,-0.745481038849323,-2.13116548820744,NaN,-0.57071456093444,1.32806023729789,0.392703186887909,-0.392703186890521,2.95746261848472,0.350082378386108,1.65593465860793,1.10500178254473,NaN,-0.852580045501168,0.196465924421038,1.85234991694293,-0.465322923038838,-0.465322923038617,NaN,0.133724694467919,-0.055857859416423,NaN,0.0698323360561485,NaN,0.782697664678501,-0.103511093296959,-0.103511093296345,-1.09559498464516,1.45495740955196,NaN
120.5248,-0.968352457954,-1.4807541846378,-2.27572146730899,1.0498522889597,0.419097218533829,0.419097218531487,NaN,-0.479406807220992,-2.79686986192995,-2.42332920576939,0.704637413378879,-2.42332920576913,-2.55120121726541,-1.93998027735981,-3.18944348870874,-1.24126912484848,1.11978862358555,-0.81658951432339,-0.340634849400219,NaN,-0.507454277127033,-0.563597515237121,-0.782996749276722,-2.0989882815717,NaN,-0.572629923684566,1.3362551113803,0.394668479387569,-0.39466847939017,2.94181371457061,0.388030396518913,1.64790000704612,1.13035090448645,NaN,-0.819744784831586,0.283557438824483,1.88572888377243,-0.463284834310008,-0.463284834309803,NaN,0.130799913364167,-0.0597614072909756,NaN,0.0540131161309032,NaN,0.761836411256926,-0.0527016118659709,-0.0527016118654053,-1.13590488416367,1.50554401779699,NaN
120.6272,-0.960565634620247,-1.46906619848623,-2.2575838431821,1.04008690708234,0.413738171971256,0.413738171968856,NaN,-0.481641920206071,-2.82846385361994,-2.3887436803966,0.696499231764157,-2.38874368039632,-2.54161500671224,-1.93670693895188,-3.17902436068544,-1.25299015212615,1.13744234830901,-0.818125698541208,-0.379614535419221,NaN,-0.506504711251956,-0.513180626488847,-0.819105241742504,-2.06537648813382,NaN,-0.572607853889066,1.34556018009455,0.395208612437969,-0.395208612440571,2.92458376174507,0.427696387389385,1.63900170227759,1.15659590161355,NaN,-0.785442925737946,0.37140008400534,1.91806544962612,-0.461392643988273,-0.461392643988086,NaN,0.128992813768677,-0.0643012605465715,NaN,0.0370474926704799,NaN,0.74073042643551,-0.000942164776020581,-0.00094216477550017,-1.17679749344088,1.55643778798934,NaN
120.7296,-0.952678360281218,-1.45533012167306,-2.23780876438502,1.02936867282552,0.408987095915977,0.408987095913525,NaN,-0.48410575732021,-2.85870045306841,-2.35258349135215,0.68761406485279,-2.35258349135185,-2.53136849951998,-1.93257361637386,-3.1676402641205,-1.2649149526612,1.15479507917803,-0.820218779987379,-0.419162739436635,NaN,-0.505182778161236,-0.463242838868811,-0.853696056497367,-2.03037841878997,NaN,-0.57067003029962,1.35595489192986,0.39432524656469,-0.394325246567287,2.90583302463429,0.469024029808842,1.62919500626521,1.18367061976652,NaN,-0.749733097430069,0.459846753942441,1.94931521714823,-0.459635756816846,-0.459635756816684,NaN,0.128363542808477,-0.0694602186096244,NaN,0.0189663906431153,NaN,0.719395196863373,0.051701926947998,0.0517019269484752,-1.21821789822396,1.60756762515192,NaN
120.832,-0.944685006934028,-1.43960546225715,-2.2164333897863,1.01764852574675,0.404860295764116,0.404860295761588,NaN,-0.486774085116088,-2.88750560650581,-2.3149199901581,0.67797420919589,-2.31491999015778,-2.52047793356442,-1.92760926873542,-3.15531797345351,-1.27702999818437,1.17180393039536,-0.822886617882266,-0.459204120673679,NaN,-0.503466931164515,-0.413903733010219,-0.886664907580035,-1.99404672248809,NaN,-0.56684632577877,1.36741025883188,0.39202733109437,-0.392027331096951,2.88562373076252,0.511947365727216,1.61843864625348,1.21150318488683,NaN,-0.712680572962348,0.548741691197965,1.97943755957582,-0.45800458483977,-0.458004584839633,NaN,0.128962679100351,-0.0752190887820584,NaN,-0.000195823499253092,NaN,0.697844600122412,0.105157277495969,0.105157277496417,-1.26010923475339,1.65885966959846,NaN
120.9344,-0.93657821976045,-1.42195983221691,-2.19349876795202,1.00487982851627,0.401370074131711,0.401370074129112,NaN,-0.48962317585769,-2.91480788194037,-2.27582942693973,0.667571311081567,-2.2758294269394,-2.50896221170504,-1.92184676569028,-3.14208832911344,-1.28932000085291,1.18842601427144,-0.826144531102292,-0.49965939941424,NaN,-0.501334289274256,-0.365279687527915,-0.917914177514471,-1.95643826715697,NaN,-0.561174558368343,1.37988916889602,0.388330972531376,-0.388330972533953,2.86402011886194,0.556391123105015,1.60669533919186,1.24001651718308,NaN,-0.674357078102092,0.637920918912503,2.00839590747725,-0.456490670595378,-0.45649067059527,NaN,0.13083114159007,-0.0815568521357561,NaN,-0.0204015193689036,NaN,0.676090858395279,0.159342623093053,0.159342623093459,-1.30241302060585,1.71023752963192,NaN
121.0368,-0.928348967814295,-1.40246861179605,-2.16904965064212,0.991018476379679,0.398524843561677,0.398524843558997,NaN,-0.492629851117653,-2.94053873987819,-2.23539282181494,0.656396218904025,-2.2353928218146,-2.49684289763755,-1.91532264468214,-3.12798613895036,-1.30176795532564,1.20461857305967,-0.830005243983601,-0.540445602791491,NaN,-0.49876083706149,-0.317483413245194,-0.947353374796199,-1.91761400911449,NaN,-0.553700216054176,1.39334675645155,0.383259298468578,-0.383259298471144,2.84108844147655,0.602271092894684,1.59393223924144,1.26912884848045,NaN,-0.63484058950942,0.727212745062204,2.03615794904631,-0.455086800765014,-0.455086800764937,NaN,0.134000194291364,-0.0884508343061388,NaN,-0.0416099833483882,NaN,0.654144508146376,0.214169074750004,0.214169074750372,-1.34506944571543,1.76162250493068,NaN
121.1392,-0.919986589874968,-1.38121457415167,-2.14313427104957,0.976022984179687,0.396329246654689,0.396329246651971,NaN,-0.495771512424064,-2.96463279236373,-2.19369580056862,0.644438870649545,-2.19369580056826,-2.48414417172209,-1.9080768581664,-3.11305003758477,-1.31435518310453,1.22033911163503,-0.834478834664491,-0.581476334310253,NaN,-0.49572166372881,-0.270623500134134,-0.974899561208697,-1.87763884036168,NaN,-0.544476136799274,1.40773085272881,0.376842321342828,-0.37684232134539,2.81689690300542,0.649494582902584,1.58012131463603,1.2987542635497,NaN,-0.594215115779665,0.816438348595321,2.0626957338892,-0.453787103364984,-0.453787103364943,NaN,0.138491537148183,-0.0958768894639057,NaN,-0.0637776085518481,NaN,0.632014383119918,0.269540450855968,0.269540450856302,-1.38801761554601,1.81293379748604,NaN
121.2416,-0.911478846130542,-1.35828745286903,-2.11580408688278,0.959854535917513,0.39478429617628,0.394784296173487,NaN,-0.499026156370408,-2.98702805113262,-2.15082840408252,0.631688207684026,-2.15082840408214,-2.47089275892309,-1.90015249828024,-3.09732231036769,-1.32706137989542,1.23554552745865,-0.839572690156704,-0.622662073893507,NaN,-0.492191244498627,-0.2248039731896,-1.00047774852596,-1.83658140666673,NaN,-0.533562118285095,1.42298253951428,0.369116791171415,-0.369116791173977,2.79151552776373,0.697960970152943,1.56523967545818,1.32880329302068,NaN,-0.552570449210653,0.905412449346965,2.08798568011841,-0.452587120889976,-0.452587120889956,NaN,0.144317478991989,-0.103809598619969,NaN,-0.0868581043997553,NaN,0.609707610130892,0.32535370032115,0.325353700321454,-1.43119574159473,1.86408870708452,NaN
121.344,-0.902811987144886,-1.33378344376677,-2.08711349591022,0.942476983829787,0.393887545343132,0.393887545340305,NaN,-0.50237237508673,-3.00766617287085,-2.10688487984363,0.618132100077817,-2.10688487984323,-2.4571178447413,-1.89159549135748,-3.08084869413462,-1.33986466913956,1.25019622653903,-0.845291482544396,-0.663910516089223,NaN,-0.488143766688057,-0.180123859137842,-1.0240212599737,-1.79451389296325,NaN,-0.521024439021933,1.43903682145653,0.360126018067539,-0.360126018070088,2.76501596254373,0.747562374554111,1.54926987295591,1.35918358592728,NaN,-0.510001877889742,0.993944054007459,2.11200849165614,-0.45148385556453,-0.451483855564533,NaN,0.151481200807921,-0.112222475269205,NaN,-0.110802735007977,NaN,0.587229616893631,0.381499418604948,0.381499418605211,-1.47454128019907,1.9150028120437,NaN
121.4464,-0.893970848774726,-1.3078046417858,-2.05711953511691,0.923856792619873,0.393633291820465,0.393633291817568,NaN,-0.505789344687821,-3.0264927098421,-2.06196345724981,0.603757271098638,-2.06196345724939,-2.44285098964047,-1.88245425934334,-3.06367816362317,-1.35274166560575,1.26425021941119,-0.851637177144889,-0.705126952188964,NaN,-0.483553499268565,-0.136676771009616,-1.04547204900147,-1.75151177724531,NaN,-0.506935286187384,1.45582341708289,0.349919645405249,-0.349919645407779,2.73747122820894,0.798184469225266,1.53220018132295,1.38980067928045,NaN,-0.466609850372216,1.08183726766094,2.13474900174144,-0.450475786537979,-0.450475786537994,NaN,0.159977117711847,-0.121088168135892,NaN,-0.135560590433685,NaN,0.564584148023814,0.437862450559777,0.437862450560003,-1.51799102625632,1.96559014016308,NaN
121.5488,-0.88493897506453,-1.28045842500574,-2.02588157485433,0.903962942252557,0.394012806297702,0.394012806294759,NaN,-0.509256805518885,-3.04345736318928,-2.01616609976604,0.588549224399763,-2.01616609976561,-2.42812603850258,-1.8727793510254,-3.04586270138483,-1.36566755157622,1.27766720597696,-0.858609068577888,-0.746214693796048,NaN,-0.47839519548931,-0.0945505253186258,-1.0647809635744,-1.7076535609948,NaN,-0.491372105512206,1.47326763830128,0.338553366937482,-0.338553366939997,2.70895544174065,0.84970740964597,1.51402485799844,1.42055884886626,NaN,-0.422499590027198,1.16889216713676,2.15619596692552,-0.449562858840833,-0.449562858840861,NaN,0.169791322364372,-0.130378656167544,NaN,-0.161078887816942,NaN,0.541773284387355,0.494322561918001,0.494322561918194,-1.56148116886765,2.01576333203836,NaN
121.6512,-0.875698761154136,-1.25185680521085,-1.9934610126408,0.882766822167441,0.395014566256408,0.395014566253452,NaN,-0.512755035011344,-3.05851422175431,-1.96959821639171,0.572492194458557,-1.96959821639126,-2.41297900480743,-1.86262305272227,-3.02745703558242,-1.37861616779988,1.29040767151822,-0.866203828424112,-0.787075526290513,NaN,-0.472644509736067,-0.0538268119104902,-1.08190794126515,-1.66302048901167,NaN,-0.474416909555928,1.49129130102746,0.326088601408972,-0.32608860141147,2.67954352626606,0.902006823888279,1.49474436278158,1.45136198662086,NaN,-0.377780666236273,1.25490573992509,2.17634183505811,-0.448746442972719,-0.448746442972757,NaN,0.180902066225829,-0.140065438808634,NaN,-0.187303293943942,NaN,0.518797463425152,0.550755149142005,0.550755149142171,-1.6049473166457,2.06543379365872,NaN
121.7536,-0.866231599960143,-1.22211576267167,-1.95992095988621,0.860242153732547,0.396624477003465,0.396624477000483,NaN,-0.516264807750554,-3.0716219649706,-1.92236830979776,0.555569144629519,-1.9223683097973,-2.3974479024578,-1.85203899245651,-3.00851832531238,-1.3915601216216,1.30243301188681,-0.874415552250924,-0.827610179307503,NaN,-0.46627841244072,-0.0145809314604182,-1.09682212370815,-1.61769626760063,NaN,-0.456155586904263,1.50981361378492,0.312592152016248,-0.312592152018733,2.64931091129033,0.954954799253732,1.47436550782886,1.48211444041725,NaN,-0.332566538881654,1.33967289052084,2.19518249414909,-0.448029266250422,-0.448029266250473,NaN,0.193280244268696,-0.150119727255445,NaN,-0.214178260500896,NaN,0.495655500323385,0.607031961325054,0.607031961325195,-1.64832450174117,2.1145118357941,NaN
121.856,-0.856518016764505,-1.19135457037986,-1.92532590607434,0.836364963507164,0.398826077039154,0.398826077036127,NaN,-0.519767332304731,-3.08274401724689,-1.87458754683631,0.537761828274112,-1.87458754683584,-2.38157250766806,-1.84108174757875,-2.98910578056633,-1.40447091544165,1.31370568764389,-0.883235810759893,-0.867718808428471,NaN,-0.459275597587287,0.0231183963482014,-1.10950188675684,-1.57176678097563,NaN,-0.43667723788587,1.52875202555015,0.298135873394638,-0.298135873397105,2.61833321143087,1.00842083561948,1.45290151480943,1.51272178131558,NaN,-0.28697408901528,1.42298751111554,2.21271698910681,-0.447415318226254,-0.447415318226311,NaN,0.206889880789647,-0.160512644135736,NaN,-0.241647371880479,NaN,0.472344608412214,0.663021828900335,0.663021828900452,-1.69154717013187,2.16290680501439,NaN
121.9584,-0.846537785835431,-1.15969509398596,-1.88974134307045,0.811113612073111,0.401600746513196,0.401600746510121,NaN,-0.52324415198498,-3.09184865653411,-1.82636925319945,0.519050914220216,-1.82636925319896,-2.3653940514736,-1.82980645137954,-2.96928021562407,-1.41731910399702,1.32418940242375,-0.892653721444833,-0.907301491060781,NaN,-0.451616882777522,0.0592091558919348,-1.1199347879425,-1.52531980491353,NaN,-0.41607353430288,1.54802304876677,0.282796347273793,-0.28279634727624,2.58668587250208,1.0622727822276,1.43037196855595,1.5430915058698,NaN,-0.241123130206382,1.50464361930371,2.22894719480596,-0.446909727513692,-0.446909727513753,NaN,0.221688627115535,-0.171215444733109,NaN,-0.269653716526631,NaN,0.448860413528269,0.718591410602036,0.718591410602135,-1.7345491693262,2.21052722367343,NaN
122.0608,-0.836270036144622,-1.12726104655669,-1.85323334271684,0.784468872617209,0.404927947445052,0.404927947441923,NaN,-0.526677002027644,-3.0989090951122,-1.77782834526858,0.499416164780235,-1.77782834526809,-2.34895485832707,-1.81826838271702,-2.94910354440453,-1.43007449591408,1.33384931510451,-0.902656054722246,-0.946258743085785,NaN,-0.443285597531842,0.0936360860063344,-1.12811743190051,-1.47844472530718,NaN,-0.394438083364932,1.56754308281153,0.266654547805334,-0.266654547807767,2.55444378785728,1.11637779332617,1.40680266970193,1.57313370217304,NaN,-0.195135878894668,1.58443657542672,2.24387745783231,-0.446518603317264,-0.446518603317327,NaN,0.237628271942839,-0.182199770230917,NaN,-0.298140292864505,NaN,0.425196957531393,0.773605965453757,0.773605965453834,-1.77726375656286,2.25728096874026,NaN
122.1632,-0.825693363317956,-1.09417719665791,-1.81586810750097,0.756414050494583,0.408785507780297,0.408785507777157,NaN,-0.530047633063376,-3.10390355783215,-1.72908071711259,0.4788366495107,-1.72908071711208,-2.33229795216373,-1.80652252941541,-2.92863823456588,-1.44270641044688,1.3426522981779,-0.91322737949383,-0.984492059200774,NaN,-0.434267950004637,0.126350652234682,-1.13405525160312,-1.43123226783495,NaN,-0.371865779285604,1.58722924594464,0.249795474695882,-0.249795474698304,2.52168090660346,1.17060331643421,1.38222539572406,1.60276169505227,NaN,-0.149136365793302,1.66216438537502,2.25751423930583,-0.446248840254145,-0.446248840254211,NaN,0.254655261058547,-0.193437916862222,NaN,-0.327050448478891,NaN,0.40134669387715,0.827930137013899,0.827930137013957,-1.81962365462993,2.30307552026098,NaN
122.2656,-0.814785971077087,-1.06056855562059,-1.77771154177309,0.726935137330742,0.413149932956738,0.413149932953545,NaN,-0.533337627456943,-3.10681537788034,-1.68024260401922,0.457290982975376,-1.68024260401871,-2.3154666502749,-1.79462313348548,-2.9079467428922,-1.45518398418298,1.35056723630484,-0.924350245847148,-1.02190447651722,NaN,-0.424553365803604,0.157310949065557,-1.13776220528041,-1.38377422468332,NaN,-0.348452137880495,1.60700020192756,0.232307740334985,-0.23230774033739,2.48846986885096,1.22481809584166,1.35667758114664,1.63189266235919,NaN,-0.103249785756724,1.73762907463443,2.26986578927844,-0.446107892738185,-0.446107892738254,NaN,0.272711235249405,-0.204903068056049,NaN,-0.356328339452798,NaN,0.377300487531205,0.881428726083481,0.881428726083515,-1.86156116890869,2.34781829651126,NaN
122.368,-0.80352586671651,-1.02655957555174,-1.73882889677899,0.696021000232095,0.417996718496163,0.417996718493,NaN,-0.536528233249293,-3.10763312127813,-1.63142994187172,0.434757584584485,-1.6314299418712,-2.29850416083136,-1.78262323344861,-2.88709095303258,-1.46747651583585,1.35756534916309,-0.936005401592053,-1.05840116703406,NaN,-0.414134805912808,0.186481552771402,-1.13926039383505,-1.33616315012162,NaN,-0.324292616857437,1.6267769601211,0.214283101485965,-0.214283101488351,2.45488170320912,1.27889316850967,1.33020192506921,1.66044820877885,NaN,-0.0576017883547607,1.81063811509572,2.28094186678068,-0.446103522932932,-0.446103522933005,NaN,0.291733606860634,-0.216569427042033,NaN,-0.385919396394612,NaN,0.353047634639804,0.933967437886288,0.9339674378863,-1.90300836441889,2.39141707971003,NaN
122.4704,-0.791891125928966,-0.992273377101855,-1.69928452223703,0.663663613611791,0.423300647122552,0.423300647119412,NaN,-0.539600225359088,-3.10635074068335,-1.58275772928979,0.411214966943876,-1.58275772928927,-2.28145318990665,-1.7705742142108,-2.86613162524384,-1.47955384317669,1.36362053199276,-0.94817203979276,-1.09389006604561,NaN,-0.403009077157261,0.213833340423076,-1.1385796058415,-1.28849200864354,NaN,-0.299481933401859,1.64648362669472,0.195815929380661,-0.195815929383032,2.42098560647733,1.33270283871086,1.30284592927908,1.68835488821703,NaN,-0.0123177098393956,1.8810058960892,2.29075350189746,-0.44624351962749,-0.446243519627565,NaN,0.311656193831502,-0.22841221840012,NaN,-0.415770788344885,NaN,0.32857591491026,0.985413603290246,0.985413603290239,-1.94389729837268,2.43378053069534,NaN
122.5728,-0.779860215312468,-0.957831018800583,-1.65914171897534,0.629858333834202,0.429036059341311,0.429036059338192,NaN,-0.542533798270671,-3.10296773896302,-1.5343393867357,0.386642061801243,-1.53433938673518,-2.264355548085,-1.75852537378283,-2.8451278523028,-1.49138673709182,1.36870970786053,-0.960828060819872,-1.12828251764452,NaN,-0.391177130838571,0.239343283672985,-1.13575680401793,-1.2408537811785,NaN,-0.274113406757004,1.6660480803362,0.177002629171112,-0.177002629173477,2.38684879707044,1.38612561000853,1.27466137365623,1.71554466156636,NaN,0.0324782332497852,1.94855521625152,2.29931278328387,-0.446535394246319,-0.446535394246408,NaN,0.332409909655592,-0.240407577157458,NaN,-0.445831870643325,NaN,0.303871686756431,1.03563687109938,1.03563687109935,-1.98416029560112,2.47481877320004,NaN
122.6752,-0.767412327413393,-0.923350823014911,-1.61846264873464,0.594604192630585,0.435177077818414,0.435177077815361,NaN,-0.545308504580063,-3.0974893084695,-1.48628610929252,0.361018587190305,-1.486286109292,-2.24725173816702,-1.74652352515758,-2.82413651109189,-1.50294727049418,1.37281316626179,-0.973950309990657,-1.1614938856784,NaN,-0.378644320481188,0.262994235853609,-1.13083558689644,-1.19334104669496,NaN,-0.248278360923747,1.68540255239675,0.157941049434386,-0.157941049436743,2.35253640158465,1.43904503197836,1.2457037523654,1.741955268686,NaN,0.0766637312447619,2.01311873070204,2.30663265005124,-0.446986086346323,-0.446986086346432,NaN,0.353923472267173,-0.252532385474029,NaN,-0.476054586137355,NaN,0.278920031152023,1.08450985679533,1.08450985679527,-2.02373022735722,2.51444398975295,NaN
122.7776,-0.754527675354171,-0.888947776176314,-1.57730824964449,0.557904170322241,0.441697758644851,0.441697758641849,NaN,-0.547903258449031,-3.08992642564217,-1.43870622619136,0.334325451561117,-1.43870622619084,-2.23018051619497,-1.73461265911359,-2.80321171248266,-1.51420911368116,1.37591485124753,-0.987514752970975,-1.19344408121699,NaN,-0.365420590744215,0.284774744997999,-1.12386567770224,-1.14604555907437,NaN,-0.222065608583989,1.70448411145079,0.138729938564946,-0.138729938567292,2.31811132070293,1.49135041375027,1.21603170607393,1.76753049521799,NaN,0.120119080074103,2.07454026967187,2.31272666895857,-0.447601726870879,-0.447601726870999,NaN,0.376124075004555,-0.264764124334161,NaN,-0.506393776343066,NaN,0.253704942817363,1.13190873023989,1.13190873023981,-2.0625407353188,2.5525709498866,NaN
122.88,-0.741187721599376,-0.854733017411468,-1.53573813681065,0.519765425226779,0.448572150721771,0.448572150718844,NaN,-0.550296408606672,-3.08029590594334,-1.39170459063926,0.306545190239363,-1.39170459063874,-2.21317843651885,-1.72283368722981,-2.78240426725942,-1.52514773984498,1.37800257964522,-1.00149658234667,-1.2240579909618,NaN,-0.351520591040707,0.304678917915603,-1.11490248339693,-1.09905783873953,NaN,-0.19556101642369,1.72323506188337,0.119468486322273,-0.119468486324608,2.28363404005466,1.54293737754606,1.1857064768605,1.79222032688862,NaN,0.162727756414413,2.13267597688334,2.31760878131749,-0.448387491390703,-0.448387491390837,NaN,0.39893798386204,-0.277080775335647,NaN,-0.536807371793043,NaN,0.228209560132198,1.17771373327709,1.17771373327699,-2.10052636451495,2.58911742129523,NaN
122.9824,-0.727375344958016,-0.820813421674506,-1.49381049751942,0.480199481732507,0.455774264022101,0.455774264019255,NaN,-0.55246586919359,-3.06862042716488,-1.34538201494654,0.2776624325666,-1.34538201494603,-2.19627939589507,-1.71122426897123,-2.76176118388644,-1.53574055779923,1.37906819579236,-1.01587027441746,-1.25326581734907,NaN,-0.336963719458319,0.322706331892097,-1.10400672987774,-1.0524667935949,NaN,-0.168847144883361,1.74160325783879,0.100255950237177,-0.100255950239496,2.24916238694881,1.59370825517407,1.15479139324146,1.81598099732813,NaN,0.204376877097057,2.18739526260187,2.32129301328675,-0.449347543351593,-0.449347543351736,NaN,0.422291061566947,-0.289460772604297,NaN,-0.567256467797573,NaN,0.202416423084407,1.22180962854355,1.22180962854342,-2.13762261148842,2.62400446554544,NaN
123.0848,-0.713074954748447,-0.787291272544904,-1.45158198836267,0.439222387391506,0.463277961835739,0.463277961833003,NaN,-0.554389296290422,-3.0549285109928,-1.29983474834865,0.247664393849314,-1.29983474834814,-2.17951418027887,-1.69981871752142,-2.74132519953577,-1.54596698943471,1.37910767448432,-1.03060961130815,-1.28100334325109,NaN,-0.321774094473579,0.338861970406602,-1.09124414521136,-1.00635936873151,NaN,-0.14200296144817,1.75954232854711,0.0811913421943342,-0.0811913421966386,2.21475125721416,1.64357234918651,1.12335137640635,1.83877494173672,NaN,0.244957562100164,2.23858158409876,2.32379316028457,-0.450485050977565,-0.450485050977728,NaN,0.446109235496925,-0.301882998778959,NaN,-0.5977053193003,NaN,0.176307754492135,1.26408608872569,1.26408608872553,-2.17376591244766,2.65715663954914,NaN
123.1872,-0.698272555101776,-0.7542640104007,-1.40910762734031,0.396854842441459,0.47105679114433,0.471056791141692,NaN,-0.556044304176304,-3.03925444056725,-1.25515398516334,0.216541380084066,-1.25515398516283,-2.1629100083674,-1.68864797948343,-2.72113433680573,-1.55580849194564,1.37812117191379,-1.04568766865111,-1.30721212109701,NaN,-0.305980436179988,0.35315616721863,-1.07668515919397,-0.960820205555887,NaN,-0.11510363195509,1.7770118162339,0.0623731512022912,-0.0623731512045844,2.18045233850802,1.6924460851005,1.09145245008984,1.86057066799848,NaN,0.28436520935671,2.28613305841463,2.32512246724273,-0.45180226733904,-0.451802267339224,NaN,0.470318929341048,-0.314326823181365,NaN,-0.628121285501513,NaN,0.149865769275173,1.30443804181527,1.30443804181508,-2.20889358768586,2.68850211297485,NaN
123.2896,-0.682955764166992,-0.72182404163376,-1.3664406761436,0.353122301069052,0.479083756423644,0.479083756421126,NaN,-0.557408713708846,-3.02163809822945,-1.21142539235272,0.184287294957563,-1.21142539235221,-2.14649006818654,-1.67773968418246,-2.70122148093159,-1.56524852167202,1.37611301827171,-1.06107676980362,-1.33183957474312,NaN,-0.289615834466179,0.36560456448331,-1.06040461047771,-0.915931287964284,NaN,-0.0882203944411198,1.79397722759517,0.0438990889116459,-0.0438990889139252,2.14631384530527,1.74025307620169,1.05916123810794,1.88134255386963,NaN,0.322499686877186,2.3299629062043,2.32529332026221,-0.453300671978389,-0.45330067197859,NaN,0.494847478988707,-0.326772176296089,NaN,-0.658474738917356,NaN,0.123073017369768,1.34276598640833,1.3427659864081,-2.24294375313037,2.71797270642111,NaN
123.392,-0.667113795319944,-0.690058604430443,-1.32363251796535,0.308055043263046,0.487331036700461,0.487331036698056,NaN,-0.558460820190477,-3.00212472302731,-1.16872865037762,0.150900142325703,-1.16872865037711,-2.13027305074644,-1.66711825633339,-2.68161397889653,-1.57427244891957,1.37309165371001,-1.07674841864173,-1.35483900151611,NaN,-0.272717393146214,0.376228100559793,-1.0424814749575,-0.871771568712616,NaN,-0.0614205213515517,1.81040998921296,0.0258658559842718,-0.0258658559865365,2.11238026325462,1.78692411083819,1.02654444119188,1.90107057370261,NaN,0.359265454464816,2.369999728229,2.32431694907141,-0.454981172865481,-0.454981172865694,NaN,0.519623540717581,-0.339199656612026,NaN,-0.688738944873184,NaN,0.0959127555442873,1.37897627679281,1.37897627679256,-2.27585521407844,2.7455038623862,NaN
123.4944,-0.650737402164912,-0.659049694460491,-1.28073253548979,0.261688215234987,0.495769647471315,0.495769647469016,NaN,-0.559179669002847,-2.98076459956108,-1.12713700432896,0.116382517365661,-1.12713700432846,-2.11427268879242,-1.65680508575141,-2.66233326563495,-1.58286743938114,1.36906951918544,-1.09267322345478,-1.37616947398511,NaN,-0.255325758321926,0.385053035497436,-1.02299863025309,-0.828416583897805,NaN,-0.0347673769378816,1.82628729376618,0.00836893870440545,-0.00836893870666599,2.07869208569015,1.83239706182758,0.993668291520753,1.91973995360878,NaN,0.394571626747118,2.40618762144282,2.32220312827882,-0.456844362854831,-0.456844362855057,NaN,0.544577478426734,-0.351590673883347,NaN,-0.718889917781664,NaN,0.0683693353728783,1.41298136492405,1.41298136492376,-2.3075673535855,2.77103456396174,NaN
123.5968,-0.633818785830409,-0.628874050322069,-1.23778798712352,0.2140618375701,0.504369060215591,0.504369060213412,NaN,-0.559545331032567,-2.95761269602822,-1.08671682697846,0.0807420787356457,-1.08671682697795,-2.098497310311,-1.64681874566288,-2.643394523251,-1.59102231118024,1.36406291373598,-1.10882081489839,-1.39579566600069,NaN,-0.237484565774846,0.392111005555369,-1.00204265517653,-0.785938068692528,NaN,-0.0083205654596117,1.84159183894357,-0.0084975529976834,0.00849755299541605,2.04528552674571,1.87661671620099,0.960597994198346,1.9373407583394,NaN,0.428331984805767,2.43848615065943,2.31895986574147,-0.458890815567064,-0.458890815567306,NaN,0.569641708075418,-0.363927627019704,NaN,-0.748906264207031,NaN,0.04042859224603,1.4446999906483,1.44469999064799,-2.33802001769457,2.79450721484801,NaN
123.6992,-0.616351468122816,-0.5996031897296,-1.19484387914384,0.165220782035015,0.513096806039371,0.513096806037312,NaN,-0.559539171822713,-2.93272827084812,-1.04752720332506,0.0439919935514776,-1.04752720332455,-2.08294941988491,-1.63717524408429,-2.62480637968771,-1.59872736985781,1.35809182410981,-1.12515975619527,-1.41368764837175,NaN,-0.219239865119954,0.39743908494771,-0.979703648584997,-0.74440358889915,NaN,0.0178638533210168,1.85631148092973,-0.024641004308051,0.0246410043057859,2.01219221152902,1.91953452746244,0.927397179597438,1.95386742361845,NaN,0.460464945736962,2.46687020067547,2.31459307379937,-0.461121394571997,-0.461121394572258,NaN,0.594750986148142,-0.376194099133685,NaN,-0.778769023510081,NaN,0.0120782161065944,1.47405732422022,1.47405732421988,-2.36715339349105,2.81586749453542,NaN
123.8016,-0.598330139918297,-0.571303482631804,-1.15194283498151,0.115214718637053,0.521918091678026,0.521918091676055,NaN,-0.559144110741455,-2.90617446363279,-1.00961955072134,0.00615134699553505,-1.00961955072083,-2.06762532254861,-1.62788828960878,-2.60657065354861,-1.60597422479204,1.35117973067828,-1.14165744719735,-1.42982069462031,NaN,-0.200639570084689,0.401079831480161,-0.956075049093958,-0.703876201246353,NaN,0.0437331114452697,1.87043883159535,-0.0399703779629394,0.0399703779606679,1.97943885802913,1.96110829813088,0.894127391885633,1.96931825269067,NaN,0.490893502235326,2.49132973275716,2.309106229197,-0.463537549837827,-0.463537549838105,NaN,0.619842641192324,-0.38837504844455,NaN,-0.808461511832408,NaN,-0.0166919150212999,1.50098507254314,1.50098507254278,-2.3949078782956,2.83506420107908,NaN
123.904,-0.579750496633402,-0.544036245837837,-1.10912496466295,0.0640980382637463,0.530795448290455,0.530795448288579,NaN,-0.558344867565609,-2.87801788060532,-0.973037285978267,-0.0327544898904733,-0.973037285977756,-2.0525148023465,-1.61896955613286,-2.58868215068174,-1.6127555964864,1.34335339608381,-1.15828003031316,-1.44417511234363,NaN,-0.181732949867115,0.40308130063819,-0.931253442863763,-0.664414150210934,NaN,0.069237465606499,1.88397082510943,-0.0543962726715992,0.0543962726693318,1.94704697461227,2.00130180842955,0.860847624990648,1.98369489504213,NaN,0.519545143180745,2.5118694629518,2.30250004226443,-0.466141586448295,-0.466141586448603,NaN,0.644856751443102,-0.400456981995623,NaN,-0.837969168832043,NaN,-0.0458894458595098,1.52542156230968,1.5254215623093,-2.42122394865347,2.85204909407737,NaN
124.0064,-0.560609075805055,-0.517857841313472,-1.06642773953843,0.0119297643406077,0.539688431876311,0.539688431874557,NaN,-0.557128188981036,-2.84832818099547,-0.937815545939518,-0.072693538389855,-0.937815545939008,-2.03760086578289,-1.61042893196591,-2.57112851657102,-1.61906512895988,1.33464264576651,-1.17499231088923,-1.45673609070537,NaN,-0.162570153059462,0.403497020564583,-0.905338353138868,-0.626070605092612,NaN,0.0943299331035977,1.89690827601008,-0.0678309779234863,0.067830977921211,1.91503260803027,2.04008441474382,0.827613906501965,1.99700182584124,NaN,0.546351767218271,2.52850847846814,2.29477217235698,-0.468936896659505,-0.468936896659839,NaN,0.669736272309273,-0.412428104842287,NaN,-0.867279405496885,NaN,-0.0755192918384573,1.54731181216368,1.54731181216328,-2.44604205173393,2.86677675833681,NaN
124.1088,-0.540903114667703,-0.492819759980799,-1.0238858806627,-0.0412265267821057,0.548553397599128,0.548553397597462,NaN,-0.55548304123957,-2.81717766910828,-0.903980964399132,-0.113626938834103,-0.903980964398623,-2.02285955937245,-1.60227473692335,-2.55389014692653,-1.62489722159327,1.3250801504682,-1.19175770397438,-1.46749353873417,NaN,-0.143201753120038,0.402385922601587,-0.878432007307924,-0.588893440284332,NaN,0.118966047022871,1.90925544703128,-0.0801885515329334,0.0801885515306493,1.88340618492411,2.07743064467839,0.794478928967833,2.00924584661067,NaN,0.571249604880192,2.54127980984042,2.28591703259183,-0.471928143358427,-0.471928143358782,NaN,0.694427127629634,-0.424278437541008,NaN,-0.896381454916651,NaN,-0.105583409624473,1.56660760263496,1.56660760263452,-2.46930254950628,2.87920451716313,NaN
124.2112,-0.520630439073727,-0.468968680643265,-0.981531266981445,-0.0953027629988002,0.557343363232088,0.557343363230512,NaN,-0.553400756878783,-2.78464089325512,-0.871551503735146,-0.155508728116806,-0.871551503734636,-2.00825986595227,-1.5945138958092,-2.53694015640084,-1.63024688948489,1.31470121910119,-1.20853821323098,-1.47644189335601,NaN,-0.123678312371748,0.399812223221195,-0.850639076936775,-0.552925059261701,NaN,0.14310363829973,1.9210196343564,-0.0913849385605691,0.0913849385582733,1.85217247561002,2.1133198093103,0.761491729285555,2.0204356234362,NaN,0.594179162319084,2.55022997031233,2.27592570988154,-0.475121383433227,-0.475121383433602,NaN,0.718878288035697,-0.435999894009854,NaN,-0.925266228944958,NaN,-0.136080580900078,1.58326754791327,1.5832675479128,-2.490945738026,2.88929241701582,NaN
124.3136,-0.499789377632815,-0.446346509424816,-0.939392859844712,-0.150226418644413,0.566007955511525,0.566007955510052,NaN,-0.550875134337784,-2.75079424696064,-0.840536334251121,-0.198285672079142,-0.840536334250615,-1.99376367618239,-1.58715207151938,-2.52024440328261,-1.63510965113994,1.30354360429034,-1.22529443828094,-1.4835799049473,NaN,-0.10404997644999,0.3958452590023,-0.822066386359847,-0.518202253049769,NaN,0.166702636806734,1.93221076100315,-0.101338129263046,0.101338129260734,1.82133066663344,2.14773563479659,0.728697416613817,2.0305812646005,NaN,0.615085187615768,2.55541845808834,2.26478598811039,-0.478524132473775,-0.478524132474173,NaN,0.743041849116709,-0.44758631521767,NaN,-0.953926179892415,NaN,-0.167006217541834,1.59725716680542,1.59725716680492,-2.5109119400066,2.89700327811151,NaN
124.416,-0.478378682433583,-0.424990417971518,-0.897496634628166,-0.205920569003687,0.574493415050778,0.574493415049385,NaN,-0.547902501068232,-2.71571556546417,-0.810935753711093,-0.241897159264103,-0.810935753710586,-1.97932582682524,-1.58019377478988,-2.5037615687816,-1.63948143289386,1.29164731551595,-1.24198559959781,-1.48891043184809,NaN,-0.0843661185085428,0.390559282271247,-0.792822584578683,-0.48475607254173,NaN,0.189724874219501,1.94284095897076,-0.109968336113291,0.109968336110957,1.79087449125926,2.1806658977494,0.696136946634304,2.03969392447371,NaN,0.633916649083017,2.55691720451849,2.25248243163277,-0.482145388212302,-0.482145388212724,NaN,0.766873100569984,-0.459033466482373,NaN,-0.982355165058848,NaN,-0.198352209867649,1.60854894250599,1.60854894250545,-2.52914164476235,2.90230277957566,NaN
124.5184,-0.456397443526201,-0.404932897449774,-0.855865516434492,-0.26230398386955,0.582742637874702,0.582742637873359,NaN,-0.544481753396236,-2.67948371497668,-0.782741145770462,-0.286275162819779,-0.782741145769958,-1.96489420065824,-1.57364246750495,-2.48744329258958,-1.64335847982117,1.27905443231676,-1.25856957271571,-1.49244026485126,NaN,-0.0646750390606835,0.384033224244119,-0.763017774800193,-0.452611694768076,NaN,0.212133876861089,1.95292412744894,-0.117198170240465,0.117198170238109,1.76079237121673,2.21210204859948,0.663846936322641,2.04778541849786,NaN,0.650626715417426,2.55480995404351,2.23899649039544,-0.485995632612751,-0.485995632613188,NaN,0.790330563895996,-0.470339018209754,NaN,-1.01054831853969,NaN,-0.230106834502476,1.61712235829546,1.61712235829492,-2.54557566669922,2.90515954822489,NaN
124.6208,-0.433844999728985,-0.386201833203029,-0.814519326595224,-0.319291270233979,0.590695248623296,0.590695248622051,NaN,-0.540614379399137,-2.64217817775458,-0.755934981981954,-0.331344275770075,-0.755934981981452,-1.95040988985196,-1.56750066478721,-2.47123436850018,-1.64673727192428,1.2658089125343,-1.27500293439077,-1.49417998105374,NaN,-0.0450237121826584,0.376350427847739,-0.732763100747136,-0.42178827814083,NaN,0.233894650111364,1.96247546959463,-0.122952811794314,0.12295281179194,1.73106755785145,2.2420388203126,0.631859512259086,2.0548678437138,NaN,0.665172736813346,2.54919157527987,2.22430661691831,-0.490086821138995,-0.490086821139451,NaN,0.813375973295266,-0.48150252514218,NaN,-1.03850194432722,NaN,-0.262254722535191,1.62296390163918,1.62296390163861,-2.56015531461659,2.90554524579878,NaN
124.7232,-0.410720859057302,-0.368820592803359,-0.773474750810221,-0.37679305762517,0.598287716593637,0.598287716592495,NaN,-0.536304462635654,-2.60387863784795,-0.730490873086983,-0.37702182328934,-0.730490873086488,-1.93580742928798,-1.56177002892153,-2.45507300355457,-1.64961445337353,1.2519563951211,-1.29124103235836,-1.49414382914543,NaN,-0.025457577304968,0.367598349650836,-0.702170296540541,-0.392298817517811,NaN,0.254973466448896,1.97151102121578,-0.127160183801254,0.127160183798859,1.70167829317528,2.27047383182252,0.600202187813396,2.06095320973502,NaN,0.677516234865595,2.54016731521406,2.20838841282728,-0.494432354465954,-0.494432354466413,NaN,0.8359741881509,-0.492525400395041,NaN,-1.06621344603285,NaN,-0.294776876470684,1.62606703777927,1.62606703777867,-2.57282258913585,2.90343467586412,NaN
124.8256,-0.387024646441505,-0.352808113347715,-0.732745339992597,-0.4347162092734,0.60545353567974,0.605453535678679,NaN,-0.531558660127793,-2.56466457179757,-0.706373673534061,-0.423218054271065,-0.706373673533575,-1.92101510735382,-1.55645144058943,-2.43889114224205,-1.65198678857678,1.23754400350047,-1.30723809336902,-1.49234965488834,NaN,-0.0060203909954353,0.357868229453977,-0.671351209799941,-0.364150015571883,NaN,0.275337673392207,1.98004718760878,-0.12975114931274,0.129751149310323,1.67259802939226,2.29740720255312,0.568897768139333,2.06605309231417,NaN,0.687622914799562,2.52785201500417,2.19121483871667,-0.499047018508453,-0.499047018508924,NaN,0.858093057030449,-0.503410866166653,NaN,-1.09368129689162,NaN,-0.327650718686596,1.62643216035684,1.62643216035622,-2.58352043474475,2.89880593935274,NaN
124.928,-0.36275609497689,-0.338178973079826,-0.692341552582785,-0.492964039656558,0.612123490808417,0.612123490807472,NaN,-0.526386146583606,-2.52461484532257,-0.683539639759334,-0.46983641337789,-0.683539639758851,-1.90595535915945,-1.5515450310488,-2.42261485409301,-1.65385116016649,1.22262016020977,-1.32294738194021,-1.48881885147476,NaN,0.0132458613830616,0.347254725539671,-0.640417304347568,-0.337342183150288,NaN,0.29495553389801,1.9881002992236,-0.130659754803048,0.130659754800606,1.64379574646721,2.32284119636873,0.537964283830226,2.07017832413705,NaN,0.695462715812791,2.51236930475925,2.17275652232851,-0.503946875126945,-0.503946875127421,NaN,0.879703275344988,-0.514163865738498,NaN,-1.12090504238711,NaN,-0.360850155649864,1.62406652827324,1.62406652827262,-2.59219306739323,2.89164065830963,NaN
125.0304,-0.33791508603553,-0.324943440126855,-0.652270839494554,-0.551436529403451,0.618226021400781,0.618226021399891,NaN,-0.520798518303226,-2.48380731054105,-0.661936637387425,-0.516773895039162,-0.66193663738695,-1.89054524042444,-1.54705016663042,-2.40616477963151,-1.65520461601383,1.20723442019525,-1.33832141366847,-1.48357630036859,NaN,0.0323010204706872,0.335855514833099,-0.609479143994888,-0.311869172050216,NaN,0.313796099382875,1.99568618330894,-0.129823532955137,0.129823532952679,1.61523638227552,2.34677990511737,0.507414951998773,2.07333873009457,NaN,0.701009909542919,2.49385078449923,2.15298217900743,-0.509149092978914,-0.509149092979407,NaN,0.900778267021935,-0.524790938329852,NaN,-1.14788533197396,NaN,-0.394345654515884,1.61898419373775,1.61898419373711,-2.59878638603639,2.88192426962687,NaN
125.1328,-0.312501727418845,-0.313107505451689,-0.612537763755123,-0.610030549798091,0.623687671110481,0.623687671109639,NaN,-0.514809656518312,-2.44231839523652,-0.641504388319778,-0.563921482975569,-0.641504388319303,-1.87469697295477,-1.54296539312148,-2.38945662897641,-1.6560444598184,1.19143732027741,-1.35331221739082,-1.47665029627468,NaN,0.0511067958860841,0.323770859230609,-0.578645853348222,-0.287718332164364,NaN,0.331829103132347,2.00281973727766,-0.127183856890857,0.127183856888379,1.58688134880762,2.36922896523481,0.477258158849359,2.07554289898633,NaN,0.704243242867973,2.47243518414047,2.13185912346726,-0.514671722814975,-0.514671722815476,NaN,0.921294088817173,-0.535300071970663,NaN,-1.17462398798622,NaN,-0.428104344943981,1.61120591715722,1.61120591715657,-2.60324845822295,2.86964637091067,NaN
125.2352,-0.286516450985939,-0.302672915970684,-0.573144144007826,-0.668640124586873,0.628433601089748,0.628433601088956,NaN,-0.508435556891966,-2.40022268165663,-0.622174751138666,-0.611164681276193,-0.622174751138194,-1.85831855143993,-1.53928835880935,-2.37240173061289,-1.65636837217102,1.17528023305742,-1.36787163749599,-1.46807247935122,NaN,0.0696268014285419,0.311103138321548,-0.548024547284983,-0.26487048048776,NaN,0.349024863197122,2.00951449405629,-0.12268632235396,0.122686322351465,1.55868908556619,2.39019528995831,0.447497457798347,2.07679797514448,NaN,0.70514611069896,2.44826748790237,2.1093538313874,-0.520533430760531,-0.520533430761049,NaN,0.941229337151247,-0.545700548142392,NaN,-1.20112411906113,NaN,-0.462090166452037,1.60075905741324,1.60075905741258,-2.60553005478215,2.85480109051288,NaN
125.3376,-0.25996011608895,-0.29363721927979,-0.534089213680179,-0.727156757557176,0.6323881505016,0.63238815050087,NaN,-0.501694131357675,-2.35759248283924,-0.603872039748922,-0.658384146190885,-0.603872039748445,-1.84131440847876,-1.53601573134236,-2.35490763329287,-1.65617454534764,1.15881520834376,-1.381951666957,-1.45787778089975,NaN,0.0878265881334007,0.297956349008762,-0.517719728772054,-0.243299880646415,NaN,0.365354200882773,2.01578219060051,-0.11628113539159,0.116281135389085,1.53061561187856,2.40968680119651,0.418131589107842,2.07710946062412,NaN,0.70370674556775,2.42149801162681,2.08543251541031,-0.526753201235468,-0.526753201235993,NaN,0.960565042523849,-0.556002782480931,NaN,-1.22739026578723,NaN,-0.496264079277731,1.58767742852651,1.58767742852584,-2.60558520615363,2.83738745688916,NaN
125.44,-0.232834111607931,-0.28599382150821,-0.495369788155573,-0.785469852557758,0.63547544094456,0.63547544094387,NaN,-0.494604982279213,-2.31449743171703,-0.586513398839169,-0.705456434844485,-0.586513398838685,-1.82358614339924,-1.53314311286846,-2.33687876811118,-1.65546181233978,1.14209478441485,-1.39550479834505,-1.44610436080561,NaN,0.105673684518253,0.284435580390355,-0.487832676084876,-0.222974249256318,NaN,0.380788400080803,2.02163237378688,-0.107923492525351,0.107923492522834,1.50261505979522,2.42771214895785,0.389154545759584,2.07648103104007,NaN,0.699918417043876,2.39228142628744,2.06006169526724,-0.533350015925138,-0.533350015925681,NaN,0.979284553464235,-0.56621815641406,NaN,-1.25342854186058,NaN,-0.530584351027326,1.57200112233612,1.57200112233544,-2.60337175532097,2.81740974610351,NaN
125.5424,-0.205140449284974,-0.279732053750836,-0.45698042768489,-0.84346725388128,0.637620028760705,0.63762002876003,NaN,-0.487189146366717,-2.27100409612486,-0.570009257235832,-0.752254892852927,-0.570009257235348,-1.80503332042519,-1.53066495110926,-2.3182171751408,-1.654229752179,1.12517175482726,-1.40848437936733,-1.43279351946869,NaN,0.123137640291198,0.270646481441426,-0.458460854690776,-0.203854810388539,NaN,0.395299238301657,2.02707208639766,-0.0975739496460709,0.0975739496435364,1.47464017994172,2.44428040783254,0.360555719931745,2.07491437421568,NaN,0.693779636995424,2.36077572176823,2.03320875231394,-0.540342511999835,-0.540342512000402,NaN,0.997373427861953,-0.576358829470541,NaN,-1.27924672857935,NaN,-0.565006924395828,1.55377630300658,1.55377630300589,-2.59885188092206,2.79487778386897,NaN
125.6448,-0.176881838993695,-0.274837241595836,-0.418913580567674,-0.901035923592558,0.638747608133472,0.638747608132835,NaN,-0.479468807567571,-2.22717562183345,-0.554263868215591,-0.798650690719894,-0.554263868215099,-1.78555433151321,-1.52857444357611,-2.29882328907791,-1.65247876101039,1.10809888410942,-1.4208449635034,-1.41798958869586,NaN,0.140190055563999,0.256694740595773,-0.429697385217377,-0.185896411171189,NaN,0.408859106126593,2.03210566122994,-0.0851987828432923,0.0851987828407416,1.44664281657144,2.459400746835,0.332320155180368,2.07240906142256,NaN,0.685294366657281,2.32714110756746,2.00484246440678,-0.54774862223208,-0.547748622232673,NaN,1.0148193493201,-0.586437528383853,NaN,-1.30485430013104,NaN,-0.59948586187472,1.53305498030517,1.53305498030446,-2.59199256337604,2.76980717855073,NaN
125.7472,-0.14806174018571,-0.27129077508526,-0.38115969761435,-0.958062739106048,0.63878575695418,0.638785756953568,NaN,-0.471466979984335,-2.18307139801734,-0.539175930688046,-0.844513982483181,-0.539175930687554,-1.76504730769462,-1.52686343654433,-2.27859676910822,-1.65021008799787,1.09092857818092,-1.43254264932162,-1.40173981038581,NaN,0.156804582739072,0.242685589403268,-0.40163058663239,-0.169047705522687,NaN,0.421441205760586,2.03673462167743,-0.0707703431345848,0.070770343132012,1.41857434772151,2.47308208400212,0.304428905415813,2.06896246058749,NaN,0.674472219398318,2.29153885844281,1.97493351625307,-0.555585204381674,-0.555585204382287,NaN,1.03161206304535,-0.596467323679913,NaN,-1.33026238229449,NaN,-0.633973850572061,1.50989476937012,1.50989476936939,-2.58276597547437,2.74221947185796,NaN
125.8496,-0.118684394913805,-0.269070180419823,-0.343707325441365,-1.0144353558011,0.637664700773834,0.637664700773245,NaN,-0.463207166843796,-2.1387467459277,-0.524639278073214,-0.889715119493083,-0.524639278072716,-1.74341105857186,-1.52552232570331,-2.25743735628015,-1.64742584207826,1.07371252851215,-1.44353540058425,-1.38409419943854,NaN,0.172956906707428,0.228723331894958,-0.374343599674188,-0.153251410549105,NaN,0.433019800273866,2.04095766527711,-0.0542673974494502,0.054267397446868,1.39038608616679,2.48533275371603,0.276859477551728,2.06456970148789,NaN,0.661328649341013,2.25413013179076,1.9434549766772,-0.563867673813602,-0.56386767381423,NaN,1.04774330303125,-0.606461410396855,NaN,-1.35548366062644,NaN,-0.668422734123063,1.48435864853925,1.48435864853849,-2.57114979412906,2.7121422098635,NaN
125.952,-0.0887548601679918,-0.268149199173795,-0.306543204484207,-1.07004306445515,0.635318060265902,0.635318060265355,NaN,-0.454713011757387,-2.09425264732552,-0.51054362586682,-0.934125837084357,-0.510543625866324,-1.72054602529842,-1.52453996734002,-2.23524574784415,-1.64412897836042,1.05650135369617,-1.45378333920345,-1.36510538469102,NaN,0.188624715065452,0.214910894949147,-0.347914083941612,-0.138444634066471,NaN,0.443570486734972,2.04477070743791,-0.03567544253313,0.0356754425305276,1.36202964416659,2.49616022100696,0.249586329013679,2.05922370496254,NaN,0.645885114679145,2.21507479694248,1.91038273461307,-0.572609652757333,-0.572609652757979,NaN,1.06320668436147,-0.616432900318359,NaN,-1.38053225462086,NaN,-0.702784028693744,1.45651472786038,1.4565147278596,-2.55712743541565,2.67960894287099,NaN
126.0544,-0.058279060637836,-0.268497885338215,-0.269652405097013,-1.12477759254747,0.631683553498036,0.63168355349756,NaN,-0.446007965405756,-2.04963553851045,-0.496775377670057,-0.977620351507135,-0.49677537766956,-1.69635524285401,-1.52390360657059,-2.21192448710219,-1.64032327580814,1.03934425634493,-1.46324901223999,-1.34482843412952,NaN,0.203787658129459,0.201349395138436,-0.322413979462159,-0.124559267630168,NaN,0.453070481990903,2.04816697516444,-0.014986984499461,0.0149869844968464,1.33345727636364,2.50557086719323,0.222581406424184,2.05291528811443,NaN,0.628169209405176,2.17453031167129,1.87569588957135,-0.581822641971086,-0.581822641971737,NaN,1.07799755542213,-0.626394622605272,NaN,-1.40542356560712,NaN,-0.737009388646878,1.42643603377209,1.42643603377127,-2.54068820799484,2.64465915531326,NaN
126.1568,-0.0272638756614677,-0.270082728550003,-0.233018524694617,-1.17853382987105,0.626703642875471,0.62670364287507,NaN,-0.437114984707528,-2.00493718539378,-0.483218488157021,-1.02007634155435,-0.483218488156515,-1.67074531023301,-1.52359882269102,-2.18737886747701,-1.6360133215659,1.022288706217,-1.47189764562083,-1.32332067881827,NaN,0.218427290723211,0.188137717897403,-0.297909325157959,-0.111522441163345,NaN,0.461498918932407,2.05113714259412,0.00779821011800782,-0.00779821012062777,1.30462222328778,2.51356985170281,0.195814724399601,2.04563334872228,NaN,0.608214766767485,2.13265066471099,1.83937710147056,-0.591515713471364,-0.591515713472022,NaN,1.09211282429803,-0.636358932188322,NaN,-1.43017409667282,NaN,-0.77105100793904,1.39420030485331,1.39420030485246,-2.52182738477747,2.60733812828426,NaN
126.2592,0.00428273684046858,-0.272866801250444,-0.196623947678548,-1.23121047326358,0.620326134422756,0.620326134422402,NaN,-0.428056265095937,-1.96019463146677,-0.469755365862169,-1.06137581808563,-0.469755365861658,-1.64362735640362,-1.52360948394673,-2.16151783621859,-1.63120451593336,1.00538015929419,-1.47969739633409,-1.30064154692087,NaN,0.232526994448909,0.175372101898486,-0.274460122374542,-0.0992570341366948,NaN,0.468837143340445,2.05366948798451,0.0326728773951032,-0.0326728773977327,1.27547907844215,2.52016103745949,0.169254975926631,2.03736511479147,NaN,0.58606194529415,2.08958539431901,1.80141292030528,-0.601695220530863,-0.601695220531528,NaN,1.10555077841408,-0.64633753452375,NaN,-1.45480124787533,NaN,-0.80486195758657,1.35988978591623,1.35988978591536,-2.50054621920927,2.56769675693645,NaN
126.3616,0.0363515869745741,-0.276809919933444,-0.160450151691602,-1.28271058268487,0.612504739990537,0.612504739990252,NaN,-0.418852993779712,-1.91544019447163,-0.456267783316213,-1.10140589246326,-0.456267783315691,-1.61491797490717,-1.52391770286235,-2.13425486841767,-1.62590310279985,0.988661821756552,-1.486619602247,-1.27685241461074,NaN,0.246071886672197,0.16314572265011,-0.252120227618439,-0.0876822304928534,NaN,0.475068987734127,2.05575004554627,0.0596220242735325,-0.0596220242761705,1.24598418908958,2.52534696072964,0.142870148852775,2.02809643162295,NaN,0.561757305627277,2.04547869532016,1.76179412125215,-0.612364522595317,-0.612364522595996,NaN,1.11831091142738,-0.656341333668492,NaN,-1.47932310929596,NaN,-0.838396463151432,1.32359100739958,1.32359100739868,-2.4768519499397,2.52579135715509,NaN
126.464,0.0689320841278197,-0.281868814104018,-0.124478038294784,-1.33294204200142,0.603199601737435,0.6031996017372,NaN,-0.409525111108023,-1.8707014866702,-0.442637762578181,-1.14005945168272,-0.442637762577657,-1.58454009540237,-1.52450379176638,-2.10550878095324,-1.62011621690329,0.972174457520058,-1.49263901823608,-1.25201647638768,NaN,0.259048721426945,0.151548280091017,-0.230937267173715,-0.0767140985229949,NaN,0.480180998338815,2.05736273700217,0.0886227058912135,-0.0886227058938649,1.21609608181124,2.52912882893323,0.1166281179439,2.0178120582407,NaN,0.535353875750749,2.00046862537663,1.72051605112066,-0.623523725298085,-0.623523725298781,NaN,1.13039377077247,-0.666380296408827,NaN,-1.50375827810359,NaN,-0.87161012748363,1.28539454611853,1.28539454611759,-2.4507578218495,2.48168348204673,NaN
126.5664,0.102012063874478,-0.287997300985995,-0.0886882731949771,-1.38181792921844,0.592377769286412,0.592377769286224,NaN,-0.40009107201804,-1.82600144141108,-0.428748422000714,-1.17723574876693,-0.428748422000187,-1.55242377336105,-1.52534622572816,-2.07520447126154,-1.61385192992954,0.955956223481361,-1.49773402647724,-1.2261986291519,NaN,0.271445784789475,0.140665605215484,-0.210952579845633,-0.0662661791089387,NaN,0.48416261036365,2.05848948551237,0.119643817927058,-0.11964381792973,1.18577589755096,2.53150653432014,0.0904971958335248,2.00649595540912,NaN,0.506911196604685,1.95468641040117,1.67757896741291,-0.63516943828523,-0.635169438285942,NaN,1.14180084194842,-0.676463317210002,NaN,-1.52812569850631,NaN,-0.904460108182839,1.24539477649922,1.24539477649826,-2.42228312432203,2.43543974675582,NaN
126.6688,0.135577612437976,-0.295146460406021,-0.0530616295834226,-1.42925681207717,0.580013623484735,0.580013623484589,NaN,-0.39056760433726,-1.78135834007935,-0.41448478991231,-1.21284092145594,-0.414484789911781,-1.51850689981368,-1.52642161792077,-2.04327358469126,-1.60711928003964,0.940042514408296,-1.50188681438219,-1.19946535774499,NaN,0.283252789203063,0.130579300043883,-0.192201196583805,-0.0562500706098555,NaN,0.48700628883254,2.05911032486841,0.152645900941245,-0.152645900943926,1.15498782750747,2.53247867819266,0.0644466434184185,1.99413156139916,NaN,0.476495345200253,1.90825584182307,1.63298834855267,-0.647294557143081,-0.647294557143806,NaN,1.1525344808873,-0.686598076580167,NaN,-1.55244449738913,NaN,-0.936905264627988,1.20368962983337,1.20368962983237,-2.39145323761399,2.38713165299524,NaN
