time,S1-D1,S1-D8,S1-D9,S1-D15,S2-D1,S2-D2,S2-D3,S2-D9,S3-D1,S3-D2,S3-D16,S4-D2,S4-D3,S4-D5,S5-D3,S5-D4,S5-D5,S6-D2,S6-D5,S6-D17,S7-D6,S7-D7,S8-D6,S8-D7,S8-D18,S9-D3,S9-D4,S9-D9,S9-D11,S9-D19,S10-D8,S10-D9,S10-D10,S10-D11,S11-D8,S11-D10,S11-D20,S12-D10,S12-D11,S12-D12,S13-D4,S13-D11,S13-D12,S14-D10,S14-D12,S14-D21,S15-D13,S15-D14,S16-D13,S16-D14,S16-D22
657.6128,0.420136628998976,0.207615528440813,0.793251054896158,1.11559805662987,0.134325650575244,0.134325650575368,NaN,1.1763275936969,2.25610952402051,2.81729286646164,-0.0525777616203712,2.81729286646083,0.128511400646047,NaN,1.52317295245969,-0.535028380585951,0.944223833146134,0.571062155779751,NaN,-1.22480307176852,1.32377597708332,-1.75510697035717,-0.989198749272633,-1.48404576782296,-0.208719230949385,-0.101735111958251,-0.101735111959692,0.604454557252264,-0.604454557253019,-0.648961144145698,0.463960863752695,1.44339144987802,1.58032229142932,0.721775331272012,-0.717062958128431,0.313388241667475,0.191193987094315,-1.18365277509223,-1.18365277509481,1.62944883339468,-0.0221051487879297,1.27786685359027,1.08996009648089,-0.401075379614893,0.815282336132675,0.539681234227568,1.3645664443012,1.36456644430332,0.119190992827176,-0.119190992827516,-1.23293936017651
657.7152,0.433252414380238,0.19906068642565,0.8037975858398,1.1037250623353,0.10854895403725,0.108548954037374,NaN,1.14398397850332,2.21205964076252,2.78652043817724,-0.0590102390967595,2.78652043817644,0.101423714768488,NaN,1.48962923114536,-0.540917831897546,0.954571953148417,0.577280328845681,NaN,-1.25286940775119,1.30477280608428,-1.79834939002246,-1.02663531441584,-1.52714800529702,-0.23415037361978,-0.0997359651607035,-0.0997359651621348,0.618919690409475,-0.618919690410232,-0.691200480587065,0.478283573098916,1.4301325433214,1.58194881530649,0.740990044201923,-0.678926761519154,0.363266270391549,0.130999400772787,-1.20622296194567,-1.20622296194834,1.62532261897467,-0.010247218414427,1.28080960242979,1.06566668669606,-0.408790299688546,0.785167095476853,0.557197725700888,1.40488863361333,1.40488863361547,0.101453276173984,-0.101453276174315,-1.25144877612053
657.8176,0.446460334722144,0.190247396681425,0.814230655958872,1.09194842624669,0.081737241078935,0.0817372410790547,NaN,1.11138032540222,2.16698599633101,2.75504679963935,-0.0646226479089936,2.75504679963855,0.0746441925847514,NaN,1.45672299683768,-0.546626184787577,0.964538049971707,0.583212319489043,NaN,-1.27986788106495,1.28634922823987,-1.84027123486214,-1.0637916173841,-1.56936584430821,-0.259016149112755,-0.0957664450441479,-0.0957664450455676,0.632811446679817,-0.632811446680575,-0.732788856043077,0.492414804576727,1.41783224660654,1.58419090950976,0.75888800743932,-0.639626605137128,0.412467920781155,0.0705030221790974,-1.2290610075838,-1.22906100758655,1.62061586358828,0.00172874021371348,1.28335474018052,1.04179835133169,-0.415492215406595,0.756208482669001,0.57396852363933,1.44434058196313,1.44434058196528,0.08395706095592,-0.0839570609562425,-1.26904902140402
657.92,0.459716971578348,0.181163687836771,0.82447725553979,1.0803478557361,0.0539611693135461,0.0539611693136718,NaN,1.07852499613607,2.12090185373895,2.72299007143227,-0.0694054183771926,2.72299007143147,0.048243063356399,NaN,1.42457146627583,-0.552099131104658,0.974110816980628,0.58892596388849,NaN,-1.30569884306319,1.26856127605522,-1.88080151306639,-1.10062780528,-1.61063933665135,-0.28328793798647,-0.0898272736929825,-0.0898272736943893,0.646062373356201,-0.646062373356959,-0.773613800323193,0.506388337801763,1.4065058670009,1.58709040166616,0.775461626663367,-0.599231454244478,0.460934363239241,0.00986450492357598,-1.2521835720445,-1.25218357204742,1.61539542349135,0.0138096897597839,1.28554834710408,1.01843386522578,-0.421187685396792,0.728481505705112,0.589947338985021,1.48284746862999,1.48284746863216,0.066752436214991,-0.0667524362153035,-1.2856648060047
658.0224,0.472980258216772,0.171797421190608,0.834466137217249,1.06900234489477,0.025293160958849,0.0252931609589804,NaN,1.04542539129221,2.07382046845421,2.69046516694549,-0.0733526748765886,2.69046516694469,0.0222907449831141,NaN,1.39328907829455,-0.557282057835205,0.983278577811698,0.594489023274389,NaN,-1.3302645422921,1.25146154412001,-1.91987165462991,-1.1371019895984,-1.65090888007505,-0.306939882259426,-0.0819256169547245,-0.0819256169561173,0.658604846059918,-0.658604846060675,-0.813565106892627,0.520236156133937,1.39616388333765,1.59068362077479,0.79070378776272,-0.557814721423227,0.508604095001966,-0.050760694236237,-1.27560147708878,-1.27560147709194,1.60972888197257,0.0259833177101861,1.28743745825412,0.995647485252385,-0.425885141652392,0.702055257362693,0.605090703339303,1.52033597469777,1.52033597469994,0.0498894534507287,-0.0498894534510266,-1.3012216072037
658.1248,0.486209853447293,0.162136285084516,0.844128341800665,1.0579898353768,-0.00419320214583112,-0.00419320214568434,NaN,1.01208817860617,2.02575547025064,2.65758321364125,-0.0764623893770151,2.65758321364044,-0.00314226696803225,NaN,1.36298690673875,-0.562120309810823,0.992029277448245,0.599968761108082,NaN,-1.35346972713066,1.23509884755149,-1.95741578434218,-1.17317037770633,-1.69011543791052,-0.329948931712933,-0.072075202670803,-0.0720752026721797,0.670371307210953,-0.670371307211709,-0.852535126482426,0.533988321969684,1.38681170130132,1.59500108927869,0.804607711597553,-0.515453990909905,0.555412972432316,-0.111221820733896,-1.2993193600497,-1.29931936005303,1.60368417102434,0.0382379870737099,1.28906973828091,0.973508632475223,-0.429594952616563,0.676992548332048,0.619358329543511,1.55673449041397,1.55673449041614,0.033417934265902,-0.0334179342661889,-1.31564591172648
658.2272,0.49936748035093,0.152167798624537,0.853397683071558,1.04738688811144,-0.0344237774070637,-0.0344237774069075,NaN,0.978519525940118,1.97672125174052,2.62445103769403,-0.0787365116091963,2.62445103769323,-0.0279855158190681,NaN,1.33377208939059,-0.566559434817095,1.00035045422033,0.605431519309816,NaN,-1.37522225105347,1.21951790034687,-1.9933710136423,-1.20878744238313,-1.72820078837791,-0.352294867399182,-0.0602963785181814,-0.0602963785195418,0.681294513588052,-0.681294513588806,-0.890419041153895,0.547672853923108,1.37844944637104,1.60006724749315,0.81716681157385,-0.472230695418722,0.601294281047198,-0.17137326046321,-1.32333539267241,-1.32333539267591,1.59732917345778,0.0505626829390161,1.29049313859255,0.952081586869793,-0.432329476666947,0.653349559950274,0.632713442322376,1.59197334308096,1.59197334308315,0.0173872760875495,-0.017387276087821,-1.32886545563219
658.3296,0.512417224794436,0.141879329319754,0.862211188601346,1.03726836599366,-0.0653244448347997,-0.065324444834627,NaN,0.944725347700347,1.92673336581682,2.59117071527053,-0.0801810763094184,2.59117071526972,-0.0521687091405566,NaN,1.30574727700073,-0.570545408775918,1.00822919593487,0.610942301934078,NaN,-1.39543366463989,1.2047590118459,-2.02767775281725,-1.24390611540388,-1.76510779738864,-0.373960303474853,-0.0466161063810987,-0.0466161063824402,0.691307776141092,-0.691307776141845,-0.927115119703975,0.56131561015025,1.37107179769936,1.60590021675947,0.828374558334929,-0.428229756271935,0.646178840399121,-0.231074913145419,-1.34764106507713,-1.34764106508074,1.5907313034812,0.0629469530189948,1.29175553432528,0.93142520198222,-0.434103095968369,0.63117553118852,0.645123076540479,1.62598504501904,1.62598504502123,0.00184625842157416,-0.00184625842182895,-1.34080945318629
658.432,0.525325792832678,0.131258124538368,0.87050949522026,1.02770713178624,-0.0968216619024529,-0.0968216619022705,NaN,0.910711569051459,1.87580893472032,2.55783919479625,-0.0808062833444284,2.55783919479544,-0.0756218604146118,NaN,1.27901010445662,-0.574024846015947,1.01565209249373,0.616564376865004,NaN,-1.41401977750854,1.19085780609324,-2.06028003400755,-1.27847799243974,-1.80078070310128,-0.39493066791555,-0.0310679007105448,-0.0310679007118668,0.70034518830717,-0.700345188307924,-0.962524956286008,0.574940182029077,1.36466786434808,1.61251160614275,0.83822435882788,-0.38353920049095,0.689995142286993,-0.290192507126924,-1.37222103450334,-1.37222103450712,1.58395706729157,0.0753808405726099,1.29290434150693,0.911592645613104,-0.434932223641953,0.610512491110449,0.65655834156984,1.65870455637338,1.65870455637558,-0.0131571451965927,0.0131571451963527,-1.35140880759372
658.5344,0.538062727425937,0.120291353823777,0.878237196947914,1.01877376763648,-0.12884297584959,-0.128842975849393,NaN,0.876484409163345,1.82396707083154,2.52454799114282,-0.080626547274982,2.52454799114202,-0.0982754537921494,NaN,1.25365268845774,-0.576945209724723,1.02260520412167,0.622358900457897,NaN,-1.43090117481413,1.17784496976982,-2.09112582828378,-1.3124535395939,-1.83516539795482,-0.415194163847744,-0.0136917213192696,-0.013691721320568,0.708341847576011,-0.708341847576766,-0.996553694367177,0.588567802918336,1.35922110394526,1.61990636682873,0.84670945819001,-0.338249764123522,0.732669525320262,-0.348597859937329,-1.39705303778428,-1.39705303778813,1.57707160786406,0.0878548102444977,1.29398611800796,0.892631168873303,-0.43483528298068,0.591395040087557,0.666994652222954,1.69006955626552,1.69006955626773,-0.0275759477406924,0.0275759477404666,-1.36059629793427
658.6368,0.550600585327832,0.108966157690589,0.885343142459841,1.01053631925148,-0.161317485742676,-0.161317485742468,NaN,0.842050685415611,1.7712293067975,2.4913829463862,-0.0796605144651745,2.49138294638539,-0.120060632642147,NaN,1.22976115511567,-0.579255038596474,1.02907405976686,0.628384561833955,NaN,-1.44600368013094,1.16574602939269,-2.12016734312073,-1.34578229626751,-1.86820969781958,-0.434741715478527,0.00546617400591206,0.0054661740046375,0.715234072035325,-0.71523407203608,-1.0291102351866,0.602217275980096,1.35470928346941,1.62808269744137,0.853822871301992,-0.292454483703899,0.774126392369352,-0.406169082795251,-1.42210786582521,-1.42210786582914,1.57013823904108,0.100359668994864,1.29504615345449,0.874581905618707,-0.433832663698205,0.573850178225875,0.676411927241979,1.72002071619565,1.72002071619787,-0.0413643270496449,0.0413643270494332,-1.36830674049632
658.7392,0.562915074183516,0.0972697003877783,0.891780679770455,1.00306006464368,-0.194176255296739,-0.194176255296528,NaN,0.807418138042784,1.71762003008594,2.45842404619534,-0.0779310444336423,2.45842404619453,-0.140909411291309,NaN,1.20741519518874,-0.580904197005745,1.03504368889592,0.634697240195355,NaN,-1.45925876901588,1.15458115328567,-2.14736129393055,-1.37841307223988,-1.89986359363473,-0.453566903217477,0.0263534158863556,0.0263534158851065,0.720959612353003,-0.720959612353759,-1.06010742763963,0.615904921428136,1.35110448445046,1.63703200246307,0.859557346906122,-0.246248271878051,0.814288477130752,-0.462790724920881,-1.44734940076608,-1.44734940077003,1.56321797516015,0.112886485655933,1.29612805489192,0.857479708025684,-0.431946662080166,0.557897181907801,0.684794755843102,1.74850197131167,1.74850197131389,-0.054477809063364,0.0544778090631685,-1.37447712928691
658.8416,0.574985148566979,0.0851892275717585,0.897507847217678,0.996407308297211,-0.22735268020794,-0.227352680207722,NaN,0.77259576701194,1.66316691269513,2.42574527910005,-0.0754651537319098,2.42574527909924,-0.160754909964309,NaN,1.18668764284665,-0.581844146793183,1.04049868234258,0.641349671684328,NaN,-1.47060394408612,1.14436497347312,-2.17266914790667,-1.41029413793717,-1.93007948403436,-0.471665891574572,0.048911746510565,0.0489117465093436,0.725457867000167,-0.725457867000924,-1.08946223850623,0.629644539399784,1.34837316085882,1.6467389072013,0.863905364027587,-0.199727472121967,0.853077163185415,-0.518353858801254,-1.47273471911067,-1.47273471911448,1.55636906437545,0.125426513192671,1.29727333678732,0.841353027220548,-0.429201408251207,0.54354753516402,0.692132532753335,1.77546078931235,1.77546078931457,-0.0668734582383826,0.0668734582382006,-1.37904676487392
658.944,0.586793063741985,0.0727121305403319,0.902487510583336,0.990637200048061,-0.260782813365241,-0.26078281336501,NaN,0.737594167429682,1.60790132252847,2.39341452937615,-0.0722939246626168,2.39341452937534,-0.17953160676055,NaN,1.16764407844732,-0.582028232257936,1.04542327307933,0.64839112530234,NaN,-1.47998307746662,1.13510642767349,-2.19605734073767,-1.44137340881025,-1.95881238973755,-0.489037352208942,0.0730772741743304,0.0730772741731366,0.728670111728953,-0.72867011172971,-1.11709590459191,0.643447385045486,1.34647625976643,1.65718133456834,0.866859158619172,-0.152989390751342,0.890412854455568,-0.57275611464547,-1.49821426054643,-1.49821426055011,1.54964653576994,0.137971115367876,1.2985210242506,0.826223845719488,-0.425622779192271,0.530804923691542,0.698419560881142,1.80084843935003,1.80084843935227,-0.0785100744320303,0.0785100744318623,-1.38195737907772
659.0464,0.59832438639224,0.0598260181749208,0.906687446362309,0.985805571267787,-0.294405651807673,-0.294405651807436,NaN,0.702425850009766,1.551858701739,2.36149350110523,-0.0684523811908099,2.36149350110442,-0.19717559555885,NaN,1.15034245875928,-0.581411967861219,1.04980142502403,0.655867086559722,NaN,-1.48734671964835,1.12680862395179,-2.21749747034551,-1.47159862862888,-1.98602015444962,-0.505682382915235,0.0987807507024299,0.0987807507012644,0.730539745889621,-0.730539745890378,-1.14293406954793,0.657322157527416,1.34536940706899,1.66833064701035,0.868410778061653,-0.106131810634372,0.926215391122517,-0.625901675101302,-1.52373205527242,-1.52373205527601,1.54310176986556,0.150511695913647,1.29990727608351,0.812107662425474,-0.421238294881425,0.51966529415706,0.703655119220323,1.82462026217571,1.82462026217795,-0.0893483996112662,0.0893483996111107,-1.38315325671597
659.1488,0.609567962421048,0.0465187979258597,0.910080372584967,0.981964779054939,-0.328163384864981,-0.328163384864731,NaN,0.667105534117374,1.49507889764858,2.33003767565812,-0.0639793354265669,2.33003767565731,-0.213624845748685,NaN,1.13483277644327,-0.579953321950897,1.05361692341849,0.663818949667506,NaN,-1.49265237122639,1.11946872644791,-2.23696647420169,-1.50091755862867,-2.01166363943845,-0.521604421325013,0.125947863210779,0.125947863209644,0.73101254801667,-0.731012548017428,-1.16690691089587,0.671275008948646,1.3450031505281,1.68015185250198,0.868552162963612,-0.0592524977376972,0.960404502284445,-0.677701240004574,-1.54922600033368,-1.54922600033701,1.5367820976201,0.163039628554079,1.3014650308168,0.799013526444694,-0.416076995251966,0.510116976657741,0.707843495918757,1.8467359427294,1.84673594273165,-0.0993513379894067,0.0993513379892625,-1.38258135109981
659.2512,0.620515844891365,0.0327787646849856,0.912643930463337,0.97916355476905,-0.362001595198806,-0.362001595198546,NaN,0.631650403022035,1.43760643295775,2.29909630484771,-0.0589172143330401,2.29909630484689,-0.228819469777852,NaN,1.12115674928877,-0.57761299324906,1.05685346931033,0.67228372711741,NaN,-1.49586471303316,1.11307786073889,-2.25444679344948,-1.52927817804027,-2.03570691637238,-0.53680915093643,0.154499537479917,0.154499537478812,0.730036930264464,-0.730036930265222,-1.18894926483288,0.685309580544396,1.34532324645482,1.69260386981834,0.867275256596116,-0.0124487144919888,0.992900285590084,-0.728071967671835,-1.5746281778045,-1.5746281778075,1.53073042777167,0.175546189081283,1.3032236762548,0.786944114859331,-0.410169295221956,0.50214086738765,0.71099398999791,1.86715978547135,1.86715978547361,-0.108484179868841,0.10848417986871,-1.38019139187455
659.3536,0.631163188196886,0.0185946923435768,0.914360620596203,0.977446856342869,-0.395869405278862,-0.395869405278597,NaN,0.596080318769877,1.37949070743558,2.26871243858383,-0.0533118784349616,2.26871243858301,-0.242702003330958,NaN,1.10934754134387,-0.574354675263187,1.05949478159253,0.681293789334831,NaN,-1.49695579120107,1.1076210457675,-2.26992652047359,-1.55662889835261,-2.05811745770414,-0.551304397470569,0.184352256617913,0.184352256616842,0.727564186067973,-0.72756418606873,-1.20900075251275,0.699427071484979,1.34627097488969,1.70563984537778,0.864572140624377,0.0341832490248535,1.02362370432014,-0.776937395157646,-1.59986521095351,-1.59986521095629,1.52498490053166,0.188022491106407,1.30520874179443,0.775895850154541,-0.403546816937105,0.495710667771911,0.713120884381412,1.88586098627335,1.88586098627561,-0.116714809245974,0.116714809245854,-1.37593598794818
659.456,0.641508114575573,0.00395592300897843,0.915217697663613,0.976855722618673,-0.429719571516868,-0.429719571516593,NaN,0.560418001557731,1.32078613290533,2.23892298208672,-0.047212434923885,2.23892298208589,-0.255217693812262,NaN,1.09942952130743,-0.570145302369575,1.06152470464152,0.690876641234395,NaN,-1.4959051571118,1.10307716183961,-2.28339952209321,-1.58291879012397,-2.07886631959809,-0.565100015477129,0.215418399064849,0.215418399063812,0.723548733804292,-0.723548733805049,-1.22700590477951,0.713626339158331,1.34778347251107,1.71920751188919,0.860435193938005,0.0805485225946339,1.05249709568674,-0.824227335830866,-1.62485865639392,-1.62485865639644,1.51957856674123,0.200459426194924,1.30744161318967,0.765859053515067,-0.396242204245322,0.490793172640034,0.714243389762716,1.90281388743291,1.90281388743518,-0.124013883403909,0.124013883403801,-1.36977072899982
659.5584,0.651551557070108,-0.0111475469409997,0.915207028666352,0.97742712966395,-0.463508535911509,-0.463508535911221,NaN,0.524689177825219,1.26155220991904,2.20975877830993,-0.0406710328283061,2.20975877830909,-0.266314787886386,NaN,1.09141806553628,-0.564955275376322,1.06292731870118,0.701054734851731,NaN,-1.49269996469004,1.09941895556096,-2.29486553013266,-1.6080978191952,-2.09792831118019,-0.578207768149063,0.247606595326097,0.247606595325094,0.717948363736255,-0.71794836373701,-1.2429142788011,0.727904022066805,1.34979407973279,1.73324957821647,0.854857270131546,0.126554085403833,1.07944468764187,-0.86987775029022,-1.64952542835735,-1.64952542835972,1.51453909341516,0.212847609043701,1.30993927083684,0.756818130058186,-0.388288929066227,0.487348596528058,0.714385557174718,1.91799819915472,1.91799819915699,-0.130354985741166,0.130354985741069,-1.36165428751056
659.6608,0.661297081489733,-0.0267249801806387,0.914324921918983,0.979193853719701,-0.497196444602297,-0.497196444601994,NaN,0.488922696665704,1.20185355276255,2.18124471622598,-0.0337426218229542,2.18124471622513,-0.275944811022926,NaN,1.08531941162128,-0.558758671253587,1.06368705526659,0.711845314097213,NaN,-1.4873350277338,1.09661307604568,-2.30433019388262,-1.6321170907368,-2.11528214623389,-0.590641205483543,0.280822096603557,0.280822096602588,0.710724491841796,-0.71072449184255,-1.25668056097577,0.742254673560322,1.35223270198231,1.74770414022223,0.847831888415258,0.172109180170479,1.1043931200107,-0.913830587266599,-1.6737782491436,-1.67377824914586,1.5098884987477,0.225177327972467,1.31271405415631,0.748751783269602,-0.379721098942546,0.485330928683353,0.713576156501555,1.93139917376605,1.93139917376831,-0.135714756958617,0.135714756958529,-1.35154852349683
659.7632,0.67075069023842,-0.0427848044161902,0.912571937220616,0.982184347192548,-0.530747137847335,-0.530747137847028,NaN,0.453150610536633,1.14175986162373,2.15339986985988,-0.0264846666508599,2.15339986985903,-0.284062838649048,NaN,1.08113056680299,-0.551533442580782,1.06378882148963,0.723260288965905,NaN,-1.47981283943167,1.09462014132339,-2.31180509346365,-1.65492910284667,-2.13091057764436,-0.602415545155893,0.314967145164331,0.314967145163398,0.701842416376553,-0.701842416377304,-1.2682646553338,0.756670898236039,1.35502618408048,1.76250510461404,0.839353433753047,0.217125707465692,1.12727196190957,-0.956033593623863,-1.69752612259161,-1.69752612259368,1.50564292322088,0.237438501258775,1.31577345760271,0.741633259535083,-0.370573272715252,0.484688312696923,0.711848519621194,1.9430077287758,1.94300772877806,-0.140073006502979,0.140073006502902,-1.33941859693915
659.8656,0.67992061227249,-0.05933450499752,0.909952688957948,0.986422631843224,-0.564128112885176,-0.564128112884857,NaN,0.417408211889091,1.0813458326513,2.126237674214,-0.0189568253939803,2.12623767421314,-0.29062776573666,NaN,1.07883927789432,-0.543261603279997,1.06321813171478,0.735306141736828,NaN,-1.47014355549721,1.09339484303426,-2.3173077175831,-1.67648801276461,-2.14480051809242,-0.613547557361165,0.349941340445417,0.349941340444522,0.691271569277384,-0.691271569278133,-1.27763176255415,0.771143488329032,1.35809869471104,1.77758262101276,0.829417363813867,0.261518590628816,1.14801421569196,-0.996440095232311,-1.72067483065471,-1.72067483065664,1.50181244765756,0.249620641722493,1.31911996814293,0.735430625571301,-0.36088028938925,0.485363449966294,0.709240350642031,1.95282052384621,1.95282052384845,-0.143412800935545,0.143412800935478,-1.32523309359019
659.968,0.688817083212112,-0.0763805019736668,0.906475649927301,0.991928211247363,-0.597310459448799,-0.597310459448469,NaN,0.381734015436427,1.02069099456899,2.09976614252425,-0.0112206044773686,2.09976614252339,-0.295602581703947,NaN,1.07842407069926,-0.533929389100118,1.06196123956846,0.747983873357521,NaN,-1.45834494075415,1.09288610174275,-2.32086141061238,-1.69674991756609,-2.15694315070678,-0.624055452417837,0.385642001442954,0.385642001442098,0.678985759006142,-0.67898575900689,-1.28475245581029,0.78566155998753,1.36137211758679,1.79286351938262,0.818020420097449,0.305206101076548,1.1665567969699,-1.03500875330917,-1.74312745234234,-1.74312745234423,1.49840096966315,0.261712832039846,1.32275095455632,0.730107079202814,-0.350677112546512,0.487294025750908,0.705793506588847,1.96083999707469,1.96083999707693,-0.145720525381795,0.145720525381738,-1.30896416409052
660.0704,0.69745211772999,-0.0939280139574268,0.902152956656235,0.998716004191263,-0.630268764084819,-0.630268764084477,NaN,0.346169682102148,0.959879468090955,2.07398812467897,-0.00333899697661794,2.0739881246781,-0.29895465051169,NaN,1.07985436005661,-0.523527385588807,1.06000526854788,0.761288998279357,NaN,-1.44444227584161,1.09303728334541,-2.32249529024599,-1.71567314745638,-2.16733402944525,-0.633958770571604,0.42196452553176,0.421964525530945,0.664963408179118,-0.664963408179863,-1.28960275493204,0.800212689986581,1.36476644791784,1.80827175216689,0.805160839680594,0.348110137886053,1.18284098216397,-1.07170330394649,-1.76478490423599,-1.76478490423777,1.49540614346725,0.273703709555716,1.32665861187814,0.725621290185875,-0.339998689979926,0.490413154715803,0.701553747729151,1.967074360764,1.96707436076622,-0.146985920537645,0.146985920537599,-1.2905876698665
660.1728,0.705839275191896,-0.111980914457581,0.897000212259208,1.00679630125381,-0.662980976555064,-0.662980976554727,NaN,0.310759891208862,0.898999656542041,2.04890160269315,0.00462389459427046,2.04890160269228,-0.300655991616069,NaN,1.08309062398582,-0.512050626794405,1.05733834678459,0.775211591135082,NaN,-1.42846821763195,1.09378648021379,-2.3222441292511,-1.73321856207174,-2.17597316074575,-0.643278276029559,0.458802737436438,0.458802737435664,0.649187789128466,-0.649187789129209,-1.29216419547596,0.81478305256003,1.36820019743335,1.82372884350302,0.790838565350637,0.390156463119624,1.19681282206623,-1.10649228968786,-1.78554650529725,-1.78554650529892,1.49281937852101,0.285581456193066,1.33082995500687,0.721927764152536,-0.328879827427483,0.494649839758185,0.69657045310604,1.97153755292134,1.97153755292355,-0.147202101686999,0.147202101686964,-1.27008333015796
660.2752,0.713993418300742,-0.130541585413627,0.891036281997514,1.01617474943351,-0.695428234212192,-0.695428234211868,NaN,0.275552173524365,0.838143882788679,2.02450001891205,0.0126032539326204,2.02450001891117,-0.300683557874493,NaN,1.0880846377063,-0.499498671218332,1.05394975300364,0.789736385541359,NaN,-1.4104626081969,1.09506685008386,-2.32014818759125,-1.7493498327162,-2.18286505017479,-0.65203585783335,0.496049217237412,0.496049217236679,0.631647254794932,-0.631647254795671,-1.29242388819372,0.829357551766908,1.37159081465959,1.83915434700259,0.77505545407998,0.431274900005736,1.20842352652742,-1.13934878947616,-1.8053105704884,-1.80531057048984,1.49062588839054,0.297333790572107,1.33524685326943,0.71897722032929,-0.317355074808706,0.499929435806084,0.690896297862957,1.97424914092989,1.97424914093208,-0.146365561895931,0.146365561895908,-1.24743486789383
660.3776,0.721930461915051,-0.149610768112846,0.884283077353754,1.02685237095488,-0.727594647126878,-0.727594647126558,NaN,0.240596714986607,0.777407983467339,2.00077263331623,0.0205339708340024,2.00077263331535,-0.299019506756804,NaN,1.09477976945347,-0.485875656720185,1.04983007443418,0.804842923497689,NaN,-1.39047223242053,1.09680699968556,-2.31625298231453,-1.76403369336251,-2.18801869837438,-0.660254437470181,0.533595599238406,0.533595599237712,0.612335459607559,-0.612335459608295,-1.29037456654305,0.843919941856708,1.37485512534775,1.85446630954208,0.757815485295848,0.471399501615135,1.21762982749227,-1.17025015137298,-1.82397503456123,-1.82397503456225,1.48880478682642,0.308947963613134,1.33988610414228,0.716716976311564,-0.305458622046323,0.506174113882508,0.684586892985613,1.97523417654671,1.97523417654887,-0.144476155907715,0.144476155907701,-1.22263014962636
660.48,0.729667107725115,-0.16918740920175,0.87676532465079,1.03882561642252,-0.759467051424492,-0.759467051424182,NaN,0.205946131490212,0.71689086079502,1.97770490438461,0.0283510866211397,1.97770490438373,-0.295651459306131,NaN,1.10311133919989,-0.471190332112564,1.04497136902139,0.820505747524997,NaN,-1.36855052906211,1.09893140303176,-2.310608993475,-1.77724014859919,-2.19144753941726,-0.66795788059045,0.571332843081216,0.571332843080561,0.591251568267102,-0.591251568267835,-1.2860146232616,0.858452931068848,1.37790979400194,1.86958173787434,0.739124971935819,0.51046869411744,1.22439432680331,-1.19917773573956,-1.84143810371603,-1.84143810371665,1.48732923551988,0.320410762091853,1.34471955203733,0.715091339283776,-0.293224200978378,0.513303327323923,0.67770039281854,1.97452300391652,1.97452300391866,-0.141537064650502,0.141537064650498,-1.19566130943508
660.5824,0.737220562280007,-0.189268501115565,0.868510315292919,1.05208644281485,-0.791034737636098,-0.791034737635782,NaN,0.171655208148435,0.656693986368516,1.95527888441177,0.0359902606410341,1.95527888441089,-0.290572736349937,NaN,1.11300703644879,-0.4554560647614,1.03936732211223,0.836694621985985,NaN,-1.34475726302682,1.10136084954706,-2.3032713143699,-1.78894263245096,-2.19316932319875,-0.67517091063029,0.609151484427598,0.609151484426983,0.56840045508811,-0.568400455088842,-1.27934813843753,0.872938270512516,1.38067180328377,1.88441706686145,0.718992777334163,0.548425391808226,1.22868583025134,-1.22611668241563,-1.85759893308557,-1.85759893308586,1.48616665021669,0.331708525171474,1.34971426006209,0.714042005358465,-0.280684990100815,0.521234284184432,0.670297078860199,1.97215102368133,1.97215102368345,-0.137554749781524,0.137554749781527,-1.1665248461863
660.6848,0.744608240096515,-0.209848919488739,0.859547637665442,1.06662240249053,-0.822289158841173,-0.82228915884085,NaN,0.137780598251166,0.59692085579089,1.93347361687128,0.0433882521786489,1.9334736168704,-0.283782559985683,NaN,1.12438739071269,-0.438690826820727,1.03301339493885,0.853374775506511,NaN,-1.31915816619489,1.10401292289532,-2.29429925555613,-1.79911811892276,-2.19320594762322,-0.681919024165615,0.646941870720925,0.64694187072035,0.543792896689271,-0.543792896690001,-1.27038489954059,0.887356837399617,1.38305894095168,1.89888862894838,0.697430538259831,0.585217074837482,1.2304796616608,-1.2510557192266,-1.87235832937746,-1.87235832937742,1.48527896847554,0.342827175717499,1.35483273830033,0.713508466348084,-0.267873518759222,0.52988242755604,0.662438927703398,1.96815841654465,1.96815841654674,-0.132538907553155,0.132538907553163,-1.13522168957738
660.7872,0.75184745769163,-0.230921264209204,0.849908892692828,1.08241673218075,-0.853223624749373,-0.853223624749044,NaN,0.104380483810388,0.537676401494753,1.91226552090343,0.0504834065786375,1.91226552090256,-0.275286220219594,NaN,1.13716628659654,-0.420917160786527,1.02590696818114,0.870507168313937,NaN,-1.29182454981957,1.10680251971746,-2.28375591028864,-1.80774719311763,-2.19158324932096,-0.688228409261601,0.684594385151568,0.684594385151033,0.517445755004207,-0.517445755004937,-1.25914041202389,0.901688727884986,1.38499027902378,1.91291312563874,0.674452891576442,0.620795821578439,1.22975794823673,-1.27398702835252,-1.88561947684661,-1.88561947684635,1.48462297775861,0.353752262388173,1.36003322547714,0.71342842198039,-0.254821568450026,0.539161923470291,0.65418916854162,1.9625898306408,1.96258983064286,-0.126502419659072,0.126502419659086,-1.10175723929604
660.8896,0.758955126971087,-0.252475714711345,0.839627395018842,1.09944843833714,-0.883832990871242,-0.883832990870906,NaN,0.0715142063301295,0.479066378348596,1.89162875174274,0.0572161243072436,1.89162875174187,-0.265095222460344,NaN,1.15125151175221,-0.402162117370847,1.01804747805461,0.88804879160258,NaN,-1.26283289070655,1.1096424228698,-2.27170769065187,-1.8148140963383,-2.18833076483072,-0.694125868113106,0.721999663315512,0.721999663315015,0.489382140826297,-0.489382140827028,-1.24563590041956,0.91591337152285,1.38638663480696,1.92640810295649,0.650077702002565,0.655118296216839,1.22650987468113,-1.2949061776772,-1.89728868287202,-1.8972886828714,1.4841507000377,0.364469004976286,1.36527001704888,0.713738197211491,-0.241560073612872,0.548986154323086,0.645611834980405,1.95549404032364,1.95549404032568,-0.119461291076181,0.119461291076202,-1.06614138761453
660.992,0.765947457692269,-0.274499909730739,0.828737863950585,1.11769238507274,-0.914113351036213,-0.914113351035868,NaN,0.0392418819140894,0.421196742076664,1.87153554017331,0.0635292918138119,1.87153554017244,-0.253227429895785,NaN,1.16654532414933,-0.382457155512574,1.00943653403441,0.905952998597187,NaN,-1.23226439848088,1.11244393633174,-2.25822384483407,-1.82030675603897,-2.18348147357461,-0.699638743751979,0.759048810630374,0.759048810629913,0.4596315478586,-0.459631547859332,-1.22989830126814,0.930009667886748,1.38717101216526,1.93929243004153,0.62432629072182,0.688145700977758,1.22073191262445,-1.31381210626791,-1.90727613862836,-1.90727613862746,1.48380982975578,0.374962338313058,1.37049383476226,0.714373165954406,-0.228119031739278,0.559268212109936,0.636771315908662,1.94692358554124,1.94692358554325,-0.111434568154535,0.111434568154558,-1.02838853550556
661.0944,0.772839677607999,-0.296978855454599,0.817276112675229,1.13711939550675,-0.94406173918559,-0.944061739185241,NaN,0.00762401618539858,0.364173041501689,1.85195652609261,0.0693686682021657,1.85195652609174,-0.239707196420068,NaN,1.18294502989609,-0.361838002389038,1.00007801088828,0.92416985974023,NaN,-1.20020457426097,1.11511756999532,-2.24337596368509,-1.82421680478912,-2.17707152929523,-0.704794848779903,0.795633629615941,0.795633629615518,0.428229954621582,-0.428229954622314,-1.2119602459922,0.943956138260934,1.38726902183504,1.95148677374643,0.597223663675374,0.719843704595541,1.21242803244701,-1.33070713837321,-1.91549668835252,-1.9154966883514,1.48354422185157,0.385216956092046,1.37565223578834,0.715268181143736,-0.214527436641892,0.569921381462551,0.627731908818447,1.93693439709213,1.93693439709411,-0.102444238675724,0.10244423867575,-0.988517607918953
661.1968,0.779645775189426,-0.319894859639355,0.805278745005294,1.15769637226156,-0.973675848059696,-0.973675848059349,NaN,-0.0232788693235079,0.308099839403131,1.83286109605552,0.0746832364378165,1.83286109605465,-0.224565474315901,NaN,1.20034356999078,-0.340344479834084,0.989978115776985,0.942646533145825,NaN,-1.1667427691959,1.11757374996587,-2.22723748300817,-1.82653958868518,-2.16913998380804,-0.709622393800347,0.831646860482466,0.831646860482078,0.395219896768162,-0.395219896768894,-1.19186002687726,0.957731087652997,1.38660927396403,1.96291405954278,0.568798731342322,0.750182355955616,1.20160989450417,-1.3455970000685,-1.92187059714193,-1.92187059714075,1.48329442113697,0.395217359193385,1.38069005693633,0.716358006920435,-0.200813243432903,0.580859602089822,0.618557378986227,1.9255854112645,1.92558541126645,-0.092515119396255,0.0925151193962863,-0.946552070472234
661.2992,0.786378266798994,-0.343227488213911,0.792782865602637,1.17938643942674,-1.00295377176241,-1.00295377176205,NaN,-0.0534065946538581,0.25308016511746,1.8142177199193,0.0794255260179535,1.81421771991844,-0.207839886639944,NaN,1.21863011682978,-0.318020301073672,0.979145429981466,0.961327643567565,NaN,-1.1319717463714,1.11972353488677,-2.20988318819284,-1.82727416563204,-2.15972850700337,-0.714149913742617,0.866982433075704,0.866982433075347,0.360650508125079,-0.360650508125814,-1.16964154057281,0.971312776175933,1.38512373673276,1.97349991290107,0.539084505857173,0.779135989881643,1.18829700846873,-1.35849082345572,-1.92632430573397,-1.92632430573268,1.482998218946,0.404947913680247,1.38554988551208,0.717577746630467,-0.187003363040786,0.591997905798845,0.6093105311179,1.91293818570543,1.91293818570734,-0.0816747308703169,0.0816747308703555,-0.902519949080968
661.4016,0.793047989705687,-0.366953542043454,0.779825807857688,1.20214911233962,-1.03189377120409,-1.03189377120372,NaN,-0.0826996663897244,0.199214990362764,1.79599427391782,0.0835519034971775,1.79599427391696,-0.189574763858112,NaN,1.23769067819832,-0.294912836279864,0.967590921275367,0.980155666292352,NaN,-1.09598724248148,1.12147932899843,-2.19138872739075,-1.8264232940825,-2.14888110688692,-0.718406189764799,0.901535732318841,0.901535732318516,0.324577522877582,-0.32457752287832,-1.14535420909562,0.984679594340249,1.38274806269061,1.98317307773333,0.508118261835323,0.80668312921866,1.17251684805784,-1.36940113449673,-1.92879115972392,-1.92879115972264,1.48259122527922,0.414392922723907,1.39017254973073,0.718863262335904,-0.173123677502599,0.603252830027805,0.600052801370631,1.89905653701995,1.89905653702182,-0.0699531563587675,0.0699531563588131,-0.856453852073694
661.504,0.799663922924688,-0.391047051512275,0.766444884454238,1.2259404994263,-1.06049405618861,-1.06049405618823,NaN,-0.111099618378837,0.146602715478632,1.77815834065257,0.0870228255700568,1.77815834065172,-0.169821146708579,NaN,1.25740870020654,-0.271072849205131,0.955327929397732,0.999071316087206,NaN,-1.05888752283506,1.12275558497139,-2.17183013890977,-1.82399341389691,-2.13664385368876,-0.722420163789249,0.935203886575452,0.93520388657516,0.287063233026359,-0.287063233027102,-1.11905287861366,0.99781022982707,1.37942188674157,1.99186580431169,0.475941649317937,0.832806380696919,1.15430490593097,-1.37834382644991,-1.92921209483664,-1.92921209483533,1.4820074505562,0.423536712416375,1.39449762400302,0.720151582902905,-0.159199067350304,0.614542811146398,0.590843874235861,1.88400621522251,1.88400621522435,-0.0573828908050798,0.0573828908051308,-0.808390990839284
661.6064,0.806233038309953,-0.415479287982056,0.752677164962422,1.25071352731391,-1.08875258233638,-1.08875258233599,NaN,-0.138549353556843,0.0953386598090494,1.76067748618832,0.0898030551920154,1.76067748618748,-0.148636754918046,NaN,1.2776656574828,-0.246554214697729,0.942372136751101,1.0180139439644,NaN,-1.02077292936404,1.12346948622173,-2.15128339768062,-1.81999462204783,-2.1230646121398,-0.726220843520174,0.967886088311962,0.967886088311701,0.248176398777286,-0.248176398778033,-1.09079769153872,1.01068381585812,1.37508909173572,1.99951419477887,0.442600748014482,0.857492318773682,1.133704672045,-1.38533812113118,-1.9275362530336,-1.92753625303233,1.48117989191768,0.432363726592069,1.3984639425384,0.721381295901213,-0.145253446524453,0.625788555976839,0.581741325735654,1.86785461399447,1.86785461399627,-0.0439986929916004,0.0439986929916564,-0.758373193856461
661.7088,0.812760183921787,-0.440218793755608,0.738559281791723,1.27641817275664,-1.11666686744324,-1.11666686744284,NaN,-0.164993485506318,0.04551456250184,1.74351952234605,0.0918618438685798,1.7435195223452,-0.126085918064464,NaN,1.29834162495509,-0.221413627049452,0.928741535948543,1.03692194354895,NaN,-0.981745428220053,1.12354159469513,-2.12982398188166,-1.81444064253562,-2.10819278221019,-0.729837197151842,0.999483949912082,0.999483949911849,0.207992106293162,-0.207992106293915,-1.06065392649969,1.023280058931,1.36969803197232,2.00605849640497,0.408146056307237,0.880731357296405,1.11076752780262,-1.39040651699444,-1.92372150601908,-1.92372150601795,1.48004111515511,0.44085862536844,1.40201011143499,0.722492916854861,-0.131309805884734,0.6369133842313,0.572800295092937,1.85067050319601,1.85067050319777,-0.0298374476858162,0.0298374476858772,-0.706446908622562
661.8112,0.819247999477852,-0.465231431385883,0.724127263437785,1.30300169125733,-1.14423383333646,-1.14423383333605,NaN,-0.190378671984735,-0.00278189024389793,1.72665275822744,0.0931730830371451,1.7266527582266,-0.102239461445745,NaN,1.31931583546972,-0.195710304228585,0.914456397547803,1.05573316413926,NaN,-0.941908162296192,1.12289644797073,-2.10752645590986,-1.80734878437642,-2.09207904308958,-0.733298038180555,1.02990189022643,1.02990189022622,0.166591563221089,-0.166591563221846,-1.02869180538666,1.03557934406633,1.36320171241572,2.01144333918728,0.372632418300841,0.90251761431683,1.08555256365472,-1.39357472006607,-1.91773487404349,-1.91773487404233,1.47852382077337,0.449006385230296,1.4050750090217,0.723429229451392,-0.117390268481716,0.647843533127692,0.564073188801023,1.83252377045309,1.83252377045482,-0.0149380358011519,0.0149380358012227,-0.652663183647058
661.9136,0.825696861444489,-0.490480450689479,0.709416393103116,1.33040884231655,-1.17144967928816,-1.17144967928776,NaN,-0.214653928512983,-0.0494674947210715,1.71004623407594,0.0937154286747681,1.71004623407511,-0.0771745390160287,NaN,1.34046723210202,-0.169505690455302,0.899539235481898,1.07438532292363,NaN,-0.901365008273979,1.12146309359085,-2.08446406641769,-1.79873988178515,-2.07477509561935,-0.736631902037421,1.05904754414169,1.05904754414151,0.124061825131562,-0.124061825132324,-0.994986269803912,1.04756281092941,1.35555793352663,2.0156179201045,0.336118900045394,0.92284877342688,1.05812633546021,-1.3948715536874,-1.90955283811577,-1.90955283811465,1.47656138385223,0.456792401118688,1.40759826651585,0.724135590728622,-0.103516155998176,0.658508418555977,0.555609421576644,1.81348516782222,1.81348516782392,0.000658790746521909,-0.0006587907464433,-0.597077622485604
662.016,0.832104855929632,-0.515926572332834,0.694461091149363,1.35858211672086,-1.19830979432346,-1.19830979432304,NaN,-0.237770913034193,-0.0944639077997188,1.69366993072739,0.0934724032112666,1.69366993072656,-0.0509744095301207,NaN,1.36167502257642,-0.142863156955011,0.884014764396714,1.09281640799395,NaN,-0.860220134774344,1.11917555943199,-2.06070835406152,-1.78863821805194,-2.05633340541759,-0.739866916334264,1.0868321904145,1.08683219041434,0.0804954497652264,-0.0804954497659924,-0.959616727624313,1.05921239320197,1.34672941477223,2.01853613805823,0.298668624239602,0.941725941578621,1.02856257032717,-1.39432884396506,-1.89916154433875,-1.89916154433757,1.47408836195631,0.464202592072959,1.40952072525656,0.724560196706095,-0.0897080619233729,0.668840851390081,0.547455198237315,1.79362606623846,1.79362606624013,0.0169105321821197,-0.0169105321820332,-0.539750307585994
662.1184,0.838467778953435,-0.541528087811765,0.679294820948424,1.38746197315747,-1.22480871369988,-1.22480871369947,NaN,-0.259684181832958,-0.137697975834504,1.67749495826757,0.0924324746966722,1.67749495826674,-0.0237281569092876,NaN,1.3828192396155,-0.115847695607737,0.867909839824196,1.11096506689087,NaN,-0.818577557274864,1.11597326738504,-2.03632878685209,-1.77707144162987,-2.03680695427892,-0.743030665073984,1.11317119771336,1.11317119771323,0.0359900747006334,-0.0359900747014029,-0.922666768928473,1.07051081820223,1.33668390269052,2.02015668168601,0.260348566347755,0.959153502839804,0.996941824926596,-1.39198127785936,-1.8865568962684,-1.88655689626729,1.47104097122022,0.471223513157273,1.41078487204426,0.724654307638475,-0.075985927338157,0.678777211069135,0.539653340292407,1.77301822054418,1.77301822054583,0.0337730656707983,-0.0337730656707044,-0.480745697405228
662.2208,0.84477916379032,-0.567240975039962,0.663950018438905,1.41698708974857,-1.25094011837055,-1.25094011837012,NaN,-0.280351423680702,-0.179102021500178,1.6614937305876,0.0905891079243682,1.66149373058677,0.00446964301424306,NaN,1.40378130778062,-0.0885255976226259,0.851253372087967,1.12877097940411,NaN,-0.776540684275039,1.11180139830924,-2.01139241924131,-1.7640704835241,-2.01624900672799,-0.746150046682398,1.13798449051643,1.13798449051633,-0.00935208838968612,0.00935208838891198,-0.884223852486221,1.08144157126341,1.32539425933481,2.0204430705595,0.2212293123822,0.975138969000451,0.96335109723392,-1.38786623292518,-1.87174453273006,-1.87174453272908,1.46735753323164,0.477842477470151,1.41133525665031,0.724372435537128,-0.0623691164375054,0.688257581186504,0.532243161672354,1.75173354589779,1.75173354589942,0.0512007717560558,-0.0512007717559555,-0.420132499991022
662.3232,0.851030336642194,-0.593019030867295,0.648458045928888,1.44709463137859,-1.2766968691036,-1.27669686910315,NaN,-0.29973368008909,-0.218614095013778,1.64564012561442,0.087940777286012,1.6456401256136,0.0335193063843277,NaN,1.42444461365621,-0.0609641118486474,0.834076208295511,1.14617521462692,NaN,-0.734211849017157,1.1066112129798,-1.98596357908634,-1.74966947896247,-1.99471289442431,-0.749251126482905,1.16119703510993,1.16119703510985,-0.055424846448638,0.0554248464478584,-0.844378965644211,1.09198883376154,1.31283852389339,2.01936365161359,0.181384777225995,0.989692832576604,0.927883394423785,-1.38202358181909,-1.85473969239894,-1.85473969239796,1.46297889337708,0.484047690640602,1.41111889328111,0.723672496551091,-0.0488764880292656,0.697225852406027,0.525260396637008,1.72984390691697,1.72984390691857,0.0691466536996174,-0.0691466536995092,-0.357983524703134
662.4256,0.857210503273257,-0.618814025948533,0.632849168757088,1.47772052984128,-1.3020710592967,-1.30207105929624,NaN,-0.3177955558939,-0.256178192713083,1.62990962486003,0.0844909273644075,1.62990962485921,0.0633164688239703,NaN,1.44469506926732,-0.0332310827001363,0.816410981696845,1.16312057122642,NaN,-0.691691823665875,1.10036032809885,-1.96010358417538,-1.7339056855981,-1.97225181548957,-0.75235898455231,1.18273933870005,1.18273933869999,-0.102118693484217,0.102118693483432,-0.803226260386086,1.10213740114527,1.29899994656918,2.01689155557827,0.140891880314762,1.00282843213401,0.890637260445229,-1.37449547460522,-1.835566972899,-1.83556697289813,1.4578488081703,0.489828395101747,1.41008564261588,0.722515928046442,-0.0355264590464,0.705629795384562,0.518737175304114,1.7074209223062,1.70742092230777,0.0875624381180877,-0.0875624381179754,-0.294375514948612
662.528,0.863306866179487,-0.644575887349724,0.617152549112044,1.50879977238091,-1.32705406703607,-1.3270540670356,NaN,-0.334505416582039,-0.291744440105736,1.61427942624785,0.0802478722163126,1.61427942624702,0.0937525496022448,NaN,1.46442165226479,-0.00539457180663502,0.798291932659686,1.17955190084808,NaN,-0.649079317600037,1.0930129397252,-1.93387049004348,-1.71681938183029,-1.94891864151689,-0.755497560253342,1.20254794459439,1.20254794459435,-0.149321521120247,0.149321521119457,-0.760862668233318,1.11187258207283,1.28386700026838,2.01300461889926,0.0998301779036383,1.01456183729576,0.851716267727934,-1.36532609723935,-1.81426000186501,-1.81426000186408,1.45191429746037,0.495175014993711,1.40818856638204,0.720867768270049,-0.0223370597714995,0.713421101777638,0.512702031514279,1.68453578295874,1.68453578296029,0.106398654594322,-0.106398654594202,-0.229388964404753
662.6304,0.869304768817287,-0.670252909861041,0.60139625115514,1.5402666949746,-1.35163659606893,-1.35163659606844,NaN,-0.349835562153895,-0.325269232019358,1.59872852876836,0.0752246398244296,1.59872852876753,0.124715256163796,NaN,1.48351690914977,0.0224775334446345,0.779754706249492,1.19541641713855,NaN,-0.606470464276945,1.08453998385475,-1.90731887006286,-1.69845373090078,-1.92476572563881,-0.758689495809077,1.22056590628218,1.22056590628217,-0.19691932942064,0.196919329419844,-0.717387496288767,1.12118007565667,1.26743337675178,2.00768527396919,0.0582814578956205,1.02491175345649,0.811228479940197,-1.35456140213901,-1.79086104168945,-1.79086104168854,1.44512595928928,0.500079291035279,1.40538424712204,0.718696697239949,-0.00932598462859449,0.72055538918967,0.507179923543879,1.66125907149262,1.66125907149416,0.125604703985485,-0.125604703985356,-0.163107915308252
662.7328,0.875187864439727,-0.695791991999415,0.585607257762128,1.57205527967119,-1.37580870866842,-1.37580870866793,NaN,-0.363762368855051,-0.356715323738124,1.58323778964268,0.0694387786315314,1.58323778964185,0.156089141831662,NaN,1.50187741567434,0.050317923670032,0.760836128210105,1.21066399180629,NaN,-0.563958301136487,1.07491922521145,-1.88049962660579,-1.67885460694344,-1.89984470906415,-0.761955981827213,1.23674323139031,1.23674323139032,-0.244796915618546,0.244796915617742,-0.672902005845985,1.13004582291247,1.24969797314118,2.00092040908477,0.0163293076658778,1.03389944080158,0.769285893932817,-1.3422488095842,-1.76542054421106,-1.76542054421017,1.4374382488416,0.504534399265322,1.40163307110059,0.715975041036014,0.00348935764324531,0.726992169532557,0.502192253700164,1.63766056817487,1.63766056817639,0.14512892746142,-0.145128927461284,-0.0956197357682808
662.8352,0.880938306711487,-0.721138888350403,0.569811502759376,1.60409945683503,-1.39955985534026,-1.39955985533976,NaN,-0.376266397581818,-0.386051873519801,1.56778995041575,0.0629121366430333,1.56778995041492,0.18775622184321,NaN,1.51940418974966,0.0780602791505447,0.741573962296494,1.22524743524686,NaN,-0.521632251439946,1.06413526731748,-1.85345983162436,-1.65807038797918,-1.87420632764867,-0.765316606567115,1.25103728731158,1.25103728731161,-0.292838543235685,0.292838543234875,-0.627508976400505,1.13845583408664,1.23066487402766,1.99270120386381,-0.0259413344659975,1.04154864019727,0.726003867778887,-1.32843688525797,-1.73799666408037,-1.73799666407951,1.42880972344395,0.508535050929721,1.39689947447485,0.712678745976725,0.0160917942387218,0.732694787215191,0.497756881833447,1.61380903759627,1.61380903759777,0.164918680807657,-0.164918680807512,-0.0270148771489427
662.9376,0.88653695464262,-0.746238468237889,0.554033917521652,1.63633340837096,-1.42287890206709,-1.4228789020666,NaN,-0.387332474029042,-0.41325444543993,1.55236962286008,0.0556706107926635,1.55236962285925,0.219596636824415,NaN,1.53600304960489,0.105639675453599,0.722006661028848,1.23912275796355,NaN,-0.47957762802146,1.05217948168327,-1.82624259940748,-1.63615172486481,-1.84790022456381,-0.768789207854764,1.26341315336611,1.26341315336615,-0.340928596843667,0.34092859684285,-0.581312262407195,1.14639600209705,1.2103433318973,1.98302295122738,-0.068444633961231,1.04788549738594,0.68150054042381,-1.31317500641091,-1.70865473574388,-1.70865473574296,1.41920325325308,0.512077570926665,1.39115215108757,0.708787328799613,0.0284643436530899,0.737630336721738,0.493888135593489,1.58977200198494,1.5897720019864,0.184920408025443,-0.184920408025291,0.0426133834326293
663.04,0.891963582332172,-0.771034975705075,0.538298483164089,1.66869186059832,-1.44575415734383,-1.44575415734335,NaN,-0.396949748653431,-0.438304987795145,1.53696322547656,0.0477438585505016,1.53696322547573,0.251489348096063,NaN,1.55158491423896,0.132992963641671,0.7021731283631,1.25224941010429,NaN,-0.43787518476732,1.03904986250145,-1.79888699991055,-1.61315129662328,-1.82097477901231,-0.772389723247805,1.27384390391784,1.27384390391791,-0.38895221656439,0.388952216563565,-0.534416352575751,1.15385191502751,1.18874774285193,1.97188487472227,-0.111094312481074,1.0529384765747,0.635896246300817,-1.29651303159289,-1.67746671658414,-1.67746671658313,1.40858619725952,0.515159954032335,1.38436422118074,0.704283802590448,0.0405901842149887,0.741769565092578,0.490596825781835,1.5656155095832,1.56561550958463,0.20507970256209,-0.205079702561931,0.113169212600246
663.1424,0.897197089828847,-0.795472296912153,0.522628277308583,1.70111035459561,-1.46817340541519,-1.46817340541472,NaN,-0.405111746543399,-0.461191802983982,1.52155886639091,0.0391649648101306,1.52155886639009,0.283312858811018,NaN,1.56606605131479,0.160059115057091,0.682112503514168,1.26459049725358,NaN,-0.396600733493342,1.02475082055198,-1.77142802145678,-1.58912356077539,-1.79347696026323,-0.776132032751695,1.28231081755859,1.28231081755867,-0.436795904402225,0.436795904401395,-0.48692593697876,1.16080867685285,1.16589760696541,1.95928994046083,-0.153804096339083,1.05673825865461,0.589312923374008,-1.2785009844892,-1.64451059440992,-1.64451059440882,1.39693054813078,0.517781900560068,1.37651336468355,0.699154574324034,0.0524526413666435,0.745086759124334,0.487890275689117,1.54140390051236,1.54140390051377,0.225341351134392,-0.225341351134229,0.18455450487075
663.2448,0.902215719949035,-0.819494250596476,0.507045507508415,1.73352548570756,-1.49012395302696,-1.49012395302649,NaN,-0.411816419247576,-0.481909520989812,1.50614617397437,0.0299700608312899,1.50614617397354,0.314945965181878,NaN,1.57936827955518,0.186779538690753,0.661863957471792,1.27611297237337,NaN,-0.355824832015549,1.00929293076577,-1.7438965867468,-1.56412450312517,-1.76545221145264,-0.78002778923075,1.28880351646622,1.28880351646632,-0.484348101038757,0.484348101037922,-0.438945479335758,1.16725074295347,1.141817457222,1.94524465628129,-0.196488167872322,1.05931762698717,0.541873508785405,-1.25918875748912,-1.60986975444313,-1.60986975444198,1.38421305226349,0.519944830901649,1.36758192382668,0.693389313477488,0.0640351919259077,0.747559615477258,0.485772368095593,1.51719956438054,1.51719956438191,0.245649367105078,-0.245649367104912,0.256669186899019
663.3472,0.906997287782489,-0.843044914771054,0.491571528435593,1.76587510526456,-1.51159269561732,-1.51159269561684,NaN,-0.41706620773749,-0.500459082324626,1.49071608132322,0.020197899389811,1.49071608132239,0.346268541476974,NaN,1.5914191284717,0.213098387057076,0.641466486723452,1.28678780566982,NaN,-0.315612545429432,0.992692642352566,-1.71631962084156,-1.53821139021679,-1.73694436400801,-0.784086232725952,1.29332003701504,1.29332003701516,-0.531499734799307,0.53149973479847,-0.390578788014536,1.17316177698287,1.11653674367448,1.92975885293076,-0.239061628822206,1.06071134788008,0.493701316773016,-1.23862583974968,-1.57363230596098,-1.57363230595976,1.37041530802098,0.52165187365885,1.3575569746676,0.686980795914125,0.0753214779364315,0.749169092635481,0.484243607092055,1.49306267895953,1.49306267896088,0.265947021342071,-0.265947021341903,0.329411544255108
663.4496,0.91151942239666,-0.866068985431699,0.476226846135425,1.79809848145954,-1.53256620373857,-1.53256620373809,NaN,-0.420868112618209,-0.516847726924989,1.47526057731599,0.00988940180125566,1.47526057731517,0.37716235141777,NaN,1.60215195598684,0.238962858365784,0.620958695327628,1.29659013135092,NaN,-0.276023281751526,0.974971956388974,-1.68872016536513,-1.5114425313592,-1.70799558290566,-0.788313987222633,1.29586682905829,1.29586682905842,-0.578144743480313,0.578144743479475,-0.341928581514618,1.17852453205607,1.09008967187114,1.91284544907347,-0.281440980275821,1.06095605304442,0.444919398895259,-1.21686107220277,-1.53589038040169,-1.53589038040035,1.35552383924539,0.522907823249146,1.34643036306862,0.679924729335002,0.0862953215765168,0.749899244974968,0.483301189263979,1.4690509246356,1.46905092463691,0.2861768705906,-0.286176870590427,0.402678564432373
663.552,0.915759811399114,-0.888512143370826,0.46103111867688,1.83013642845461,-1.55303081956843,-1.55303081956795,NaN,-0.423233752369909,-0.53108897571067,1.45977244367302,-0.000912799434477233,1.4597724436722,0.407511866437306,NaN,1.61150602827234,0.264323489242305,0.600378566826607,1.30549936453019,NaN,-0.237110696442398,0.95615807844442,-1.66111752869331,-1.48387706012734,-1.67864634195318,-0.792714844731516,1.2964586911308,1.29645869113095,-0.624180566340518,0.624180566339678,-0.2930960494181,1.18332075104122,1.06251500948796,1.89452020695909,-0.323544617684332,1.06009013353587,0.395649895172589,-1.19394242585925,-1.49673942155896,-1.49673942155762,1.33953014002116,0.523719072181161,1.3341987046641,0.672219568588586,0.0969407349486939,0.749737042897581,0.482939081947336,1.44521918502281,1.4452191850241,0.306280782684897,-0.306280782684725,0.47636628099431
663.6544,0.919696437330673,-0.910321400560159,0.446003164513933,1.86193142396038,-1.57297274424373,-1.57297274424324,NaN,-0.424179388077549,-0.543202588638382,1.44424499890961,-0.0121648014365899,1.44424499890879,0.437205069177836,NaN,1.61942657187789,0.28913442498578,0.579763234864392,1.3134992811863,NaN,-0.198922650964454,0.936283056732157,-1.63352746021741,-1.4555747420276,-1.64893542573219,-0.797289548432423,1.29511866237587,1.29511866237603,-0.669508598820773,0.669508598819933,-0.244180414055417,1.18753107480816,1.03385588186576,1.87480148595295,-0.365293335987463,1.0581536575873,0.346013390894623,-1.16991679744177,-1.45627748709582,-1.45627748709437,1.32243068952047,0.524093531586293,1.32086335500417,0.6638663289232,0.107241924411756,0.748672186969464,0.48314811181224,1.42161925193543,1.42161925193669,0.326199964656576,-0.326199964656403,0.550370105793962
663.7568,0.92330779923306,-0.931445409092012,0.431160985184193,1.89342773349361,-1.5923781001281,-1.59237810012762,NaN,-0.423725903174902,-0.553214489022514,1.42867186678642,-0.0238218416116265,1.4286718667856,0.466134230555801,NaN,1.62586480954438,0.313353657132659,0.559148762401241,1.32057805994777,NaN,-0.161501208363807,0.915383414288682,-1.60596234082867,-1.42659580841256,-1.61889995381784,-0.802035586187985,1.29187789155199,1.29187789155216,-0.714034603912292,0.714034603911453,-0.195278499172597,1.19113495000439,1.00415957200022,1.85370999928794,-0.406610839971916,1.05518832166668,0.296128291496262,-1.14482982122674,-1.41460456873651,-1.41460456873501,1.30422693840715,0.52404055206038,1.30643035735402,0.654868400488992,0.117183295319329,0.746696923615368,0.483916069071953,1.39829954052031,1.39829954052156,0.345874999616836,-0.34587499961666,0.624585150253167
663.8592,0.926573115976262,-0.951834730180105,0.416521799855934,1.92457154586243,-1.61123296638642,-1.61123296638596,NaN,-0.421898735699482,-0.561156652714145,1.41304678115615,-0.0358386678997012,1.41304678115534,0.494196659030528,NaN,1.63077798652536,0.336943225878843,0.538569935170753,1.32672829028978,NaN,-0.124882656938888,0.893499782654736,-1.57843138849302,-1.39700081347588,-1.58857542505231,-0.806946998379482,1.2867754924015,1.28677549240168,-0.757669083290125,0.757669083289287,-0.14648431044795,1.19411053734152,0.973477329633247,1.83126857868325,-0.447424255660739,1.05123743542083,0.246110220837514,-1.11872570172948,-1.37182192492006,-1.37182192491847,1.28492527060611,0.523570848337576,1.29091037300532,0.645231363463591,0.126749464065493,0.743805866684483,0.485227830294548,1.37530480481096,1.37530480481218,0.365245889382538,-0.365245889382358,0.69890654713011
663.9616,0.929472509367648,-0.971442070646219,0.402102081891332,1.95531111198918,-1.62952340027822,-1.62952340027779,NaN,-0.418727765630346,-0.567066967368642,1.39736342885574,-0.0481698621678154,1.39736342885492,0.521295420668612,NaN,1.63412938958129,0.359869389011065,0.518060071981142,1.33194695358798,NaN,-0.0890975605892459,0.870676547622621,-1.55094088111123,-1.36685051207103,-1.55799578197985,-0.812014199106128,1.27985838755168,1.27985838755187,-0.800327616643845,0.800327616643008,-0.0978886304189048,1.19643462826585,0.941864184280406,1.80750194945633,-0.487664636575939,1.04634593137158,0.196071443371909,-1.09164707224345,-1.32803141689132,-1.32803141688955,1.26453694606709,0.522696425867215,1.27431859754414,0.634962803804029,0.135925280570571,0.739995827137396,0.487065500061052,1.35267584604264,1.35267584604384,0.384252093817968,-0.384252093817788,0.773229778509461
664.064,0.931987168292877,-0.990222500577613,0.387917586262584,1.98559687460316,-1.64723546329869,-1.64723546329827,NaN,-0.41424716658758,-0.570989070131774,1.38161532172268,-0.0607701191019168,1.38161532172186,0.54734002078113,NaN,1.63588836069644,0.382102755872452,0.497650855855238,1.33623538067421,NaN,-0.0541708342258209,0.846961518581305,-1.52349439656956,-1.33620575717608,-1.52719349480061,-0.81722381101498,1.27118113934089,1.27118113934109,-0.84193117345227,0.841931173451435,-0.0495786292063908,1.19808257775694,0.909378750668321,1.78243651345341,-0.527267454981647,1.04056038221729,0.146120309186515,-1.06363487974802,-1.2833348502874,-1.28333485028549,1.2430780293775,0.521430507602656,1.25667466603157,0.624072130919306,0.144695861044181,0.735265652047077,0.489408569161628,1.33044922117477,1.33044922117595,0.402832559544847,-0.402832559544666,0.847451001757612
664.1664,0.934099498051011,-1.00813366577282,0.373983360859156,2.01538157596314,-1.66435526830297,-1.66435526830256,NaN,-0.408495234806537,-0.572972169237636,1.36579568796028,-0.0735944903627965,1.36579568795946,0.572247031741126,NaN,1.63603030781087,0.40361838021473,0.477372192815163,1.33959918643876,NaN,-0.0201218441214614,0.822405626426476,-1.49609306520143,-1.30512741427549,-1.49619966078418,-0.822558517102693,1.26080575708429,1.2608057570845,-0.882406396977191,0.882406396976358,-0.00163749450211073,1.19902825711536,0.876083018081438,1.75610013621895,-0.566173063559248,1.03392900676215,0.0963607249467716,-1.03472829241661,-1.23783333949782,-1.23783333949572,1.22056930559787,0.519787458556267,1.23800254690386,0.612570398195894,0.153046630075902,0.729616073176245,0.492234082866175,1.30865696909812,1.30865696909928,0.420925738400062,-0.420925738399882,0.921467358016539
664.2688,0.935793257386129,-1.02513599857069,0.360313741842481,2.04462033329605,-1.68086905176846,-1.68086905176805,NaN,-0.40151420158503,-0.573070845843312,1.34989738007827,-0.0865986055010363,1.34989738007745,0.595940651984499,NaN,1.63453671152325,0.424395805472379,0.457252106175623,1.34204818310376,NaN,0.0130354611099504,0.797062641693738,-1.46873582766151,-1.27367628637614,-1.46504411205501,-0.827996935214647,1.24880146113687,1.24880146113708,-0.921685859403743,0.921685859402912,0.0458559121102545,1.1992440273207,0.842042127869587,1.72852194237631,-0.60432710841489,1.02650165147619,0.0468916633778585,-1.00496462451218,-1.19162671927702,-1.19162671927485,1.19703618075266,0.517782702358968,1.21833041954381,0.600470127535999,0.160963370204682,0.723049564978761,0.495516810442158,1.28732636974232,1.28732636974346,0.438469606842483,-0.438469606842305,0.995177250531478
664.3712,0.937053682108933,-1.04119291891891,0.346922339176064,2.0732706791201,-1.69676326336721,-1.69676326336679,NaN,-0.393350025683499,-0.571344825429818,1.33391280047467,-0.099738879232891,1.33391280047385,0.618353185213238,NaN,1.63139512348731,0.444419056937183,0.437316673391718,1.34359627404535,NaN,0.0452923863588306,0.770988894077595,-1.44141969299407,-1.24191304211054,-1.43375552503219,-0.83351352213625,1.235244386457,1.23524438645721,-0.959708285403516,0.959708285402686,0.0928273652291172,1.19870073496788,0.807324147679781,1.69973212794905,-0.64168087626001,1.01832974361255,-0.00219327185020255,-0.97437927296414,-1.14481302284258,-1.14481302284028,1.1725085627464,0.5154326256212,1.19769052997581,0.587785139973731,0.16843227510434,0.715570211344565,0.499229410671601,1.26647974467222,1.26647974467333,0.455401703359166,-0.455401703358987,1.0684805849107
664.4736,0.937867594092142,-1.05627101615961,0.333822019606719,2.10129257385547,-1.71202466237352,-1.71202466237309,NaN,-0.384052160266331,-0.567858711540053,1.31783384411373,-0.112972710279964,1.31783384411292,0.639425432256824,NaN,1.62659915274086,0.463676575496675,0.417590010386142,1.34426132717422,NaN,0.0766453027878099,0.744242979588791,-1.41413999447877,-1.20989814249753,-1.40236152794506,-0.839078512712856,1.22021722197383,1.22021722197404,-0.996418741854695,0.996418741853866,0.139207548690378,1.19736773806295,0.771999838479893,1.66976179273974,-0.678191569686111,1.00946621917448,-0.0508062164216477,-0.943005659559798,-1.09748803245188,-1.09748803244923,1.14702072055703,0.512754473500102,1.17611902476708,0.574530393949129,0.175440002808236,0.707183580121631,0.503342593949567,1.2461343051688,1.24613430516988,0.471659197684324,-0.471659197684144,1.14127896598078
664.576,0.938223496539861,-1.07034020750533,0.321024892183236,2.12864840511444,-1.72664041423258,-1.72664041423215,NaN,-0.373673293608115,-0.562681684583823,1.30165185630559,-0.126258672549727,1.30165185630478,0.65910699169973,NaN,1.6201484384112,0.482161092740221,0.398094302813522,1.34406502676175,NaN,0.10709545345698,0.71688545761979,-1.38689064194857,-1.17769176508971,-1.370888805053,-0.844657895904748,1.20380879293661,1.20380879293682,-1.03176879596379,1.03176879596296,0.184932290854059,1.19521297062559,0.736142401609885,1.63864279012707,-0.713822514398125,0.999965432463761,-0.0988653504363023,-0.910875175318075,-1.04974489738431,-1.04974489738153,1.12061112340711,0.509766244275581,1.15365576856582,0.560721831397797,0.181973729840266,0.697896606196465,0.507825283861455,1.22630205467756,1.22630205467862,0.487178998849339,-0.48717899884916,1.21347585018624
664.6784,0.93811165584891,-1.08337387123501,0.308542298627394,2.15530298591483,-1.7405981848183,-1.74059818481787,NaN,-0.362269068511248,-0.555887175997654,1.28535760338497,-0.139556699194424,1.28535760338416,0.677356469900531,NaN,1.61204860758798,0.499869457437997,0.378849873308204,1.34303270300847,NaN,0.13664875835713,0.688978549263672,-1.35966436960941,-1.14535372411766,-1.33936319632702,-0.850213426691738,1.18611359287474,1.18611359287495,-1.06571664478662,1.0657166447858,0.229942760333353,1.19220305217936,0.699827200755447,1.60640759539945,-0.748543302266527,0.989883052161365,-0.146295139099563,-0.878017130667067,-1.00167381187077,-1.00167381186781,1.09332226418646,0.506486586459652,1.13034415050314,0.546376231980281,0.188021211152866,0.687717486975781,0.512644780374621,1.20698975208074,1.20698975208176,0.501897903635231,-0.501897903635053,1.28497666014308
664.7808,0.93752416717858,-1.09534895264745,0.296384806315861,2.1812235540915,-1.75388623395173,-1.75388623395129,NaN,-0.349897789903136,-0.547552529612104,1.26894125317997,-0.152828262040326,1.26894125317916,0.69414160376286,NaN,1.60231121731124,0.516802430701845,0.359875264405437,1.34119313611421,NaN,0.165315607889705,0.660585845572437,-1.33245297882421,-1.11294338348952,-1.30780979071831,-0.855702671243504,1.16723126764045,1.16723126764066,-1.09822721446631,1.09822721446549,0.274185619957301,1.18830344759954,0.663131462484874,1.57308920034599,-0.782329869380241,0.979275944522051,-0.193026507673758,-0.844458721886714,-0.953361747429697,-0.953361747426615,1.06520047306229,0.502934692765083,1.1062308811859,0.53151107805721,0.193570849118275,0.676655595234459,0.517766925665787,1.1881989364294,1.1881989364304,0.515752782478697,-0.515752782478523,1.35568887561507
664.8832,0.936454998515295,-1.10624604285677,0.284562196385545,2.20637976676785,-1.76649351026995,-1.76649351026951,NaN,-0.336620130628852,-0.537758658457523,1.25239236326446,-0.166036548768169,1.25239236326365,0.709439301393268,NaN,1.59095368279373,0.532964466538592,0.341187318589576,1.33857833330099,NaN,0.193110621894832,0.631772027396881,-1.30524757503723,-1.08051955904883,-1.27625301074905,-0.861079081627237,1.1472660536204,1.14726605362061,-1.12927222524528,1.12927222524446,0.317613139798548,1.18347868422128,0.62613395613046,1.53872104073801,-0.815164506261052,0.968202041237912,-0.238996949185312,-0.810225024626598,-0.904892236222902,-0.904892236219744,1.03629572851923,0.499130177471738,1.08136577896385,0.516144434382745,0.198611769093733,0.664721411571507,0.523156271974828,1.16992600366181,1.16992600366278,0.52868079402395,-0.528680794023778,1.4255221202562
664.9856,0.934900007896424,-1.11604943164467,0.273083438232533,2.23074368108092,-1.77840974318308,-1.77840974318265,NaN,-0.32249884038843,-0.52658969811109,1.23569987930429,-0.179146639143936,1.23569987930348,0.723235607490856,NaN,1.57799919496023,0.548363485221931,0.322801251899825,1.33522328505337,NaN,0.220052354706854,0.602602592385781,-1.27803879815891,-1.04814040959409,-1.24471668779402,-0.866292095945246,1.12632617077992,1.12632617078013,-1.15883022129464,1.15883022129382,0.360183273244173,1.17769262968747,0.588914648343308,1.50333695591361,-0.847035797354475,0.95672018856107,-0.284150564029689,-0.775339019002192,-0.856345207415094,-0.856345207411804,1.00666147099166,0.495092922337695,1.05580154178045,0.500294844782433,0.203133893906222,0.651926473277527,0.52877624778918,1.15216231915391,1.15216231915486,0.540619614957249,-0.54061961495708,1.49438826160669
665.088,0.932856930011488,-1.12474713367038,0.261956645692413,2.25428971308988,-1.78962552209431,-1.78962552209388,NaN,-0.307598454556596,-0.514132650080131,1.21885214730055,-0.192125679486017,1.21885214729974,0.735525596535149,NaN,1.56347662406258,0.563010631658424,0.30473073594509,1.33116571047979,NaN,0.246162944982767,0.573143582284172,-1.25081704782423,-1.01586332138797,-1.21322413121542,-0.871287262801986,1.10452316738713,1.10452316738734,-1.1868865677499,1.18688656774908,0.401859700189783,1.17090882364771,0.551554330416869,1.46697117292778,-0.877938488046336,0.94488997453474,-0.328438031738368,-0.739821643205586,-0.807796885146044,-0.807796885142564,0.976354417005223,0.490842884378414,1.02959349946354,0.483981243953636,0.207128007949802,0.63828333105505,0.53458931666157,1.1348943521026,1.13489435210352,0.551507677773584,-0.551507677773417,1.56220153027646
665.1904,0.930325330597184,-1.13233088342237,0.251189017016376,2.27699457252931,-1.80013235775874,-1.80013235775833,NaN,-0.291984992362803,-0.500477005364107,1.20183694063741,-0.204943047157013,1.2018369406366,0.746313188411969,NaN,1.54742040096381,0.576919997782687,0.286988012333078,1.32644579483489,NaN,0.271467730686476,0.543461305314712,-1.22357270696976,-0.983744793351915,-1.18179819689308,-0.876006394914686,1.08197121468898,1.08197121468919,-1.21343341683228,1.21343341683146,0.442611839741697,1.16309084443482,0.51413422357732,1.4296583031139,-0.907873281633628,0.93277153204513,-0.371816519373825,-0.703691868653463,-0.759319757217287,-0.75931975721373,0.945434363123385,0.486399873595329,1.00279934221594,0.467222876325933,0.210585806806786,0.623805502500909,0.540557125936582,1.11810382494945,1.11810382495033,0.561284424612682,-0.561284424612515,1.62887865171733
665.2928,0.927306528439727,-1.13879609126921,0.240786765604526,2.29883718043379,-1.80992273132982,-1.80992273132943,NaN,-0.275725631010645,-0.485714341163584,1.18464150321466,-0.217570488320409,1.18464150321385,0.755610878163143,NaN,1.52987037233982,0.590108285400644,0.269584059101926,1.3211059115918,NaN,0.295994856771715,0.513622052206905,-1.19629636686784,-0.951840327406122,-1.15046135915097,-0.880387760302723,1.05878635665152,1.05878635665173,-1.23846964368281,1.23846964368199,0.482414834096828,1.15420268788874,0.476735569152153,1.39143333686264,-0.936846573093594,0.920425315615552,-0.414249535967844,-0.666966790811336,-0.710982616336922,-0.710982616333436,0.913963966735881,0.481783317504188,0.975478823869594,0.450039209145956,0.213499937831799,0.608507413263187,0.546640647818913,1.1017678756008,1.10176787560165,0.569890592098749,-0.569890592098587,1.69433898325769
665.3952,0.923803485787368,-1.14414175552317,0.230755047446463,2.3197985805091,-1.81899014123772,-1.81899014123736,NaN,-0.258888345987677,-0.469937889871736,1.16725261434513,-0.22998221524915,1.16725261434432,0.763439377939245,NaN,1.51087163354528,0.602594396611065,0.25252881523728,1.31519031805375,NaN,0.3197748913833,0.483691809241927,-1.16897905457503,-0.920204323244842,-1.11923578626373,-0.884366317261171,1.03508572558301,1.03508572558322,-1.26200075568603,1.26200075568521,0.521249506160936,1.14420914532303,0.439439205419258,1.35233162679206,-0.964870126891825,0.907911850450053,-0.455706742451596,-0.629661733113979,-0.662850665578073,-0.662850665574474,0.882008499257614,0.47701202469284,0.94769344279901,0.43244983069017,0.215864041272131,0.592404323533873,0.552800316383869,1.0858592303409,1.08585923034172,0.577268530731368,-0.577268530731206,1.75850465773333
665.4976,0.919820671219412,-1.14837033327679,0.221097888408279,2.33986185151686,-1.82732915349656,-1.82732915349621,NaN,-0.241541517561938,-0.453242085462827,1.14965668072779,-0.242154963474755,1.14965668072698,0.769827181427128,NaN,1.4904743426024,0.614398959001789,0.235831453623359,1.30874482136062,NaN,0.342840453692327,0.453735976889136,-1.14161246106447,-0.88888997423022,-1.08814341690839,-0.887873993315712,1.01098674001057,1.01098674001078,-1.28403878125514,1.28403878125432,0.559102294049698,1.13307618227846,0.402325131015341,1.31238886063838,-0.99196070544084,0.895291457426219,-0.496163722030303,-0.591790362348958,-0.614985672621738,-0.614985672618306,0.849635579999262,0.472103952986031,0.919506109951455,0.414474336158449,0.217672798396876,0.575512247102297,0.558996163267921,1.07034638611851,1.07034638611931,0.583362544914786,-0.583362544914627,1.82130073690564
665.6,0.915363904533137,-1.15148758021835,0.211818115301308,2.35901202442466,-1.83493545481258,-1.83493545481225,NaN,-0.223753514353663,-0.435722096148179,1.1318398560804,-0.254068018400669,1.13183985607959,0.77481007207975,NaN,1.46873351370487,0.625543811765921,0.219500681721377,1.30181642483506,NaN,0.365225854964039,0.423819104972041,-1.11418916602722,-0.857949162221166,-1.05720603420605,-0.890840002877751,0.986606307997629,0.986606307997829,-1.30460213776733,1.30460213776652,0.595965164837748,1.12077132488977,0.365472062394926,1.27164103590724,-1.01813965776977,0.882623965616702,-0.535601713642874,-0.553364812611005,-0.567446155727743,-0.567446155724254,0.816914905220648,0.467075989471153,0.89098081927465,0.39613221410773,0.218921988335533,0.557847877201267,0.565187956845612,1.05519380560448,1.05519380560524,0.588119230498297,-0.588119230498139,1.88265536946308
665.7024,0.91044019625124,-1.15350237305792,0.202917295749749,2.37723600789081,-1.84180590514268,-1.84180590514236,NaN,-0.205592270118141,-0.417473353588209,1.11378818790491,-0.26570321911202,1.1137881879041,0.778430598526495,NaN,1.44570878879075,0.636051485294933,0.203545047120254,1.29445297141012,NaN,0.38696675489059,0.394004652751325,-1.08670285398943,-0.8274323509268,-1.02644533413169,-0.89319119560597,0.962060059800737,0.962060059800936,-1.32371547116574,1.32371547116493,0.631835508728145,1.10726405609776,0.328956999843961,1.23012445005442,-1.0434324812313,0.869968424963776,-0.574007314161214,-0.514395815718474,-0.520287586594961,-0.520287586591473,0.78391798492511,0.461943752116409,0.862182335574429,0.377442748441966,0.2196085507632,0.539428532287498,0.571335352066116,1.04036213420767,1.0403621342084,0.59148778802835,-0.591487788028194,1.94249994545105
665.8048,0.905057592017964,-1.15442652711683,0.19439568957733,2.3945225254471,-1.84793858420474,-1.84793858420444,NaN,-0.18712486803937,-0.398591089612839,1.0954877895794,-0.277044942347442,1.09548778957858,0.780737535921524,NaN,1.42146419150422,0.645944699699394,0.187973229910975,1.28670279695545,NaN,0.408099830476832,0.364354777856497,-1.05914851637849,-0.797388477540927,-0.995882985146092,-0.894852426507407,0.93746162485034,0.937461624850536,-1.34140946226801,1.3414094622672,0.666716013662699,1.09252621800949,0.292854813816712,1.18787571258405,-1.06786836746973,0.857382824391088,-0.611372158460664,-0.474892839640283,-0.473562599548825,-0.473562599545395,0.750717894118967,0.456721418421632,0.833175907971511,0.358424944903608,0.219730649104335,0.520272126986873,0.577398057413868,1.02580844793112,1.02580844793181,0.593420294686827,-0.59342029468667,2.0007692491694
665.9072,0.899225027991272,-1.15427461842094,0.186252211559143,2.4108620643579,-1.85333282503131,-1.85333282503101,NaN,-0.168417143755728,-0.379169891981102,1.0769250275308,-0.288080070219408,1.07692502752998,0.781785347918432,NaN,1.39606787182878,0.65524589689147,0.172794310764353,1.27861439976695,NaN,0.428662451535461,0.334930153462805,-1.03152263513897,-0.76786484112551,-0.965540675804011,-0.895746937614138,0.912921957999565,0.912921957999757,-1.35772060047052,1.35772060046971,0.700614520090689,1.07653241315258,0.257237855500822,1.14493177594774,-1.09147973995404,0.844923814473677,-0.647692586437044,-0.434864239382353,-0.427321199690904,-0.427321199687476,0.717389038465769,0.451421580316234,0.804027008490481,0.33909748178614,0.219287730417027,0.500397165168137,0.583336023404415,1.01148653032904,1.01148653032969,0.593871921378862,-0.593871921378707,2.0574016227594
666.0096,0.892952200260359,-1.15306381642763,0.178484404046672,2.42624683216662,-1.8579892352179,-1.8579892352176,NaN,-0.149533317232106,-0.359303289882315,1.05808670614934,-0.298797947578251,1.05808670614852,0.781633656270507,NaN,1.3695918465863,0.663976813464406,0.158018008578496,1.27023612837143,NaN,0.44869236297831,0.305789808260835,-1.00382334422063,-0.738906985828994,-0.935440147308487,-0.895796741345359,0.888548716132464,0.888548716132654,-1.37269092216905,1.37269092216825,0.733543857081571,1.05926039509878,0.222175588836332,1.10132997470879,-1.1143017894533,0.832646432775309,-0.682969305710788,-0.394317423662155,-0.381610963297745,-0.381610963294357,0.684006928772983,0.446055123506351,0.774801090438038,0.31947867779578,0.218280581179026,0.479822747430586,0.589109653141508,0.99734716591963,0.997347165920256,0.592801092193224,-0.592801092193068,2.11233914782208
666.112,0.886249446916463,-1.15081372683621,0.171088418036914,2.44067071988394,-1.86190972009329,-1.861909720093,NaN,-0.130535659750566,-0.339083375017959,1.03896023832905,-0.309190330362819,1.03896023832822,0.780346709029839,NaN,1.34211172962709,0.672158096841821,0.1436548826107,1.26161588393349,NaN,0.468227388361722,0.276990980392439,-0.97605056546568,-0.710558578969883,-0.905603209069468,-0.894923001308747,0.864445684114232,0.864445684114419,-1.3863677041101,1.3863677041093,0.765521661693799,1.04069143681397,0.187734238857659,1.05710805867242,-1.13637201439581,0.820603828963789,-0.717207060134123,-0.353259035515308,-0.336477226015581,-0.336477226012102,0.650647956425058,0.440631134373271,0.745563361954035,0.299586466813547,0.216711381866315,0.458568584708204,0.594680028438483,0.983338441417087,0.983338441417682,0.590169607241994,-0.590169607241839,2.16552783613201
666.2144,0.879127635868641,-1.14754623365693,0.164059003105179,2.45412927958769,-1.86509752303961,-1.86509752303933,NaN,-0.111484193836806,-0.318600454504764,1.01953380230812,-0.319251318476111,1.0195338023073,0.777992827038375,NaN,1.31370643306785,0.679808962711444,0.129716495580922,1.25280082894211,NaN,0.48730517788002,0.248588974220365,-0.948206117436057,-0.682861285366737,-0.876051737135721,-0.893046415299341,0.840712242932607,0.840712242932791,-1.39880310431043,1.39880310430963,0.796570181243259,1.0208106666903,0.153976453277375,1.01230420874448,-1.15772977011126,0.808846984218614,-0.750414312703261,-0.311695140704244,-0.291963260194702,-0.291963260191208,0.617389161595842,0.435156841367459,0.716378571907996,0.279438369060285,0.214583767411892,0.436655012451109,0.600009140383444,0.969406060416113,0.969406060416682,0.585942767765256,-0.585942767765097,2.21691781119817
666.3168,0.871598049500322,-1.143285324875,0.157389508360533,2.4666197259212,-1.86755728366917,-1.86755728366891,NaN,-0.0924364174319994,-0.297942723443941,0.99979649193062,-0.328977264380688,0.999796491929787,0.774643815491979,NaN,1.28445782044355,0.686946888366938,0.116215540423121,1.24383709777834,NaN,0.50596301510321,0.220637007251094,-0.920293801119247,-0.655854638613446,-0.846807658069149,-0.890087610286157,0.817442867525252,0.817442867525433,-1.41005375136152,1.41005375136072,0.826716055173107,0.999607369213047,0.120960978325937,0.966957033698509,-1.17841582607147,0.797424420246129,-0.782602945254186,-0.269631419934977,-0.248110447826939,-0.248110447823336,0.584307986088609,0.429637594540017,0.687310803596972,0.259051451510905,0.211902901383264,0.414103003767048,0.605060116247999,0.955493683647049,0.955493683647592,0.580089532647682,-0.580089532647521,2.2664634684507
666.4192,0.863672259279406,-1.13805689002791,0.151071895683577,2.47814096227926,-1.86929510424557,-1.86929510424533,NaN,-0.0734470444213286,-0.277195945297353,0.979738462048017,-0.338366650641315,0.979738462047179,0.770374341502738,NaN,1.25445030491191,0.693587336989968,0.103165937225632,1.23476951115362,NaN,0.524237679700234,0.193186038445303,-0.892319471023231,-0.629575909565879,-0.817892923190269,-0.885967557273566,0.794726644985485,0.794726644985665,-1.4201802854967,1.42018028549591,0.855990072571392,0.977075251156035,0.0887423556412459,0.921105554168992,-1.19847192985735,0.786381899642592,-0.8137879722088,-0.227073366671305,-0.204958454693717,-0.204958454690173,0.551482004907114,0.42407688058122,0.658423270201482,0.238442276353224,0.20867556720377,0.390934182688653,0.609797441419631,0.941543301414664,0.941543301415178,0.572582706236553,-0.572582706236387,2.31412361338748
666.5216,0.855361986534044,-1.13188848434472,0.145096764924608,2.48869362676735,-1.8703186180833,-1.87031861808307,NaN,-0.054567760962192,-0.256443137422481,0.959351064867377,-0.347419933093677,0.959351064866536,0.765261282175737,NaN,1.22377039830068,0.699743511943427,0.0905829036432833,1.22564129785566,NaN,0.542165357925377,0.166284580884285,-0.86429109853819,-0.604059972460474,-0.789329477281037,-0.880608008446144,0.772646815896642,0.77264681589682,-1.42924685320657,1.42924685320577,0.884426903419182,0.953212668747253,0.0573706512366623,0.874789178906989,-1.21794038083945,0.775762124921628,-0.843987266512309,-0.184026494913002,-0.16254540374127,-0.1625454037376,0.518988637026317,0.418476368858088,0.629778110010309,0.217626840092791,0.204910274967968,0.367170839159074,0.614187178810468,0.927495636560261,0.927495636560752,0.563399135896866,-0.563399135896697,2.35986158438686
666.624,0.846678950393422,-1.12480906093636,0.139453391073909,2.49828015585808,-1.87063706200252,-1.87063706200231,NaN,-0.0358470078339825,-0.235764271171093,0.938626977376135,-0.356139351498775,0.938626977375291,0.759383046478492,NaN,1.1925062251794,0.70542614678159,0.0784829968403053,1.21649382980803,NaN,0.559781600614541,0.139978516233984,-0.836218827717571,-0.579339169766891,-0.761139222382347,-0.873931953114644,0.751280356888054,0.751280356888235,-1.43732055688801,1.43732055688722,0.912064804386719,0.928022803079908,0.0268912252373575,0.82804766933274,-1.23686361969744,0.765604443497466,-0.873221299546022,-0.140496560273079,-0.120908036483909,-0.120908036480092,0.48690484276247,0.412835986887653,0.601436186451354,0.196620505122245,0.20061738024602,0.342835944990705,0.618197188194006,0.913290570497176,0.913290570497639,0.552519897912554,-0.552519897912383,2.4036453693348
666.7264,0.837634710822035,-1.11684868255483,0.134129773778918,2.50690486488103,-1.87026135998121,-1.87026135998102,NaN,-0.01732980676057,-0.215236002099359,0.917560326001604,-0.36452871441345,0.917560326000759,0.752818881665036,NaN,1.16074702336151,0.710643346450147,0.0668841186648325,1.20736638221456,NaN,0.57712133185245,0.114310934939395,-0.808115017175351,-0.555443178629322,-0.733343974563152,-0.865864083175689,0.730697630998957,0.730697630999142,-1.44447086325425,1.44447086325346,0.938945301964565,0.901513771364614,-0.00265545489896348,0.780921083825851,-1.25528384032646,0.755944566604972,-0.901512896787433,-0.0964897963873773,-0.0800818445798078,-0.080081844576013,0.455306818039593,0.407154025745876,0.573456901338631,0.175437925757147,0.195809207118362,0.317953167258411,0.621797347469929,0.898867579869387,0.898867579869825,0.539930461543359,-0.539930461543184,2.44544772349802
666.8288,0.82824051895036,-1.10803823218847,0.129112698328913,2.51457404086278,-1.86920422141634,-1.86920422141617,NaN,0.000942353907340112,-0.194931441042421,0.896146812118587,-0.372593166905973,0.896146812117741,0.745648184133831,NaN,1.12858265192103,0.715400500646995,0.0558054692036789,1.19829592937943,NaN,0.59421890034062,0.0893220151166995,-0.779994259814023,-0.532398881321878,-0.705965410206157,-0.856331254981416,0.710962124047152,0.710962124047342,-1.45076897904601,1.45076897904523,0.96511285718468,0.873698671450525,-0.031233956243824,0.73344970068769,-1.27324262897602,0.746814314101871,-0.928887006145509,-0.0520131671403271,-0.0401011540796412,-0.0401011540759439,0.424269693783849,0.401427272589335,0.545898026371495,0.154092975895618,0.190500161268539,0.292546876205872,0.624959776940005,0.884166168318437,0.884166168318851,0.525620829729708,-0.525620829729533,2.48524629010132
666.9312,0.818507184973793,-1.09840913908066,0.124387807018024,2.52129604273824,-1.86748024430742,-1.86748024430727,NaN,0.0189315680947928,-0.174919967574719,0.874383837208784,-0.380338948093459,0.874383837207937,0.737949830442694,NaN,1.09610311372053,0.719700281608724,0.0452674364537294,1.18931697707328,NaN,0.611108153818635,0.0650489304107733,-0.751873374732347,-0.510230237776818,-0.679024997654116,-0.845262936388746,0.692130264470544,0.692130264470741,-1.45628720625162,1.45628720625083,0.990614514611192,0.844595564798235,-0.058813967974298,0.685673931918991,-1.2907806292279,0.738241394676138,-0.955370470449288,-0.00707463250137571,-0.000999158243031605,-0.000999158239451632,0.393867242954684,0.395651162740799,0.518815550919326,0.13259868918971,0.184706817985104,0.266642147817936,0.627659064365713,0.869126281966871,0.869126281967259,0.509585660698448,-0.509585660698273,2.52302371715699
667.0336,0.808444968939428,-1.0879931269993,0.119939681989305,2.52708140684204,-1.86510600404954,-1.86510600404941,NaN,0.0366034970878352,-0.155267083568043,0.852270627682214,-0.387773143889042,0.852270627681369,0.729801533735421,NaN,1.06339808467201,0.723542720761893,0.0352914232991153,1.1804614245459,NaN,0.627822517886783,0.0415257634256795,-0.723771369529988,-0.48895815560152,-0.652543910918214,-0.832591634551247,0.674251309031819,0.674251309032025,-1.46109829008917,1.46109829008838,1.01549953356857,0.814227404181439,-0.0853703175046957,0.637634247261042,-1.30793722370621,0.730249220710732,-0.980991794111747,0.0383165760473761,0.0371920859686678,0.0371920859722223,0.364171592378604,0.389819944031155,0.492263540023289,0.110967219637235,0.178447976713599,0.240264763066945,0.62987248570872,0.853688705821602,0.853688705821965,0.491824377346746,-0.491824377346574,2.55876775938867
667.136,0.79806349494434,-1.07682198373635,0.115751941269193,2.53194295430842,-1.86210011403682,-1.86210011403671,NaN,0.0539272996799041,-0.136034306467207,0.829808362386943,-0.394903446153679,0.8298083623861,0.72127923073797,NaN,1.03055644259651,0.726925343299722,0.0258996283550362,1.17175844818737,NaN,0.644395066405892,0.018783409019302,-0.695709374409747,-0.468600356708591,-0.626542925799469,-0.818253306167546,0.657367276995194,0.65736727699541,-1.46527477664633,1.46527477664555,1.03981899975094,0.782621917101921,-0.110882907742597,0.589371124103215,-1.32475022236417,0.722856751089049,-1.00578089711174,0.0841496736816711,0.0744416733937114,0.0744416733971654,0.335252936582272,0.383926848723674,0.466293997949777,0.0892098251150089,0.171744683101251,0.213441207059982,0.631580217116991,0.837795441787283,0.837795441787626,0.472341266820744,-0.472341266820571,2.59247135575771
667.2384,0.787371683771022,-1.06492734698761,0.111807345510109,2.53589589114166,-1.85848325673822,-1.85848325673812,NaN,0.0708755239128913,-0.117279104155951,0.807000302375147,-0.401737940165349,0.807000302374306,0.712456509498706,NaN,0.997665799481322,0.729843333946089,0.0171148053127914,1.16323440181475,NaN,0.660858572709383,-0.00315052970002744,-0.667710552545671,-0.449171246740385,-0.601042304034456,-0.802187753630739,0.641512923354566,0.641512923354795,-1.4688884025619,1.46888840256112,1.06362542167096,0.749811464665322,-0.135336590447889,0.540925028192739,-1.34125555192667,0.716078356362326,-1.02976885408047,0.130412035967267,0.110719857760205,0.110719857763576,0.307179256322122,0.377964268243302,0.440956736928887,0.0673368734112147,0.16462022606229,0.186198673038302,0.632765534734341,0.821390067809186,0.821390067809502,0.451145564895518,-0.451145564895346,2.62413267779042
667.3408,0.776377694779334,-1.05234050086455,0.108087907832117,2.53895788881883,-1.85427818850578,-1.85427818850568,NaN,0.0874239766989027,-0.0990548728075475,0.783851914684761,-0.408284942251418,0.783851914683922,0.703404084467221,NaN,0.964812047329365,0.732289716162816,0.00896001896469485,1.15491273297494,NaN,0.677245534080366,-0.0242518384182911,-0.639799993559774,-0.430681798340628,-0.576061674852641,-0.78433900803899,0.626715746233492,0.626715746233733,-1.47200953717793,1.47200953717714,1.08697231854044,0.715832894315732,-0.158721000411525,0.492336420967643,-1.35748694522908,0.709923700342745,-1.05298762134607,0.177088911409412,0.145998040992408,0.14599804099575,0.280016050995411,0.371923925052176,0.416299255383732,0.0453578698591146,0.157100118260561,0.158565076342353,0.633414997428963,0.804418080756667,0.804418080756961,0.428251515906637,-0.428251515906466,2.65375514641018
667.4432,0.76508887013454,-1.03909218056617,0.104574999268265,2.54114913711409,-1.84950971828333,-1.84950971828323,NaN,0.103551579611163,-0.0814109549271656,0.760370980776036,-0.41455289358613,0.760370980775196,0.694189319387134,NaN,0.932078927232823,0.734255542220095,0.00145840225413733,1.14681391770783,NaN,0.693588169690334,-0.0444997692216487,-0.612004597717667,-0.4131394590749,-0.551619923639437,-0.764655696574693,0.612996023200584,0.61299602320084,-1.47470668592511,1.47470668592432,1.10991380214498,0.680727393408358,-0.181030367294325,0.44364578583934,-1.37347563313857,0.704397630664279,-1.07546976045278,0.224163138955837,0.18024874762202,0.180248747625316,0.253826096542177,0.365797037408872,0.392366632606027,0.0232815072347365,0.149212063335464,0.130569081398235,0.633518606862944,0.786827232240348,0.786827232240621,0.403678401422067,-0.403678401421895,2.68134741510006
667.5456,0.753511681606241,-1.02521238899022,0.101249446573808,2.54249236536347,-1.84420465985412,-1.84420465985402,NaN,0.119240214671699,-0.0643926881278597,0.73656768832965,-0.420550299957643,0.736567688328809,0.684875800885814,NaN,0.899547630641781,0.735730094571203,-0.00536708349289514,1.13895541766632,NaN,0.709918397443444,-0.0638770940519996,-0.584352958903472,-0.396548091541246,-0.527735096021014,-0.743091391114134,0.600366872667027,0.600366872667296,-1.47704605137268,1.47704605137189,1.13250415448726,0.644540344568571,-0.202263314147636,0.394893666889959,-1.38925004702706,0.699500075306557,-1.09724816954195,0.271614878098006,0.213445594719582,0.213445594722849,0.228669236981772,0.359574474741397,0.369201445133888,0.0011157421747215,0.140985905013913,0.102240142548855,0.633069942779558,0.768567867105067,0.768567867105319,0.377450536750257,-0.377450536750082,2.70692331738563
667.648,0.741651684014314,-1.01073023307859,0.0980916208204291,2.54301282687048,-1.83839176301298,-1.83839176301288,NaN,0.13447456545462,-0.0480414714876315,0.71245471089321,-0.426285702372641,0.71245471089237,0.675522971718438,NaN,0.86729644350467,0.736701091468289,-0.0114938743083886,1.13135166472317,NaN,0.726267792092473,-0.0823701340686128,-0.556875254946653,-0.380907951692666,-0.504424325215241,-0.719604936415095,0.58883434247787,0.588834342478152,-1.47909114325308,1.47909114325228,1.15479740774535,0.607321185641631,-0.222422650144992,0.346120716279123,-1.40483554265543,0.695225949924477,-1.1183558316259,0.319421357727241,0.245563268557038,0.245563268560012,0.204602211573291,0.353246902107732,0.346843705607113,-0.0211320952016901,0.132453547769572,0.0736085580786274,0.632066276083109,0.749593267171633,0.749593267171869,0.349597236615768,-0.349597236615586,2.73050177697274
667.7504,0.729513477258319,-0.995673786430525,0.0950815133492865,2.54273823929309,-1.83210163285565,-1.83210163285554,NaN,0.149241958529056,-0.0323948409848307,0.688047275740991,-0.431767665472808,0.68804727574015,0.666185831424328,NaN,0.835400442641308,0.737154888398039,-0.0169000046186483,1.12401407582444,NaN,0.742667523092061,-0.0999687669113266,-0.529603150176189,-0.366215710314244,-0.48170378786948,-0.694160756506121,0.578397531285289,0.578397531285585,-1.48090243037108,1.48090243037028,1.17684693650391,0.569123274875104,-0.241515162239339,0.297367747072398,-1.42025415460443,0.691565084143502,-1.13882558438575,0.367556647177644,0.276577514969751,0.276577514972656,0.181678514071474,0.346804913437507,0.325330821147299,-0.0434551565737858,0.123648841635277,0.0447055340440871,0.630508662027462,0.729859994795813,0.72985999479603,0.320152748234224,-0.320152748234033,2.75210667864587
667.8528,0.717100676119743,-0.980069979533869,0.0921987966543457,2.54169868368921,-1.8253666377631,-1.825366637763,NaN,0.163532205749757,-0.0174865555509123,0.663363213957933,-0.437004775076585,0.663363213957092,0.656914700983214,NaN,0.803931243184347,0.737076673988417,-0.0215642854342208,1.11695109322229,NaN,0.759148275845521,-0.116666417017005,-0.502569704270389,-0.35246451654291,-0.459588684486408,-0.666729137618674,0.569048743398316,0.56904874339863,-1.48253703084055,1.48253703083974,1.19870507009119,0.530003752150087,-0.259551403688417,0.24867578519209,-1.43552438632535,0.688502174320828,-1.15868991191028,0.415991452824366,0.306465142580952,0.306465142583639,0.159948276352022,0.340239156525026,0.304697566703939,-0.0658469054006404,0.114607433377753,0.0155632495812646,0.628402009846532,0.709328225675541,0.709328225675736,0.289156152061113,-0.28915615206092,2.77176669856431
667.9552,0.704415886549782,-0.963944512809192,0.0894228729103758,2.53992648000944,-1.81822079302059,-1.81822079302046,NaN,0.177337443853683,-0.00334670120378056,0.638422987213801,-0.442005642622656,0.638422987212962,0.647755036807364,NaN,0.772956781776256,0.736450663271913,-0.0254664691583248,1.1101682405001,NaN,0.775740166287881,-0.13246003516013,-0.475809271761662,-0.339644094043689,-0.438093230926894,-0.637286487784102,0.560773670779073,0.560773670779405,-1.48404844029449,1.48404844029368,1.22042272658987,0.490023380246692,-0.276545471585231,0.200086112993156,-1.45066103577622,0.686016769930953,-1.17798075314057,0.464692945007664,0.335204030992612,0.335204030995097,0.139458167446725,0.33354045479199,0.284976068903673,-0.0883009385155876,0.105366593264764,-0.0137850868048627,0.625755120736542,0.687962057745737,0.687962057745914,0.256651241395475,-0.256651241395281,2.78951509477059
668.0576,0.691460686554416,-0.947321784891551,0.0867329146253803,2.53745605491305,-1.81069960881472,-1.81069960881458,NaN,0.190651967268201,0.00999818133390663,0.613249689815594,-0.446778918676019,0.613249689814754,0.638747281646811,NaN,0.742541116580274,0.735260290182731,-0.0285874061557655,1.10366818966489,NaN,0.792472653714088,-0.147350069659752,-0.449357379259824,-0.327740857823919,-0.417230647685779,-0.605815575968101,0.553551597102425,0.553551597102774,-1.48548630069664,1.48548630069582,1.24204906397252,0.449246356538071,-0.29251476659876,0.151640301662585,-1.46567505106109,0.684083298508008,-1.19672931699097,0.513624616845135,0.362773135816836,0.362773135819153,0.120251302442247,0.326699927537359,0.266195796912974,-0.11081080994583,0.0959650250280845,-0.0433051952539857,0.622580687854931,0.665729784127429,0.665729784127584,0.222686396047801,-0.222686396047606,2.80538946003841
668.16,0.678235609405382,-0.930224832939233,0.084107897225845,2.53432379942579,-1.80283990649881,-1.80283990649866,NaN,0.20347205184385,0.0225249449930731,0.587869025487383,-0.45133331591155,0.587869025486539,0.629926752464607,NaN,0.712744235033182,0.73348840422703,-0.0309091957637758,1.09745084301631,NaN,0.809374450358271,-0.161340429405171,-0.423250578933477,-0.316738042673918,-0.397013141607542,-0.57230575465968,0.547355626805262,0.547355626805633,-1.48689621184269,1.48689621184186,1.26363114129264,0.40774009926182,-0.307479734582021,0.103380236325771,-1.48057340857754,0.682671129091205,-1.21496589552709,0.562746169719564,0.389152488973079,0.389152488975189,0.10236716124925,0.319709105290949,0.248383558548239,-0.133369855685014,0.0864426604128452,-0.0729616945826073,0.618895256003209,0.642604123753492,0.642604123753627,0.187314451521626,-0.187314451521434,2.8194314381654
668.2624,0.664740128900788,-0.912675289349801,0.0815266190406935,2.53056790419045,-1.79467961221558,-1.79467961221542,NaN,0.215795769480458,0.0342136632588248,0.562309255566578,-0.455677639111059,0.562309255565732,0.621323572075974,NaN,0.683621874490575,0.731117482876473,-0.0324153392456398,1.09151343663579,NaN,0.82647343342746,-0.174438440804026,-0.397526284335249,-0.306615838341393,-0.377451881022747,-0.536753168677228,0.542152945679516,0.542152945679909,-1.48831958371733,1.48831958371649,1.28521358347903,0.365575016463139,-0.321463591397532,0.0553481397897632,-1.49535901039701,0.681744670923172,-1.23271967377559,0.612013419048342,0.414323200226958,0.414323200229009,0.0858415207366752,0.312560037318749,0.23156350285339,-0.15597101389606,0.0768404362057736,-0.10271808025774,0.614719141455496,0.618562410913032,0.618562410913146,0.150592547806144,-0.150592547805953,2.83168640402518
668.3648,0.650972647859104,-0.894693360654204,0.0789677049093298,2.52622816660296,-1.78625752783424,-1.78625752783408,NaN,0.227622795964999,0.0450474397210495,0.536601113382269,-0.45982082045279,0.536601113381423,0.612962649651752,NaN,0.65522537134909,0.728129866550871,-0.0330908996005033,1.08585066888744,NaN,0.843796574579237,-0.186654802298923,-0.372222595471448,-0.297351530886422,-0.358556967916837,-0.499160949739197,0.537905114667172,0.537905114667588,-1.48979352908505,1.4897935290842,1.3068382461434,0.322824256792422,-0.33449202787732,0.00758659672798685,-1.51003060350677,0.681263502140023,-1.2500185430217,0.661378220728971,0.438267470359312,0.438267470361135,0.0707064048385772,0.30524539291471,0.215757133646833,-0.17860663788104,0.0672000520413426,-0.132536708837167,0.610076314441164,0.593586751459644,0.593586751459734,0.112581938264744,-0.112581938264555,2.84220310925652
668.4672,0.636930490248698,-0.876297830142994,0.0764095925158511,2.52134577160675,-1.77761307326004,-1.77761307325989,NaN,0.238954216730388,0.0550122048295573,0.510777682819278,-0.463771958930043,0.510777682818429,0.604863711522956,NaN,0.627601554659723,0.724508005590664,-0.0329226590647968,1.08045485104523,NaN,0.861369892766122,-0.19800353870523,-0.347378119217433,-0.288919653578973,-0.340337412251819,-0.459539391358153,0.534568392523274,0.534568392523714,-1.49135080045544,1.49135080045459,1.32854388187202,0.279563435966998,-0.346592894095192,-0.0398614263999703,-1.52458272712541,0.68118252213632,-1.2668889293554,0.710788424528707,0.460968627541275,0.460968627542904,0.0569900575760395,0.29775855902669,0.200983339282731,-0.201268301033967,0.0575637088831235,-0.16237878815649,0.604994248045287,0.567664155568973,0.567664155569045,0.0733477470183828,-0.0733477470181951,2.85103329782619
668.5696,0.62260989863699,-0.857506085610716,0.0738305025316253,2.51596304737787,-1.76878599955253,-1.76878599955238,NaN,0.24979233446783,0.0640965019889028,0.484874244693258,-0.467540361676281,0.484874244692406,0.597041376153055,NaN,0.600792687979156,0.720234699290688,-0.0318992572526869,1.07531607435593,NaN,0.879218416352148,-0.208501954762328,-0.32303178990956,-0.281292152326166,-0.322801113658925,-0.417906094607624,0.532094083648575,0.532094083649041,-1.49301977048257,1.49301977048171,1.35036581359779,0.235870338530304,-0.357795874285517,-0.0869525752568895,-1.53900569585675,0.681452127506465,-1.28335564650852,0.760187859347056,0.482411195916354,0.482411195917675,0.0447169411618974,0.290093733140277,0.187258439778549,-0.223946595665733,0.0479738298223841,-0.192204373997014,0.599503737127783,0.540786649632891,0.540786649632941,0.0329586746403117,-0.0329586746401253,2.85823129561487
668.672,0.608006041651872,-0.838334175102657,0.0712083965066739,2.51012319495271,-1.75981607885668,-1.75981607885653,NaN,0.260140475069403,0.0722912577433689,0.458928094576809,-0.471135587183618,0.458928094575954,0.589505257372606,NaN,0.574836447435776,0.715293315706341,-0.0300112994738111,1.07042239150801,NaN,0.897366133173288,-0.218170587107867,-0.299222691070847,-0.274438569066659,-0.30595485276185,-0.374286075027927,0.530428911344389,0.53042891134488,-1.49482444206662,1.49482444206575,1.37233562002064,0.191824599701517,-0.368132171520862,-0.133643126790432,-1.55328562472482,0.682018422337061,-1.29944177214331,0.809516349954892,0.502580996030468,0.502580996031366,0.0339077531547435,0.282246007298968,0.174596244376579,-0.246630935795468,0.0384727666809814,-0.221972380947991,0.593638687998271,0.512951354741693,0.512951354741724,-0.00851333638176301,0.00851333638194906,2.86385357605046
668.7744,0.593113035466558,-0.818796888267801,0.0685209304746391,2.50386999289657,-1.75074277831586,-1.7507427783157,NaN,0.270002779908057,0.0795895232968231,0.432978331524343,-0.474567493331306,0.432978331523482,0.582260080119549,NaN,0.549765919407488,0.709667990120105,-0.0272514326899831,1.06576001299112,NaN,0.915835913622043,-0.227033156984514,-0.275989875423299,-0.268326242548322,-0.289804290233971,-0.328711823736062,0.529515415255426,0.529515415255943,-1.49678447271791,1.49678447271703,1.3944808346582,0.147507370057578,-0.377634217632483,-0.179889043897528,-1.56740449757174,0.682823478517733,-1.31516853793237,0.858709759773376,0.52146526486853,0.521465264868779,0.0245794488688385,0.274211437485369,0.163008105600728,-0.269309379923422,0.0291024966234873,-0.251640620653103,0.587435874785301,0.48416050871782,0.484160508717834,-0.0509934598959408,0.0509934598961224,2.8679583039218
668.8768,0.577923979917418,-0.798907855719056,0.065745412322462,2.49724748060833,-1.74160492727617,-1.741604927276,NaN,0.27938397418654,0.0859861778076151,0.40706561733919,-0.477846287109496,0.407065617338325,0.57530580473031,NaN,0.525609609422444,0.703343797973234,-0.0236143884860034,1.06131351273612,NaN,0.934649396414601,-0.235116523260647,-0.253372182082461,-0.262920523708328,-0.274353971575678,-0.281223320317576,0.529292367136671,0.529292367137217,-1.49891521187198,1.4989152118711,1.41682465942839,0.103000965025973,-0.386335418070206,-0.225646071781145,-1.58134027846669,0.683805659423488,-1.33055522333206,0.907700051570391,0.539052781921936,0.539052781921623,0.016745255976218,0.26598709186243,0.152502956067336,-0.291968484505206,0.0199043117026824,-0.28116587619142,0.58093465753104,0.454421411779442,0.454421411779431,-0.0944043578499106,0.094404357850092,2.87060486117892
668.9792,0.562431007760659,-0.778679662846972,0.0628587641620133,2.49029962200054,-1.73244038970246,-1.73244038970228,NaN,0.288289112388402,0.0914775980404698,0.381231909508398,-0.4809825612695,0.381231909507529,0.568637765546879,NaN,0.502391463831698,0.696306895357372,-0.0190969939784882,1.0570660308962,NaN,0.953826831321497,-0.242450624311627,-0.231408054956235,-0.258185005800738,-0.259607339950708,-0.231868000067891,0.529695200104497,0.529695200105071,-1.50122776246194,1.50122776246105,1.43938569491422,0.0583885049482229,-0.394269938428609,-0.270869876483017,-1.59506706777226,0.684900015813687,-1.34561904853101,0.956415361144685,0.555333999510852,0.555333999509902,0.0104146767552613,0.257571074761843,0.143087322823164,-0.314593188869531,0.0109185025400409,-0.310504012482006,0.57417666179148,0.423746288060614,0.423746288060586,-0.138666567209232,0.138666567209413,2.87185335627079
669.0816,0.54662534480127,-0.758123981708944,0.0598374830585413,2.48306994652178,-1.72328574759691,-1.72328574759673,NaN,0.296723309132751,0.0960613099984915,0.355520171886085,-0.483987302214723,0.355520171885211,0.562246830151147,NaN,0.480130910564459,0.688544623325332,-0.0136981512249091,1.05299946710069,NaN,0.973386884167451,-0.249068392629717,-0.210135368254992,-0.25408177339338,-0.24556676247283,-0.180700680367785,0.530656451116962,0.530656451117565,-1.50372907643463,1.50372907643373,1.46217768706951,0.0137535520941641,-0.401472534960275,-0.315516221943285,-1.60855530534844,0.686038757571614,-1.360375066809,1.00478008703447,0.570301187609026,0.570301187607547,0.00559348297226498,0.248962529222379,0.134765324623892,-0.337166728170879,0.00218403625713302,-0.339610119179941,0.567205423552296,0.392152065216238,0.392152065216188,-0.183698911650513,0.183698911650694,2.87176411452215
669.184,0.530497379141911,-0.737251724079939,0.0566575947082871,2.47560116519086,-1.71417599186617,-1.71417599186599,NaN,0.304691460217592,0.0997356354798982,0.329974069028004,-0.486871866037755,0.329974069027124,0.556119583629273,NaN,0.45884292473726,0.680045575289713,-0.00741878189929295,1.04909466785369,NaN,0.993346416026169,-0.255005636018928,-0.189591263197591,-0.250571673399178,-0.232233573828651,-0.127783449095406,0.532106217396254,0.532106217396883,-1.50642208528048,1.50642208527959,1.48520928632275,-0.0308202531246799,-0.407978426894991,-0.35954118185507,-1.62177202171456,0.687151798488099,-1.37483605928359,1.0527150015932,0.583948605612583,0.58394860561053,0.00228371161966809,0.24016162284157,0.127538661154585,-0.359670572076865,-0.00626177130022227,-0.368438683706162,0.560066004203659,0.359660077158119,0.35966007715805,-0.229418946336361,0.229418946336542,2.87039714953486
669.2864,0.514036739664977,-0.71607320925455,0.0532946062871003,2.46793477285903,-1.70514422042247,-1.70514422042228,NaN,0.312197953578092,0.102499334763499,0.304637656133564,-0.48964792984161,0.304637656132677,0.550238540810469,NaN,0.438538121336859,0.670799628140815,-0.000261736650451751,1.045331609931,NaN,1.0137202477279,-0.26030089162874,-0.169811996979192,-0.247614605167281,-0.21960813634843,-0.0731855153811942,0.533972626037097,0.533972626037756,-1.50930586367868,1.50930586367777,1.5084838179402,-0.0752495560343348,-0.413823207887897,-0.402901383515199,-1.63468113648805,0.688167363465167,-1.38901243896854,1.10013738065046,0.596272707598043,0.596272707595508,0.000483662477982905,0.231169521616279,0.121406597405147,-0.382084389197541,-0.014383584199915,-0.396943790943657,0.552804583392073,0.326295698414119,0.326295698414033,-0.275743433735498,0.275743433735677,2.8678116240213
669.3888,0.497232385441398,-0.69459833288187,0.0497234738476051,2.46011066340653,-1.69622135850161,-1.69622135850142,NaN,0.319246373364375,0.104351239626179,0.279555079869401,-0.492327425071673,0.27955507986851,0.544582384323169,NaN,0.419222874874544,0.660797940955374,0.00776832090451733,1.04168957099977,NaN,1.03452092408886,-0.264995260976995,-0.15083280168422,-0.245169821046134,-0.20768991092171,-0.0169830218447536,0.536182315676263,0.536182315676947,-1.5123758289004,1.51237582889949,1.53199907170209,-0.119451648100939,-0.4190427935572,-0.445554278091606,-1.64724380342078,0.689012640780979,-1.40291217595893,1.14696114208806,0.607272380802162,0.607272380799332,0.000187888546125046,0.221988360569146,0.116365940719621,-0.404386040129996,-0.0221483617967945,-0.425079342376189,0.545468044291564,0.292087930080954,0.292087930080859,-0.322588836302537,0.322588836302714,2.86406531344128
669.4912,0.480072708472402,-0.672836728474203,0.0459185955873957,2.45216678191045,-1.68743592238679,-1.6874359223866,NaN,0.325839208387241,0.105289876491425,0.25477030005748,-0.494922458464787,0.254770300056586,0.539126220136768,NaN,0.400899465599996,0.650032931294249,0.0166650376928806,1.03814727647136,NaN,1.05575849615097,-0.26913222825062,-0.132687749636313,-0.243196228926041,-0.196477532530756,0.0407411831607053,0.53866092760924,0.538660927609951,-1.51562398093468,1.51562398093377,1.55574712464123,-0.163344818341152,-0.4236733971907,-0.487458426055859,-1.65941880029674,0.689614460129583,-1.4165407557353,1.19309698876574,0.616949212690397,0.616949212687308,0.00138717218643964,0.212621223058412,0.11241101108701,-0.426551602100487,-0.0295256445053471,-0.452799285971619,0.538103569505108,0.257068967128903,0.257068967128797,-0.369871806480974,0.369871806481147,2.85921408379055
669.5936,0.46254565141783,-0.650797923510654,0.0418538315213374,2.44413881954212,-1.67881383443339,-1.67881383443322,NaN,0.331977578250986,0.105313091059869,0.230326834836893,-0.497445231868001,0.230326834836,0.533841841546997,NaN,0.383566251173553,0.638498244930639,0.0264204832746534,1.03468301911217,NaN,1.07744033343845,-0.272757460485914,-0.115409624496368,-0.241652690589967,-0.185968886925294,0.0998978136060534,0.541333599185256,0.541333599185992,-1.51903918000579,1.51903918000488,1.57971420653664,-0.206848690815006,-0.427751521170148,-0.528573783346728,-1.67116295457171,0.689899977452775,-1.42990117382947,1.23845256220189,0.625307776237943,0.625307776234498,0.00406849266506546,0.203072134780713,0.109533612315137,-0.448555423608929,-0.0364878038434545,-0.480057850800613,0.530758261370671,0.221273771584474,0.221273771584359,-0.417509655660688,0.417509655660859,2.85331139276063
669.696,0.444638839538471,-0.628491493027105,0.0375025457263382,2.43605994467246,-1.67037828483277,-1.6703782848326,NaN,0.337660985165667,0.104417690733448,0.206267532708411,-0.499907974304951,0.206267532707512,0.528697996111031,NaN,0.367217861191971,0.626188735697493,0.037025234726238,1.03127475394522,NaN,1.09957096826864,-0.275918588668544,-0.0990298002786552,-0.240498308505567,-0.176161185974422,0.160391449679115,0.544125449716314,0.544125449717074,-1.52260744467097,1.52260744467005,1.6038806093884,-0.249884544930447,-0.431313954452835,-0.568861977543969,-1.68243158524889,0.689797347448129,-1.44299395819226,1.28293261796828,0.632355914951768,0.632355914948154,0.00821499903946256,0.193346070427298,0.10772301406032,-0.470370205482638,-0.0430102602446698,-0.506809785263148,0.52347879235222,0.184739661872564,0.184739661872441,-0.465420785242285,0.46542078524246,2.8464078257422
669.7984,0.426339724561437,-0.60592720752481,0.0328376708986914,2.42796056533479,-1.66214964113262,-1.66214964113246,NaN,0.342887094369823,0.102599116705029,0.182634380285297,-0.502322888256118,0.182634380284397,0.523660653045248,NaN,0.35184541075139,0.61310046782765,0.0484684249588512,1.02790017380228,NaN,1.12215196696429,-0.27866496796106,-0.0835781294856708,-0.239692692916944,-0.167051038297836,0.222120867148754,0.546962052150789,0.546962052151574,-1.52631224821893,1.52631224821801,1.62822063823563,-0.29237561916592,-0.434397771320599,-0.608286570672228,-1.6931789397988,0.689236369291099,-1.45581720527757,1.32643922909472,0.63810500626219,0.638105006258199,0.0138059989133337,0.183448969894547,0.106965951415422,-0.491967109626597,-0.0490716700888731,-0.533010601265222,0.516311086327466,0.147505920709853,0.147505920709728,-0.513525064506996,0.513525064507175,2.83855067870169
669.9008,0.407635738044187,-0.583115168603095,0.0278317980146308,2.41986812379444,-1.65414541193555,-1.6541454119354,NaN,0.347651547354946,0.0998511532335861,0.159468351186622,-0.5047020991565,0.159468351185715,0.518693272621499,NaN,0.337436730741353,0.59923074495389,0.0607377559107357,1.02453677416435,NaN,1.14518181424874,-0.281047414066536,-0.069082839336771,-0.239196205049462,-0.158634512503595,0.284979378796387,0.549769885254214,0.549769885255027,-1.53013479914525,1.53013479914431,1.65270260231534,-0.334247402785679,-0.437040325012053,-0.646813307401451,-1.70335861217826,0.688149099734396,-1.4683666179689,1.36887201738421,0.642570186962463,0.64257018695826,0.0208169670176729,0.173387761997009,0.107246644114783,-0.513315900192555,-0.0546540777137758,-0.558616826085171,0.50930003091512,0.109613424483845,0.109613424483722,-0.56174414679054,0.561744146790724,2.82978359705789
670.0032,0.3885144515986,-0.560065927226765,0.0224572921572578,2.41180692595727,-1.64638025919483,-1.64638025919468,NaN,0.351947817353494,0.0961656848957524,0.136809290926081,-0.507057599810926,0.13680929092517,0.513757085745047,NaN,0.323976615655246,0.584578159141267,0.0738194896699411,1.02116191638844,NaN,1.16865579381634,-0.28311791576757,-0.0555704346213243,-0.238970175725744,-0.150907191853221,0.34885517505274,0.552476756724953,0.552476756725791,-1.53405430724832,1.53405430724738,1.67728884890912,-0.375427918112808,-0.439279228358478,-0.68441034444488,-1.7129239342004,0.686470429564865,-1.48063553931504,1.41012841217416,0.645770531599944,0.645770531595451,0.0292195769316216,0.163170392129856,0.108546836118125,-0.534385117500896,-0.0597430300875577,-0.583586260603877,0.502489223470599,0.0711042999419107,0.0711042999417863,-0.610001727402894,0.610001727403083,2.82014628206503
670.1056,0.368963743007745,-0.536790585804382,0.0166864320232553,2.4037980078436,-1.63886603967303,-1.63886603967287,NaN,0.355767117590789,0.0915325181125446,0.114695828717814,-0.509401193713666,0.114695828716904,0.508811393949256,NaN,0.311447088031931,0.569142646514292,0.0876984350986992,1.01775289452118,NaN,1.19256586015593,-0.284929328287034,-0.043065605689161,-0.238977098866365,-0.143864219252611,0.413631654815412,0.555012185327889,0.55501218532875,-1.53804824994411,1.53804824994316,1.70193584609319,-0.415847989732076,-0.441152320385692,-0.721048457156896,-1.72182833711436,0.684138613466702,-1.49261498566822,1.45010394064908,0.647729182177371,0.647729182172548,0.0389817632005529,0.152805851583144,0.110845860113611,-0.555142278384047,-0.0643276580006762,-0.607878240259228,0.495920757808858,0.0320216180165566,0.0320216180164341,-0.658223756204476,0.658223756204668,2.80967428224497
670.208,0.348971971180589,-0.513300893246671,0.0104915686243786,2.39585904083663,-1.63161185677156,-1.63161185677138,NaN,0.35909836645914,0.0859392809843799,0.0931653078594522,-0.511744445075849,0.093165307858544,0.503813892611096,NaN,0.299827672882705,0.552925538441352,0.102357942933544,1.01428700779941,NaN,1.21690051435058,-0.286535054441156,-0.0315911390942001,-0.239180800687959,-0.13750033157572,0.479187744802867,0.557307733328593,0.557307733329479,-1.54209265492157,1.54209265492061,1.72659432329789,-0.455441493584434,-0.442697625715241,-0.756701222790772,-1.73002568873268,0.68109574147577,-1.50429369396747,1.48869255626456,0.648473436205773,0.648473436200583,0.050067822349638,0.142304211014235,0.114120734977155,-0.575554094415503,-0.0684007296350682,-0.631453894288734,0.489635060288703,-0.00759086301309848,-0.00759086301322523,-0.706338619380659,0.706338619380859,2.79839888385969
670.3104,0.328528164676161,-0.489609344871961,0.0038452986858487,2.38800427582595,-1.62462411357606,-1.62462411357586,NaN,0.361928205901728,0.0793714045359217,0.0722537213458733,-0.514098638004778,0.0722537213449636,0.498721011846284,NaN,0.289095672676223,0.535929607135523,0.117779911752254,1.01074164061764,NaN,1.2416447032266,-0.287988719114592,-0.0211678276868474,-0.239546588800976,-0.131809883618305,0.545398213639046,0.559297286219786,0.559297286220695,-1.54616240376636,1.54616240376539,1.75120947629336,-0.494145578557131,-0.443953315628933,-0.791345181221842,-1.73747061918731,0.677288148146816,-1.5156582010941,1.52578700960892,0.648034805906886,0.648034805901512,0.062438556342862,0.131676662904666,0.118346301523924,-0.595586702208515,-0.0719586797453265,-0.654276399694943,0.483670779981591,-0.047688898787801,-0.0476888987879289,-0.754277299507337,0.754277299507538,2.78634710110892
670.4128,0.307622225479104,-0.465729293508171,-0.00327935087213377,2.38024452235618,-1.61790656752741,-1.6179065675272,NaN,0.364241064873502,0.0718121759029259,0.0519956361683245,-0.516474743742882,0.0519956361674148,0.493488271349217,NaN,0.279226434807121,0.518159114765362,0.133944795986623,1.00709435101175,NaN,1.26677975273895,-0.289343837377489,-0.0118143791799259,-0.240041386882785,-0.126786863972686,0.612133990960282,0.560917284163403,0.560917284164338,-1.5502315459549,1.55023154595392,1.77572123552476,-0.531900855239883,-0.444957678549478,-0.824959974830231,-1.74411884592104,0.672666766166851,-1.52669296266554,1.56127926290773,0.646449057971439,0.646449057965749,0.0760514542251445,0.120935575899963,0.123495394696508,-0.615205905509926,-0.0750016137166568,-0.676311229128601,0.478064731006432,-0.0882279097302204,-0.0882279097303469,-0.801973515752955,0.801973515753162,2.77354175557935
670.5152,0.286245143954738,-0.441675067384003,-0.0109087289880607,2.37258715784203,-1.61146039498596,-1.61146039498572,NaN,0.366019258115886,0.0632428447578102,0.0324241008732192,-0.518883394971505,0.0324241008723079,0.488070655577574,NaN,0.270193607513769,0.499619876642123,0.150831603445864,1.00332296547718,NaN,1.29228333111956,-0.290653473386967,-0.00354732696015234,-0.240633858780144,-0.122424906877729,0.679262502065833,0.562106916302508,0.56210691630347,-1.55427360759811,1.55427360759713,1.80006458937469,-0.568651555295793,-0.44574910339796,-0.857528473361576,-1.74992749959029,0.667187436714027,-1.53738050427708,1.59506094758009,0.643756232852963,0.643756232846971,0.090860902036961,0.110094560654122,0.129539044149133,-0.634377434176948,-0.0775332817847768,-0.697526394456519,0.472851878095573,-0.129163091009042,-0.129163091009169,-0.849363842746349,0.849363842746561,2.7600016295216
670.6176,0.264389217173126,-0.417462081176714,-0.0190683552553126,2.36503616764631,-1.60528427942855,-1.60528427942831,NaN,0.367243111235976,0.0536427605726933,0.0135705477498004,-0.521334867759458,0.0135705477488886,0.482423022200931,NaN,0.261969385168413,0.480319340861133,0.168417875889638,0.999405674213341,NaN,1.31812942881899,-0.291969890767732,0.00361905108242446,-0.241294522599747,-0.118717303576448,0.746648026190835,0.562808292091842,0.562808292092831,-1.55826188969379,1.5582618896928,1.82416995349399,-0.604345677086885,-0.446366073307471,-0.88903689529503,-1.75485545011774,0.6608111879981,-1.54770159601096,1.62702386195539,0.640000638347067,0.640000638340754,0.106818410838091,0.099168544589135,0.136446693829531,-0.653067226206009,-0.0795610179701775,-0.717892688349789,0.468065351687758,-0.170449487419306,-0.170449487419436,-0.896387805805349,0.896387805805564,2.74574167832177
670.72,0.242048263360642,-0.393106925712254,-0.027782700035781,2.35759222019073,-1.59937453550345,-1.5993745355032,NaN,0.367891107192866,0.0429895233168815,-0.00453529586287403,-0.523839074890945,-0.00453529586378666,0.476500551865252,NaN,0.254524744375716,0.460266675581139,0.186679658086517,0.995321121139917,NaN,1.34428834446902,-0.293344202093372,0.00967280189924918,-0.241995853021467,-0.115657014443358,0.814152082368686,0.56296660067476,0.562966600675775,-1.56216976468822,1.56216976468723,1.84796358246032,-0.638935135329437,-0.446847166716926,-0.919474938731417,-1.75886363673076,0.653504486244937,-1.55763545155067,1.65706050304263,0.635230819466315,0.635230819459734,0.123872857389854,0.0881738509697194,0.144186433837054,-0.671241734192771,-0.0810956443370324,-0.737383925725527,0.463736479867185,-0.212042038537885,-0.21204203853802,-0.94298795005346,0.942987950053682,2.7307732957217
670.8224,0.219217828627305,-0.368627429590855,-0.0370749490030947,2.35025277605463,-1.59372527017301,-1.59372527017277,NaN,0.367940053421986,0.0312591421575481,-0.0218654843953617,-0.526405574143855,-0.0218654843962743,0.470259233710197,NaN,0.247829668933777,0.439472848942216,0.205591470758025,0.991048488219504,NaN,1.37072667158385,-0.294826029170225,0.0146043531723771,-0.242712370422397,-0.113236682093547,0.881633843187519,0.562530260219966,0.562530260221008,-1.56597098030976,1.56597098030876,1.87136802250322,-0.672375921003378,-0.447231065218515,-0.948835926697043,-1.76191540718198,0.645239454467752,-1.56715996128404,1.68506462430196,0.629499512971083,0.629499512964325,0.141970736685424,0.0771282752788379,0.152725240243449,-0.688868250725937,-0.0821513479276489,-0.755977184751227,0.459894830617748,-0.253895601661864,-0.253895601662002,-0.989109883815097,0.989109883815326,2.71510463367062
670.9248,0.195895387062536,-0.344042696928631,-0.0469667545252608,2.34301222515443,-1.58832856989034,-1.58832856989011,NaN,0.367365267845534,0.0184262056311642,-0.0383939253696485,-0.529043589809477,-0.038393925370562,0.463656367445275,NaN,0.241853361209028,0.417950692242099,0.225126300149064,0.98656757842373,NaN,1.39740728795694,-0.296463183424632,0.0184065572427603,-0.243420716973344,-0.111448644711944,0.948950574518064,0.561451054104006,0.561451054105074,-1.56963996685621,1.56963996685521,1.89430260127246,-0.704628264201079,-0.447556565899899,-0.977116958666936,-1.76397686725076,0.635994052645833,-1.5762519652946,1.71093181200483,0.622863593653092,0.622863593646007,0.161056426697248,0.0660511526223262,0.162029219884969,-0.705915243970531,-0.0827455352935136,-0.773653042092693,0.456568264398877,-0.295964956633878,-0.295964956634023,-1.03470229749467,1.03470229749491,2.69874097603421
671.0272,0.172080539446291,-0.319373132233887,-0.0574779768501322,2.33586204796481,-1.58317469791654,-1.58317469791632,NaN,0.366140778238321,0.00446406666051453,-0.0540964488881544,-0.531762043062105,-0.0540964488890689,0.456651057577755,NaN,0.236564439110226,0.395714947770333,0.24525560594335,0.981858902081924,NaN,1.42428935665249,-0.298301369883918,0.0210747295644465,-0.244099719958588,-0.110284946073053,1.01595809881623,0.559684255360044,0.559684255361136,-1.57315213714002,1.57315213713901,1.91668394799833,-0.735656786090617,-0.447862594890126,-1.00431905361436,-1.76501723628566,0.625752216849536,-1.58488756312942,1.73456007470119,0.615384016529113,0.615384016521809,0.181072464492061,0.0549634130461547,0.17206385782194,-0.722352695878202,-0.0828986610826718,-0.790395792214149,0.453782998618723,-0.338204792601175,-0.33820479260132,-1.07971695398592,1.07971695398617,2.68168515504856
671.1296,0.147775214758416,-0.294640460766042,-0.0686264170437587,2.32879100083502,-1.57825228611483,-1.57825228611463,NaN,0.364239529657269,-0.010654956887783,-0.0689508717422959,-0.53456958727203,-0.0689508717432121,0.449204679539796,NaN,0.23193111534104,0.37278230584664,0.265949344974452,0.97690376990595,NaN,1.45132834273667,-0.300383914666265,0.0226066902797807,-0.244730441554672,-0.109737337025394,1.08251128050326,0.557188744318129,0.557188744319247,-1.5764841729925,1.57648417299149,1.93842653648747,-0.765430626330618,-0.448188220174866,-1.03044727114068,-1.76500919805318,0.614503955282475,-1.59304244941453,1.75585044082187,0.607125755056758,0.607125755049309,0.201959829978978,0.0438876206977614,0.182794262380579,-0.738152436044904,-0.0826340239158139,-0.806193638814358,0.451563680679189,-0.380569677267221,-0.380569677267366,-1.12410864440318,1.12410864440343,2.66393799241819
671.232,0.122983873108413,-0.269867743637233,-0.0804275429396313,2.32178532745245,-1.57354850852789,-1.57354850852771,NaN,0.361633598536907,-0.0269593646186689,-0.082937048503823,-0.537474642090422,-0.0829370485047411,0.441281303160205,NaN,0.227921349328745,0.349171435008289,0.287176007783979,0.971684394453144,NaN,1.47847603621098,-0.302751514301335,0.023002814173614,-0.245296213320587,-0.109797264603166,1.14846453095138,0.553927121809979,0.553927121811122,-1.57961429464654,1.57961429464552,1.95944324100283,-0.793923536545435,-0.448572660116361,-1.0555107996206,-1.76392923017461,0.60224539795222,-1.60069225839119,1.77470755805628,0.598157728393168,0.598157728385704,0.223658230877758,0.032847989769035,0.194185399004904,-0.753288461780907,-0.08197752723244,-0.821038847188606,0.4499334616084,-0.423014007711673,-0.423014007711826,-1.16783510804572,1.16783510804597,2.64549874687655
671.3344,0.0977137047992571,-0.24507938060774,-0.0928942089449623,2.31482899787123,-1.56904923158904,-1.56904923158888,NaN,0.358294413094162,-0.0444782369367904,-0.0960369031508887,-0.540485420283957,-0.0960369031518062,0.432848063159668,NaN,0.224502961035561,0.324903013441288,0.308902658457883,0.966183998406491,NaN,1.50568056973148,-0.305442003799337,0.0222660884196512,-0.245782652426354,-0.110455847607992,1.21367232702718,0.549865818254605,0.549865818255764,-1.58252250374973,1.58252250374871,1.97964589284773,-0.821113937419941,-0.449055281526184,-1.07952300422478,-1.76175789708175,0.588978800718771,-1.60781289941992,1.79104028785728,0.588552705238416,0.588552705230914,0.246106383900393,0.0218703733647586,0.206202306937805,-0.767737233758952,-0.0809574091528737,-0.834927849657452,0.448914064698253,-0.465491937296241,-0.465491937296393,-1.21085692147873,1.21085692147897,2.62636555511605
