time,S1-D1,S1-D8,S1-D9,S1-D15,S2-D1,S2-D2,S2-D3,S2-D9,S3-D1,S3-D2,S3-D16,S4-D2,S4-D3,S4-D5,S5-D3,S5-D4,S5-D5,S6-D2,S6-D5,S6-D17,S7-D6,S7-D7,S8-D6,S8-D7,S8-D18,S9-D3,S9-D4,S9-D9,S9-D11,S9-D19,S10-D8,S10-D9,S10-D10,S10-D11,S11-D8,S11-D10,S11-D20,S12-D10,S12-D11,S12-D12,S13-D4,S13-D11,S13-D12,S14-D10,S14-D12,S14-D21,S15-D13,S15-D14,S16-D13,S16-D14,S16-D22
452.608,0.920849061873419,-0.727429117721637,0.820852142714864,0.305270568387599,0.457538161997523,0.45753816199704,NaN,-0.227835175333987,-0.273132008553041,1.53177771138594,0.504597588254746,1.53177771138564,-0.767893933726101,NaN,NaN,-0.664555800363772,-0.53767571768978,NaN,NaN,0.462862326504481,-0.728583988069981,-0.78879901073121,-1.08767520632879,-0.917000520849335,0.174837148547037,0.349796126567299,0.349796126569094,0.346401214822069,-0.346401214821324,0.227580011693757,0.401496759101599,-0.306497230635411,0.233783590549801,NaN,2.04735920356794,1.54434067845891,-1.82089329498363,-0.0301516185683741,-0.0301516185646383,1.35940731493189,1.10757375570804,1.52302054558602,0.9611321797821,-0.640465854070776,0.625240731233969,-0.155915171839823,-1.07111016831289,-1.0711101683101,0.332122317189117,-0.332122317189723,0.69089557071751
452.7104,0.913646326022771,-0.731322704535821,0.806382277511744,0.2811864128335,0.479082604091392,0.479082604090954,NaN,-0.254372666762449,-0.285107429680039,1.58537199669933,0.482379363163665,1.58537199669904,-0.762216078328439,NaN,NaN,-0.581330549234807,-0.505588242643536,NaN,NaN,0.42486667254332,-0.708916951570572,-0.792288783548943,-1.10134938823027,-0.924120271746053,0.193001110269947,0.341087897635027,0.341087897636826,0.32441417946211,-0.324414179461371,0.237985765275704,0.406217526356716,-0.315934920256179,0.224095964633066,NaN,1.96980612367671,1.52771534520391,-1.76430129597945,0.0150016038562795,0.0150016038599907,1.376323057325,1.10185003697607,1.53612665483193,0.986282175367485,-0.657518546000914,0.641351102303044,-0.138982472329185,-1.05184105295702,-1.05184105295424,0.344901545983031,-0.344901545983588,0.687057879125743
452.8128,0.906036602918451,-0.734316136702124,0.792035641849319,0.255827776907639,0.499737181925088,0.499737181924693,NaN,-0.282082248244842,-0.297993884930648,1.63839862899544,0.461352654622853,1.63839862899516,-0.754435509197564,NaN,NaN,-0.497035694722481,-0.47508172805502,NaN,NaN,0.386375272425012,-0.687647129178083,-0.796452169900145,-1.11548809321053,-0.931862644764685,0.211520426231659,0.331136651762545,0.33113665176435,0.302812310227609,-0.302812310226876,0.247820427002621,0.410123667268991,-0.324202868587384,0.215101910233036,NaN,1.88845922817998,1.50920374065066,-1.70883880556082,0.0590460472516426,0.0590460472553249,1.39285656589814,1.09501674031067,1.5485653328982,1.0111290142108,-0.674939408981402,0.656778080646942,-0.121756496417112,-1.03223886202017,-1.03223886201738,0.358140838693836,-0.358140838694356,0.683355205977037
452.9152,0.89803456597226,-0.736417497405176,0.777828262279128,0.229216905402482,0.519482506378545,0.519482506378187,NaN,-0.310972337981386,-0.311743259606392,1.69067504275087,0.4415146000066,1.6906750427506,-0.744587204253691,NaN,NaN,-0.41182626055969,-0.446151870799469,NaN,NaN,0.347444548590644,-0.664791276428601,-0.801387760206077,-1.13017027008887,-0.940322555364091,0.23035045154273,0.3199188496075,0.319918849609311,0.281631314650591,-0.281631314649865,0.257104890767034,0.413214820018372,-0.331286298069426,0.206832129867987,NaN,1.8034174017624,1.48889291409198,-1.65453554689687,0.101888787537177,0.101888787540835,1.40899548809082,1.08710182653532,1.56033413597281,1.03564446574324,-0.69269173119055,0.671518564378622,-0.104289351652214,-1.01233848946857,-1.01233848946577,0.37180460850286,-0.371804608503326,0.679807635556858
453.0176,0.889654292565507,-0.737635285854724,0.763774889154787,0.201378917176869,0.538300196625915,0.538300196625591,NaN,-0.3410461146855,-0.32630512951867,1.74202195722885,0.422858947912392,1.74202195722858,-0.732710535490134,NaN,NaN,-0.325859039554261,-0.418792356871979,NaN,NaN,0.308128795317392,-0.640369121752571,-0.807188017819495,-1.14546938025195,-0.949588819516563,0.249447184316642,0.307416358503422,0.307416358505237,0.260904181580561,-0.260904181579841,0.265860233298898,0.415494165277675,-0.337175066957541,0.199315271261967,NaN,1.71478716518743,1.4668718147311,-1.60141305899532,0.143442651044693,0.143442651048329,1.4247244280003,1.07813302322165,1.57142788379509,1.05980017910821,-0.710737450295168,0.685570456560598,-0.0866331552146302,-0.992176439333374,-0.992176439330577,0.385852772221476,-0.385852772221894,0.676434100965502
453.12,0.880909360719441,-0.73797841200638,0.749889151379514,0.172341807469767,0.556172828523233,0.55617282852296,NaN,-0.3723013205435,-0.341626907107807,1.79226448016034,0.405376334099366,1.79226448016007,-0.718849113200463,NaN,NaN,-0.239291993590349,-0.392994997725069,NaN,NaN,0.268480143184599,-0.614403373340605,-0.813938670176216,-1.16145294464298,-0.959743579491495,0.268767422550584,0.293616546607899,0.293616546609717,0.240661098286462,-0.240661098285748,0.274107522261913,0.416968174448495,-0.34186345896696,0.192577819463293,NaN,1.62268270529885,1.44323087801397,-1.54948495224061,0.183626266724037,0.183626266727658,1.44002503176186,1.06813788436303,1.58183875234812,1.0835677134837,-0.729037207091098,0.698932656421486,-0.0688398733964489,-0.971790516821433,-0.971790516818632,0.400240740169055,-0.400240740169428,0.673252385709582
453.2224,0.871812934718014,-0.737456173822482,0.736183708640391,0.142136452154246,0.573083886427063,0.573083886426832,NaN,-0.40473009010536,-0.35765401031233,1.84123316604138,0.389054556986679,1.84123316604111,-0.703050623926944,NaN,NaN,-0.15228366159698,-0.368749833276491,NaN,NaN,0.228548548011184,-0.586919743154267,-0.821718151876482,-1.17818213683272,-0.970861781187638,0.288268909137916,0.278512322185409,0.278512322187229,0.220929371252487,-0.220929371251779,0.281867620693688,0.417646332591277,-0.345349956123604,0.186643968848167,NaN,1.527225890002,1.41806161397434,-1.49875721574559,0.222364108470351,0.222364108473954,1.45487611656264,1.05714386231704,1.59155640845944,1.10691857672682,-0.747550424305823,0.711605039259801,-0.0509611653454444,-0.951219500522166,-0.951219500519363,0.414919431127725,-0.414919431128069,0.670279149395881
453.3248,0.862377829814392,-0.736078211184377,0.722670390730779,0.110796613168498,0.589017719109,0.58901771910881,NaN,-0.438318805727649,-0.374330052742576,1.8887650280516,0.373878854355697,1.88876502805134,-0.685366663657716,NaN,NaN,-0.0649925815553883,-0.346045207373098,NaN,NaN,0.18838179947877,-0.557946985576832,-0.830597096883789,-1.19571141877225,-0.983010699909573,0.307910468072142,0.262102114999285,0.262102115001108,0.201733350868985,-0.201733350868284,0.289160996638605,0.417540839077782,-0.347636995455773,0.181535480345962,NaN,1.4285462547596,1.39145619348814,-1.44922857073744,0.259586526245644,0.259586526249232,1.46925382940349,1.04517838832687,1.60056817303755,1.12982426380902,-0.766235403489549,0.723588420669179,-0.0330482461593039,-0.930502807407038,-0.930502807404233,0.42983531493114,-0.429835314931431,0.66752997899581
453.4272,0.852616551404704,-0.73385443911147,0.709360314552309,0.0783589443426806,0.603959500675018,0.603959500674879,NaN,-0.473047980400148,-0.391597050054606,1.93470449361699,0.3598321811292,1.93470449361674,-0.665852573983788,NaN,NaN,0.0224232614292341,-0.324867825936255,NaN,NaN,0.148025542598974,-0.527516952518412,-0.840637883489272,-1.21408822343924,-0.996249518546603,0.327652139519237,0.244389803757342,0.244389803759167,0.183094356307528,-0.183094356306834,0.296007545789647,0.416666286084677,-0.348730711274271,0.17727152042351,NaN,1.32678095072161,1.36350703409143,-1.40089086193756,0.295229763877403,0.295229763880972,1.48313182407442,1.03226896150801,1.60885920280378,1.15225628201793,-0.78504942917141,0.734884498440978,-0.015151777619074,-0.909680159449041,-0.909680159446237,0.444930485215241,-0.444930485215489,0.665019462893314
453.5296,0.842541306312589,-0.730794964467167,0.696263971621446,0.0448629973618202,0.617895198735522,0.617895198735417,NaN,-0.508892173362153,-0.409395638434036,1.97890428975089,0.34689548629207,1.97890428975065,-0.644567290645159,NaN,NaN,0.109806952364266,-0.305202809021116,NaN,NaN,0.107523306320703,-0.495664667167122,-0.851894241113687,-1.23335269540038,-1.01062896818663,0.347455317936241,0.225384596758871,0.225384596760699,0.165030594683461,-0.165030594682774,0.302426430155896,0.415039314858988,-0.348640666221862,0.1738684748944,NaN,1.2220746483475,1.33430638725414,-1.35372947808026,0.329235966562484,0.329235966566038,1.49648145531075,1.01844325383907,1.61641269187413,1.17418615873205,-0.803948878514958,0.745495768539016,0.00267821391706449,-0.888791252042649,-0.888791252039846,0.46014276671612,-0.460142766716334,0.662761286429727
453.632,0.8321639901476,-0.726909993671927,0.6833912859265,0.0103512280972831,0.630811553356154,0.630811553356096,NaN,-0.545819948084809,-0.427665305318484,2.02122624912719,0.335047986316017,2.02122624912696,-0.621573211836215,NaN,NaN,0.197003128562862,-0.287033742834897,NaN,NaN,0.0669165371046584,-0.462428415735514,-0.864410928118,-1.25353750062501,-1.0261910413736,0.367282889929747,0.205100872033615,0.205100872035446,0.147557069286541,-0.147557069285862,0.308435931161706,0.412678247723636,-0.347379570317042,0.171339734716036,NaN,1.1145793957691,1.30394592930114,-1.30772379383674,0.361553187560028,0.361553187563571,1.50927199798899,1.00372924206411,1.62321010334535,1.19558543929579,-0.822889345221832,0.755425416860382,0.0203924001358565,-0.867875416393592,-0.86787541639079,0.475405862801851,-0.475405862802017,0.660768349990733
453.7344,0.821496161761582,-0.722209744130196,0.670751648603819,-0.0251309943966429,0.642696070885743,0.642696070885737,NaN,-0.583793875666391,-0.446344630338217,2.06154203537073,0.324267432811178,2.06154203537051,-0.596936090504839,NaN,NaN,0.283858430164278,-0.270342725461637,NaN,NaN,0.0262446411836723,-0.427849854873186,-0.878223486034257,-1.27466771071461,-1.04296878350562,0.387099363442946,0.183557985984502,0.183557985986334,0.130685473052323,-0.130685473051651,0.314053313745979,0.409602695065337,-0.344962986398381,0.169695455497551,NaN,1.00445443743826,1.27251636304869,-1.26284762868705,0.392135407328871,0.392135407332402,1.52147090036325,0.988155372337049,1.62923144051943,1.21642568430178,-0.841825786136938,0.764677190916824,0.0379422061708444,-0.846971266436489,-0.84697126643369,0.49064954594333,-0.490649545943458,0.65905291112325
453.8368,0.810549016935049,-0.716704372817566,0.65835393700354,-0.0615353717367953,0.653537033755309,0.653537033755347,NaN,-0.622770573053799,-0.465371525439006,2.09973378770949,0.314530372633527,2.09973378770928,-0.57072494844375,NaN,NaN,0.37022192057171,-0.255110389483121,NaN,NaN,-0.014454956671685,-0.391974131144064,-0.893358072528386,-1.29676075893584,-1.06098616305677,0.40687097800278,0.160780065093433,0.160780065095265,0.114424071066686,-0.114424071066021,0.319294698361662,0.405833147208859,-0.341409029131291,0.168942297335521,NaN,0.891866004699302,1.24010704231298,-1.21906972207614,0.420942568787894,0.420942568791419,1.53304407418938,0.97175075404358,1.63445555919269,1.23667846930351,-0.860712688421566,0.773255256940354,0.055279873252908,-0.826116330678425,-0.82611633067563,0.50579989014468,-0.505799890144782,0.657626749170912
453.9392,0.79933337148295,-0.710403932115134,0.646206525516174,-0.0988106506956096,0.663323520165641,0.663323520165728,NaN,-0.662700759496409,-0.484683460123369,2.13569468072595,0.305812398338741,2.13569468072575,-0.54301200023754,NaN,NaN,0.455945480609245,-0.241315888310069,NaN,NaN,-0.0551467334493972,-0.354850003176462,-0.90983137418428,-1.31982646062442,-1.08025801880102,0.426565785053324,0.136795791573359,0.136795791575193,0.0987775903718081,-0.0987775903711503,0.32417493720089,0.401390571600475,-0.336738072976487,0.169083157276958,NaN,0.77698709329247,1.20680562999449,-1.17635422698071,0.447940608632802,0.447940608636319,1.5439562173819,0.954545371853873,1.63886051391322,1.25631538886502,-0.879504247592936,0.781164053008885,0.0723585417448115,-0.805346682376364,-0.805346682373572,0.520779544940314,-0.520779544940374,0.65650134274729
454.0416,0.787859660203477,-0.70331835609853,0.634317295454195,-0.136902592223566,0.672045422453377,0.672045422453513,NaN,-0.703529322966823,-0.504217668922187,2.16932939129512,0.2980883860741,2.16932939129492,-0.513872569023214,NaN,NaN,0.540884188869745,-0.228936849626945,NaN,NaN,-0.0957969709835808,-0.316529949299013,-0.927650597981905,-1.34386708978539,-1.10079008043978,0.446153688551902,0.111638177153949,0.111638177155782,0.0837471400106599,-0.0837471400100102,0.328707488810307,0.396296035069352,-0.330972483624319,0.170116907171878,NaN,0.659997238096919,1.1726977905373,-1.13466122285607,0.473101452682667,0.47310145268618,1.55417116320378,0.936570304048095,1.64242392936603,1.2753080729717,-0.898154551430097,0.788408152234583,0.0891323584857272,-0.784696582465914,-0.784696582463126,0.535508052323731,-0.535508052323755,0.655688043239304
454.144,0.776137950772884,-0.695457471361907,0.622693647565906,-0.17575394158806,0.679693455992468,0.679693455992662,NaN,-0.745195402889476,-0.523911350538453,2.20055446743677,0.291332718233954,2.20055446743659,-0.483384978337049,NaN,NaN,0.624896704079352,-0.217949314155655,NaN,NaN,-0.136373649434692,-0.277070242981481,-0.946813535751576,-1.36887750464721,-1.12257905620792,0.465606440340755,0.0853443068994924,0.0853443069013235,0.0693301715266874,-0.0693301715260449,0.33290428572134,0.39057036317584,-0.324136380860022,0.172038146471356,NaN,0.541082283903269,1.13786690740625,-1.09394724297786,0.496402959612334,0.496402959615846,1.5636522494724,0.917857937773077,1.64512338837655,1.29362822321005,-0.91661777135438,0.794992143671557,0.105556596129704,-0.76419814364772,-0.764198143644936,0.549902207049076,-0.549902207049066,0.655198230017914
454.2464,0.764177965149869,-0.686831020685481,0.611342515438423,-0.215304402241893,0.686259158557619,0.686259158557865,NaN,-0.787632502214599,-0.543701865916188,2.22929860196369,0.285519490123857,2.22929860196351,-0.451630413312979,NaN,NaN,0.70784565538238,-0.208327681444088,NaN,NaN,-0.176846336481255,-0.236530986566721,-0.967308690511983,-1.3948453139317,-1.14561277700195,0.484897591724142,0.0579550414094454,0.0579550414112753,0.0555204779042042,-0.0555204779035695,0.336775594854242,0.384233840343458,-0.316255432805466,0.174836978255559,NaN,0.420434143409229,1.10239381648059,-1.05416580428433,0.51782881957864,0.517828819582154,1.57236269296949,0.89844217217144,1.64693682083928,1.31124766368414,-0.934848358460601,0.800920527217946,0.121587760025956,-0.743881026194361,-0.743881026191581,0.563876458775862,-0.563876458775821,0.655043441318793
454.3488,0.751989098520455,-0.677448687861082,0.60027037410374,-0.255490612240425,0.691734886910781,0.691734886911093,NaN,-0.830768635354963,-0.563526934372637,2.25550282130864,0.280622699792188,2.25550282130847,-0.418692754223076,NaN,NaN,0.78959803259759,-0.200044678266711,NaN,NaN,-0.217186076105076,-0.194976101581742,-0.989115450767112,-1.42175107281479,-1.16987038366791,0.504002409749597,0.0295146810034709,0.0295146810053018,0.042308229563235,-0.0423082295626079,0.340329876222484,0.377305949130674,-0.307356676223698,0.178498816186862,NaN,0.298250535677981,1.06635655546644,-1.01526792294006,0.53736841856802,0.537368418571528,1.58026594546747,0.878358599312298,1.64784286988654,1.32813839284996,-0.95280123411405,0.806197614270228,0.137183661533797,-0.723772181685852,-0.723772181683079,0.577343352864686,-0.577343352864624,0.65523547926594
454.4512,0.739580427172669,-0.667320116501701,0.589483236484636,-0.296246124764541,0.696113821571927,0.696113821572301,NaN,-0.874526508888997,-0.583324827460538,2.27912060034928,0.276616416499831,2.27912060034912,-0.384658388820243,NaN,NaN,0.870025563536497,-0.193071354343288,NaN,NaN,-0.257365281614767,-0.152473277199262,-1.01220430352545,-1.44956849848322,-1.19532254762428,0.522897769457601,7.06048482441243e-05,7.06048500748936e-05,0.029680049397674,-0.029680049397055,0.34357364864081,0.369805149356255,-0.297468360202892,0.183004229685516,NaN,0.174734703268651,1.02983013696998,-0.977202598959553,0.555016675097211,0.555016675100718,1.58732601281234,0.857644652581074,1.64782121593567,1.34427262721168,-0.970431966542744,0.810827430400975,0.152303451735179,-0.703895656084377,-0.703895656081608,0.590214005383147,-0.590214005383071,0.655786486776748
454.5536,0.726960701506508,-0.656454920873072,0.578986633428193,-0.337501399679925,0.699389991078576,0.699389991079014,NaN,-0.91882372954046,-0.60303456453711,2.30011790682664,0.273474922746471,2.30011790682649,-0.349616007218184,NaN,NaN,0.949005067194959,-0.187377099832552,NaN,NaN,-0.297357635750029,-0.109093881654211,-1.03653708904228,-1.47826470250597,-1.2219317259169,0.541562030565939,-0.03032710080435,-0.0303271008025196,0.0176191264705595,-0.0176191264699489,0.346511372261476,0.361748704137407,-0.28661981713746,0.188328834574424,NaN,0.0500951068348932,0.992886352467015,-0.939917261930295,0.570773860655279,0.570773860658781,1.59350773221055,0.836339711194934,1.64685285096663,1.35962283537316,-0.987696928397044,0.814813622511009,0.166907621438753,-0.684272451872057,-0.684272451869294,0.602398607932271,-0.602398607932191,0.656708992209987
454.656,0.714138324459791,-0.644862687266504,0.568785579006967,-0.379183814070386,0.701558322250152,0.701558322250649,NaN,-0.963573035837678,-0.622596112415976,2.31847317165923,0.271172830020918,2.31847317165909,-0.313656380680746,NaN,NaN,1.0264187722544,-0.182929674673759,NaN,NaN,-0.337137998166547,-0.0649128433692375,-1.06206730951633,-1.50780044541622,-1.24965246096141,0.559974903355751,-0.0616260158687715,-0.0616260158669441,0.00610536532952308,-0.00610536532892005,0.349145355878805,0.353152559887991,-0.274841366091832,0.1944432339239,NaN,-0.0754549083872915,0.955593608528302,-0.903358182741278,0.584645424261576,0.584645424265071,1.59877701001123,0.814485152256459,1.64492030246407,1.37416176435088,-1.00455343167718,0.818159375848245,0.180957977972412,-0.664920443222395,-0.664920443219639,0.613806958911939,-0.613806958911871,0.658015918075916
454.7584,0.701121316922124,-0.632552962128384,0.558884526711239,-0.421217696239851,0.702614716584152,0.702614716584705,NaN,-1.00868255066307,-0.641950585323307,2.33417718231288,0.269685173069476,2.33417718231275,-0.276872126082688,NaN,NaN,1.10215459382373,-0.179695243921162,NaN,NaN,-0.376682320302301,-0.0200085037338266,-1.0887404999404,-1.53813042213856,-1.27843173358171,0.578117308206124,-0.0937717603504495,-0.093771760348626,-0.00488443109069407,0.00488443109128819,0.351475691415582,0.34403127905874,-0.262164247448039,0.201313008747439,NaN,-0.201697487361387,0.918016790263208,-0.867470863163249,0.596641838838809,0.596641838842297,1.60310102184282,0.792124352572299,1.64200780932018,1.38786246465263,-1.02095984326829,0.820867346057715,0.194417611961285,-0.645854339269547,-0.645854339266798,0.624349018558331,-0.62434901855829,0.659720553745346
454.8608,0.687917273843017,-0.619535225007789,0.549287323923081,-0.46352438366423,0.702556149647917,0.702556149648531,NaN,-1.05405605535319,-0.66104043840977,2.34723290335188,0.268987487253531,2.34723290335175,-0.239357458222562,NaN,NaN,1.17610637258059,-0.177638423146782,NaN,NaN,-0.415967567142602,0.0255375631196515,-1.1164946563165,-1.56920358415531,-1.3082093680962,0.595971234937994,-0.126708375379683,-0.126708375377862,-0.0153763460805461,0.0153763460811326,0.353500214220596,0.334398014734798,-0.248620580471351,0.208898752331058,NaN,-0.328410701284121,0.880217140788968,-0.832200413645942,0.606778471851207,0.606778471854684,1.60644837767148,0.769302653312941,1.63810145586635,1.40069832410907,-1.03687569158468,0.822939609480011,0.207250867280167,-0.627085690624958,-0.627085690622217,0.633935485347516,-0.633935485347514,0.661836495848261
454.9632,0.674533318390081,-0.605818850709219,0.539997172425303,-0.506022303197392,0.701380789883144,0.701380789883814,NaN,-1.09959329640765,-0.67980965388683,2.35765523210675,0.269055870791573,2.35765523210663,-0.201207930844238,NaN,NaN,1.24817408961478,-0.176722344787258,NaN,NaN,-0.454971644353027,0.0716407669183565,-1.14526070840339,-1.60096349705837,-1.33891848018154,0.613519607082927,-0.160378718348134,-0.160378718346317,-0.0253991024071956,0.025399102407775,0.355214490070069,0.324264513487585,-0.23424333376649,0.217156139514703,NaN,-0.455369065025529,0.842252141328504,-0.79749192499366,0.615075469103428,0.615075469106886,1.60878925779605,0.746067300986173,1.63318927334144,1.41264311711451,-1.05226177266656,0.824377632695842,0.219423321458739,-0.608622932035387,-0.608622932032652,0.642478391417089,-0.642478391417126,0.664377560193145
455.0656,0.66097606344211,-0.591413071268238,0.531016600464185,-0.548627072522028,0.699088131439093,0.699088131439819,NaN,-1.14519034533168,-0.698203927425198,2.36547069490842,0.269867033424187,2.36547069490832,-0.162520165208717,NaN,NaN,1.31826406676066,-0.176908755465819,NaN,NaN,-0.493673329962835,0.118213751014833,-1.17496302645686,-1.6333487253584,-1.37048595747464,0.630746152861246,-0.194724872532948,-0.194724872531134,-0.0349837819025489,0.0349837819031204,0.356611834041227,0.313641139276662,-0.219066302374176,0.226036028330781,NaN,-0.582344148225423,0.804175380351394,-0.763290834332426,0.621557638704185,0.62155763870763,1.61009552455258,0.722467369563518,1.62726131442877,1.42367106943292,-1.06708025901038,0.82518225870958,0.230901773288347,-0.590471454865231,-0.590471454862503,0.64989171487942,-0.649891714879509,0.667357665799144
455.168,0.647251588163488,-0.576326950984857,0.522347447294818,-0.591251624447353,0.695679131044871,0.69567913104565,NaN,-1.1907400291766,-0.716170861098462,2.37071708456182,0.271398335016975,2.37071708456172,-0.123391565597588,NaN,NaN,1.38628915172893,-0.178158153308401,NaN,NaN,-0.532052214112752,0.165166671548181,-1.20551995609813,-1.6662932359587,-1.40283296592052,0.647635285379524,-0.229688562834857,-0.229688562833046,-0.0441635023557187,0.0441635023562828,0.357683367219626,0.302536917871872,-0.203124087526738,0.235484601316412,NaN,-0.709105282330223,0.766036410025034,-0.729543280135232,0.626254329209093,0.626254329212525,1.61034080662476,0.698553662124353,1.62030969765265,1.43375693329971,-1.08129481264078,0.825353702063577,0.241654225437042,-0.572633705887054,-0.572633705884337,0.656092008510871,-0.656092008511002,0.670790688472861
455.2704,0.633365433972078,-0.560569385461284,0.513990857719768,-0.633806358301612,0.691156336266157,0.691156336266982,NaN,-1.23613243610914,-0.733660158328578,2.37344303663185,0.273627816450561,2.37344303663176,-0.0839200261869971,NaN,NaN,1.45216888055571,-0.180429974549643,NaN,NaN,-0.570088655948013,0.21240750746903,-1.23684437679875,-1.69972681683847,-1.43587547757678,0.664171998433223,-0.265211564239875,-0.26521156423807,-0.0529730430887555,0.0529730430893117,0.358418113325573,0.290959600779614,-0.186452072931089,0.245443557325291,NaN,-0.835420359086156,0.727880595243876,-0.696196437774007,0.629199304006628,0.629199304010044,1.6095005493889,0.674378592871312,1.61232861613204,1.44287606483514,-1.09487070065602,0.824891544660704,0.251649851037103,-0.555109308460996,-0.555109308458288,0.660999045800357,-0.660999045800545,0.674690280866312
455.3728,0.619322621645457,-0.54414913100517,0.505947283991334,-0.676199324546236,0.685523997468103,0.685523997468968,NaN,-1.28125548523543,-0.750623809269166,2.37370754404934,0.276534223533486,2.37370754404926,-0.0442036396868983,NaN,NaN,1.51582960753015,-0.183682829409829,NaN,NaN,-0.607763764280733,0.259842401717363,-1.26884428091547,-1.73357551130897,-1.46952481789693,0.680341782475645,-0.301236088871513,-0.301236088869712,-0.0614484259348875,0.0614484259354362,0.358803131364304,0.278915745125902,-0.169086391432631,0.255850359103498,NaN,-0.961056705670001,0.689748966362361,-0.663198826419571,0.630430618701958,0.630430618705359,1.60755203148295,0.649996056125529,1.60331431283836,1.45100449689312,-1.1077749060262,0.823794730071741,0.260858942754392,-0.537895203471282,-0.537895203468583,0.664536480838259,-0.664536480838501,0.679069659891567
455.4752,0.605127688534573,-0.527074866049057,0.498216492087945,-0.718336449493214,0.678788165570261,0.678788165571168,NaN,-1.32599553723338,-0.767016257764755,2.37157941509122,0.280097028268374,2.37157941509115,-0.00434041851413264,NaN,NaN,1.57720459329117,-0.18787477050576,NaN,NaN,-0.645059396442429,0.307376025380149,-1.30142337268513,-1.76776206628271,-1.50368823154871,0.696130557684646,-0.337705137557674,-0.337705137555876,-0.0696264760782438,0.0696264760787855,0.358823677879414,0.266410808735926,-0.151063883387759,0.266638532119072,NaN,-1.08578200388034,0.651678095384539,-0.63050057643995,0.629990509404692,0.629990509408076,1.60447435506065,0.625461289806171,1.59326503114341,1.45811900235177,-1.11997622333984,0.822061559028109,0.269252849196898,-0.520985815198447,-0.520985815195757,0.666632508024861,-0.66663250802515,0.683941370213921
455.5776,0.5907847400665,-0.50935527919424,0.490797567846435,-0.760121807989968,0.670956782604959,0.67095678260591,NaN,-1.37023801891968,-0.782794547404657,2.36713668142688,0.284296453976887,2.36713668142682,0.0355719680653754,NaN,NaN,1.63623404812907,-0.192963568966831,NaN,NaN,-0.681958162310109,0.35491195369134,-1.33448168700127,-1.80220638948085,-1.53826946489121,0.711524617929006,-0.374562803478492,-0.374562803476697,-0.0775443884961527,0.0775443884966872,0.358463395367993,0.253449264950564,-0.132422056656648,0.277738003548838,NaN,-1.20936521258029,0.613700017416016,-0.598053646717003,0.627925297504825,0.627925297508194,1.60024841880259,0.60083073708759,1.58218094971288,1.46419714428371,-1.13144532967786,0.819689690132872,0.276803904562794,-0.504373250735974,-0.504373250733295,0.667220501221103,-0.667220501221433,0.689317037222227
455.68,0.576297508300307,-0.490999172002597,0.48368892167416,-0.801457953531577,0.66203976882354,0.662039768824533,NaN,-1.4138680433052,-0.797918448634654,2.3604659585509,0.289113504529546,2.36046595855085,0.0754364472086112,NaN,NaN,1.69286513688696,-0.198906976422713,NaN,NaN,-0.718443427149906,0.402353049344437,-1.36791622580115,-1.83682601060493,-1.57316936190239,0.726510583301595,-0.411754521426212,-0.411754521424421,-0.0852393141881995,0.0852393141887268,0.357704525427095,0.240034740619373,-0.113199056385984,0.289075471606922,NaN,-1.33157746361884,0.575842209621589,-0.565811988850979,0.624285311255485,0.624285311258839,1.59485688428593,0.576161906720101,1.57006411118042,1.46921731346521,-1.14215482425994,0.816676151768414,0.283485360592005,-0.488047531704679,-0.488047531702008,0.666239614609616,-0.666239614609989,0.695207119569861
455.7824,0.561669416973355,-0.472015567495158,0.476888298559908,-0.842246313155588,0.652049104251661,0.652049104252687,NaN,-1.45677101845246,-0.812350570586233,2.35166175679635,0.29452999064505,2.35166175679632,0.115156796582845,NaN,NaN,1.74705195586367,-0.205662956636553,NaN,NaN,-0.754499316340072,0.449601855999138,-1.40162160653956,-1.87153654277006,-1.60828646848811,0.74107536113446,-0.449227263205183,-0.449227263203398,-0.0927479720330981,0.0927479720336188,0.356528141734804,0.226170173347859,-0.0934336417014746,0.30057480268813,NaN,-1.45219291599758,0.53812762953281,-0.533731663213199,0.619124820410991,0.61912482041433,1.58828414948825,0.551513233635781,1.55691835715782,1.47315875854308,-1.15207923636158,0.813017372110727,0.289271334150554,-0.471996845003028,-0.471996845000368,0.663635333485223,-0.663635333485645,0.701620666041191
455.8848,0.546903659757274,-0.452413824885,0.470392803388305,-0.88238764889888,0.640998899436867,0.640998899437935,NaN,-1.49883324654217,-0.826056460233925,2.34082574258695,0.30052854605476,2.34082574258692,0.154637905443587,NaN,NaN,1.79875549114779,-0.213189876415839,NaN,NaN,-0.790110724253844,0.496561006966106,-1.43549071515151,-1.90625214111613,-1.64351763889517,0.755206113704609,-0.486929683194592,-0.486929683192813,-0.100106288677871,0.100106288678385,0.354914395304217,0.211857979849659,-0.0731651587060323,0.31215746092442,NaN,-1.57098956085192,0.500574809722766,-0.501770912270332,0.612501981458323,0.612501981461651,1.58051634344075,0.526943944988909,1.54274928340483,1.47600161496856,-1.16119500491285,0.808709231787252,0.294136781830275,-0.456207798365361,-0.456207798362711,0.659359969436689,-0.65935996943715,0.708565079425753
455.9872,0.532003296218225,-0.432203763632789,0.46419894595242,-0.921782586184328,0.628905450522961,0.628905450524063,NaN,-1.53994251587858,-0.839004688338124,2.32806595489681,0.307092630094374,2.32806595489679,0.193786044152875,NaN,NaN,1.84794356898146,-0.221446651034561,NaN,NaN,-0.825263322331889,0.543133652720804,-1.46941535790565,-1.94088595823986,-1.67875864026468,0.768890231229298,-0.524812219327249,-0.524812219325477,-0.107349064918833,0.107349064919341,0.352842768562745,0.197100227070996,-0.0524334987937974,0.323742975169934,NaN,-1.68774997709079,0.463198002259887,-0.469890193923061,0.604478794363819,0.60447879436713,1.57154135305326,0.502513936105842,1.5275642261573,1.47772693458006,-1.16948042922451,0.803747141944558,0.298057504995547,-0.44066567399589,-0.44066567399325,0.653373099801418,-0.653373099801912,0.716045889725322
456.0896,0.516971359830704,-0.411395791548929,0.458302701309709,-0.960332213736558,0.615787276103311,0.615787276104453,NaN,-1.57998868293139,-0.851166918475716,2.31349598446517,0.314206516060867,2.31349598446517,0.232509146182297,NaN,NaN,1.89459081221618,-0.23039284223475,NaN,NaN,-0.859943558777897,0.589223909302365,-1.50328690991758,-1.97535059790812,-1.71390475430023,0.78211531192957,-0.562827155776786,-0.562827155775023,-0.114509664506319,0.114509664506821,0.350292342146401,0.181898796984377,-0.0312790339809274,0.335249440991871,NaN,-1.80226204628369,0.426007364539253,-0.438052174931771,0.595121068669483,0.595121068672776,1.56134888667163,0.478283653251234,1.51137228268255,1.47831670957235,-1.1769155812896,0.798126148238149,0.301010181478723,-0.425354684785127,-0.425354684782495,0.645641949829164,-0.645641949829695,0.724066539392359
456.192,0.501810964189457,-0.390001022275359,0.452699576256364,-0.997938764883273,0.601665134103668,0.601665134104848,NaN,-1.61886423747526,-0.862517953296887,2.29723412166454,0.321855265639751,2.29723412166456,0.270717110775525,NaN,NaN,1.93867861604526,-0.23998870579116,NaN,NaN,-0.894138648603429,0.634737328154916,-1.53699695866337,-2.00955856473269,-1.74885137411049,0.794869154257896,-0.600928651777691,-0.600928651775936,-0.121619722222189,0.121619722222686,0.347242083072466,0.166255538619033,-0.00974252735131381,0.346594047507965,NaN,-1.91431964075329,0.389009182574371,-0.406221678620341,0.584498386623935,0.584498386627213,1.54993056785802,0.454313972378964,1.49418435711246,1.47775387538178,-1.18348216639258,0.791841053203759,0.302972418778987,-0.410258251892491,-0.41025825188987,0.636141707506495,-0.636141707507065,0.73262818233424
456.2944,0.486525395463797,-0.368031368248109,0.447384675004098,-1.03450639108311,0.586562014280581,0.586562014281809,NaN,-1.65646484585825,-0.873035750694085,2.27940247888904,0.330024689962379,2.27940247888907,0.308322128113803,NaN,NaN,1.98019514629928,-0.250195182507135,NaN,NaN,-0.927836560816784,0.679581384375571,-1.5704379388784,-2.04342270321024,-1.7834945914671,0.8071397702774,-0.639072735061383,-0.639072735059635,-0.128708871113022,0.128708871113512,0.343671161403846,0.15017240770831,0.0121349751860477,0.357693616700875,NaN,-2.02372329609423,0.352206134841991,-0.374365576946398,0.57268404366307,0.572684043666332,1.53728004467902,0.43066606349619,1.47601321555291,1.47602227481037,-1.1891633253423,0.784886541165658,0.303922826071518,-0.395359327588847,-0.395359327586239,0.624855755937184,-0.624855755937785,0.741729493514583
456.3968,0.471118192247358,-0.34549961069002,0.442352764550798,-1.06994202202905,0.570503099812707,0.570503099813964,NaN,-1.69268986790464,-0.882701403793814,2.26012609774966,0.338701300339021,2.2601260977497,0.345239012748736,NaN,NaN,2.01913534475594,-0.260973830092417,NaN,NaN,-0.96102600935536,0.723665971725245,-1.60350375182642,-2.07685662064232,-1.81773176776965,0.81891542983154,-0.677217254351867,-0.677217254350128,-0.135804492622513,0.135804492622998,0.339559291887675,0.133651596467723,0.0343122628874852,0.368465141704827,NaN,-2.13028086594467,0.315597600450876,-0.342452625769072,0.55975494639796,0.559754946401212,1.52339310030341,0.407401238468976,1.45687353737844,1.47310657752492,-1.19394338677805,0.777257291330874,0.303841100898539,-0.380640770718169,-0.380640770715572,0.611775815225638,-0.611775815226276,0.751366482039632
456.4992,0.455593226971205,-0.322419466863662,0.43759834478323,-1.10415626996089,0.553515697020481,0.553515697021782,NaN,-1.72744283896147,-0.891499084327925,2.23953205667464,0.3478722555905,2.2395320566747,0.381385519618352,NaN,NaN,2.05550090795069,-0.272286710294126,NaN,NaN,-0.99369644896121,0.766903883298908,-1.63609035607427,-2.1097750898067,-1.85146207846642,0.830184737201839,-0.715321788510411,-0.715321788508681,-0.142931494341309,0.142931494341787,0.334887082617297,0.116695653206554,0.0567480805926871,0.378826307803288,NaN,-2.23380814075112,0.279180007254822,-0.310453261288459,0.545791451072919,0.54579145107616,1.50826775502271,0.384580788539081,1.43678195592816,1.4689921686615,-1.19780759441791,0.7689480745979,0.302708119719175,-0.36608575506977,-0.366085755067184,0.59690200451454,-0.596902004515212,0.761532302255394
456.6016,0.439954798309628,-0.29880567274334,0.433115722721598,-1.13706431275038,0.53562914406277,0.535629144064111,NaN,-1.76063190754948,-0.899415956131164,2.21774859526488,0.357525311567715,2.21774859526495,0.416682620719893,NaN,NaN,2.08930020700016,-0.284096263082131,NaN,NaN,-1.02583807690016,0.809211257482118,-1.66809631260719,-2.14209442480381,-1.88458701688303,0.840936732477204,-0.753347516533607,-0.753347516531888,-0.150112116885434,0.150112116885906,0.329636368887143,0.0993075919804386,0.0794012448379457,0.38869598224415,NaN,-2.33412940814199,0.242947207027075,-0.278339387735492,0.530877130589919,0.53087713059315,1.49190435416835,0.362265820111499,1.41575708632627,1.46366503071505,-1.20074183878145,0.759953838366456,0.300506020305463,-0.351678176266064,-0.351678176263488,0.580242852430258,-0.580242852430967,0.772217061180187
456.704,0.424207722759296,-0.274674073154985,0.428899079206317,-1.16858671084959,0.516874712630689,0.516874712632058,NaN,-1.79217022693226,-0.906442070406521,2.1949042648816,0.367648770811481,2.19490426488168,0.45105473328358,NaN,NaN,2.12054813778262,-0.296365197568213,NaN,NaN,-1.0574418444866,0.850507979306161,-1.69942327340182,-2.17373282530094,-1.91701084834287,0.851161010451477,-0.791257054808993,-0.791257054807286,-0.157365770562344,0.15736577056281,0.323790522112513,0.0814909969219594,0.102230748787472,0.397994668458319,NaN,-2.43107794248175,0.206890866090934,-0.246084181044362,0.515098467275084,0.515098467278301,1.47430564115463,0.34051709319924,1.39381954106627,1.45711163660666,-1.20273241253525,0.75026978482724,0.297218276718158,-0.337403030114069,-0.337403030111502,0.561815280166342,-0.561815280167085,0.783407625131829
456.8064,0.408357402419714,-0.250041692417428,0.42494251495732,-1.19865015152288,0.497285504873785,0.497285504875183,NaN,-1.82197630936692,-0.912570254840124,2.17112710592174,0.378231424960771,2.17112710592183,0.484429900105454,NaN,NaN,2.14926591181818,-0.309056410136698,NaN,NaN,-1.08849948070873,0.890718035479831,-1.72997641546264,-2.20461069189168,-1.9486410168941,0.860847856567069,-0.829014265539988,-0.829014265538294,-0.16470890719604,0.1647089071965,0.317334736769824,0.0632501288809462,0.125195849691839,0.406644928134128,NaN,-2.5244964229471,0.17100086794192,-0.213661918251633,0.498544478379371,0.498544478382572,1.45547681977419,0.319394862370443,1.3709919369282,1.44931886027399,-1.20376579703764,0.739891444004608,0.2928297823803,-0.323246752603597,-0.323246752601039,0.541644555603512,-0.541644555604288,0.795087435563494
456.9088,0.392409860366515,-0.224926769491161,0.421240076054095,-1.22718812696827,0.47689633705271,0.476896337054131,NaN,-1.84997435242672,-0.917796004317885,2.14654384996437,0.389262485516005,2.14654384996447,0.516739927833973,NaN,NaN,2.17548080359782,-0.322132925016186,NaN,NaN,-1.11900352512941,0.929769824188785,-1.7596648268616,-2.23465091683388,-1.97938851060281,0.869988398926401,-0.866584040659773,-0.866584040658092,-0.172154934206881,0.172154934207335,0.310256299723485,0.044590041422737,0.148256133557955,0.414571775390155,NaN,-2.61423728070545,0.135265727576545,-0.181047831602745,0.481306287467237,0.481306287470417,1.43542561433555,0.298958720731322,1.3472989009149,1.44027390782402,-1.20382848499338,0.728814741069011,0.287326954111549,-0.309197518294528,-0.309197518291979,0.519764199006356,-0.519764199007136,0.807236349284582
457.0112,0.376371754674258,-0.199348763514001,0.417785771090295,-1.25414153971118,0.45574360345114,0.455743603452585,NaN,-1.87609453755278,-0.922117374775552,2.12127915022709,0.400731504662974,2.1212791502272,0.547920493020384,NaN,NaN,2.19922586620099,-0.335557850357421,NaN,NaN,-1.14894736452557,0.967596423547121,-1.78840184686096,-2.26377914960327,-2.0091681866448,0.878574766557148,-0.903932072397951,-0.903932072396285,-0.179714169238323,0.179714169238771,0.302544839755167,0.02551670922724,0.171371554329978,0.42170304401293,NaN,-2.70016296796259,0.0996730116702501,-0.148217985733747,0.463476657126696,0.463476657129858,1.41416233796244,0.279267451754243,1.32276708569069,1.42996427579933,-1.20290684460954,0.71703606130612,0.280697852533488,-0.295245487695166,-0.295245487692627,0.496215829153677,-0.496215829154476,0.819830516062225
457.1136,0.360250385550904,-0.173328342703624,0.41457359158814,-1.27945921556086,0.433865122351861,0.433865122353325,NaN,-1.90027329285032,-0.925534876036766,2.09545485150596,0.412628289203665,2.09545485150608,0.577911230015233,NaN,NaN,2.2205396245235,-0.349294343985978,NaN,NaN,-1.17832526728211,1.00413582575075,-1.81610536063405,-2.29192403649271,-2.03789905628261,0.886600237158504,-0.941024629086785,-0.941024629085132,-0.187393823879639,0.187393823880082,0.294192548908614,0.00603716582528352,0.194502449798685,0.42796972571757,NaN,-2.78214614309861,0.0642097527626721,-0.115149180488114,0.445149499872779,0.445149499875916,1.39169997803196,0.260378895152489,1.29742520424632,1.41837774389565,-1.20098702574527,0.704552321265217,0.272932303100206,-0.281382993152999,-0.28138299315047,0.471048952589642,-0.471048952590453,0.832842301881325
457.216,0.344053707089387,-0.146887369151337,0.411597543042984,-1.30309830911276,0.411299971203283,0.41129997120477,NaN,-1.92245351220088,-0.928051356517762,2.06918931424628,0.424942807951184,2.06918931424642,0.60665581863344,NaN,NaN,2.23946575619739,-0.363305580387326,NaN,NaN,-1.20713240929579,1.0393311434968,-1.84269805445804,-2.31901743910377,-2.06550453543271,0.894059358859656,-0.977828353717748,-0.977828353716108,-0.195198009793137,0.195198009793574,0.285194365764725,-0.0138403567071139,0.217609541433298,0.43330627846144,NaN,-2.860069784825,0.0288628486279235,-0.0818188823914225,0.426419383670725,0.426419383673836,1.36805430480156,0.242349827258568,1.27130408922836,1.40550240398043,-1.19805490012824,0.691361055100625,0.264022007218933,-0.267604665136416,-0.267604665133901,0.444320693487759,-0.444320693488576,0.846240265175273
457.3184,0.327790359462951,-0.120048898547985,0.408851695214214,-1.32502460453925,0.388088315959243,0.388088315960761,NaN,-1.9425847311966,-0.929671875502597,2.04259680268673,0.437665092439575,2.04259680268688,0.634102087076565,NaN,NaN,2.25605276794694,-0.377554711485256,NaN,NaN,-1.23536488776818,1.07313078983371,-1.86810764207448,-2.3449946401457,-2.09191267106777,0.900948039513328,-1.01431009241615,-1.01431009241452,-0.203127772883314,0.203127772883746,0.275548116176894,-0.0341062941652862,0.240653928437359,0.437650908942331,NaN,-2.93382726194947,-0.0063805533552038,-0.0482051835232463,0.407381042523776,0.407381042526864,1.34324399927538,0.225235847430264,1.24443677093225,1.39132672087423,-1.19409602688047,0.677460518042297,0.253960642551129,-0.253907514684921,-0.253907514682417,0.416095448771234,-0.416095448772046,0.859989192036601
457.4208,0.311469738137852,-0.0928372173598808,0.406330258519727,-1.34521272373026,0.364271233218533,0.364271233220091,NaN,-1.96062326943409,-0.93040356393666,2.01578694045918,0.450785133830306,2.01578694045934,0.660202131482097,NaN,NaN,2.27035366486021,-0.392004824683288,NaN,NaN,-1.2630197258732,1.10548862610217,-1.89226706843514,-2.36979454086311,-2.11705634921276,0.907263609128889,-1.05043674974213,-1.05043674974051,-0.211181160567915,0.211181160568342,0.265254614887875,-0.0547496295558986,0.263597085771287,0.440945834996624,NaN,-3.00332237726377,-0.0415326841114103,-0.0142867813619495,0.388128896043693,0.388128896046758,1.31729077846312,0.209091259946012,1.21685855165903,1.37583962032527,-1.1890956453805,0.662849799698313,0.242743950744488,-0.240290990182259,-0.240290990179764,0.386444459816091,-0.386444459816902,0.87405018836826
457.5232,0.295102102082722,-0.0652779257463252,0.404027682647293,-1.36364624523818,0.339890520950341,0.339890520951933,NaN,-1.97653234837131,-0.930255476650524,1.98886423523815,0.46429277959033,1.98886423523832,0.684912437196708,NaN,NaN,2.28242559929898,-0.406618912928943,NaN,NaN,-1.29009487603026,1.13636407072939,-1.91511468496914,-2.39335984433502,-2.14087347852253,0.913004868948729,-1.08617516308953,-1.08617516308792,-0.219353316978126,0.219353316978549,0.25431773515718,-0.07575778762292,0.286400868074181,0.443137527017787,NaN,-3.06846939008029,-0.0766047923337482,0.0199570320971709,0.368756579686642,0.368756579689686,1.29021948842853,0.193968948390815,1.18860704959904,1.35903060434416,-1.18303870659604,0.647528937898873,0.230369803307287,-0.226757017696293,-0.226757017693806,0.35544531148417,-0.355445311484974,0.888380817452747
457.6256,0.278698702602503,-0.037398049565959,0.401938762802953,-1.38031772953164,0.314988494227158,0.314988494228779,NaN,-1.99028218689512,-0.929238438570797,1.96192767356595,0.478177629407859,1.96192767356613,0.708193984994624,NaN,NaN,2.29232948802514,-0.421359869487214,NaN,NaN,-1.31658922829794,1.1657221660938,-1.93659438318576,-2.41563721217938,-2.16330713608749,0.918172141214914,-1.12149198723205,-1.12149198723045,-0.227636601048329,0.227636601048747,0.242744453787642,-0.0971165392413074,0.30902750968212,0.444176919249652,NaN,-3.12919301689423,-0.111606793335593,0.05454638672992,0.349356483484359,0.349356483487379,1.2620581489159,0.17992024616595,1.15972219912725,1.3408898933594,-1.17590994790455,0.631499028146261,0.216838236559241,-0.213310024183878,-0.213310024181399,0.323181371086187,-0.323181371086996,0.902935270913697
457.728,0.2622719058565,-0.0092261497601076,0.400058738341938,-1.39522865272873,0.289607765009362,0.289607765011009,NaN,-2.0018500723676,-0.927364886888075,1.93507038531882,0.492428927419905,1.935070385319,0.730012336112957,NaN,NaN,2.30012959853402,-0.436190507974482,NaN,NaN,-1.34250262673288,1.19353360542972,-1.95665567867222,-2.43657738630347,-2.18430566713142,0.922767330067824,-1.15635358258294,-1.15635358258135,-0.236020731708174,0.236020731708587,0.230544876440138,-0.118809909529171,0.331439609156635,0.444019579842806,NaN,-3.1854284100976,-0.146546925187561,0.0895008648117766,0.330019291941033,0.330019291944026,1.23283795199412,0.166994805136204,1.130246210251,1.3214085876074,-1.16769400047936,0.61476232873841,0.202151458535304,-0.199956939931844,-0.199956939929374,0.28974116952816,-0.289741169528965,0.917664566957605
457.8304,0.245835293270088,0.0192075943761863,0.398383378958503,-1.40838925616653,0.263791012856231,0.26379101285791,NaN,-2.01122040354764,-0.924648711790366,1.90837937825699,0.50703544995963,1.90837937825718,0.750337698547927,NaN,NaN,2.30589311334767,-0.451073601147861,NaN,NaN,-1.36783589517385,1.2197747214477,-1.9752537485462,-2.45613527773555,-2.20382274140343,0.92679399717527,-1.1907259102274,-1.19072591022582,-0.244492965727025,0.244492965727434,0.217732240123068,-0.140820093952746,0.353600099101565,0.442625831888489,NaN,-3.23712112020303,-0.181431420482179,0.124839540000582,0.310833520315251,0.310833520318222,1.20259322543181,0.155240462062731,1.10022349649185,1.30057883899212,-1.15837551033349,0.597322367006516,0.18631384446186,-0.1867071770002,-0.186707176997742,0.255217732590265,-0.255217732591069,0.932516773500696
457.9328,0.229403745335261,0.0478713271917283,0.396909066270545,-1.41981830960103,0.237580761578337,0.237580761580031,NaN,-2.01838469969112,-0.921105101326514,1.88193534703292,0.521985388918595,1.88193534703311,0.769144980863028,NaN,NaN,2.30968968052589,-0.465971933842595,NaN,NaN,-1.3925908744606,1.24442743801548,-1.992349430971,-2.47427003118163,-2.22181737515658,0.930257445062406,-1.22457444944997,-1.2245744494484,-0.253038306016492,0.253038306016897,0.204322881217803,-0.163127395901642,0.375472213524681,0.439960821777253,NaN,-3.28422705611591,-0.216264214636589,0.160581010175096,0.291885050755575,0.291885050758518,1.17136137121642,0.144703105980867,1.06970058127196,1.27839403276054,-1.14793926382858,0.579184053708017,0.169331939922082,-0.173572577922708,-0.173572577920258,0.219707883510474,-0.219707883511269,0.947437256884604
458.0352,0.212993523735409,0.0767314681470188,0.395632880752822,-1.4295427770624,0.211019174610688,0.211019174612411,NaN,-2.02334156925902,-0.916750397934619,1.85581256224419,0.537266228190982,1.85581256224439,0.786413843187755,NaN,NaN,2.31159095881786,-0.480848368189309,NaN,NaN,-1.41677047165367,1.26747919062071,-2.00790919264993,-2.49094507252433,-2.23825392526564,0.933164793775121,-1.25786415852378,-1.25786415852222,-0.261639733903752,0.261639733904153,0.190336157903159,-0.185710195669482,0.397019464408297,0.435994537794635,NaN,-3.32671245807055,-0.251046712169696,0.196743414562558,0.273256675601222,0.273256675604132,1.13918278640257,0.135426552428725,1.03872599087068,1.25484898627259,-1.13637032773872,0.560353805842314,0.151214479976002,-0.160567327271687,-0.160567327269248,0.183311533277245,-0.183311533278035,0.962368960888187
458.1376,0.196622353867431,0.105752668755969,0.394552693885579,-1.43759738478127,0.184147870491216,0.184147870492965,NaN,-2.02609663616975,-0.91160197257088,1.83007883871543,0.552864609191103,1.83007883871564,0.802128756006341,NaN,NaN,2.31167016975088,-0.495665918329905,NaN,NaN,-1.44037871772677,1.2889228249995,-2.0219050661454,-2.50612814155427,-2.25310205754188,0.935525040381133,-1.29055949316597,-1.29055949316442,-0.27027846146769,0.270278461468088,0.175794325177183,-0.20854494938614,0.418205632704349,0.430701793284307,NaN,-3.36455388751339,-0.285777621815676,0.233344435404612,0.25502765259731,0.255027652600188,1.10610077050424,0.12745242482693,1.00735013773398,1.22994017225214,-1.12365422287603,0.540839670684827,0.131972421434744,-0.147707823143319,-0.14770782314089,0.146130959948645,-0.146130959949435,0.97725271857882
458.24,0.180309490190292,0.134897793720387,0.393667253919868,-1.44402411450037,0.157007752624013,0.157007752625773,NaN,-2.02666242881173,-0.905678117323869,1.80479557173484,0.568766185725801,1.80479557173506,0.816279071082032,NaN,NaN,2.31000167128519,-0.510387830273068,NaN,NaN,-1.46342082780433,1.30875648130879,-2.03431456122115,-2.51979131143232,-2.26633669264238,0.937349101655628,-1.32262448444444,-1.3226244844429,-0.278934199864859,0.278934199865253,0.160722370473741,-0.23160620951683,0.438994775959053,0.424062197606606,NaN,-3.3977382299194,-0.320452859114041,0.270401284618024,0.237273275718125,0.237273275720963,1.0721614201692,0.120820033465809,0.9756251919237,1.20366596387243,-1.10977713604471,0.520651443749372,0.111618985006104,-0.135012512832412,-0.135012512829995,0.108270078370641,-0.108270078371422,0.992027589968758
458.3424,0.164075742761479,0.164127947848148,0.39297624974828,-1.44887165893833,0.12963885158676,0.129638851588543,NaN,-2.02505823831344,-0.89899794928652,1.78001782710261,0.584955476829173,1.78001782710284,0.828859096753897,NaN,NaN,2.3066605632198,-0.524977664932943,NaN,NaN,-1.48590325904531,1.32698346653517,-2.04512055976555,-2.53191099931701,-2.27793793766317,0.93864984620409,-1.35402286285674,-1.35402286285521,-0.287585433429855,0.287585433430246,0.145147823183438,-0.254866661215772,0.459351255359333,0.416060133466604,NaN,-3.42626270225677,-0.355065504292878,0.307930667564378,0.220064472045462,0.220064472048267,1.03741350447237,0.115566239225081,0.943604931009999,1.17602688645199,-1.09472615217585,0.499800777599186,0.0901697074838819,-0.122501700499073,-0.122501700496668,0.0698337164140474,-0.0698337164148321,1.0066312131544
458.4448,0.147943454716893,0.193402552877684,0.392480340414599,-1.45219486734941,0.102080185112798,0.10208018511459,NaN,-2.02130994733116,-0.891581313554129,1.75579447808324,0.601415730316371,1.75579447808347,0.839868162950241,NaN,NaN,2.30172232541856,-0.539399388030511,NaN,NaN,-1.50783376226646,1.3436121148328,-2.05431120427949,-2.54246797299758,-2.2878910119373,0.939442118788666,-1.38471820529522,-1.3847182052937,-0.296209689893491,0.296209689893879,0.12910055160692,-0.278297176032128,0.479239785148416,0.406684743585562,NaN,-3.45013485335607,-0.389605795897327,0.345948712503639,0.203467443467547,0.203467443470318,1.00190830843242,0.111725295538658,0.91134455560152,1.14702586080922,-1.07848948455126,0.478301282121735,0.0676425014355236,-0.110197332253644,-0.110197332251249,0.0309269195145363,-0.030926919515327,1.02100016348782
458.5472,0.131936429837038,0.222679467518463,0.392181143310242,-1.45405419273844,0.0743696410448524,0.0743696410466541,NaN,-2.01544982740157,-0.883448677596295,1.73216838866476,0.618128806283082,1.73216838866501,0.84931066837935,NaN,NaN,2.29526248562104,-0.553617473178469,NaN,NaN,-1.52922142209621,1.35865563612762,-2.06187978617096,-2.55144735511388,-2.29618617186638,0.939742753504024,-1.41467408838699,-1.41467408838549,-0.304783808365299,0.304783808365684,0.112612554957594,-0.301866889580484,0.49862550721878,0.395929918091408,NaN,-3.46937255014314,-0.424061144032022,0.384470859519414,0.187543370548313,0.187543370551047,0.965699437564447,0.109328669624532,0.878900464522113,1.11666843779503,-1.06105669899553,0.456168619195104,0.044057713485814,-0.0981227582730203,-0.0981227582706375,-0.00834570389944913,0.00834570389866125,1.03507032508899
458.6496,0.116079811422575,0.251915148100353,0.392081180769545,-1.45451514295056,0.0465438838933759,0.0465438838951853,NaN,-2.00751630372432,-0.874621016193248,1.70917664397543,0.63507508537149,1.70917664397568,0.85719611473723,NaN,NaN,2.2873563185165,-0.567597020776433,NaN,NaN,-1.55007667808595,1.37213195741898,-2.06782463537424,-2.55883862270915,-2.30281863504767,0.93957057020638,-1.44385425070213,-1.44385425070063,-0.313284212740905,0.313284212741287,0.0957177483714803,-0.325543310725902,0.517474094098496,0.383794272801271,NaN,-3.48400395662315,-0.458416160676197,0.423511708577097,0.172348186500025,0.172348186502718,0.928842587806001,0.108404844920427,0.846329994015479,1.08496303580581,-1.04241894510368,0.433420594987606,0.0194381702026756,-0.0863024665904554,-0.0863024665880832,-0.0478805929801335,0.0478805929793454,1.04877728083948
458.752,0.100399913172147,0.281064853385099,0.392183789125653,-1.45364773357179,0.0186382817822706,0.0186382817840918,NaN,-1.99755368757919,-0.865119688720345,1.68685082847505,0.652233406267654,1.6868508284753,0.863539134990599,NaN,NaN,2.27807858310091,-0.581303888773432,NaN,NaN,-1.57041131838763,1.38406356286206,-2.07214900927748,-2.56463559881682,-2.30778850117383,0.938946349005477,-1.47222277624606,-1.47222277624458,-0.321687192130978,0.321687192131359,0.0784517339180415,-0.349292464720732,0.53575188051719,0.370281113407836,NaN,-3.49406751840602,-0.492652715387176,0.463084828252608,0.157932425088972,0.157932425091623,0.891395291648727,0.108979104579153,0.813691130425447,1.05192119162912,-1.02256920749083,0.410077251433887,-0.00619079478234637,-0.0747617833326106,-0.0747617833302502,-0.0875758019039443,0.0875758019031495,1.06205672373411
458.8544,0.0849239996203994,0.31008289878019,0.392492990831291,-1.45152593865966,-0.00931315026555629,-0.00931315026372147,NaN,-1.98561187862705,-0.854966313266616,1.66521734824536,0.669581036789105,1.66521734824563,0.868359514312608,NaN,NaN,2.26750330191561,-0.594704827589205,NaN,NaN,-1.59023843923888,1.39447733153249,-2.07486098000753,-2.5688364351024,-2.31110066871423,0.937892777654876,-1.49974430309193,-1.49974430309046,-0.329969184022385,0.329969184022764,0.060851555118836,-0.373079061470363,0.553426015528088,0.355398387960471,NaN,-3.49961195537982,-0.526750025172238,0.503202527331108,0.144341149335402,0.144341149338014,0.853416651667492,0.111073295889203,0.78104220611763,1.01755782547517,-1.00150257822377,0.386160956938275,-0.0328013317245611,-0.0635265407362708,-0.0635265407339209,-0.127331525833133,0.127331525832332,1.07484488869933
458.9568,0.0696800152780408,0.338922959394446,0.393013327839083,-1.44822713937033,-0.0372777929723162,-0.0372777929704713,NaN,-1.97174604299578,-0.844182645564498,1.64429778751716,0.687093680413234,1.64429778751744,0.871682196203203,NaN,NaN,2.25570357928255,-0.607767611652084,NaN,NaN,-1.60957236512563,1.40340436167481,-2.07597332355249,-2.57144358631566,-2.31276475002659,0.936434366338417,-1.5263842489761,-1.52638424897464,-0.338107054825701,0.338107054826079,0.0429554405745303,-0.396866672466371,0.570464621203194,0.339158634206859,NaN,-3.5006962559458,-0.560684781739931,0.543875593184308,0.13161396384036,0.13161396384293,0.814967071747913,0.114705573387386,0.748441586998818,0.981891516111917,-0.979216543383597,0.361696497342384,-0.0603630799302365,-0.052622721816752,-0.0526227218144147,-0.16705058539402,0.167050585393206,1.08707899647967
459.0592,0.0546962759285382,0.367538407494687,0.393749665033129,-1.44383157998327,-0.0652244523350128,-0.065224452333149,NaN,-1.95601627563956,-0.832790469153885,1.62410928901676,0.704745517783003,1.62410928901704,0.873537268400255,NaN,NaN,2.24275145454281,-0.62046116227043,NaN,NaN,-1.62842852604512,1.41087976757842,-2.07550341730578,-2.57246377622535,-2.31279498930182,0.934597325168647,-1.55210904622657,-1.55210904622513,-0.346078368664395,0.346078368664771,0.0248025454415785,-0.420617904629249,0.586836947560098,0.321578925730151,NaN,-3.49738966802654,-0.594431312762136,0.585113002573061,0.119785099442506,0.119785099445031,0.776107992593504,0.119890112085056,0.715947354829673,0.944944782650862,-0.95571127515985,0.336711170281518,-0.0888431851212142,-0.0420760944026328,-0.0420760944003057,-0.206638867307156,0.206638867306333,1.09869769058759
459.1616,0.0400011474494402,0.395882660374283,0.394706983007696,-1.43842184661306,-0.0931233774822128,-0.0931233774803225,NaN,-1.93848725294062,-0.820811498401222,1.60466495252664,0.722509280939582,1.60466495252693,0.873959925272698,NaN,NaN,2.22871778580166,-0.632755662447133,NaN,NaN,-1.64682329362079,1.41694243939248,-2.07347315103073,-2.57190795218551,-2.31121018578602,0.932409403459826,-1.57688638453716,-1.57688638453573,-0.353861631030397,0.353861631030772,0.00643269717688422,-0.444294568198862,0.602513521628403,0.302680818745515,NaN,-3.48977168221643,-0.627961767340062,0.626921613619027,0.108883552118619,0.108883552121104,0.736901627881007,0.126636782047254,0.6836169785235,0.906744365538958,-0.930989917448869,0.311234884112282,-0.118206329258439,-0.0319118518750331,-0.0319118518727153,-0.246005717861037,0.246005717860205,1.10964144564506
459.264,0.0256227303308019,0.423909520049151,0.395890172840063,-1.43208237918518,-0.120946265546508,-0.120946265544596,NaN,-1.91922787508565,-0.808267293211205,1.585974251916,0.740356355071629,1.5859742519163,0.872990402129209,NaN,NaN,2.2136721563223,-0.644622671758504,NaN,NaN,-1.66477378641039,1.42163476330709,-2.0699088479319,-2.56979122234441,-2.30803361793671,0.929899696127583,-1.60068545750259,-1.60068545750117,-0.361436498972726,0.361436498973099,-0.0121138496093313,-0.467857837057521,0.617466291475591,0.282490304872639,NaN,-3.47793199487177,-0.661246312242455,0.669305855661106,0.0989332673845915,0.0989332673870383,0.697410688030608,0.134950788864963,0.651506964372037,0.867321491192403,-0.905058849821404,0.28530025534827,-0.148414772198059,-0.0221542844191966,-0.0221542844168883,-0.285064287629486,0.285064287628655,1.1198529364862
459.3664,0.0115885529258345,0.451573498089509,0.397303831956427,-1.42489901698123,-0.148666245354672,-0.148666245352716,NaN,-1.89831089296189,-0.795179182852974,1.56804347376202,0.758256900518263,1.56804347376232,0.870673877562882,NaN,NaN,2.19768279583619,-0.656035248821342,NaN,NaN,-1.68229766022192,1.42500230860044,-2.06484118072507,-2.56613276702492,-2.30329295522161,0.927098428302973,-1.62347720179174,-1.62347720179034,-0.368783960395354,0.368783960395726,-0.0307966422112471,-0.491268396019192,0.631668763594982,0.261037778557815,NaN,-3.46197043065404,-0.694253327807655,0.712267441669406,0.0899533719749024,0.0899533719773086,0.657698080577883,0.144832300778939,0.619672481769612,0.826712103996153,-0.877927920539024,0.258942692715046,-0.179428401867772,-0.0128265032677695,-0.012826503265473,-0.32373182927047,0.32373182926962,1.12927737161923
459.4688,-0.00207472924815796,0.478830124249147,0.398952055796658,-1.4169585713357,-0.176257830568369,-0.176257830566374,NaN,-1.87581251257852,-0.781568194274666,1.55087617581004,0.776179990437113,1.55087617581034,0.867060340921824,NaN,NaN,2.18081651219834,-0.666968078614195,NaN,NaN,-1.69941289634007,1.42709349335856,-2.05830506180399,-2.56095571694446,-2.29702014068841,0.924036731453049,-1.64523451637506,-1.64523451637367,-0.375886490833877,0.375886490834248,-0.0495752344805115,-0.514486568837681,0.645096129675491,0.238358024464627,NaN,-3.44199679970519,-0.726949598681444,0.755805124986559,0.0819584548844674,0.0819584548868262,0.617826585816894,0.156276088316054,0.588166971019904,0.784957054736565,-0.849610646875057,0.232200455987959,-0.211204788822127,-0.00395022806672125,-0.00395022806443757,-0.361929952317577,0.361929952316713,1.13786279910128
459.5712,-0.0153416288259367,0.505636236976699,0.400838222631332,-1.40834841784411,-0.203696842446587,-0.203696842444554,NaN,-1.85181197148352,-0.767454979240962,1.53447365279272,0.794093766769762,1.53447365279303,0.862204418491807,NaN,NaN,2.16313862778498,-0.677397592976632,NaN,NaN,-1.71613759031823,1.42795923662725,-2.050339493148,-2.55428699743763,-2.28925123416787,0.920746420710375,-1.66593245113371,-1.66593245113234,-0.38272819465397,0.38272819465434,-0.0684093630191045,-0.537472423313779,0.657725376609583,0.21449021973543,NaN,-3.41813066949875,-0.759300499904908,0.799914509179706,0.0749588990401875,0.0749588990425012,0.577858513378006,0.169271197628557,0.557041744538095,0.742102235256893,-0.820124378820827,0.205114680511169,-0.243699242273406,0.00445436507766418,0.00445436507993665,-0.399584838299116,0.39958483829825,1.14556038706527
459.6736,-0.0281881145725898,0.531950252919819,0.402964772144264,-1.39915610152361,-0.230960313926493,-0.230960313924427,NaN,-1.82639108851378,-0.752859737488931,1.5188353901366,0.811965622566074,1.51883539013692,0.856165148231192,NaN,NaN,2.14471291140819,-0.68730207207616,NaN,NaN,-1.73248973430536,1.42765259541367,-2.04098737588797,-2.54615714670187,-2.28002621882616,0.917259774874278,-1.68554835666452,-1.68554835666316,-0.3892949316525,0.389294931652869,-0.0872590982259375,-0.560185853295647,0.669535372783861,0.189477936750754,NaN,-3.39050104618383,-0.791270180900179,0.844587908553379,0.0689612684743092,0.0689612684765782,0.537855349571611,0.183800674162144,0.526345595044867,0.698198648661152,-0.789490415503546,0.177729363489851,-0.276864864745527,0.0123687409332059,0.0123687409354672,-0.43662741753267,0.436627417531803,1.15232467358565
459.776,-0.040591885776246,0.557732409866038,0.405332982828254,-1.38946894961209,-0.258026391177099,-0.25802639117499,NaN,-1.79963379616136,-0.737802138834764,1.50395948812189,0.829762415919728,1.50395948812221,0.849005694839756,NaN,NaN,2.12560149793338,-0.696661720330622,NaN,NaN,-1.7484869847401,1.42622837954906,-2.03029529090731,-2.5366001210883,-2.26938878337058,0.913609314281324,-1.70406199239987,-1.70406199239852,-0.39557442086639,0.395574420866756,-0.106084977006174,-0.582586642659725,0.680506929156759,0.163369131957561,NaN,-3.35924597240136,-0.822821749889919,0.889814252551984,0.0639687539185559,0.0639687539207838,0.497877410466982,0.199841351706154,0.496124428379381,0.65330241140893,-0.757734063482263,0.150091316835711,-0.310652601129213,0.0197760527532356,0.0197760527554861,-0.472993506960581,0.472993506959705,1.15811377759808
459.8784,-0.052532622742286,0.582944974612905,0.407942757084227,-1.37937368785439,-0.284874245857436,-0.284874245855287,NaN,-1.7716256649518,-0.722301250271709,1.48984304512161,0.847450713111446,1.48984304512194,0.840793002893678,NaN,NaN,2.10586479464167,-0.70545871849762,NaN,NaN,-1.76414641397401,1.42374273991196,-2.01831326510072,-2.5256530997575,-2.25738609419751,0.909827572026972,-1.7214555972148,-1.72145559721347,-0.401556306774235,0.4015563067746,-0.124848120941115,-0.604634521875129,0.690622841892413,0.136216111767596,NaN,-3.32451204841803,-0.853917462304963,0.93557902677193,0.0599816693161709,0.0599816693183539,0.457983518815291,0.217363719988799,0.4664209407429,0.60747469136459,-0.724884633683279,0.122250094279507,-0.345011278391935,0.026661146040662,0.0266611460429024,-0.508623907980105,0.508623907979227,1.16288956422256
459.9808,-0.0639922076956286,0.607552412972344,0.410792420528847,-1.36895605861219,-0.311484004429628,-0.311484004427434,NaN,-1.74245342157461,-0.706375472313906,1.47648249198779,0.864997055587956,1.47648249198812,0.831597391062421,NaN,NaN,2.08556137894591,-0.713677262070462,NaN,NaN,-1.7794842511921,1.42025273064825,-2.00509453525265,-2.51335629791877,-2.244068568874,0.905946857522717,-1.7377139325868,-1.73771393258549,-0.407232174829808,0.407232174830172,-0.14351033972229,-0.626289228827019,0.699867925151371,0.108075468061952,NaN,-3.28645387527704,-0.8845189204305,0.981864246083895,0.0569979851797714,0.0569979851819147,0.41823072127622,0.236331880897658,0.4372743578155,0.560781584544332,-0.69097538156859,0.0942578921772433,-0.379887635649599,0.0330105260446345,0.0330105260468648,-0.543464465576024,0.543464465575143,1.16661776228541
460.0832,-0.0749549219187177,0.631521532282349,0.41387853516178,-1.35830044429736,-0.337836694995016,-0.337836694992771,NaN,-1.71220445861895,-0.690042486995488,1.46387386908044,0.882368247880317,1.46387386908078,0.821492095262704,NaN,NaN,2.064747892637,-0.721303600424075,NaN,NaN,-1.79451561977905,1.41581584863865,-1.99069531767817,-2.49975279343073,-2.22948965818991,0.901999013279451,-1.75282431051231,-1.75282431051101,-0.412595509172208,0.412595509172571,-0.162034220868866,-0.647510584200389,0.708229039485456,0.0790079721517025,NaN,-3.24523341332593,-0.914587294095999,1.02864845999774,0.0550138861496963,0.0550138861517897,0.378674058957751,0.256703599818639,0.408720249090643,0.513293929340101,-0.656043397214418,0.0661694168286416,-0.415226349108052,0.0388122982591847,0.0388122982614066,-0.577466093264164,0.577466093263281,1.16926803698536
460.1856,-0.0854076296470418,0.654821611859862,0.417195722995327,-1.34748950510847,-0.36391421278769,-0.363914212785389,NaN,-1.68096634273614,-0.673319220727728,1.45201303475989,0.899531663833124,1.45201303476024,0.81055277548653,NaN,NaN,2.04347893569832,-0.728326085508769,NaN,NaN,-1.80925427728989,1.41048955637359,-1.975174589867,-2.48488836557206,-2.21370564065007,0.898015166195676,-1.7667766148068,-1.76677661480552,-0.417641588844115,0.417641588844478,-0.180383210866244,-0.668258591624697,0.715695121096094,0.0490784158669893,NaN,-3.20101925565048,-0.94408356685821,1.07590679003493,0.0540243371017214,0.0540243371037722,0.339366399707633,0.278430453231663,0.380790425162524,0.465087062316855,-0.620129453119088,0.0380417166330763,-0.450970060803274,0.0440560949643917,0.0440560949666081,-0.610584768177553,0.610584768176662,1.17081402245429
460.288,-0.0953399531245456,0.677424528707373,0.420736499443097,-1.33660384206694,-0.389699310917041,-0.38969931091468,NaN,-1.64882634206547,-0.656221824441718,1.44089579463549,0.916455566042521,1.44089579463585,0.798857003770859,NaN,NaN,2.02180695934853,-0.734735226224896,NaN,NaN,-1.8237123644987,1.40433079716162,-1.9585938903206,-2.46881134101235,-2.19677543193467,0.894025475334879,-1.7795633180311,-1.77956331802983,-0.422367319394214,0.422367319394576,-0.198521692318229,-0.688493570519125,0.722257218890374,0.0183553970127228,NaN,-3.15398582975524,-0.972968801008833,1.12361099367719,0.0540236327824677,0.0540236327844743,0.300358330523136,0.3014580671342,0.353512914907977,0.416240530615857,-0.583277823867771,0.00993398535740606,-0.487059422089688,0.0487330005692517,0.0487330005714623,-0.642781496323045,0.642781496322151,1.171233315312
460.3904,-0.104744436243805,0.699304876421421,0.424491118748444,-1.32572169337537,-0.415175624536066,-0.415175624533642,NaN,-1.61587099618402,-0.638765669322161,1.43051795055759,0.933109434137378,1.43051795055796,0.786483741498935,NaN,NaN,1.99978215388237,-0.740523737591079,NaN,NaN,-1.83790017121108,1.39739550866491,-1.94101714063582,-2.451572442652,-2.17876041061179,0.890058880327364,-1.79117949020217,-1.79117949020091,-0.426770996881819,0.426770996882181,-0.216415054285611,-0.708176321651339,0.727908542559675,-0.0130889439629982,NaN,-3.10431254687012,-1.00120440867375,1.17172954826339,0.0550059048520061,0.0550059048539764,0.261698093380068,0.325726435467096,0.326912004687291,0.366837778720887,-0.545536096965492,-0.018092658309989,-0.523433160323961,0.0528354785275814,0.0528354785297858,-0.674022243424472,0.674022243423579,1.17050742429107
460.4928,-0.113616689558587,0.720440069179671,0.428447435844301,-1.31491866321994,-0.440327730136347,-0.440327730133865,NaN,-1.58218573993934,-0.620965353177966,1.42087528404036,0.949464298831009,1.42087528404073,0.773512805187313,NaN,NaN,1.97745232896625,-0.745686576558089,NaN,NaN,-1.85182592650328,1.3897381399841,-1.9225104857723,-2.43322463796215,-2.15972425615069,0.886142859097298,-1.80162279077242,-1.80162279077117,-0.430852006340725,0.430852006341086,-0.234029745652981,-0.727268315601521,0.732644516176929,-0.0451792261482579,NaN,-3.05218291109137,-1.02875241822004,1.22022775214197,0.0569655677744833,0.0569655677764118,0.223431538043552,0.3511703040993,0.301008312071129,0.316965820498396,-0.506954990678643,-0.0459754151280551,-0.560028171551761,0.0563572912273657,0.0563572912295672,-0.704277824806746,0.704277824805858,1.16862166801134
460.5952,-0.121955500870212,0.74081041429705,0.432590795343095,-1.30426747076554,-0.465141230756033,-0.465141230753497,NaN,-1.54785457896547,-0.602834712639526,1.41196349843874,0.96549307429879,1.41196349843912,0.760024327956754,NaN,NaN,1.95486279604181,-0.750220959102098,NaN,NaN,-1.86549562020116,1.3814111888859,-1.90314213897565,-2.41382298221374,-2.13973278836258,0.882303207693105,-1.81089343749341,-1.81089343749218,-0.434610470783066,0.434610470783426,-0.251333302527405,-0.745731889406647,0.736462826483441,-0.0778371597424812,NaN,-2.99778359226768,-1.05557572881936,1.26906784289218,0.0598976877749329,0.0598976877768207,0.185602069804744,0.377719605505506,0.275818870313441,0.266714901077666,-0.467588185987706,-0.0736500740863564,-0.596779637903458,0.0592934016387101,0.0592934016409065,-0.733523749475088,0.733523749474207,1.16556501561514
460.6976,-0.12976288792502,0.760399131224162,0.436903965554278,-1.29383770367412,-0.489602849502428,-0.489602849499827,NaN,-1.5129598072529,-0.584386838246828,1.40377814234498,0.981170875240922,1.40377814234538,0.74609823781699,NaN,NaN,1.93205627226752,-0.754126350924004,NaN,NaN,-1.8789128607144,1.37246478566791,-1.88298221586857,-2.3934244514462,-2.11885379586472,0.878563854358322,-1.81899415532014,-1.81899415531892,-0.438046884215257,0.438046884215615,-0.268294349235132,-0.763530438598727,0.739363457130473,-0.110981897394854,NaN,-2.94130346734618,-1.08163834899814,1.31820913156929,0.0637982588039475,0.063798258805793,0.148250585098174,0.405299931626815,0.251357213648276,0.216178152032688,-0.427492171886291,-0.101051300731743,-0.633621168024372,0.0616398523324741,0.0616398523346663,-0.761740018842246,0.761740018841364,1.16132987069943
460.8,-0.137044077227817,0.779192302449075,0.441367130188946,-1.28369556848502,-0.513700514248689,-0.513700514246033,NaN,-1.47758175219126,-0.565634091483447,1.39631452954041,0.996475302274082,1.39631452954082,0.731813774466726,NaN,NaN,1.90907282146644,-0.75740442250413,NaN,NaN,-1.89207876965027,1.36294634224975,-1.86210254658722,-2.37208776028094,-2.09715684424652,0.874946717193226,-1.82593011410989,-1.82593011410868,-0.441161770906376,0.441161770906732,-0.284882578940782,-0.780628597435126,0.741348705722369,-0.144530396114402,NaN,-2.88293264222488,-1.10690561922006,1.36760814931186,0.0686643786899212,0.0686643786917252,0.111415404415659,0.433833031381073,0.227633467604965,0.165451243579203,-0.386726095561981,-0.128112933295292,-0.67048496089437,0.0633936304976759,0.0633936304998642,-0.788910885749047,0.788910885748173,1.15591180377638
460.9024,-0.14380741312895,0.797178758358239,0.445957933013424,-1.27390364061745,-0.537423425275126,-0.537423425272415,NaN,-1.44179852861116,-0.546588124497856,1.38956766476688,1.0113866801918,1.3895676647673,0.717249058007622,NaN,NaN,1.88594983623371,-0.760058961764698,NaN,NaN,-1.90499190752317,1.35290026908417,-1.84057645858513,-2.34987315836958,-2.0747130567305,0.871471613370712,-1.831708859753,-1.8317088597518,-0.443955405444306,0.44395540544466,-0.301068718895426,-0.796992407338895,0.742423186027801,-0.178397784746398,NaN,-2.82286147204739,-1.13134442254597,1.41721880106146,0.074494335306142,0.0744943353079006,0.0751322227937391,0.463237315482157,0.204654456911446,0.114632033094125,-0.345351599286631,-0.154768271968719,-0.707301997342576,0.064552539366027,0.0645525393682115,-0.815024580197437,0.815024580196581,1.14930923998434
461.0048,-0.150064215489499,0.814349910630782,0.45065155923124,-1.26452062381656,-0.560762107336979,-0.560762107334207,NaN,-1.40568578531027,-0.527259903222967,1.38353218030276,1.02588823978219,1.38353218030319,0.702480718846957,NaN,NaN,1.86272205980689,-0.762095740529,NaN,NaN,-1.91764822312459,1.34236775673776,-1.81847852671421,-2.3268421995053,-2.05159486293826,0.868156225398037,-1.83634023863616,-1.83634023863498,-0.446427606495294,0.446427606495646,-0.316824481367897,-0.812589481600636,0.742593822994566,-0.212497738529128,NaN,-2.76127959619478,-1.15492338820357,1.46699252450882,0.0812876187160563,0.081287618717773,0.0394340983047433,0.493428353759196,0.182423844448316,0.0638202021587673,-0.303432621497665,-0.18095035163362,-0.744002269218301,0.0651150967033683,0.0651150967055488,-0.840073005359878,0.840073005359036,1.14152310527699
461.1072,-0.155828602639775,0.830699550921917,0.455420841676473,-1.25560113279545,-0.583708450977404,-0.583708450974586,NaN,-1.36931643651528,-0.507659732146075,1.37820228582253,1.03996624285621,1.37820228582297,0.687583598495674,NaN,NaN,1.83942165004583,-0.763522332176669,NaN,NaN,-1.93004102285253,1.33138662382852,-1.79588429491672,-2.30305748314403,-2.02787571864728,0.865016124087829,-1.83983631727902,-1.83983631727785,-0.448577596415185,0.448577596415536,-0.332122501403248,-0.82738917808248,0.741869851111377,-0.246742864197456,NaN,-2.6983749984738,-1.17761309037241,1.51687845651938,0.0890448646442047,0.0890448646458767,0.00435148975466192,0.524319356866403,0.160942308639579,0.013116875266079,-0.261035149373423,-0.206592195577355,-0.780515056476326,0.0650804708703742,0.0650804708725529,-0.864051405105468,0.864051405104637,1.13255642941796
461.2096,-0.16111728405576,0.846223624482717,0.46023639304136,-1.24719551021003,-0.606255743328274,-0.606255743325392,NaN,-1.33276038305214,-0.487797277474498,1.37357173433112,1.05361005381185,1.37357173433157,0.672630528309754,NaN,NaN,1.81607829243312,-0.764347879844371,NaN,NaN,-1.94216096157922,1.31999123611756,-1.77286998123933,-2.27858237637085,-2.00362980734874,0.862064839423237,-1.84221130168382,-1.84221130168266,-0.450403915020883,0.450403915021234,-0.346936267304363,-0.841362785056099,0.740262822610459,-0.281045093129542,NaN,-2.63433310536318,-1.19938624058735,1.56682360518933,0.09776772576892,0.097767725770548,-0.0300876558304575,0.555821635630063,0.140207757765856,-0.0373757752758766,-0.218226927992214,-0.231627049011849,-0.816769248496192,0.0644484570834,0.0644484570855761,-0.886958006673094,0.886958006672272,1.12241390847552
461.312,-0.165949315798491,0.860919978095314,0.465066774431125,-1.23934967969816,-0.628398682531147,-0.628398682528214,NaN,-1.29608423811639,-0.467681587547011,1.3696338075563,1.0668121597644,1.36963380755676,0.657692183367882,NaN,NaN,1.79271936366945,-0.764582819254386,NaN,NaN,-1.95399606051201,1.30821249644447,-1.74951217742808,-2.25348072781999,-1.97893173530718,0.859313963090814,-1.84348145694548,-1.84348145694434,-0.45190438484201,0.451904384842359,-0.36124005268523,-0.854483712153114,0.737786622417786,-0.315316071405827,NaN,-2.56933594519758,-1.22021786924144,1.6167730180273,0.107458673846217,0.1074586738478,-0.0638577741491417,0.587845029874306,0.120215571553217,-0.0875549254329318,-0.175077142544571,-0.255988590825137,-0.852693687777594,0.0632194939161464,0.0632194939183197,-0.908793649848085,0.90879364984728,1.11110144415572
461.4144,-0.170345813723375,0.874788079701491,0.469878705807262,-1.23210502841598,-0.650133370679132,-0.650133370676137,NaN,-1.25935107453762,-0.447321111875379,1.36638131968745,1.07956814221591,1.36638131968792,0.64283699669377,NaN,NaN,1.76937013281954,-0.764238566634866,NaN,NaN,-1.96553175783653,1.29607789627998,-1.72588754434422,-2.22781657952014,-1.95385622303629,0.856773265896964,-1.84366501934089,-1.84366501933976,-0.453076127974897,0.453076127975244,-0.375008854840111,-0.866727668968954,0.734457479082694,-0.349467531157685,NaN,-2.50356139122342,-1.24008549133379,1.66666993901136,0.118120747655173,0.118120747656706,-0.0969355291731477,0.620298302372242,0.100958854562402,-0.137317490062124,-0.131656088146058,-0.279611128091739,-0.888217512340941,0.0613947143962906,0.0613947143984592,-0.929561419520063,0.92956141951928,1.09862568770885
461.5168,-0.174329632837327,0.887828717017998,0.474637311418384,-1.22549831056105,-0.67145728554183,-0.671457285538771,NaN,-1.22262020546889,-0.426723720149507,1.36380662949546,1.09187660602243,1.36380662949593,0.628131113860459,NaN,NaN,1.7460539761856,-0.763327186267791,NaN,NaN,-1.9767509951417,1.28361161550777,-1.70207249299953,-2.20165387439842,-1.92847778540983,0.854450817625486,-1.84278208819552,-1.8427820881944,-0.453915629780899,0.453915629781244,-0.388218337767086,-0.878072812024951,0.730293958144784,-0.383411629438826,NaN,-2.43718249617993,-1.25896925440106,1.7164559570334,0.129757268896348,0.129757268897832,-0.129299649378059,0.653089502678108,0.0824286887162811,-0.186560514739347,-0.0880348293291811,-0.302429783257743,-0.923270484478253,0.0589760220313601,0.0589760220335227,-0.949266293823664,0.9492662938229,1.08499361511433
461.6192,-0.177925027524957,0.9000436903711,0.479306390122462,-1.21956156667229,-0.692369232618291,-0.692369232615178,NaN,-1.18594700426207,-0.40589672055467,1.36190164536255,1.10373906990276,1.36190164536302,0.613638371220314,NaN,NaN,1.72279258507772,-0.761861049765577,NaN,NaN,-1.98763434011276,1.27083466077569,-1.67814283894118,-2.17505615609761,-1.90287039083428,0.852353099923854,-1.84085448831495,-1.84085448831385,-0.454418846211412,0.454418846211754,-0.400844776642402,-0.888499845058113,0.725316926092485,-0.417061246659461,NaN,-2.37036691206468,-1.2768520719953,1.76607115175235,0.142371548850902,0.142371548852334,-0.160930758072779,0.68612631257425,0.0646143854880944,-0.235181578840272,-0.0442848391693174,-0.324380677674895,-0.957783299125998,0.0559661909270661,0.0559661909292233,-0.967914809033693,0.96791480903295,1.0702121538304
461.7216,-0.181157300642317,0.91143551053321,0.483848707220314,-1.21432205853068,-0.712869276299298,-0.712869276296139,NaN,-1.14938276484412,-0.384846875270635,1.36065781149628,1.1151598185113,1.36065781149675,0.599420286956385,NaN,NaN,1.69960615785335,-0.759852493664494,NaN,NaN,-1.99816014305161,1.25776503849693,-1.65417342547895,-2.14808626252286,-1.87710709688118,0.850485106776537,-1.83790560301869,-1.8379056030176,-0.454581355120545,0.454581355120883,-0.412865001987671,-0.897992066875619,0.719549479686349,-0.450330242991626,NaN,-2.30327638759077,-1.29371974893093,1.81545423956672,0.155966599465093,0.155966599466474,-0.19181119125837,0.719316381962884,0.0475037461528191,-0.283079209520184,-0.000477610512046904,-0.345401104629004,-0.991687863989112,0.0523689984370059,0.0523689984391568,-0.985514735491418,0.985514735490696,1.05428787249562
461.824,-0.18405244620724,0.922007106003682,0.488226304178129,-1.20980222308349,-0.73295864944424,-0.732958649441051,NaN,-1.11297460487001,-0.363580415323568,1.36006607463262,1.12614571789473,1.36006607463309,0.585536059079517,NaN,NaN,1.6765135782485,-0.757313482247307,NaN,NaN,-2.00830471907672,1.24441795892092,-1.63023772219769,-2.12080601825066,-1.85125966857261,0.848850433523084,-1.83396018667977,-1.83396018667869,-0.454398541873972,0.454398541874307,-0.424256344079282,-0.906535371783118,0.713016843594148,-0.483133677531561,NaN,-2.23606634213409,-1.30956109928532,1.86454271931096,0.170544848028584,0.170544848029919,-0.221924801083566,0.752567654163714,0.0310833314836905,-0.330153290259025,0.0433157490906197,-0.365429681853835,-1.02491754574789,0.0481893915254786,0.0481893915276211,-1.00207476113411,1.00207476113341,1.03722673507535
461.9264,-0.186636799223856,0.931761545984451,0.492400810439354,-1.20601965185075,-0.752639646391983,-0.75263964638876,NaN,-1.07676541890385,-0.342103066320697,1.36011683975115,1.13670600421721,1.36011683975162,0.572042568350175,NaN,NaN,1.65353258565913,-0.754255287615276,NaN,NaN,-2.01804254382821,1.23080606357574,-1.60640741461529,-2.09327593265253,-1.82539819256767,0.847451356984865,-1.82904417099785,-1.82904417099678,-0.453865794478909,0.453865794479241,-0.434996583198515,-0.914118213463119,0.705746243242871,-0.515387999531699,NaN,-2.16888552074023,-1.32436805020809,1.91327301505801,0.186107850541302,0.18610785054259,-0.251256749039235,0.785788674488152,0.0153387354276591,-0.376305436770929,0.0870249091114871,-0.384406475639819,-1.05740738344969,0.0434336758499209,0.043433675852056,-1.01760418710954,1.01760418710887,1.01903391511037
462.0288,-0.188936711078591,0.940701786882468,0.496333735235989,-1.20298710485014,-0.771915509271142,-0.771915509267891,NaN,-1.04079388707336,-0.320420098361035,1.36079992418136,1.14685205987252,1.36079992418184,0.558994387962024,NaN,NaN,1.63067994153084,-0.750688199411747,NaN,NaN,-2.02734645297739,1.21693966777682,-1.58275200400169,-2.06555491115176,-1.79959070285809,0.846288903619738,-1.82318447702308,-1.82318447702202,-0.452978684686945,0.452978684687274,-0.445063914268723,-0.920731541104343,0.697766758844251,-0.547011218450922,NaN,-2.10187573563272,-1.33813572260733,1.96158061377582,0.202656009319641,0.202656009320885,-0.279793288936364,0.818888879643247,0.000254861987415016,-0.421439316646013,0.130580665185891,-0.402273092686633,-1.08909427681448,0.0381097160740742,0.0381097160762007,-1.03211264541684,1.03211264541619,0.999713662249462
462.1312,-0.190978256616457,0.948830443740728,0.499986731077954,-1.20071256325825,-0.790790316651987,-0.790790316648721,NaN,-1.00509453348929,-0.29853640134916,1.36210451560146,1.15659718697507,1.36210451560193,0.546443805362964,NaN,NaN,1.60797159478628,-0.746621270846473,NaN,NaN,-2.03618784124687,1.2028270145426,-1.55933843263332,-2.03769998678348,-1.77390283092876,0.845362897586238,-1.8164088345945,-1.81640883459345,-0.451733125927149,0.451733125927475,-0.454436930211646,-0.926368712779422,0.689109166451786,-0.5779230513777,NaN,-2.03517169370188,-1.35086248195488,2.00940019885058,0.22018830967379,0.220188309674992,-0.307521535348331,0.851778870558179,-0.0141837901285162,-0.465460905103733,0.173915231989492,-0.418972742065159,-1.1199171591199,0.032227140001241,0.032227140003359,-1.04560984778378,1.04560984778316,0.979269205925369
462.2336,-0.192786963926554,0.956149582819726,0.503321839696457,-1.19919931184435,-0.809268879062279,-0.809268879058997,NaN,-0.969697818905009,-0.2764565722795,1.36401913548063,1.1659563811966,1.3640191354811,0.53444086050282,NaN,NaN,1.58542284770152,-0.742062101359372,NaN,NaN,-2.0445368604444,1.18847453706303,-1.53623074565491,-2.00976607927956,-1.74839749054265,0.844671984109714,-1.80874560423288,-1.80874560423185,-0.450125509058848,0.450125509059172,-0.463094622766057,-0.931025393543981,0.679805776471337,-0.608045042121518,NaN,-1.96890090108186,-1.36254995510885,2.05666577930683,0.238702085247936,0.238702085249092,-0.334429219682041,0.884370671114303,-0.0279928362406776,-0.50827868421313,0.216962483329435,-0.4344502732913,-1.14981715970428,0.0257975356860605,0.0257975356881673,-1.05810537169548,1.0581053716949,0.957702675003358
462.336,-0.1943875593169,0.962660536935159,0.50630173348275,-1.19844603426955,-0.827356642367352,-0.827356642364057,NaN,-0.934630251450553,-0.254184997993453,1.36653160381516,1.17494610379686,1.36653160381564,0.52303339651281,NaN,NaN,1.56304851709106,-0.737016651442058,NaN,NaN,-2.05236261931476,1.17388711989739,-1.51348979780773,-1.98180578729712,-1.72313460475743,0.844213634974093,-1.80022360315698,-1.80022360315595,-0.448152822328086,0.448152822328408,-0.471016400052276,-0.934699451986048,0.669890284547729,-0.637300650497648,NaN,-1.90318363178781,-1.37320301490384,2.1033108079987,0.258192806439607,0.258192806440726,-0.360504449224887,0.916577971452185,-0.0411877216629861,-0.549803798292111,0.259658152153344,-0.448652195171421,-1.17873775535566,0.0188346239605686,0.0188346239626642,-1.06960848826012,1.06960848825958,0.935015018961639
462.4384,-0.195803730825746,0.968363753380395,0.508889955472947,-1.19844690967377,-0.845059598873414,-0.845059598870121,NaN,-0.899914505694629,-0.231725927735527,1.36962899612945,1.18358404744763,1.36962899612993,0.512267109310412,NaN,NaN,1.5408630803621,-0.731489083823882,NaN,NaN,-2.05963339109591,1.15906834583683,-1.49117300426494,-1.95386921197749,-1.69817087402637,0.843984151158908,-1.79087194671574,-1.79087194671473,-0.445812767889051,0.445812767889372,-0.478182126027359,-0.937390869993232,0.659397647179844,-0.665615318103343,NaN,-1.8381329471916,-1.38282974165302,2.14926828146812,0.278653874846695,0.27865387484778,-0.38573549169463,0.948316352637051,-0.0537834655989946,-0.589950176715385,0.301940002350862,-0.461526678979881,-1.2066249099967,0.0113543900764793,0.0113543900785639,-1.08012803753805,1.08012803753755,0.911205931396987
462.5408,-0.197057916612815,0.973258684530518,0.511051156495959,-1.19919170979131,-0.862384206061057,-0.862384206057767,NaN,-0.865569548011155,-0.209083543693831,1.37329758700399,1.19188889406352,1.37329758700447,0.50218558027352,NaN,NaN,1.51888080094254,-0.725481630852882,NaN,NaN,-2.06631683439271,1.14402072457547,-1.46933411938573,-1.92600379827634,-1.67355956959266,0.843978672216055,-1.780719914628,-1.780719914627,-0.443103884502291,0.443103884502609,-0.484572191130713,-0.93910167126148,0.648363982759032,-0.692916521309881,NaN,-1.77385475405618,-1.39144137129792,2.19447082454307,0.300076407892637,0.30007640789368,-0.410110602823382,0.979503491681044,-0.0657944486309833,-0.628634633893691,0.343747978609093,-0.473023552527664,-1.233427207117,0.00337516884611605,0.00337516884818958,-1.0896723560841,1.08967235608365,0.886273784268694
462.6432,-0.198171119649013,0.977343725445361,0.512751330905065,-1.20066590408006,-0.879337313794445,-0.879337313791158,NaN,-0.831610772544379,-0.186262043015637,1.37752278197303,1.19988006989058,1.37752278197351,0.492830282012301,NaN,NaN,1.49711583567967,-0.718994495367439,NaN,NaN,-2.07238022916995,1.12874591047509,-1.44802302063725,-1.89825417584202,-1.64935033027235,0.844191190188722,-1.76979684192886,-1.76979684192787,-0.44002566996143,0.440025669961746,-0.490167621055477,-0.939835861101795,0.636826485830632,-0.719133821030563,NaN,-1.71044789221259,-1.39905223399973,2.23885077154896,0.322449008372339,0.322449008373358,-0.433617904249884,1.01005934996737,-0.0772342492628324,-0.665776957010027,0.385024335870134,-0.483094296703051,-1.25909598298843,-0.00508231138117881,-0.00508231137911694,-1.0982492564238,1.09824925642339,0.860215581460504
462.7456,-0.199162745968178,0.980616197018072,0.513958053927317,-1.20285078272836,-0.895926101336547,-0.895926101333261,NaN,-0.79805015539733,-0.163265740944696,1.3822890414366,1.20757750758551,1.38228904143708,0.484240554994374,NaN,NaN,1.47558232819624,-0.712025792865785,NaN,NaN,-2.07779072615786,1.11324491768161,-1.42728548665104,-1.87066199099061,-1.62558895213694,0.844614562057979,-1.75813202925113,-1.75813202925015,-0.436578683164981,0.436578683165295,-0.494950223799938,-0.939599367100289,0.624823341011515,-0.744198915107546,NaN,-1.64800424888301,-1.40567968349613,2.28234025280466,0.3457575224028,0.345757522403794,-0.45624531199597,1.03990635181789,-0.0881155277381441,-0.701299991430377,0.425713747496729,-0.491692057333138,-1.2835854666071,-0.0139949170197165,-0.0139949170176675,-1.10586605242063,1.10586605242025,0.83302694340493
462.848,-0.200050462271061,0.983072368558131,0.514640722043695,-1.20572360346339,-0.912158025300392,-0.912158025297109,NaN,-0.764896432371794,-0.140099196994068,1.38757979796132,1.21500142272528,1.38757979796179,0.476453557916432,NaN,NaN,1.45429449156559,-0.704571537013689,NaN,NaN,-2.08251560631651,1.09751833629716,-1.40716297560953,-1.84326573519235,-1.60231717721649,0.845240517658158,-1.74575466768267,-1.7457546676817,-0.432764608841176,0.432764608841487,-0.498902768596191,-0.938399978255404,0.612393632239753,-0.768045697284488,NaN,-1.58660890174173,-1.41134401826025,2.32487128671123,0.369984792451777,0.369984792452746,-0.477980510815077,1.06896955975764,-0.0984499510408499,-0.735129727276511,0.465763390530103,-0.498771677994568,-1.30685292566859,-0.023337123235706,-0.0233371232336695,-1.11252962416482,1.11252962416448,0.804702131238173
462.9504,-0.200850069607992,0.984707510891807,0.514770794000633,-1.20925776224097,-0.928040780738383,-0.9280407807351,NaN,-0.732155298888849,-0.116767358541709,1.39337736925089,1.22217210698113,1.39337736925136,0.469504199204759,NaN,NaN,1.43326668698829,-0.696625663860911,NaN,NaN,-2.086522544934,1.08156655030802,-1.38769241898541,-1.81610058183684,-1.57957249559574,0.846059661633208,-1.73269377763505,-1.73269377763409,-0.428586284597247,0.428586284597556,-0.5020091876816,-0.936247289351198,0.599577251602538,-0.790610328648021,NaN,-1.52634029307619,-1.41606839599559,2.36637587229019,0.395110414728202,0.395110414729146,-0.498810961720003,1.09717684811889,-0.108248147464781,-0.767195379988063,0.505123005966176,-0.504289746800023,-1.3288588110934,-0.03308104813875,-0.0330810481367263,-1.11824652139356,1.11824652139325,0.77523410223255
463.0528,-0.201575393646335,0.985515972537304,0.514322025414619,-1.21342298242025,-0.943582276667311,-0.943582276664034,NaN,-0.699829624364589,-0.0932757122442889,1.3996628725481,1.22910973635898,1.39966287254857,0.463425060999615,NaN,NaN,1.41251350693788,-0.68818008601955,NaN,NaN,-2.08977987283148,1.06538995494723,-1.36890604606834,-1.7891982438804,-1.55738797584634,0.847061468760204,-1.71897816617023,-1.71897816616929,-0.424047706728625,0.424047706728933,-0.504254794523886,-0.9331526631887,0.586414816242658,-0.811831331307471,NaN,-1.46727043010726,-1.41987874305496,2.40678607600748,0.421110513580427,0.421110513581345,-0.518723922272475,1.12445907530937,-0.117519672765354,-0.797429451721235,0.54374493207752,-0.508204642813187,-1.34956688946729,-0.0431965006392095,-0.0431965006371986,-1.1230231074004,1.12302310740013,0.744614579736215
463.1552,-0.202238193714319,0.985491275502241,0.51327069066243,-1.21818551152185,-0.958790622726906,-0.958790622723632,NaN,-0.66791967041737,-0.0696304320012608,1.40641614749113,1.23583419193111,1.40641614749159,0.458246327076349,NaN,NaN,1.39204986679758,-0.679224768603161,NaN,NaN,-2.09225682805025,1.04898916833007,-1.35083125086931,-1.76258686393018,-1.53579213573948,0.848234274522424,-1.70463640706838,-1.70463640706745,-0.419154034918301,0.419154034918605,-0.505626515962468,-0.929129225284373,0.57294760383775,-0.831649714222257,NaN,-1.40946509655146,-1.4228036604082,2.44603411096769,0.447957546957562,0.447957546958462,-0.537706461913561,1.15075025863903,-0.126272971199324,-0.825767763757723,0.581584109416765,-0.51047657127983,-1.36894435512666,-0.0536510390012848,-0.0536510389992845,-1.12686574283214,1.12686574283192,0.712834128474147
463.2576,-0.202848088283421,0.984626229226353,0.511595794451491,-1.22350831333855,-0.973674123046625,-0.973674123043359,NaN,-0.636423304144215,-0.045838510209821,1.41361569083092,1.24236489263052,1.41361569083138,0.453995720772009,NaN,NaN,1.37189110178564,-0.669747823181442,NaN,NaN,-2.09392379489431,1.03236523119105,-1.33349050716747,-1.73629094310901,-1.51480885938551,0.849565265486598,-1.68969684268641,-1.68969684268548,-0.413911604083559,0.413911604083862,-0.506113136025911,-0.924191901692133,0.559217517410816,-0.850009131789503,NaN,-1.3529840585119,-1.42487432608008,2.48405241155418,0.475620154756509,0.475620154757397,-0.555745471110595,1.17598775321895,-0.134515329926264,-0.852149457818831,0.618598056375479,-0.511067586069646,-1.38696192060071,-0.0644100455857997,-0.0644100455838067,-1.12978100687348,1.12978100687332,0.679882231967244
463.36,-0.203412490269007,0.982913063084462,0.50927928371288,-1.22935124956811,-0.988241278443449,-0.988241278440188,NaN,-0.60533620356509,-0.0219078622633445,1.42123859940841,1.24872064260947,1.42123859940886,0.450698449027772,NaN,NaN,1.35205305939206,-0.659735622728679,NaN,NaN,-2.09475253211397,1.01551978814807,-1.31690132788003,-1.71033130427915,-1.49445735665289,0.851040473400561,-1.67418760253501,-1.67418760253409,-0.408327935351463,0.408327935351763,-0.505705548461548,-0.918357498058386,0.54526708364134,-0.866856062126404,NaN,-1.29788125500059,-1.42612439212193,2.52077370849673,0.504063055730726,0.504063055731608,-0.572827683318485,1.20011242930626,-0.142252845103621,-0.87651697375481,0.654746817852463,-0.509941606255086,-1.40359389212723,-0.0754368278189224,-0.0754368278169359,-1.13177595323397,1.13177595323385,0.645747372819383
463.4624,-0.203936549143957,0.980343582023814,0.506306268331783,-1.23567125465166,-1.00250079971454,-1.00250079971129,NaN,-0.574652058802153,0.00215259383817289,1.42926051483796,1.25491949558048,1.4292605148384,0.448377141899684,NaN,NaN,1.33255217536281,-0.649172945380862,NaN,NaN,-2.09471639556491,0.998455245855304,-1.30107625272385,-1.68472507465871,-1.47475214869644,0.852644773771799,-1.65813663233982,-1.65813663233892,-0.40241173268477,0.402411732685066,-0.504397015531676,-0.911644799421959,0.531139471631432,-0.882139987586133,NaN,-1.24420497220474,-1.42658987459452,2.55613111085446,0.533246990538801,0.533246990539672,-0.588939735343327,1.22306884137812,-0.149490424108129,-0.898816019078237,0.689992895643848,-0.50706443833568,-1.41881823986829,-0.0866927506141678,-0.0866927506121859,-1.13285839484318,1.13285839484312,0.610417127063017
463.5648,-0.204423105088775,0.976909349641814,0.502665246209984,-1.24242251154143,-1.01646163115396,-1.01646163115072,NaN,-0.544362775851966,0.0263328697983218,1.43765556931413,1.26097863481323,1.43765556931457,0.447051781470411,NaN,NaN,1.31340552706577,-0.638043150629848,NaN,NaN,-2.09379055645341,0.981174907544121,-1.28602284487907,-1.65948567222107,-1.45570306096826,0.854361889429921,-1.64157172771492,-1.64157172771403,-0.396172860931044,0.396172860931337,-0.502183426174822,-0.904074660412399,0.516878506075216,-0.895813565988607,NaN,-1.19199800810103,-1.42630903616787,2.59005819894087,0.563128701448389,0.563128701449253,-0.604068276335196,1.24480538600535,-0.156231833722209,-0.918995544229963,0.72430116860859,-0.502403814167053,-1.43261666613873,-0.0981373931073739,-0.0981373931053984,-1.13303720386498,1.13303720386494,0.573878291419756
463.6672,-0.204872665929708,0.972601897917076,0.498348315281834,-1.24955663292244,-1.03013298320763,-1.03013298320441,NaN,-0.51445868749693,0.0506218370919372,1.44639633887861,1.26691426364113,1.44639633887905,0.44673962292454,NaN,NaN,1.29463086697641,-0.626328381294097,NaN,NaN,-2.09195220797206,0.96368308547639,-1.27174368627229,-1.63462278929514,-1.43731521431436,0.856174401837541,-1.62452056777674,-1.62452056777585,-0.389622312813287,0.389622312813576,-0.499063537526549,-0.895670065440545,0.502528655851539,-0.907832787936628,NaN,-1.14129783884279,-1.42532226254093,2.6224891225673,0.593660935607036,0.593660935607896,-0.618200113059486,1.26527444849139,-0.162479783474114,-0.937007730125293,0.757638806044181,-0.495929449645495,-1.44497466485408,-0.109728710171049,-0.109728710169079,-1.13232261075474,1.13232261075474,0.536117060791176
463.7696,-0.205283419107054,0.967412963431537,0.493351353311849,-1.2570228499601,-1.04352437920141,-1.04352437919822,NaN,-0.484928771324352,0.0750071470664755,1.45545380866176,1.27274150142235,1.45545380866219,0.447455111776777,NaN,NaN,1.276246642216,-0.614009779425938,NaN,NaN,-2.08918075301038,0.945985193419631,-1.25823636991294,-1.61014237515736,-1.41958901370121,0.858063771200788,-1.60701074443376,-1.60701074443289,-0.382772175220763,0.382772175221048,-0.49503918221397,-0.886456157248612,0.488134994795559,-0.918157123525897,NaN,-1.09213679658611,-1.42367193675158,2.65335869291339,0.624792461178005,0.624792461178858,-0.63132237094501,1.28443254066918,-0.168236025451351,-0.952807992424442,0.789975179059448,-0.48761312548263,-1.455881560492,-0.121423177708612,-0.121423177706649,-1.13072649309539,1.13072649309544,0.49711926762731
463.872,-0.205651288784116,0.961334754226744,0.487674153233146,-1.26476821392377,-1.05664572351399,-1.05664572351084,NaN,-0.455760875275314,0.0994751403093787,1.46479734765166,1.27847428385037,1.46479734765208,0.449209796424744,NaN,NaN,1.25827200157756,-0.601067706192748,NaN,NaN,-2.08545797264447,0.92808782225657,-1.24549349204412,-1.58604662328616,-1.40252013842663,0.860010361617314,-1.58906978099401,-1.58906978099315,-0.375635600621108,0.37563560062139,-0.490115432392216,-0.876460241466533,0.473743137185116,-0.926749669939525,NaN,-1.04454226189785,-1.42140231432282,2.68260246284057,0.656468093320494,0.656468093321339,-0.643422657462358,1.30224043502771,-0.173501457255767,-0.966355009335999,0.821281778015983,-0.477428791485537,-1.46533051819624,-0.133175912687144,-0.133175912685186,-1.12826265175532,1.12826265175543,0.456870687947397
463.9744,-0.2059700410715,0.954360247386834,0.481320509478922,-1.27273781856927,-1.06950739020551,-1.0695073902024,NaN,-0.426941953991171,0.124010749064406,1.47439468820391,1.28412526996585,1.47439468820432,0.452012233054944,NaN,NaN,1.24072678606082,-0.587481959690972,NaN,NaN,-2.08076817801348,0.909998801378956,-1.23350265188734,-1.56233397162339,-1.38609954203498,0.861993466528156,-1.57072513229029,-1.57072513228945,-0.368226783852647,0.368226783852925,-0.484300721005155,-0.865711771754793,0.45939914745675,-0.93357731108177,NaN,-0.9985368671469,-1.41855939393554,2.71015680262415,0.688628734213316,0.688628734214154,-0.654489221636239,1.31866330246696,-0.178276220483935,-0.977610779305271,0.851532140548569,-0.465352698237788,-1.47331852485245,-0.144940771826434,-0.144940771824481,-1.12494706882223,1.12494706882239,0.415357410903293
464.0768,-0.206231431068878,0.946483506951275,0.474298256367126,-1.28087504799054,-1.08212032143138,-1.08212032142831,NaN,-0.39845831500841,0.148597400260848,1.48421191004223,1.28970575908245,1.48421191004264,0.455867883652513,NaN,NaN,1.2236315001016,-0.573231988440586,NaN,NaN,-2.07509834434822,0.891727246407998,-1.22224647202433,-1.53899912569805,-1.37031347429021,0.863991332215676,-1.55200416250635,-1.55200416250552,-0.360560942324393,0.360560942324669,-0.477606926551304,-0.854242316365363,0.445149422794642,-0.938610893980754,NaN,-0.954138701618231,-1.41519077153745,2.73595898265837,0.721211433715476,0.721211433716305,-0.6645111032077,1.33367085984466,-0.182559787204378,-0.986540707823704,0.880701786619203,-0.451363558273413,-1.47984634600929,-0.156670434846603,-0.156670434844656,-1.12079813637654,1.12079813637675,0.372566260170114
464.1792,-0.206425380040011,0.937700005838555,0.466619262999593,-1.28912185004455,-1.09449612486611,-1.09449612486309,NaN,-0.370295866068594,0.173216928313085,1.49421343422649,1.29522562218558,1.49421343422691,0.46077901324094,NaN,NaN,1.2070072657024,-0.558297101654435,NaN,NaN,-2.06843822226205,0.873283591563004,-1.21170265287114,-1.51603311241489,-1.3551435371332,0.865981177849107,-1.53293410295573,-1.53293410295491,-0.352654298771787,0.35265429877206,-0.470049429448942,-0.842085508857411,0.431040551517696,-0.941825421771406,NaN,-0.911361507834539,-1.41134546846284,2.75994726889596,0.754149475069963,0.754149475070789,-0.673478264296452,1.34723752694005,-0.186351028279483,-0.993113711792016,0.908768151571273,-0.435442730349178,-1.48491846233174,-0.168316474437198,-0.168316474435256,-1.11583684530348,1.11583684530373,0.328485248222992
464.2816,-0.206540170402895,0.928006938234805,0.458299392451712,-1.29741903336995,-1.10664716372826,-1.10664716372528,NaN,-0.342440355842796,0.197849501061085,1.50436203260083,1.30069325381801,1.50436203260124,0.466744591957485,NaN,NaN,1.19087576187805,-0.542656681855507,NaN,NaN,-2.06078042454591,0.854679603017169,-1.20184406673252,-1.4934233659018,-1.34056677886984,0.867939210721299,-1.51354199366961,-1.5135419936688,-0.344524064250468,0.344524064250738,-0.461647147027747,-0.82927698647498,0.417119153894732,-0.943200256874712,NaN,-0.870214865355472,-1.40707373271235,2.78206103072902,0.78737248458817,0.787372484588992,-0.681381706720654,1.35934258469419,-0.189648268738026,-0.997302328714508,0.935710511156672,-0.417574416449184,-1.48854298798539,-0.179829419215838,-0.179829419213904,-1.11008692731901,1.11008692731929,0.283104046188243
464.384,-0.206562648493354,0.917403518196255,0.449358437295837,-1.30570658935207,-1.1185866371091,-1.11858663710616,NaN,-0.314877610432761,0.222473550197969,1.51461885081481,1.30611554679278,1.51461885081522,0.47376019830798,NaN,NaN,1.17525914629479,-0.526290409377598,NaN,NaN,-2.05212049339535,0.835928367309392,-1.19263888547872,-1.47115383865898,-1.32655582016753,0.869840637895954,-1.4938546116106,-1.49385461160981,-0.336188413340333,0.3361884133406,-0.452422553563243,-0.815854315757151,0.403431711163437,-0.942719321112167,NaN,-0.830704367811153,-1.40242682062645,2.80224085981825,0.820806559095121,0.820806559095937,-0.688213593736552,1.36997032398434,-0.192449349857132,-0.999082833403389,0.961509904802312,-0.397745869443225,-1.49073157425519,-0.191158824495701,-0.191158824493772,-1.1035749497741,1.10357494977442,0.236414466804981
464.4864,-0.206478430706216,0.905891269172495,0.439820042247138,-1.31392404790124,-1.1303286560612,-1.1303286560583,NaN,-0.287593774026202,0.247065691184667,1.52494343509353,1.31149788429767,1.52494343509393,0.481817911421591,NaN,NaN,1.16017995327397,-0.509178503441555,NaN,NaN,-2.04245695303246,0.81704424705862,-1.18405073262358,-1.44920512758425,-1.31307900193158,0.871659678377861,-1.47389838999412,-1.47389838999335,-0.327666443409814,0.327666443410077,-0.442401691049665,-0.801856904054683,0.390024387101552,-0.940371280555514,NaN,-0.792831798488829,-1.39745677089948,2.8204286953703,0.854374405888485,0.854374405889304,-0.69396739393517,1.37911017724007,-0.194751715800059,-0.998435378850628,0.986149074160251,-0.37594761716667,-1.4914993000158,-0.202253360733292,-0.202253360731368,-1.09633036905089,1.09633036905126,0.188410972290046
464.5888,-0.206272115378474,0.893474309317707,0.429711614343397,-1.32201087525853,-1.14188832618586,-1.14188832618301,NaN,-0.260575556602399,0.271600625133795,1.53529375319778,1.31684413988554,1.53529375319817,0.490906184102895,NaN,NaN,1.14566096886182,-0.491301972052541,NaN,NaN,-2.03179134525889,0.798042797935579,-1.17603885683567,-1.4275546085461,-1.30010055083829,0.873369581234695,-1.45369933648799,-1.45369933648723,-0.318978118148205,0.318978118148465,-0.431614173085693,-0.787325901899487,0.376942849118172,-0.936149711187706,NaN,-0.756595297934453,-1.39221618295998,2.83656794446387,0.887995495545847,0.887995495546668,-0.698638045598868,1.38675682984476,-0.1965525242387,-0.995344171705379,1.00961243039518,-0.352173704171132,-1.49086454515131,-0.213060913806085,-0.213060913804165,-1.08838554825074,1.08838554825114,0.139091213589729
464.6912,-0.205927505953637,0.880159630309929,0.419064210130954,-1.32990690933608,-1.15328184064012,-1.15328184063731,NaN,-0.233810482902485,0.296051026848211,1.54562620805427,1.32215667864657,1.54562620805466,0.501009701122515,NaN,NaN,1.13172509301975,-0.472642856209371,NaN,NaN,-2.02012823944968,0.778940646767898,-1.16855832897532,-1.40617657952808,-1.28758076396838,0.874942655835481,-1.43328295791049,-1.43328295790973,-0.310144199961126,0.310144199961382,-0.42009318082165,-0.772304105536035,0.364232098220216,-0.930053246002004,NaN,-0.721989511548321,-1.38675800814182,2.85060358350842,0.921586230062794,0.921586230063619,-0.702222126271804,1.392910310139,-0.197848767957083,-0.989797675100436,1.03188604715105,-0.326421944910022,-1.48884883816801,-0.223528686132767,-0.22352868613085,-1.07977573756981,1.07977573757022,0.0884565892253917
464.7936,-0.205427850423743,0.865957361482541,0.407912385203877,-1.3375528180864,-1.16452657449307,-1.16452657449031,NaN,-0.207287134440956,0.320387427905213,1.55589565173886,1.32743635801425,1.55589565173925,0.512109236510465,NaN,NaN,1.11839520083167,-0.453184455101442,NaN,NaN,-2.00747520769976,0.759755337176092,-1.1615602638212,-1.38504241403861,-1.2754762139247,0.876350320290068,-1.41267419439554,-1.4126741943948,-0.301186173560958,0.301186173561212,-0.407875447828792,-0.75683586312724,0.3519363118992,-0.922085702677566,NaN,-0.689005715735833,-1.38113535603505,2.86248223404018,0.955060126690918,0.955060126691753,-0.704718013251465,1.39757605529615,-0.198637395730746,-0.981788821623207,1.05295766227711,-0.298694181818447,-1.48547666954662,-0.233603294293095,-0.233603294291182,-1.07053900947152,1.07053900947195,0.0365128002877579
464.896,-0.204756101370369,0.850881010099259,0.396293991676147,-1.34489056735275,-1.17564116392705,-1.17564116392433,NaN,-0.180995377342637,0.344578104762353,1.56605541323403,1.33268253050528,1.56605541323442,0.524181526671289,NaN,NaN,1.10569401005802,-0.43291152004334,NaN,NaN,-1.99384275839707,0.740505153494097,-1.15499206562116,-1.36412072483413,-1.26373997385689,0.877563171281751,-1.39189736143636,-1.39189736143564,-0.292126163428677,0.292126163428928,-0.39500122884706,-0.740966978870055,0.340098693421083,-0.912256192986482,NaN,-0.657631932518449,-1.3754013106028,2.87215221760897,0.988328018017449,0.988328018018294,-0.706126023786123,1.40076494978475,-0.198915423639839,-0.971315222406297,1.07281667297063,-0.268996544277429,-1.48077526781767,-0.243230864657205,-0.243230864655296,-1.06071614211532,1.06071614211578,-0.0167296249782956
464.9984,-0.203895199837242,0.834947671419036,0.384249913223952,-1.35186388896449,-1.18664555560084,-1.18664555559818,NaN,-0.154926567874341,0.368588983956832,1.57605735359404,1.3378930532758,1.57605735359442,0.537199175689924,NaN,NaN,1.09364395908982,-0.411810407047301,NaN,NaN,-1.97924422512023,0.721208935135288,-1.1487976971184,-1.34337753819354,-1.2523218622362,0.878551073135298,-1.37097609810847,-1.37097609810776,-0.282986847580423,0.282986847580671,-0.381514247697318,-0.724744607443871,0.328761316192077,-0.900579221336756,NaN,-0.627853042705036,-1.36960874598077,2.87956360118459,1.02129827356123,1.02129827356209,-0.706448526136376,1.40249333520037,-0.198680029433751,-0.958379367722313,1.09145412117654,-0.237339705531846,-1.47477434109314,-0.252357132350398,-0.252357132348493,-1.05035044970998,1.05035044971046,-0.0712548614438566
465.1008,-0.20282838058389,0.81817820419873,0.37182373785308,-1.35841874169019,-1.19756102005571,-1.1975610200531,NaN,-0.129073726023194,0.392383577193548,1.58585195733533,1.3430643095681,1.5858519573357,0.551130605531613,NaN,NaN,1.08226709905478,-0.389869185249027,NaN,NaN,-1.96369560884046,0.701885890233937,-1.14291797385254,-1.32277648117956,-1.24116870945654,0.879283260325436,-1.34993332209196,-1.34993332209125,-0.273791363504963,0.273791363505208,-0.367461620827782,-0.708217135609482,0.317964956384138,-0.887074779950196,NaN,-0.599650904447974,-1.36381013431079,2.88466824251792,1.05387705344164,1.0538770534425,-0.705690018162676,1.40278299017032,-0.197928627410963,-0.942988820627519,1.10886267454438,-0.203739134925082,-1.4675057886651,-0.260927551038548,-0.260927551036647,-1.03948755991233,1.03948755991283,-0.12704138609343
465.2032,-0.201539490140748,0.800597367108152,0.359061377930833,-1.36450375921237,-1.20841013322014,-1.20841013321759,NaN,-0.103431668463174,0.415922956074136,1.59538846228959,1.34819124516777,1.59538846228995,0.56594005610536,NaN,NaN,1.071585001655,-0.367077707266346,NaN,NaN,-1.94721537016674,0.682555409016841,-1.13729088565694,-1.30227898341977,-1.23022464810946,0.879728447006734,-1.32879119148562,-1.32879119148493,-0.264563198686935,0.264563198687177,-0.352893750451682,-0.691434049171091,0.307748912041018,-0.871768440518119,NaN,-0.573004484334008,-1.35805734321784,2.88741983936115,1.08596860568944,1.08596860569033,-0.703857176688552,1.4016610745748,-0.196658928386591,-0.925156404356664,1.12503660765261,-0.168215342290063,-1.45900338796108,-0.268887420610841,-0.268887420608943,-1.02817513633856,1.02817513633907,-0.184061646251876
465.3056,-0.200013310184899,0.782233914436859,0.346010647753262,-1.3700706792049,-1.21921673299536,-1.21921673299286,NaN,-0.0779970966593961,0.439165770131348,1.60461502553679,1.35326742122917,1.60461502553714,0.581587630675872,NaN,NaN,1.06161867930649,-0.343427653760693,NaN,NaN,-1.92982417210709,0.66323687221381,-1.13185193945739,-1.28184448720428,-1.21943142074554,0.879854938693903,-1.30757106999528,-1.3075710699946,-0.255326064590994,0.255326064591233,-0.337864179895208,-0.674445780684391,0.298150807874013,-0.854691433819001,NaN,-0.547890007495758,-1.35240142434596,2.88777398556731,1.11747561234988,1.11747561235078,-0.700958888208558,1.39916002821206,-0.194868996966716,-0.904900381149465,1.13997178423975,-0.130794111039506,-1.44930246665309,-0.276182040769454,-0.27618204076756,-1.016462547499,1.01646254749952,-0.2422817934549
465.408,-0.198235881068611,0.763120654473769,0.332720809523069,-1.37507474184283,-1.23000584987587,-1.23000584987343,NaN,-0.052768643368725,0.462068306302005,1.61347892220307,1.35828508171199,1.61347892220342,0.598029376782371,NaN,NaN,1.05238851283785,-0.318912565156727,NaN,NaN,-1.91154458469905,0.643949457670803,-1.1265345038118,-1.26143065196442,-1.20872868688818,0.879630747236626,-1.28629349143572,-1.28629349143504,-0.24610376146917,0.246103761469406,-0.322429410230851,-0.65730353487178,0.289206387968089,-0.835880705849228,NaN,-0.524281126458312,-1.34689239763328,2.88568824184205,1.1482995778067,1.14829957780762,-0.697006278349366,1.39531741752084,-0.192557323296583,-0.882244620599172,1.15366564128836,-0.0915067169065475,-1.43843957429469,-0.282756897747461,-0.282756897745573,-1.00440049608025,1.00440049608078,-0.301661482842802
465.5104,-0.196194818322392,0.743294477051611,0.319242104352446,-1.37947504186724,-1.24080360642449,-1.24080360642211,NaN,-0.0277468891905324,0.484584583965789,1.62192677417594,1.36323522847835,1.62192677417628,0.615217393097348,NaN,NaN,1.04391418512116,-0.293527867457654,NaN,NaN,-1.89240077078727,0.624711960642245,-1.12127013196366,-1.24099354306649,-1.19805430988758,0.879023716343287,-1.26497812458285,-1.26497812458218,-0.236920043273805,0.236920043274039,-0.306648686279329,-0.640059098065047,0.280949305469764,-0.81537894509463,NaN,-0.502149101890281,-1.34157903901068,2.8811222306365,1.17834124540494,1.17834124540587,-0.69201275623343,1.39017573697589,-0.189722921450006,-0.857218758248064,1.16611718092417,-0.0503901281354205,-1.42645216460061,-0.288557882223965,-0.288557882222082,-0.992040634475992,0.992040634476534,-0.362153733145304
465.6128,-0.193879616516722,0.722796360462762,0.305625285595621,-1.3832348249624,-1.25163709130681,-1.2516370913045,NaN,-0.00293436469074847,0.506666474867033,1.62990480366713,1.36810769548503,1.62990480366746,0.633099953581099,NaN,NaN,1.03621461894999,-0.267270892954692,NaN,NaN,-1.87241816859637,0.605542642002888,-1.11598885335012,-1.22048780683045,-1.18734461737473,0.878001661852157,-1.24364374579153,-1.24364374579087,-0.227798487382851,0.22779848738308,-0.290583764216118,-0.622764644913532,0.273410920632178,-0.793234585944368,NaN,-0.481462990590816,-1.33650867991993,2.87403775969943,1.20750103244233,1.20750103244328,-0.685994078850245,1.38378218426283,-0.186365453207086,-0.829858345083024,1.17732697850631,-0.00748718077616346,-1.41337829101481,-0.293531526186087,-0.293531526184208,-0.979435192305068,0.97943519230561,-0.423704827377422
465.7152,-0.191281940668762,0.701671369519587,0.291921164109902,-1.38632173071389,-1.26253422287884,-1.2625342228766,NaN,0.0216644510586897,0.528263835226268,1.63735910370881,1.37289121914401,1.63735910370913,0.651621641196611,NaN,NaN,1.02930791365576,-0.240140897423777,NaN,NaN,-1.85162317680186,0.586459106220118,-1.11061943857006,-1.19986683967959,-1.17653464148131,0.876532521971992,-1.22230822649522,-1.22230822649457,-0.218762369471633,0.21876236947186,-0.27429867314194,-0.605472550283688,0.266620111383543,-0.769501796879198,NaN,-0.46218984126234,-1.33172702364491,2.86439897538847,1.23567948330917,1.23567948331013,-0.678968429460534,1.37618842771257,-0.18248536644715,-0.800204984713687,1.18729720994633,0.0371532774280765,-1.39925631385292,-0.297625245461426,-0.297625245459552,-0.966636631453528,0.966636631454064,-0.486254231998132
465.8176,-0.188395905830034,0.679968649256211,0.278180168233335,-1.38870798979604,-1.27352361165985,-1.27352361165767,NaN,0.0460431329336691,0.549324641783118,1.64423591635284,1.37757350897919,1.64423591635315,0.67072348848663,NaN,NaN,1.02321127464929,-0.212139079697538,NaN,NaN,-1.83004284263801,0.567478204882503,-1.10508964768985,-1.17908295734968,-1.16555834765021,0.874584508019552,-1.20098853757073,-1.20098853757009,-0.20983454331308,0.209834543313303,-0.257859481000997,-0.588235204281213,0.260603093932539,-0.744240454163219,NaN,-0.444294899121088,-1.32727797888416,2.85217254646674,1.26277774436578,1.26277774436674,-0.670956499053548,1.36745037280168,-0.17808403649672,-0.768306449813901,1.19603169325531,0.0834762805578692,-1.38412461847055,-0.300787578632934,-0.300787578631066,-0.953697334132053,0.953697334132584,-0.549734533837973
465.92,-0.185218339945548,0.657741406856686,0.264451919884842,-1.39037058030023,-1.28463442219011,-1.28463442218799,NaN,0.0701933132466667,0.569795128305254,1.65048190876552,1.38214132361845,1.65048190876583,0.690343129435813,NaN,NaN,1.01794093441971,-0.183268610327108,NaN,NaN,-1.80770455583115,0.548615965465515,-1.09932647039994,-1.15808756774086,-1.15434885911495,0.872126247601605,-1.17970077203342,-1.17970077203278,-0.201037322311008,0.201037322311228,-0.241334069325176,-0.571104827286697,0.255383255153337,-0.717516090454325,NaN,-0.42774181934951,-1.32320351095421,2.83732787467212,1.28869805770542,1.28869805770639,-0.661981558347634,1.35762792521625,-0.173163900221434,-0.734216766066766,1.20353593410905,0.13142068106435,-1.36802134497366,-0.302968416506911,-0.302968416505049,-0.940669323441532,0.940669323442062,-0.614071418262846
466.0224,-0.181749019473223,0.635046867057013,0.250784830739697,-1.39129134245121,-1.2958962317102,-1.29589623170814,NaN,0.0941046848330457,0.589619921250124,1.65604443807406,1.3865805540371,1.65604443807436,0.71041496794049,NaN,NaN,1.01351206460597,-0.153534671514549,NaN,NaN,-1.7846357543849,0.529887546018468,-1.09325636494168,-1.13683135025545,-1.14283868277701,0.869126915568722,-1.15846018954829,-1.15846018954767,-0.192392355135059,0.192392355135275,-0.224791913087713,-0.554133287307387,0.25098100518034,-0.68939980545039,NaN,-0.412492888530858,-1.31954351338623,2.81983732280277,1.31334426250188,1.31334426250286,-0.652069512367527,1.34678474603165,-0.167728577214593,-0.697996256013737,1.20981716555471,0.180919130186383,-1.35098413008121,-0.304119225117232,-0.304119225115376,-0.92760400949655,0.927604009497086,-0.679183714698149
466.1248,-0.177990864560288,0.611946186453182,0.237225726774512,-1.39145704741716,-1.3073388805815,-1.3073388805795,NaN,0.117765006079624,0.608742178014853,1.66087179998726,1.39087631385819,1.66087179998755,0.730870363466929,NaN,NaN,1.00993867549893,-0.122944503120006,NaN,NaN,-1.76086364757647,0.511307210843675,-1.08680550074563,-1.1152644421745,-1.13095994006182,0.865556352072528,-1.1372812831952,-1.13728128319458,-0.183920494388946,0.183920494389159,-0.208303857407435,-0.537371922807319,0.247413656979039,-0.659968131134439,NaN,-0.39850924905336,-1.31633570157287,2.79967645120776,1.33662229215016,1.33662229215114,-0.6412489424933,1.33498799238519,-0.161782984356027,-0.659711546534682,1.21488438021827,0.23189809629693,-1.33304986481652,-0.304193277203447,-0.304193277201599,-0.914551947783049,0.914551947783591,-0.744983520325449
466.2272,-0.173950083407303,0.588504317026409,0.223819509167252,-1.39085941396712,-1.31899230466318,-1.31899230466123,NaN,0.141160117796141,0.627103736750798,1.66491346362235,1.39501303340404,1.66491346362263,0.751637836064631,NaN,NaN,1.00723350302533,-0.0915074454073882,NaN,NaN,-1.73641495790378,0.492888323282068,-1.07990000411766,-1.09333662693487,-1.11864460052222,0.861385173308618,-1.11617786293121,-1.11617786293059,-0.175641669174504,0.175641669174714,-0.191941883409645,-0.520871370493888,0.244695335300564,-0.629302845333035,NaN,-0.385751115549013,-1.31361552627956,2.77682425669079,1.35844066008976,1.35844066009075,-0.629551148055787,1.32230803072091,-0.155333458193257,-0.619435548317955,1.2187483627323,0.284277917573588,-1.31425447458412,-0.303145907578743,-0.303145907576902,-0.901562598342331,0.901562598342872,-0.811376403446123
466.3296,-0.169636261892265,0.564789813920531,0.210608853489018,-1.38949506594199,-1.33088633882474,-1.33088633882284,NaN,0.164273982584066,0.644645287124576,1.66812030178605,1.39897455064015,1.66812030178632,0.77264330055306,NaN,NaN,1.00540789415465,-0.0592349731210048,NaN,NaN,-1.71131568067409,0.474643361488349,-1.07246619796114,-1.07099751262101,-1.10582470796908,0.856584884467842,-1.09516314586044,-1.09516314585984,-0.167574770760777,0.167574770760984,-0.175778858154773,-0.504681395793451,0.242836917255967,-0.597490723811244,NaN,-0.374177971002529,-1.31141610328342,2.7512634098191,1.37871092901683,1.37871092901782,-0.617010189849498,1.30881810787177,-0.148387891638156,-0.577247406897459,1.22142173021527,0.337972896186297,-1.29463272567885,-0.300934793743462,-0.300934793741629,-0.888684084568291,0.888684084568834,-0.878261694254874
466.432,-0.165062396048742,0.540874585191328,0.19763394901356,-1.38736542834125,-1.34305049181278,-1.34305049181093,NaN,0.187088750380984,0.661306570465012,1.67044482897289,1.4027441937472,1.67044482897315,0.793810339713099,NaN,NaN,1.00447170537758,-0.0261407221825878,NaN,NaN,-1.68559086148366,0.456583965837282,-1.06443082422382,-1.04819668904588,-1.09243258735174,0.85112799714834,-1.07424984613875,-1.07424984613816,-0.159737548912058,0.15973754891226,-0.159888266549224,-0.488850726930737,0.241846008561953,-0.564623224288167,NaN,-0.363748736551589,-1.30976816163072,2.72298048630655,1.39734815790093,1.39734815790192,-0.603662921740845,1.29459397655303,-0.140955873895011,-0.533232415018764,1.22291898286698,0.392891448239772,-1.27421806035791,-0.297520244146347,-0.297520244144522,-0.875962960006821,0.87596296000737,-0.945532874855977
466.5344,-0.160244863993684,0.51683358441171,0.184932284180419,-1.38447656817241,-1.35551371006725,-1.35551371006546,NaN,0.209584846890483,0.677026618708551,1.6718414560528,1.40630485303416,1.67184145605305,0.815060520318806,NaN,NaN,1.00443322319777,0.00775949299246485,NaN,NaN,-1.65926439648065,0.43872101987494,-1.05572124789191,-1.02488386318965,-1.07840103150072,0.844988141761543,-1.05345027095415,-1.05345027095357,-0.152146513193018,0.152146513193217,-0.144343925648471,-0.473426901404479,0.241726962062119,-0.530796107722852,NaN,-0.354421918149956,-1.30870002351375,2.69196618268266,1.41427132110218,1.41427132110318,-0.589548987320166,1.27971348773323,-0.133048809686543,-0.487481873368731,1.22325656186321,0.448936322870192,-1.25304246297784,-0.292865464948289,-0.292865464946472,-0.863443995423692,0.863443995424247,-1.01307807294902
466.6368,-0.155203342711254,0.492744451490831,0.172538474305673,-1.38083898819029,-1.36830414987571,-1.36830414987395,NaN,0.231741078069152,0.691744038005521,1.67226675870127,1.4096390375476,1.6722667587015,0.836313754245982,NaN,NaN,1.00529910910294,0.0424476866444695,NaN,NaN,-1.63235885914859,0.421064761793221,-1.046265655572,-1.00100898658575,-1.06366348137482,0.838140167824737,-1.03277644033138,-1.0327764403308,-0.144816840416157,0.144816840416353,-0.12921968198064,-0.458456138566161,0.242480945290767,-0.496109012732024,NaN,-0.346155735574386,-1.30823762829812,2.65821549940811,1.42940369132584,1.42940369132685,-0.574710759886269,1.26425616441568,-0.124679994399368,-0.440092887933289,1.22245290666173,0.506004898072356,-1.23113635213048,-0.286936783606101,-0.286936783604296,-0.851169994974231,0.851169994974787,-1.0807806599503
466.7392,-0.14996068510914,0.468687108501635,0.160484113275982,-1.37646737778456,-1.38144896056886,-1.38144896056715,NaN,0.253534744094918,0.705397333720992,1.67167974309314,1.41272891155368,1.67167974309336,0.857488704131885,NaN,NaN,1.00707436552406,0.077903749819371,NaN,NaN,-1.6048953502013,0.403624920793612,-1.03599326502627,-0.976522389975829,-1.04815421633401,0.83056023783692,-1.01224024159577,-1.0122402415952,-0.137762292684601,0.137762292684793,-0.114589091796361,-0.443983244396883,0.244106055264401,-0.46066500047619,NaN,-0.338908234728265,-1.30840459956406,2.62172787931456,1.44267317793708,1.44267317793808,-0.559193216308452,1.24830276023676,-0.115864635843656,-0.391168097424369,1.22052850071052,0.563989551863776,-1.20852848465531,-0.279703829126097,-0.279703829124302,-0.839181640699396,0.839181640699958,-1.14851995653155
466.8416,-0.144542764249791,0.444743313744761,0.148797641204464,-1.37138032502372,-1.39497406946639,-1.39497406946473,NaN,0.274941760472148,0.717925267485409,1.67004209031023,1.41555631600018,1.67004209031044,0.878503222296563,NaN,NaN,1.00976231243702,0.114105534038318,NaN,NaN,-1.57689336669248,0.386410868224771,-1.02483455142574,-0.951374930346875,-1.03180856015974,0.822225922827404,-0.991853612163848,-0.99185361216329,-0.130995145317784,0.130995145317973,-0.100525086867765,-0.430051540959987,0.246597467118446,-0.424570081920545,NaN,-0.33263738269184,-1.30922234396334,2.58250730877042,1.45401262308701,1.45401262308801,-0.543043754791056,1.2319348004153,-0.106619832149873,-0.340815332765802,1.21750589569518,0.622778097950592,-1.18524586693353,-0.271139685379941,-0.271139685378158,-0.827517356231535,0.827517356232094,-1.21617203905731
466.944,-0.138978276793224,0.420996175993564,0.137504242064128,-1.3655999963257,-1.40890396122512,-1.40890396122349,NaN,0.295936790092302,0.729267237767937,1.66731837135565,1.41810278997693,1.66731837135586,0.899274800472252,NaN,NaN,1.01336455886188,0.151028939723251,NaN,NaN,-1.54837069458684,0.369431770055783,-1.01272148169436,-0.925518145224005,-1.01456309513309,0.813116300899003,-0.971628733097755,-0.971628733097205,-0.124526121227358,0.124526121227544,-0.0870996336921435,-0.416702807954208,0.249947601251815,-0.38793273237948,NaN,-0.32730114767661,-1.31071017026054,2.54056240701117,1.4633600723871,1.46336007238808,-0.526311982187091,1.21523410669289,-0.0969645277823157,-0.289147217529961,1.21340970644669,0.682254268340838,-1.16131368953413,-0.261221037175728,-0.261221037173955,-0.816213180423268,0.816213180423817,-1.28361062080203
