time,S1-D1,S1-D8,S1-D9,S1-D15,S2-D1,S2-D2,S2-D3,S2-D9,S3-D1,S3-D2,S3-D16,S4-D2,S4-D3,S4-D5,S5-D3,S5-D4,S5-D5,S6-D2,S6-D5,S6-D17,S7-D6,S7-D7,S8-D6,S8-D7,S8-D18,S9-D3,S9-D4,S9-D9,S9-D11,S9-D19,S10-D8,S10-D9,S10-D10,S10-D11,S11-D8,S11-D10,S11-D20,S12-D10,S12-D11,S12-D12,S13-D4,S13-D11,S13-D12,S14-D10,S14-D12,S14-D21,S15-D13,S15-D14,S16-D13,S16-D14,S16-D22
535.8592,-1.92233831825971,0.71971085953663,-1.58106975441801,-1.18451290418717,0.663713657734716,0.663713657734846,-2.32331449985723,0.903130252114903,-1.72928588893182,-1.72774390856292,-0.176231176155674,-1.72774390856233,-0.792336416544898,-0.746855447254857,-0.905195102297284,-0.287786296897156,1.09114614513316,0.404835576928565,-0.31293509354573,-1.54161446683023,-0.312935093545634,-1.59742954254226,-1.34386807595614,-2.1519885026736,-0.0857272051795752,0.182272700614018,0.182272700613028,-0.0197760242297988,0.0197760242271316,-1.37876845169784,-0.807444505210963,1.23641837184762,0.135752416246625,-0.967903067505052,0.0839799216592891,-0.739734479687521,-0.0186229132538231,1.0460991067736,1.04609910677473,-1.45712268970341,0.573819052338443,-1.20543996211191,-0.880068575969682,-0.899575558227774,-2.0197616721251,-0.0411055487545586,0.727115994459536,0.727115994461469,-1.90859036121722,1.90859036121645,0.0079397736973398
535.9616,-1.90980025200511,0.669741669971432,-1.60020838966515,-1.16450718099036,0.646157214500711,0.646157214500842,-2.29940334070916,0.886297728381813,-1.71450704312254,-1.73021461890124,-0.149910726088526,-1.73021461890062,-0.777259014220392,-0.77554964986702,-0.903377261586389,-0.275042411926117,1.09551077828986,0.422839809692573,-0.243719849497799,-1.52972642203654,-0.24371984949771,-1.52974532618994,-1.35089459561898,-2.09185121446448,-0.06203299038188,0.189639358608885,0.189639358607896,-0.0150137470794139,0.0150137470767407,-1.37234444704647,-0.831888871574917,1.21335509904001,0.105555120577169,-1.00190662429142,0.0985827030562745,-0.757540857199775,-0.0366761448002448,1.0356775500314,1.03567755003253,-1.46302686287784,0.577413239629372,-1.20931188495036,-0.874996958414414,-0.886986920174433,-2.00010897690161,-0.0334119829442691,0.663843926406204,0.66384392640811,-1.9144623385753,1.91446233857452,-0.061721453436836
536.064,-1.8958786557768,0.619514390992063,-1.61804005142117,-1.14582270914059,0.628486442986345,0.628486442986478,-2.27327133374162,0.869653638055888,-1.69765398299578,-1.73045302069721,-0.125334461998667,-1.73045302069657,-0.762463125468805,-0.802844187969126,-0.901283141526829,-0.2615822702233,1.09907409038523,0.441142122397136,-0.173864120003631,-1.51760377011584,-0.173864120003549,-1.46159456629334,-1.35658909224475,-2.03062945220072,-0.0378129082337903,0.198371451847045,0.198371451846059,-0.010400497526217,0.0104004975235271,-1.36431155122112,-0.857702219921153,1.1902264741612,0.0743620957494172,-1.03500392396052,0.113007993670408,-0.774724024676777,-0.0538336299361946,1.0254268799357,1.02542687993683,-1.46802923435728,0.579669103032658,-1.21322212491051,-0.869824528093592,-0.873562131316334,-1.9794315470344,-0.0247835278218061,0.599284252459809,0.599284252461689,-1.91988777640189,1.91988777640112,-0.130363002382015
536.1664,-1.88068047310781,0.56922661353143,-1.63455021213508,-1.12848596884062,0.61085459931796,0.610854599318095,-2.24496818880412,0.853338203220484,-1.67871529119934,-1.72856428397787,-0.102568228251593,-1.72856428397721,-0.748008991083076,-0.828640393557088,-0.898925742661973,-0.247413157317198,1.10184421909762,0.459739474138673,-0.103528608883674,-1.50522736859526,-0.103528608883599,-1.39320012551434,-1.36098721828626,-1.96854975965054,-0.013065265273738,0.208501196184553,0.208501196183573,-0.00595793010836874,0.00595793010566648,-1.35464581397421,-0.884799675039031,1.16710537867026,0.0422741099043033,-1.06707812119955,0.127197851961633,-0.791228244783016,-0.0699869789931068,1.0154020511634,1.01540205116453,-1.47212376430848,0.580539542036286,-1.21720136297226,-0.864542547126341,-0.859342973737578,-1.95776421164269,-0.0151876959213908,0.533600500451873,0.533600500453727,-1.92486533525439,1.92486533525361,-0.197863406947733
536.2688,-1.86431482934676,0.519077910289123,-1.64972538097925,-1.11251528806145,0.59341456238491,0.593414562385044,-2.21454952840722,0.837488953961803,-1.65768594983057,-1.72465945929458,-0.0816688132127935,-1.7246594592939,-0.733955324050111,-0.85284243481544,-0.896317855685872,-0.232548671694289,1.1038337960697,0.478624444846855,-0.0328728785243986,-1.49257640727081,-0.03287287852433,-1.3247816278059,-1.36412153092436,-1.9058341376537,0.0122115956160197,0.220061986896451,0.220061986895479,-0.00170829012854944,0.0017082901258303,-1.34333042208074,-0.913090245378655,1.14406361486262,0.0093956023107014,-1.09801581275811,0.141093977817297,-0.807000872275538,-0.0850316790370387,1.00565018500626,1.0056501850074,-1.47530505589097,0.579984091065542,-1.22127572094083,-0.859138485531492,-0.844375331693643,-1.9351417311463,-0.00459907957121392,0.466958812590478,0.466958812592305,-1.92939415585011,1.92939415584933,-0.264113556648414
536.3712,-1.84689266028849,0.469269078195112,-1.66355320073391,-1.09792103740872,0.576318180764903,0.576318180765036,-2.18207645042243,0.822240463089819,-1.63456705310723,-1.71885489352773,-0.0626837130896538,-1.71885489352702,-0.720358917938758,-0.875357499484355,-0.89347181244795,-0.217008766599634,1.10506009381393,0.497785286187131,0.0379452241506282,-1.47962841761816,0.0379452241506909,-1.25655461102561,-1.36602154329537,-1.84269927338885,0.0380189824238642,0.233088042822379,0.233088042821416,0.00232562625402294,-0.00232562625675993,-1.33035571065394,-0.942477363352368,1.12117148292271,-0.0241659348540363,-1.12770759347571,0.154637998096107,-0.821992612344601,-0.0988676076536013,0.996210524565591,0.996210524566729,-1.47756860882066,0.57796913504954,-1.22546687890213,-0.853596160239918,-0.828709032068303,-1.91159878986673,0.0070006569162839,0.39952742375033,0.39952742375213,-1.93347392627133,1.93347392627055,-0.329016600580545
536.4736,-1.82852634900258,0.420001382325252,-1.67602255246624,-1.08470584206528,0.559715648594248,0.559715648594379,-2.14761510544397,0.807724095185821,-1.6093655274965,-1.71127165234424,-0.0456509429545516,-1.71127165234352,-0.707274284858348,-0.896095984108063,-0.890399262843194,-0.200819726998914,1.10554513162197,0.51720602095979,0.108770127415369,-1.46635928159364,0.108770127415426,-1.18872971539981,-1.36671381103356,-1.77935582043894,0.0643575554455035,0.247614025246143,0.247614025245189,0.00612053479825773,-0.0061205348010115,-1.31571913696784,-0.972859455844137,1.09849737355273,-0.0583005870440315,-1.1560485900592,0.167771762062683,-0.836157753649639,-0.111399512312745,0.987114471411922,0.987114471413061,-1.47891110671531,0.574468099285491,-1.22979225174243,-0.847895941009371,-0.812397632578424,-1.88717001161512,0.0196228354338759,0.331476094010227,0.331476094012,-1.93710498673896,1.93710498673817,-0.392487760858345
536.576,-1.80932936375175,0.37147580199836,-1.68712365995212,-1.07286480571897,0.543754907919664,0.543754907919794,-2.11123628617808,0.794067759443326,-1.58209386114958,-1.70203493937496,-0.0305988945366283,-1.70203493937422,-0.694753324531643,-0.914971691497555,-0.887110979666766,-0.184014088292663,1.10531573842624,0.536866581824391,0.179449079321704,-1.4527432428174,0.179449079321756,-1.12151190350014,-1.36622205051318,-1.71600772382726,0.0912270395737906,0.263674635431476,0.26367463543053,0.00965274192946358,-0.00965274193224078,-1.29942521416919,-1.00413052572952,1.07610738315027,-0.0928966428075355,-1.18293896978084,0.180437637841372,-0.849454379944558,-0.122537454170032,0.978385692848188,0.978385692849328,-1.47933073082484,0.569461613895343,-1.23426521605376,-0.842015024478065,-0.795498158856348,-1.86189000095934,0.0332718702352954,0.262975508893616,0.262975508895358,-1.9402884711572,1.94028847115641,-0.454454058467798
536.6784,-1.78941589318732,0.323892278266156,-1.69684819028927,-1.0623857509232,0.528581071302396,0.528581071302524,-2.07301502223897,0.781395661542076,-1.55276983858942,-1.69127349624357,-0.0175462518194045,-1.69127349624281,-0.682845024644101,-0.931902036707533,-0.883616691670911,-0.166630507592034,1.10440357680365,0.556742979461031,0.249832674147131,-1.43875292806825,0.249832674147176,-1.0550997154612,-1.36456729144239,-1.65285159481198,0.118625940102431,0.281304196657622,0.281304196656683,0.0128982260230403,-0.0128982260258337,-1.28148539992864,-1.03618072371578,1.05406496018656,-0.127841194776824,-1.20828441636467,0.192578803551454,-0.861844558361544,-0.132197217653382,0.970040292017578,0.970040292018719,-1.47882748533105,0.562937641699535,-1.23889537942973,-0.835927771766882,-0.778070790952164,-1.83579340530039,0.0479454257180769,0.194196667824564,0.194196667826279,-1.94302648371773,1.94302648371694,-0.51485395555666
536.7808,-1.76890048018895,0.27744895964774,-1.70518935420709,-1.05324948924144,0.514335857917645,0.514335857917772,-2.03303018186901,0.769828050474817,-1.52141628365152,-1.67911897210728,-0.00650197931578978,-1.6791189721065,-0.67159519578831,-0.946808261864664,-0.879924947613406,-0.148713601323425,1.10284513632357,0.576807489528238,0.319775352785311,-1.42435938742002,0.319775352785352,-0.989684572972768,-1.36176806608509,-1.59007614924998,0.146551258744127,0.300536230683898,0.300536230682975,0.0158327050968233,-0.015832705099636,-1.26191793849338,-1.06889689590489,1.03243059310794,-0.163020700108946,-1.23199656312534,0.204139531755941,-0.873294497114944,-0.140300686794187,0.962087038820447,0.962087038821589,-1.4774035200352,0.554891560160448,-1.24368888342103,-0.829606103360248,-0.760178494579308,-1.80891498524324,0.0636346307981713,0.125310275403592,0.125310275405274,-1.9453223076264,1.9453223076256,-0.573636917204843
536.8832,-1.74789765717453,0.232341442363905,-1.7121420115214,-1.04543013575354,0.501157038258971,0.501157038259096,-1.99136408811794,0.759480953364458,-1.48806082024744,-1.66570526194535,0.00253460700031747,-1.66570526194456,-0.661046245744595,-0.959615659873963,-0.876043015118799,-0.130313759067032,1.10068170223603,0.597028850826889,0.389135869257531,-1.40953215618477,0.389135869257566,-0.925450143503953,-1.35784063140736,-1.52786171849005,0.174998213173951,0.321403041150828,0.321403041149917,0.0184316753027243,-0.0184316753055581,-1.24074765857333,-1.10216310307242,1.01126155013876,-0.198321491685998,-1.25399337585889,0.215065470982244,-0.883774663797165,-0.146776189165761,0.954527664724789,0.954527664725928,-1.47506344551639,0.545326197552551,-1.2486487344133,-0.823019948689902,-0.741886587820955,-1.7812896801544,0.0803243526442824,0.0564861346108732,0.0564861346125255,-1.94718064234105,1.94718064234025,-0.63076289302972
536.9856,-1.72652158289495,0.188762004255919,-1.71770278228028,-1.03889547604789,0.489177885652083,0.489177885652207,-1.94810215218568,0.750465891584169,-1.45273565606314,-1.65116782091173,0.00957368405326459,-1.65116782091092,-0.651236994011742,-0.970253805132198,-0.871976814415265,-0.111486934744216,1.09795930131821,0.617372474595574,0.457777723260155,-1.39423933863882,0.457777723260184,-0.862571763540332,-1.35279921449115,-1.46637982696397,0.203959966756811,0.343935314086818,0.343935314085925,0.0206704101315523,-0.0206704101344089,-1.21800573183333,-1.13586111581752,0.990611677158745,-0.233630239483573,-1.27419948303307,0.225303931018403,-0.893259857536102,-0.151558809656536,0.947357226913861,0.947357226914997,-1.47181464322741,0.534251827855848,-1.25377516165534,-0.816137750632097,-0.72326223646643,-1.7529526617642,0.0979935299279563,-0.0121074732888425,-0.012107473287221,-1.94860786793025,1.94860786792945,-0.686201719258983
537.088,-1.70488567980471,0.146898837712294,-1.72187015916908,-1.03360738610368,0.478526634816194,0.478526634816319,-1.90333251991596,0.742889576790434,-1.41547738613746,-1.63564296429526,0.0146346863803177,-1.63564296429443,-0.642202523525066,-0.978656785959119,-0.867730882585485,-0.0922944088405463,1.09472862269834,0.637800670894235,0.525569564696436,-1.37844771592909,0.52556956469646,-0.801215913851725,-1.34665626826274,-1.40579282363391,0.233427375633345,0.368161741491937,0.368161741491061,0.0225239205168475,-0.0225239205197202,-1.19372939838208,-1.16987089368741,0.97053125269498,-0.268834368326644,-1.29254645558173,0.234804176527767,-0.901729233726186,-0.154590674935084,0.940564543375431,0.940564543376565,-1.46766757275,0.521686129512403,-1.25906600087381,-0.808927018386034,-0.704373882450719,-1.72393937288903,0.116615559412046,-0.0803044357202163,-0.0803044357186236,-1.94961233671273,1.94961233671192,-0.739932448001264
537.1904,-1.68310227390632,0.106935293297847,-1.72464461559082,-1.02952230106625,0.469325947321057,0.469325947321185,-1.85714572586629,0.736853591386417,-1.37632680949457,-1.61926716070947,0.0177460009028544,-1.61926716070863,-0.633974067070843,-0.984763430925649,-0.863308363520475,-0.0728025131401899,1.09104490633043,0.658272897131066,0.592385573586988,-1.36212288365168,0.592385573587007,-0.741539747001066,-1.33942272269097,-1.34625356028949,0.263388759044869,0.394108671036994,0.39410867103614,0.0239668858665713,-0.023966885869468,-1.16796166625852,-1.20407105655102,0.951066893068286,-0.303822441774518,-1.3089730415103,0.243517727228742,-0.909166286860891,-0.155821205274699,0.934132690155192,0.934132690156324,-1.46263607266583,0.507654114603135,-1.26451709419819,-0.801354908214326,-0.685290624119382,-1.6942855471415,0.136158718815314,-0.14794147674728,-0.147941476745716,-1.95020468735832,1.95020468735751,-0.791942619677812
537.2928,-1.66128224016982,0.0690491473208932,-1.72602870411824,-1.02659172799394,0.461692382601664,0.461692382601792,-1.80963435091054,0.732454060036146,-1.33532875253978,-1.60217632339045,0.0189446021142879,-1.6021763233896,-0.626578929141424,-0.988517523399954,-0.858711022135482,-0.0530823122178614,1.08696778836072,0.678746028179404,0.658105811585743,-1.34522942483385,0.658105811585758,-0.683690674454622,-1.33110821592128,-1.28790511606586,0.293829694846733,0.42179978219534,0.421799782194508,0.0249735698191492,-0.0249735698220657,-1.14075099173995,-1.2383393516927,0.932261498383903,-0.338484519845354,-1.32342536113702,0.251398658800037,-0.915558800373042,-0.155207329649884,0.928039542980204,0.928039542981333,-1.45673764529049,0.492188035820816,-1.27012268937984,-0.793388802896876,-0.666081574994083,-1.66402720384429,0.156586602440911,-0.214858822550868,-0.21485882254933,-1.95039816514643,1.95039816514562,-0.842227499530285
537.3952,-1.63953465289228,0.033411901075038,-1.72602713960793,-1.02476279819695,0.455735873084942,0.45573587308507,-1.76089268133422,0.729781316515186,-1.29253189566625,-1.58450510345466,0.0182756359689261,-1.58450510345379,-0.620040445535209,-0.989868005138292,-0.853939284997335,-0.0332092403549411,1.08256109501669,0.699174643949009,0.722616537591688,-1.32773112327731,0.722616537591697,-0.627806017302783,-1.32172129248349,-1.23088056570503,0.324732836210342,0.45125578499113,0.45125578499032,0.0255177319950133,-0.0255177319979474,-1.1121509475785,-1.27255311201976,0.914154231082113,-0.372712492052776,-1.33585706754153,0.258403900603883,-0.920898769999038,-0.152713665832069,0.922258344879041,0.922258344880166,-1.44999371385038,0.475327276854009,-1.27587582079056,-0.784996865161098,-0.64681522529753,-1.63320061499301,0.177858550365466,-0.280900841972005,-0.280900841970495,-1.95020892209269,1.95020892209188,-0.890789294581994
537.4976,-1.61796643514886,0.000188111687169743,-1.72464686078669,-1.02397885475718,0.451559202815701,0.45155920281583,-1.71101636859975,0.728919565899879,-1.24798860233165,-1.56638618917703,0.0157919591592931,-1.56638618917616,-0.614377981466798,-0.988769175281445,-0.848992310262655,-0.0132626942840878,1.07789258199725,0.719511331874235,0.785810483303879,-1.30959122340612,0.785810483303883,-0.574012715116911,-1.31126956147821,-1.1753027829771,0.356077740643554,0.482494132948034,0.482494132947245,0.0255725423809591,-0.0255725423839179,-1.08221988682467,-1.30658969490478,0.896780521398401,-0.406400381620716,-1.34622947438914,0.264493530849564,-0.925182302019115,-0.148312674896128,0.916758287756884,0.916758287758005,-1.44242984377443,0.457118228530922,-1.28176866082072,-0.776148552833344,-0.627558821730391,-1.60184224646522,0.199930062333442,-0.345916652915597,-0.345916652914113,-1.94965627163598,1.94965627163518,-0.937636358252596
537.6,-1.59668200103142,-0.0304652485677526,-1.72189706563206,-1.02418006902674,0.449257490614161,0.44925749061429,-1.66010208921713,0.729946539656839,-1.20175475107296,-1.54794961418794,0.0115536400091333,-1.54794961418706,-0.609606967523438,-0.985180892069567,-0.843868089019122,0.0066744190007802,1.07303361908178,0.739707005026439,0.847587090671958,-1.29077274307376,0.847587090671957,-0.522427081993054,-1.299759813871,-1.12128426855886,0.387840701593087,0.515528739551718,0.515528739550952,0.0251105028724245,-0.0251105028754021,-1.05102060765905,-1.34032689005114,0.880172097550998,-0.439444613982742,-1.3545116498629,0.269631070746268,-0.928409484239997,-0.141984801155728,0.911505103141401,0.911505103142516,-1.43407592289245,0.437614152397851,-1.28779283439617,-0.766815091333663,-0.608377775202172,-1.56998867877064,0.222753197535886,-0.409760693991482,-0.409760693990023,-1.94876288129965,1.94876288129884,-0.982782385616637
537.7024,-1.57578289054751,-0.0583994045450532,-1.71778922045028,-1.02530407627136,0.448917681840146,0.448917681840275,-1.60824720486532,0.732933143954919,-1.153889570461,-1.5293220745701,0.00562742722175125,-1.52932207456921,-0.605738974272647,-0.979068781814145,-0.838563580306729,0.0265161785060199,1.06805882179108,0.759711236083098,0.907852714905298,-1.27123883802219,0.907852714905294,-0.473154601285559,-1.28719810512459,-1.06892699741563,0.419994576249406,0.550369689337505,0.550369689336763,0.0241033830762639,-0.0241033830792615,-1.01862001768561,-1.37364328742935,0.864357042314153,-0.471744242356212,-1.36068047105787,0.273783773203387,-0.930584228179893,-0.133718600471518,0.906461659665366,0.906461659666475,-1.4249662959412,0.416875036053885,-1.29393968791697,-0.756969895816867,-0.589335108021146,-1.53767651064307,0.246276967703683,-0.472293256140629,-0.472293256139194,-1.9475548909877,1.94755489098689,-1.02624560585417
537.8048,-1.55536740362642,-0.0834743576273184,-1.71233704661358,-1.0272866169473,0.450618056297095,0.450618056297222,-1.55554942283179,0.737943108707451,-1.10445547404906,-1.51062625309002,-0.00191380541314455,-1.51062625308912,-0.60278182506854,-0.970404454165137,-0.833074879109782,0.0461741832678703,1.06304563673474,0.779472604245433,0.9665207937429,-1.25095320317302,0.966520793742891,-0.426289756878429,-1.27358981775789,-1.01832229074603,0.452508608876057,0.587022939665146,0.587022939664431,0.0225221808510667,-0.0225221808540814,-0.985088790255685,-1.40641860403331,0.849359877763404,-0.503201128502221,-1.36472063009931,0.276922892232707,-0.931714084966262,-0.123510848150738,0.901588560574744,0.901588560575848,-1.41513984930295,0.394967442710036,-1.30020050599719,-0.746588930690979,-0.570490952575192,-1.50494224390964,0.270447729624671,-0.533380960784873,-0.533380960783463,-1.94606194584353,1.94606194584272,-1.06804798665699
537.9072,-1.5355302402765,-0.105559426255354,-1.70555648857288,-1.03006216986819,0.454427761677693,0.454427761677821,-1.50210645399893,0.745032649996241,-1.0535178877545,-1.49198015016831,-0.0109916267120175,-1.4919801501674,-0.600739737005916,-0.959165715209541,-0.827397406199902,0.065558115527383,1.05807388842486,0.798939050243044,1.023511980174,-1.22988048762126,1.02351198017399,-0.381915904995454,-1.2589397233884,-0.969550725736953,0.485348255637576,0.625490014866625,0.625490014865936,0.0203371172514387,-0.0203371172544711,-0.950501007845525,-1.43853398026258,0.83520167239104,-0.533720089529016,-1.36662458453332,0.279023914646624,-0.93181004172064,-0.111366611498321,0.89684472848067,0.896844728481768,-1.40464004460436,0.37196434601189,-1.30656668158828,-0.735651001190628,-0.551902103390003,-1.47182214535145,0.295209574793841,-0.592897175316943,-0.592897175315555,-1.94431714186048,1.94431714185967,-1.10821447317396
538.0096,-1.51636215179287,-0.124533743448887,-1.69746566567263,-1.03356456849329,0.460406381448154,0.46040638144828,-1.44801566417836,0.754250156604605,-1.00114506159833,-1.47349642450583,-0.0215226155821603,-1.47349642450492,-0.599613471224922,-0.945336764434012,-0.821526099702235,0.0845763261109007,1.0532252886691,0.818058232001088,1.07875423263519,-1.20798669974236,1.07875423263517,-0.34010519587645,-1.2432520616908,-0.922682100346461,0.51847502291242,0.665767698014785,0.665767698014123,0.0175176737176577,-0.0175176737207079,-0.914933794496061,-1.46987226469307,0.821900154924155,-0.563209032762892,-1.36639244961485,0.280066739703248,-0.930886306545255,-0.0972992727940401,0.892187962449358,0.892187962450451,-1.39351490344038,0.34794492982255,-1.31302985826821,-0.724137984327461,-0.533621612079639,-1.43835208291323,0.320504705801318,-0.65072236937101,-0.650722369369642,-1.94235689451604,1.94235689451523,-1.14677228363968
538.112,-1.49794960836307,-0.14028670961487,-1.68808481236125,-1.0377275977174,0.468603544001399,0.468603544001524,-1.39337371766222,0.765635905681401,-0.94740786277384,-1.45528174991912,-0.033418919415017,-1.4552817499182,-0.599400477095137,-0.928908362554825,-0.815455591279754,0.103136436319065,1.04858290425934,0.836777871330727,1.13218285577584,-1.18523958241712,1.13218285577582,-0.300918555791241,-1.22653064579585,-0.877775467568363,0.551846332583013,0.707847725513472,0.707847725512833,0.0140326795141,-0.014032679517172,-0.878466942227474,-1.50031830412065,0.809469817082538,-0.591579100583957,-1.3640318357128,0.28003580118951,-0.928960088636164,-0.0813304931711106,0.887575455322564,0.887575455323653,-1.38181694725527,0.322994334374486,-1.31958206413032,-0.71203501087097,-0.515698413397977,-1.40456733735499,0.346273787280982,-0.706744417963198,-0.706744417961849,-1.9402207415602,1.94022074155939,-1.18375027344894
538.2144,-1.48037448942451,-0.152718398504136,-1.67743621217865,-1.04248556964733,0.479058578656636,0.47905857865676,-1.3382762148086,0.779221810357729,-0.892379550549601,-1.43743619819705,-0.046588799452231,-1.43743619819612,-0.600095024650549,-0.909877962731239,-0.809180359723071,0.121145952881061,1.04423058182814,0.855046086813258,1.18374049023637,-1.16160894746236,1.18374049023634,-0.264405732946868,-1.20877899327387,-0.834879242101344,0.585415423222863,0.75171648745232,0.751716487451708,0.00985045454187996,-0.00985045454496894,-0.841182534628928,-1.52975924944824,0.797921993301741,-0.618744839420093,-1.35955763851553,0.278920134614694,-0.926051377986853,-0.0634901158655279,0.882964265253212,0.882964265254299,-1.36960309602623,0.297203343087246,-1.32621584598249,-0.699330607342608,-0.498176976115706,-1.37050239323334,0.372456263536081,-0.760858849422285,-0.760858849420954,-1.93795108514775,1.93795108514694,-1.21917836829645
538.3168,-1.46371380153725,-0.161739910869322,-1.66554412705589,-1.04777387316116,0.49180022497383,0.491800224973953,-1.28281732648843,0.795031206101709,-0.836135532834008,-1.42005266006727,-0.060937161773479,-1.42005266006633,-0.601688325265304,-0.888249802128439,-0.802694860848269,0.138512895539169,1.04025233705431,0.872811717262946,1.23337705925932,-1.1370669722557,1.23337705925929,-0.230605400476222,-1.19000047385561,-0.79403136873345,0.619131289703172,0.797354735004432,0.797354735003843,0.00493900593950432,-0.00493900594261097,-0.803164568644762,-1.55808488316541,0.787264911690031,-0.644624400175199,-1.35299179235486,0.276713396835588,-0.92218272805605,-0.0438160155801098,0.878311743013153,0.878311743014237,-1.35693452942006,0.270668015610846,-1.33292440361094,-0.686016806114465,-0.481096975396092,-1.33619071523125,0.398990642068223,-0.812969032771737,-0.812969032770424,-1.93559288093048,1.93559288092968,-1.25308706081572
538.4192,-1.44803942551683,-0.167273669312614,-1.65243471955094,-1.0535294892746,0.506846402320841,0.506846402320963,-1.22708943120078,0.813078688516084,-0.778753104539609,-1.40321631717304,-0.0763660724024593,-1.40321631717209,-0.604168641442703,-0.864034953674508,-0.795993634348282,0.155146435048599,1.03673172470971,0.890024644404625,1.28104968600896,-1.11158847081747,1.28104968600893,-0.199545304077386,-1.17019846402504,-0.755259535983349,0.652938659620123,0.844737295622685,0.844737295622117,-0.000733728281807675,0.000733728278675536,-0.764498574711357,-1.58518797050474,0.777503715271498,-0.669139772088916,-1.34436299660936,0.273413846016913,-0.917379044070279,-0.0223539041393121,0.873575922519588,0.873575922520668,-1.34387651494433,0.243489276293722,-1.33970172193103,-0.672089230375711,-0.464492988164647,-1.3016645194944,0.425814748670841,-0.862986307117093,-0.862986307115797,-1.9331932916244,1.9331932916236,-1.2855069616774
538.5216,-1.43341789221641,-0.169253650789096,-1.63813596507063,-1.0596914650365,0.524204044780551,0.524204044780671,-1.171182764312,0.833370017839327,-0.720311170145613,-1.3870041762802,-0.0927752534645546,-1.38700417627924,-0.607521386553337,-0.837251341125809,-0.789071389388223,0.170957534755583,1.03375121096079,0.906636121308556,1.32672259398039,-1.08515115107233,1.32672259398036,-0.171242442492419,-1.14937650431616,-0.71858142188608,0.686778003427563,0.893832796066899,0.893832796066355,-0.00719959774494356,0.00719959774178996,-0.725271235639718,-1.61096463258492,0.768640457028084,-0.692217046851974,-1.33370642120125,0.269024286931706,-0.911667378409963,0.000842900195680205,0.868715882602102,0.868715882603178,-1.33049820539408,0.215772466580857,-1.3465426968661,-0.65754715364688,-0.448394223545278,-1.2669545526589,0.452865962912483,-0.910830064205314,-0.910830064204031,-1.93080132550749,1.93080132550669,-1.3164683959633
538.624,-1.41991018441426,-0.167625555586607,-1.62267755059998,-1.06620134033433,0.543869004737119,0.543869004737236,-1.11518508639765,0.855902102104214,-0.660889951952008,-1.37148467088971,-0.110062557176215,-1.37148467088874,-0.611729214657514,-0.807923723146466,-0.78192307110215,0.18585958866922,1.03139156183693,0.922599107716943,1.3703669954416,-1.05773586408176,1.37036699544156,-0.145703271686265,-1.12753846278071,-0.684004965025228,0.720585575174377,0.944603392662658,0.944603392662135,-0.0144899291269325,0.0144899291237604,-0.685570005665145,-1.63531473480537,0.760674074386473,-0.713786705059055,-1.32106339059211,0.263551982585657,-0.90507673189756,0.025713738109959,0.863692082506966,0.863692082508039,-1.31687239998546,0.187626865901882,-1.35344324491471,-0.64239352565326,-0.43282430771555,-1.23208988977903,0.480081442663742,-0.956427794401745,-0.956427794400477,-1.92846746961823,1.92846746961743,-1.34600104208546
538.7264,-1.40757155906734,-0.162346913165391,-1.60609075407008,-1.07300352285094,0.565826027832614,0.565826027832728,-1.05918136971345,0.880663059445809,-0.600570682952175,-1.35671732647566,-0.128124417649306,-1.35671732647469,-0.616772098799761,-0.776083654464805,-0.774543909590423,0.199769051286039,1.02973124589909,0.9378686053303,1.41196096561713,-1.02932684260551,1.41196096561709,-0.122923926307973,-1.10468871198018,-0.651528658354565,0.754293481398529,0.997004509847178,0.997004509846679,-0.0226351917324276,0.022635191729239,-0.645482733718746,-1.65814227740548,0.753600350722459,-0.733783911539902,-1.3064810398031,0.25700853192784,-0.897637855811929,0.0521909112187338,0.858466666078698,0.858466666079767,-1.30307525520244,0.159165178393124,-1.3604003825752,-0.626634955745043,-0.417801138882133,-1.19709775767045,0.507398345231667,-0.999715100491139,-0.999715100489883,-1.92624331265262,1.92624331265182,-1.37413362027125
538.8288,-1.39645138187297,-0.153387130089198,-1.58840829917762,-1.08004560887748,0.59004879960781,0.59004879960792,-1.00325349851902,0.907632342905566,-0.539435287144522,-1.34275248038529,-0.146856284153255,-1.34275248038431,-0.622627395787659,-0.741769434576316,-0.766929453579067,0.212606052790024,1.02884583968136,0.952401977739949,1.45148929781562,-0.999911917141522,1.45148929781558,-0.102890456877413,-1.08083232419099,-0.621141866623141,0.787829777582421,1.05098459312187,1.05098459312139,-0.0316646441420784,0.0316646441388745,-0.605097298411639,-1.67935577258336,0.747411877514021,-0.752148800910541,-1.29001193491031,0.249409715327573,-0.889383047220002,0.0802000222717527,0.853003726644356,0.85300372664542,-1.28918593059862,0.13050297773836,-1.36741226493682,-0.610281650629079,-0.403336816471713,-1.16200338425504,0.534754051975803,-1.04063568254153,-1.04063568254029,-1.9241811480273,1.9241811480265,-1.4008936414966
538.9312,-1.38659296934176,-0.140727489773856,-1.56966418686946,-1.08727865286543,0.616500059542042,0.616500059542149,-0.947479982945997,0.936780900842037,-0.477566057774342,-1.32963104994549,-0.166153039914722,-1.32963104994451,-0.629269897714236,-0.705026051548675,-0.759075591662708,0.224294989684186,1.02880742628041,0.966159236716357,1.48894333592074,-0.969482694051668,1.48894333592069,-0.0855790864351239,-1.05597528453895,-0.592825170775159,0.821118594498856,1.1064848886776,1.10648488867715,-0.0416059736717331,0.0416059736685199,-0.564501262235295,-1.6988685977059,0.742098034220675,-0.768826736328969,-1.27171365505473,0.240775310927973,-0.880345932998771,0.1096603531603,0.847269527837081,0.84726952783814,-1.27528616179587,0.101758102947717,-1.37447818031071,-0.593347307995954,-0.389437638093676,-1.12682986881646,0.562086400355057,-1.07914129856216,-1.07914129856092,-1.92233355443045,1.92233355442965,-1.4263072223304
539.0336,-1.3780334403527,-0.1243611110968,-1.54989351017482,-1.09465739186176,0.645131775238028,0.645131775238133,-0.89193568834653,0.9680713523852,-0.415045343483209,-1.31738434836974,-0.185909409371964,-1.31738434836875,-0.636671872909175,-0.665905119121842,-0.750978562641,0.234765081253857,1.02968398540401,0.979103282381515,1.52432078441528,-0.938034686337164,1.52432078441523,-0.0709564896523156,-1.03012472056043,-0.566550741409317,0.854080297658499,1.16343926495032,1.16343926494989,-0.0524849438508285,0.0524849438476102,-0.523781548728196,-1.71659932196601,0.737644995155827,-0.783768534348494,-1.25164834016021,0.231128885333976,-0.870561243580205,0.140485277462267,0.841232679582621,0.841232679583675,-1.26145976192105,0.0730500018575708,-1.38159850488364,-0.575848969413846,-0.376104155113841,-1.09159806726094,0.5893339213112,-1.11519170366131,-1.11519170366008,-1.9207529584993,1.92075295849851,-1.45039896306566
539.136,-1.37080358201864,-0.104292865299958,-1.52913225716276,-1.10214042898898,0.675885370944865,0.675885370944966,-0.836691579505971,1.0014581739533,-0.351955243405848,-1.30603395242871,-0.206020356568552,-1.30603395242772,-0.644803098983349,-0.624464798027959,-0.742634953831911,0.243950886210774,1.031538783787,0.991200096677561,1.55762550266408,-0.905567399543848,1.55762550266403,-0.0589800901202102,-1.00328914610712,-0.542282736267475,0.886631680674308,1.22177409029584,1.22177409029543,-0.064325058553325,0.0643250585501038,-0.483024144027526,-1.73247200928487,0.734035761525375,-0.796930658863835,-1.22988221384574,0.220497563318262,-0.860064580958739,0.172582700979566,0.8348642708041,0.83486427080515,-1.24779205900228,0.0444990255924728,-1.38877462339446,-0.557806835990035,-0.363331280935954,-1.05632649015633,0.616436076965357,-1.14875456874817,-1.14875456874695,-1.91949118588026,1.91949118587947,-1.47319188192391
539.2384,-1.36492773163358,-0.0805392462526161,-1.5074171007044,-1.10969037637244,0.708692008386146,0.708692008386246,-0.781814477079068,1.03688790532153,-0.288377305437939,-1.29559162740676,-0.226381476265717,-1.29559162740577,-0.653630887824013,-0.580769693081444,-0.73404168421298,0.251792779325385,1.03442978265656,1.00241890128209,1.58886729602852,-0.872084384988672,1.58886729602846,-0.0495983646622101,-0.97547871274552,-0.519977707954166,0.918686190553576,1.28140817743861,1.28140817743823,-0.0771472480746977,0.0771472480714638,-0.442313824851921,-1.74641650388127,0.731250214731299,-0.808275390859825,-1.20648509234192,0.20891178194828,-0.848892186087719,0.205855521905742,0.828137962786383,0.828137962787428,-1.23436927907446,0.0162256847300817,-1.39600881839317,-0.539244049294804,-0.351108449385975,-1.02103121369632,0.643333497439333,-1.17980538369057,-1.17980538368936,-1.91859900490736,1.91859900490658,-1.49470739731302
539.3408,-1.36042367258886,-0.0531281912069743,-1.48478517092211,-1.11727395581602,0.743472920071299,0.743472920071396,-0.727366824239929,1.07429938545888,-0.224392221774776,-1.286059314151,-0.246889376159213,-1.28605931415,-0.663120100107985,-0.534890723394624,-0.72519596948511,0.258237392677425,1.0384090771189,1.01273229557291,1.61806171547296,-0.837593271752022,1.61806171547291,-0.0427511429387819,-0.946705459306043,-0.499585006338544,0.950154181914604,1.34225279948947,1.34225279948911,-0.0909695891326555,0.0909695891294149,-0.401733915390083,-1.75836870531235,0.729265190816669,-0.817770978797578,-1.18152988887224,0.19640503226118,-0.83708071127638,0.240202103373955,0.821030047616203,0.821030047617245,-1.22127788546185,-0.0116501199957538,-1.40330412979125,-0.520186441232068,-0.339419820353144,-0.985725804889673,0.669968218816687,-1.20832735248864,-1.20832735248743,-1.91812566510667,1.91812566510588,-1.51496535197621
539.4432,-1.35730254189282,-0.02209885285698,-1.4612738083316,-1.12486205389662,0.780139795607703,0.780139795607798,-0.673406464112567,1.1136240253682,-0.160079519333379,-1.27742918151807,-0.2674420459836,-1.27742918151707,-0.673233149056978,-0.486904968293841,-0.71609526976177,0.263238024982909,1.04352237538228,1.02211638411836,1.64522986919114,-0.802105780456485,1.64522986919108,-0.0383698966901398,-0.916983555153199,-0.481047168180227,0.98094319770329,1.40421177631845,1.40421177631811,-0.105807072129692,0.10580707212645,-0.361366074480973,-1.76827083586304,0.728054576736405,-0.82539177126498,-1.15509212072603,0.183013588239192,-0.824667003724378,0.275516754042253,0.81351947333585,0.813519473336889,-1.20860388620795,-0.0390098845587438,-1.41066419206861,-0.500662261206426,-0.328244527508495,-0.950421265295621,0.69628392029896,-1.23431128142376,-1.23431128142255,-1.91811843443358,1.91811843443279,-1.5339840757149
539.5456,-1.35556874985716,0.0124986763298631,-1.43692029890794,-1.13242972686955,0.81859522229019,0.818595222290284,-0.619986432187357,1.15478612416716,-0.0955172463447802,-1.26968374676257,-0.287939208594502,-1.26968374676156,-0.68392999801747,-0.436895492105471,-0.706737224705772,0.266755015059454,1.04980852499203,1.03055089394327,1.67039824101493,-0.765637718654087,1.67039824101488,-0.036378021341866,-0.886329536650875,-0.464300296282367,1.01095827578055,1.46718162732051,1.4671816273202,-0.121671416714453,0.121671416711212,-0.321290112516252,-1.77607169959415,0.727589426987226,-0.831118332240009,-1.12724942317149,0.168776222395539,-0.81168790410161,0.311690214689253,0.80558783631421,0.805587836315246,-1.1964321228054,-0.0657373004111201,-1.41809305963465,-0.480701891258035,-0.317556963063521,-0.915126000540388,0.722226153598851,-1.25775545194303,-1.25775545194182,-1.9186221451401,1.91862214513931,-1.55178048363216
539.648,-1.35521991724217,0.0506036877167199,-1.41176159658112,-1.13995615316374,0.858733181431906,0.858733181432,-0.567154770340202,1.19770323148344,-0.0307816598408072,-1.26279606486457,-0.30828264769144,-1.26279606486356,-0.695168159729512,-0.384951147595634,-0.697119582358655,0.268756070683456,1.05729909697426,1.03801927868881,1.69359850450597,-0.728208962144894,1.69359850450592,-0.0366911199006441,-0.854762533889551,-0.449274436068862,1.04010228396258,1.53105178587398,1.5310517858737,-0.138570921978499,0.138570921975253,-0.281583834979453,-1.78172693083518,0.727838097087631,-0.834937539406556,-1.09808107022667,0.153733909673293,-0.798180058992696,0.348610150674827,0.797219344323648,0.797219344324679,-1.18484555321483,-0.0917190539813155,-1.42559502625039,-0.460337558408539,-0.307327095526573,-0.879845822228499,0.747742558738812,-1.27866546870566,-1.27866546870445,-1.91967876395012,1.91967876394934,-1.56837020174475
539.7504,-1.35624684091864,0.0921452261667241,-1.38583404616597,-1.14742453754211,0.900439598435084,0.900439598435178,-0.514954369674388,1.2422865500153,0.0340530770042661,-1.25672998389206,-0.32837650640541,-1.25672998389105,-0.706902705408937,-0.331166353585686,-0.687240126586434,0.269216547031447,1.06601803491045,1.04450880760711,1.71486731649873,-0.689843428255156,1.71486731649867,-0.0392173044470342,-0.822304484384275,-0.435893962359847,1.06827628989577,1.59570487070144,1.59570487070119,-0.156510330999741,0.156510330996496,-0.24232290798945,-1.7851992282899,0.728766388101308,-0.836842666132301,-1.06766749916347,0.13792952318208,-0.784179742152705,0.386161652387216,0.788400756757585,0.788400756758611,-1.17392454167265,-0.116845609917475,-1.43317443923272,-0.439603053148571,-0.297520813538636,-0.844583985378491,0.77278306303166,-1.29705407615932,-1.29705407615812,-1.92132700383091,1.92132700383013,-1.58376770492055
539.8528,-1.35863350186588,0.137042500001311,-1.3591731252152,-1.15482197615598,0.943592939645254,0.943592939645348,-0.463422849523722,1.28844136509664,0.0989151758018721,-1.25144046071396,-0.348127551644548,-1.25144046071295,-0.719086288866251,-0.275640839194585,-0.677096604630301,0.268119674521432,1.07598136680345,1.05001063771429,1.73424607285324,-0.650569042361657,1.73424607285319,-0.043857531232572,-0.788980336423135,-0.424077992674859,1.09537997346635,1.66101701291585,1.66101701291564,-0.175490692001774,0.175490691998536,-0.203580742660955,-1.78645857225881,0.730337695025173,-0.836833449432158,-1.03608983644994,0.121407525325982,-0.769722680185595,0.424227745968647,0.779121308257359,0.779121308258381,-1.16374616821153,-0.141011960315201,-1.44083550902287,-0.418533463464811,-0.28810028644899,-0.809341262448278,0.797300058359211,-1.31294093668206,-1.31294093668085,-1.9236019908591,1.92360199085831,-1.5979864524666
539.9552,-1.36235712541603,0.185205323766465,-1.33181322022651,-1.16213929233632,0.988064847955414,0.98806484795551,-0.412592478991845,1.33606749018146,0.163735471970276,-1.24687393324408,-0.367445400976442,-1.24687393324307,-0.731669186863784,-0.218479347662038,-0.666686653198124,0.265456737904296,1.08719697637993,1.05451986899531,1.75178061848007,-0.610417694034543,1.75178061848001,-0.0505059792757724,-0.754818248557928,-0.413740839504013,1.12131208579782,1.7268582443638,1.72685824436363,-0.195509209535301,0.195509209532072,-0.165428398275343,-1.78548242870315,0.732513154732037,-0.83491614896956,-1.00342942739924,0.104213657572573,-0.754843882235431,0.462689913271544,0.76937261970168,0.769372619702696,-1.15438357218269,-0.164118325041827,-1.44858211855237,-0.397164932312725,-0.279024334598577,-0.774116055738696,0.821248550085218,-1.32635236325058,-1.32635236324938,-1.92653499273068,1.92653499272989,-1.61103901512504
540.0576,-1.36738829615273,0.236534586681977,-1.30378744440525,-1.16937085098145,1.0337208118853,1.0337208118854,-0.362490144512468,1.385059722835,0.228447636544907,-1.24296874916291,-0.386242711805807,-1.24296874916191,-0.744599355895946,-0.159791298044792,-0.656007722632151,0.26122720708446,1.09966443627026,1.05803558489053,1.76752091837172,-0.569425178113239,1.76752091837167,-0.0590504741336522,-0.719849787934975,-0.404792504430668,1.1459709522743,1.79309295521084,1.79309295521071,-0.216559095278823,0.216559095275599,-0.127934506371305,-1.78225594690018,0.735251793351743,-0.831103601888459,-0.969767376334481,0.0863946331796916,-0.739577476278445,0.50142861563564,0.759148598179278,0.759148598180289,-1.1459053454146,-0.186070791763711,-1.45641764116313,-0.375534445126779,-0.270248802936677,-0.738904549113325,0.844586273964773,-1.33732100587313,-1.33732100587193,-1.93015321092041,1.93015321091962,-1.62293719276378
540.16,-1.37369112439165,0.290922740063675,-1.27512749807222,-1.17651435716629,1.08042086491576,1.08042086491586,-0.313137364154148,1.43530830890438,0.292988349194527,-1.23965565290379,-0.404435336017739,-1.23965565290278,-0.757822507732355,-0.0996904101555569,-0.645057002962113,0.255438818995366,1.11337490771512,1.06056088043968,1.78152070475843,-0.527631117973254,1.78152070475837,-0.0693729533826915,-0.684110124195879,-0.397139209264278,1.16925501173999,1.85958042252094,1.85958042252085,-0.23862943600819,0.238629436004968,-0.0911652187774533,-1.77677215090469,0.738510672205277,-0.825415274128498,-0.93518410538241,0.067997839810268,-0.723956553844815,0.54032381258121,0.748445327147306,0.748445327148314,-1.13837498977901,-0.206781885351508,-1.46434477570454,-0.353679652859586,-0.261726928992607,-0.703700895846458,0.867273782759505,-1.34588550074376,-1.34588550074255,-1.93447963575592,1.93447963575512,-1.63369212044114
540.2624,-1.38122345923735,0.348254296946493,-1.24586357078583,-1.18357064188591,1.12802031110128,1.12802031110138,-0.264550349112717,1.48669941397818,0.357297431687858,-1.23685833271729,-0.421942445103646,-1.23685833271628,-0.771282207666046,-0.0382943031142107,-0.633831358736768,0.24810760996179,1.12831110926746,1.06210287909702,1.79383711260115,-0.485078870466603,1.79383711260109,-0.0813499685975573,-0.647638212744647,-0.390683956279628,1.1910633813291,1.92617540321685,1.92617540321681,-0.261705087470406,0.26170508746719,-0.0551841835954298,-1.76903211566012,0.742245028455467,-0.817877303986993,-0.899758937916066,0.0490710607902695,-0.708013021990784,0.579255464324578,0.737260949300872,0.737260949301874,-1.13185044870601,-0.226171055786587,-1.47236540102194,-0.331638730409126,-0.253409699353632,-0.668497436102206,0.889274507297337,-1.35209009699057,-1.35209009698936,-1.93953295596132,1.93953295596053,-1.64331435938004
540.3648,-1.38993714282697,0.408406336679811,-1.21602428413547,-1.19054343514247,1.17637047095433,1.17637047095444,-0.216740113415462,1.53911560180561,0.421317940757057,-1.23449402810515,-0.438686630495916,-1.23449402810415,-0.784919999354732,0.0242759199302771,-0.622327280269248,0.239257897618143,1.14444735574099,1.06267273797348,1.8045303063377,-0.441815412921152,1.80453030633764,-0.094853219942492,-0.610476959524979,-0.385327110102116,1.21129643463043,1.9927287798539,1.99272877985391,-0.285766590104116,0.285766590100904,-0.0200525544527434,-1.75904511515326,0.746408408121079,-0.808522530434419,-0.863569709181509,0.0296622225547926,-0.691777459315568,0.618104006772768,0.725595544782253,0.725595544783252,-1.12638371497026,-0.244165073740466,-1.48048044384865,-0.309450261225291,-0.245246198171211,-0.633284936908878,0.910554795705326,-1.35598427448633,-1.35598427448512,-1.94532750514373,1.94532750514293,-1.65181397097421
540.4672,-1.39977830004061,0.4712490078907,-1.18563667340443,-1.1974391256223,1.22531944057062,1.22531944057073,-0.169712631030673,1.59243631687436,0.484996219962081,-1.23247419413911,-0.454593983154184,-1.23247419413811,-0.798675560585412,0.0878960885946246,-0.610540859198907,0.22892220984092,1.16174966874389,1.06228563942152,1.81366309338905,-0.397891215396173,1.81366309338899,-0.10975012272302,-0.57267335711651,-0.380966995680698,1.22985637987329,2.05908824420445,2.0590882442045,-0.310790099239587,0.310790099236387,0.0141709609627604,-1.74682873089313,0.750952792052976,-0.797390497637184,-0.826692403808078,0.00981917277961533,-0.675278972617485,0.656750789130635,0.71345100566289,0.713451005663886,-1.12202051134732,-0.260698325245138,-1.48868974937284,-0.287153134095904,-0.237183956888388,-0.598052847934029,0.931083930510498,-1.35762235874139,-1.35762235874018,-1.95187322829715,1.95187322829634,-1.6592005713987
540.5696,-1.41068765818165,0.536646027162806,-1.15472620396788,-1.20426650650772,1.27471285881571,1.27471285881582,-0.123469036975167,1.64653836513229,0.548281911213791,-1.23070521529774,-0.469594155899722,-1.23070521529674,-0.812486895824884,0.152439373201834,-0.598467796807041,0.217141156674652,1.18017595958234,1.06096076475659,1.82130051748199,-0.353360108244446,1.82130051748192,-0.125904406466595,-0.534278580986943,-0.377500507464791,1.246647826088,2.12509900155167,2.12509900155175,-0.336747324407821,0.336747324404631,0.0474300096983685,-1.73240890899276,0.755828715016201,-0.784527427397796,-0.789200818682823,-0.0104105088334706,-0.658545051553519,0.695078467209436,0.700830907912983,0.700830907913974,-1.11880003577485,-0.275713004900753,-1.4969919444895,-0.264786441437543,-0.229169312795573,-0.562789568602533,0.950834120868268,-1.35706313168476,-1.35706313168354,-1.95917565851476,1.95917565851394,-1.66548336300483
540.672,-1.4226008925403,0.60445517657194,-1.12331681602654,-1.21103650581892,1.32439468258956,1.32439468258967,-0.0780058688661975,1.70129638823053,0.611127927302753,-1.22908916085027,-0.483620409949127,-1.22908916084928,-0.826290570633713,0.217776676363352,-0.586103451863283,0.20396324128136,1.19967628432554,1.05872124529187,1.82750942679938,-0.308279156568294,1.82750942679931,-0.143176744543188,-0.495348037044312,-0.374823723619917,1.26157832899022,2.19060448123601,2.19060448123614,-0.363605475145362,0.363605475142189,0.0796704646063204,-1.7158199557304,0.760985378265926,-0.76998615220336,-0.751166250721203,-0.0309796681841688,-0.641601421665122,0.732971350887756,0.687740383843705,0.687740383844691,-1.11675476064923,-0.289159218887658,-1.50538429088965,-0.242389377221418,-0.221147779666532,-0.527482727854109,0.969780471158035,-1.35436943617455,-1.35436943617333,-1.96723589797072,1.96723589796989,-1.67067114114591
540.7744,-1.43544899604059,0.674528805484878,-1.09143099224021,-1.21776189679365,1.37420797484418,1.37420797484429,-0.0333153445890209,1.7565833311234,0.673490389263724,-1.22752457548418,-0.496609643368914,-1.22752457548319,-0.840021985846776,0.28377700607355,-0.573442927081506,0.189444607886838,1.22019316887017,1.05559408682183,1.83235801875335,-0.262708540387111,1.83235801875328,-0.161425408015275,-0.455941357812189,-0.372832518057985,1.2745589138296,2.25544704518115,2.25544704518131,-0.391327216684644,0.391327216681483,0.110840271763417,-1.69710447112877,0.766370759386059,-0.753826006421806,-0.712657211844633,-0.051841708592279,-0.624471901733894,0.770315710674815,0.6741859960626,0.674185996063583,-1.11591028083112,-0.300995016280214,-1.51386253654948,-0.220001143032667,-0.213064427923933,-0.492119483882872,0.987900934185492,-1.34960777548658,-1.34960777548536,-1.97605060316715,1.97605060316632,-1.67477227898294
540.8768,-1.44915867341906,0.746714338648887,-1.05908984742045,-1.22445698404884,1.42399570866229,1.42399570866241,0.010614332162292,1.81227090513608,0.735328536839315,-1.22590729852832,-0.508502396706291,-1.22590729852734,-0.853615678760053,0.350307836550521,-0.560481181687835,0.173648729077078,1.24166199809612,1.05161006630004,1.83591537189849,-0.216711424699206,1.83591537189842,-0.180506934410031,-0.41612235286075,-0.371423164277553,1.28550457862353,2.31946869298983,2.31946869299003,-0.419870645418267,0.419870645415117,0.140889288432431,-1.67631323473226,0.771931724021793,-0.736112682949404,-0.673739174817013,-0.0729507045953202,-0.607178273948822,0.807000051421108,0.660175610672795,0.660175610673775,-1.11628521114107,-0.311186366710261,-1.52242078090896,-0.197660878436678,-0.204864262910235,-0.456686850722953,1.00517625872338,-1.34284791222908,-1.34284791222785,-1.98561198841487,1.98561198841403,-1.67779469309463
540.9792,-1.46365276147593,0.820854789037382,-1.02631324292287,-1.23113726804233,1.47360158470719,1.47360158470731,0.0537986483579231,1.86823004715606,0.796604621203851,-1.22413130204557,-0.519242832628825,-1.22413130204459,-0.867005634199031,0.417235469615141,-0.547213151739794,0.156646040195861,1.26401146008657,1.04680360369468,1.83825098064292,-0.170353805685321,1.83825098064285,-0.200276803534693,-0.375958922963106,-0.370492928212276,1.2943347852414,2.38251177035245,2.38251177035269,-0.449189295089962,0.449189295086817,0.169769118531811,-1.65350506427107,0.777614141747676,-0.716918068526251,-0.634474352462872,-0.0942615020335994,-0.589740171991731,0.842915360054662,0.645718269235362,0.645718269236339,-1.11789113405596,-0.319707097251034,-1.53105136481891,-0.175407630567681,-0.196492583873147,-0.421172050591215,1.02158993593964,-1.33416247258187,-1.33416247258064,-1.99590787193168,1.99590787193084,-1.67974579140349
541.0816,-1.47885067664998,0.896789275130308,-0.993119927282128,-1.23781909879121,1.52287085499133,1.52287085499145,0.0962564452798802,1.92433137130641,0.857283783133551,-1.2220895357934,-0.52877869100346,-1.22208953579244,-0.880125593666272,0.484425409330339,-0.533633864139589,0.138513529896609,1.28716403649686,1.04121261361623,1.83943430916307,-0.123704332700382,1.839434309163,-0.220590116590888,-0.335522942939669,-0.369940648980615,1.30097394405502,2.44441969330677,2.44441969330704,-0.479232183161752,0.479232183158616,0.197432950857002,-1.62874665963829,0.783363009685326,-0.696320064371902,-0.594921512922909,-0.115729805276125,-0.572174989831607,0.877955332898753,0.63082406351755,0.63082406351852,-1.12073259582129,-0.326538795010978,-1.53974478839647,-0.153280366970274,-0.187895310431022,-0.385562882456143,1.03712814427696,-1.32362656161698,-1.32362656161575,-2.00692178334975,2.0069217833489,-1.68063240793042
541.184,-1.49466888999146,0.974353544529331,-0.959527701932799,-1.24451933332448,1.5716511440656,1.57165114406573,0.138009566782224,1.98044560649558,0.917333911671976,-1.21967476746555,-0.537061225017493,-1.21967476746459,-0.892909358268486,0.551742756313552,-0.519738538581907,0.119334291148872,1.31103653267427,1.03487833742496,1.83953437934554,-0.0768341122725819,1.83953437934547,-0.241302275122654,-0.294890111220991,-0.369667303327503,1.30535189012964,2.50503769598494,2.50503769598523,-0.509943910639815,0.509943910636692,0.223835411324694,-1.60211243017651,0.78912259391329,-0.674402385042815,-0.555135836292442,-0.137312252716616,-0.554497816431733,0.912016587106531,0.615504018633896,0.615504018634861,-1.12480715212925,-0.331670675672208,-1.5484896582884,-0.131318024110207,-0.179019272405252,-0.349848093366343,1.05177969151622,-1.31131739505796,-1.31131739505672,-2.01863313409225,2.01863313409139,-1.68046073493016
541.2864,-1.5110214274105,1.05338050406081,-0.925553609653895,-1.25125500926847,1.61979325647124,1.61979325647138,0.17908248463626,2.03644401498813,0.9767254745714,-1.21678040852162,-0.54404512586157,-1.21678040852067,-0.905291085473659,0.619052619165337,-0.505522678395093,0.0991970319285329,1.33554064388739,1.02784515242557,1.83861940287301,-0.0298164973113625,1.83861940287293,-0.262269652199192,-0.25413976246689,-0.369576544846168,1.30740434032472,2.56421359470154,2.56421359470186,-0.541264832205045,0.541264832201935,0.248932443473765,-1.57368429411344,0.794836602345756,-0.651254319940091,-0.515168819210145,-0.158966482056145,-0.536721402853656,0.944998857752518,0.599769989123983,0.59976998912494,-1.13010547087065,-0.335099412547658,-1.55727266858382,-0.109559578940532,-0.169812463970752,-0.314017738572331,1.06553595356323,-1.29731395174661,-1.29731395174537,-2.03101743749341,2.03101743749255,-1.67923626469137
541.3888,-1.52782038923312,1.13370075295106,-0.891214141597104,-1.25804304230289,1.66715195700788,1.66715195700802,0.219501895097102,2.0921987893836,1.03543131418648,-1.21330131752489,-0.549688443329539,-1.21330131752396,-0.917205582225044,0.686220533180378,-0.490982155838361,0.0781955460063321,1.36058355466732,1.02016035659336,1.83675645910376,0.0172731370626,1.83675645910368,-0.283350245909714,-0.213354642880893,-0.369575208488755,1.30707331720882,2.62179854824801,2.62179854824835,-0.57313130182959,0.573131301826494,0.272681226174695,-1.54355143603686,0.800448397783298,-0.626970442651013,-0.475068231175366,-0.180651185295156,-0.518856164821576,0.976805179515448,0.583634571157425,0.583634571158376,-1.13661149855628,-0.336828920519653,-1.56607861840773,-0.0880441311536655,-0.160224263712098,-0.278063517454783,1.07839080921305,-1.28169664778786,-1.28169664778661,-2.04404656184339,2.04404656184252,-1.67696374935673
541.4912,-1.54497647762409,1.21514311363806,-0.856525454238586,-1.26489995214689,1.71358670881855,1.71358670881869,0.259296288460303,2.1475834245643,1.09342640903473,-1.20913457218029,-0.553952508094955,-1.20913457217937,-0.928588597357025,0.753112874611401,-0.476113298434637,0.0564281508231072,1.3860685649885,1.0118739327947,1.83401121306225,0.0643576245551923,1.83401121306218,-0.304404307372102,-0.17262065046426,-0.369573774133255,1.30430752763487,2.67764779056518,2.67764779056554,-0.605475977420769,0.605475977417685,0.295040129132767,-1.51181000628149,0.805901249750298,-0.601650257616453,-0.434878121727157,-0.202326151927225,-0.500910218973267,1.00734205221246,0.567111032981968,0.567111032982913,-1.14430268643153,-0.336870096358141,-1.57489046285156,-0.0668109836080851,-0.150205624327367,-0.241979074435317,1.09034056862856,-1.26454703005596,-1.26454703005472,-2.05768900181756,2.05768900181668,-1.67364718243209
541.5936,-1.56239951595637,1.29753515368531,-0.821503583533644,-1.27184162216844,1.75896235320502,1.75896235320517,0.298495501275564,2.20247306011579,1.1506876079234,-1.2041801983073,-0.556801859570673,-1.20418019830638,-0.939377114697376,0.819597261295201,-0.46091298075247,0.0339971036565357,1.41189573222827,1.00303829817073,1.83044766571538,0.111358234102293,1.83044766571531,-0.32529494020914,-0.132026541362828,-0.369486786906407,1.2990626868918,2.73162131411728,2.73162131411766,-0.638228158687424,0.638228158684349,0.315968701553266,-1.47856274412191,0.811138616460542,-0.575397776355308,-0.394638873734182,-0.223952299021909,-0.482889447955609,1.03651959075364,0.550213264729318,0.550213264730257,-1.15315026395829,-0.335240522097004,-1.58368938849978,-0.0458997055386801,-0.139709242366188,-0.205760257813204,1.10138389208639,-1.24594748637965,-1.2459474863784,-2.0719101546756,2.07191015467472,-1.66928980180742
541.696,-1.57999894574156,1.38070369260968,-0.786164644964535,-1.27888309697456,1.80314971829152,1.80314971829166,0.337130263711053,2.2567447902576,1.20719334670046,-1.1983418435633,-0.558204181697792,-1.1983418435624,-0.949509648233152,0.885542933102482,-0.44537872509207,0.0110080042009137,1.43796251828598,0.993708041018295,1.82612792861851,0.158194883842736,1.82612792861843,-0.345888673403585,-0.0916636011695622,-0.369233235505108,1.29130178195513,2.78358448604127,2.78358448604166,-0.671314140137848,0.671314140134788,0.335427690232763,-1.4439185096777,0.816104447177247,-0.548321018196252,-0.35438729559983,-0.245491689096407,-0.464797589058688,1.06425166183825,0.532955746965608,0.532955746966537,-1.16311954829365,-0.331964135551811,-1.59245490383095,-0.025350161924158,-0.128689724596617,-0.169405334720885,1.11152169772238,-1.22598097071756,-1.22598097071631,-2.08667258756896,2.08667258756806,-1.66389410976895
541.7984,-1.59768429527107,1.46447529216452,-0.75052501419372,-1.28603841524276,1.84602615371396,1.84602615371411,0.37523175398679,2.31027794260468,1.26292335888516,-1.19152738874562,-0.558130246783143,-1.19152738874472,-0.958926540071955,0.950821109620576,-0.429508812594165,-0.0124308141922177,1.46416443979239,0.983939646407567,1.82111201730781,0.204786343708383,1.82111201730774,-0.366056010608837,-0.0516252812568733,-0.368736891441039,1.28099527152023,2.83340858706251,2.83340858706293,-0.704657571559483,0.704657571556439,0.353379088572364,-1.40799172256519,0.82074349621791,-0.520531439102324,-0.314156745291558,-0.266907540552027,-0.446636343890357,1.09045601261589,0.515353533546032,0.515353533546954,-1.17417028292328,-0.32707087064507,-1.60116493881069,-0.00520249965282057,-0.117103765146131,-0.132915166380684,1.12075706188478,-1.20473073956864,-1.20473073956738,-2.10193628799156,2.10193628799066,-1.65746190202946
541.9008,-1.61536562363934,1.54867673564336,-0.714601488616112,-1.29332046626402,1.88747599883135,1.88747599883151,0.412831172194161,2.36295433159636,1.31785839360076,-1.18364949614024,-0.556553864485508,-1.18364949613937,-0.967570254756165,1.01530533180017,-0.413302397175142,-0.0362089044974433,1.4903957289464,0.973791215812637,1.81545766641172,0.251050432204334,1.81545766641165,-0.385671955610759,-0.0120068054156003,-0.367926611483577,1.26812122710684,2.88097127689669,2.88097127689713,-0.738179823745815,0.738179823742783,0.369786221040311,-1.37090172575972,0.825001638709067,-0.49214330712971,-0.273977282292455,-0.288164237710836,-0.428405510811081,1.11505439750515,0.497422240094489,0.497422240095403,-1.18625700276157,-0.320596277639306,-1.60979595866587,0.0145029014438859,-0.104910332739437,-0.0962933525227755,1.12909511710023,-1.18228009091942,-1.18228009091816,-2.1176589054232,2.11765890542229,-1.64999429822612
542.0032,-1.63295394906085,1.63313550410904,-0.67841143416824,-1.30074085822171,1.92739099559255,1.9273909955927,0.449959343695885,2.41465849452006,1.37197995315913,-1.17462609856592,-0.553451831170644,-1.17462609856505,-0.9753856555625,1.07887180355463,-0.396759604996128,-0.0602143361288946,1.51655001490844,0.963322188816943,1.8092201764606,0.296904212324761,1.80922017646054,-0.404616512687915,0.0270952447811422,-0.366736606210264,1.25266542661127,2.92615700291574,2.9261570029162,-0.771800359747034,0.771800359744021,0.384613865086877,-1.33277210763408,0.828826178078808,-0.463273053283881,-0.233875846774797,-0.309227345139542,-0.410103142842018,1.13797270769108,0.47917803050708,0.479178030507985,-1.19932942643037,-0.312581141691308,-1.61832310734202,0.0337254904166791,-0.0920708509226538,-0.0595463529261855,1.13654294974504,-1.15871209734318,-1.15871209734192,-2.13379600783643,2.13379600783552,-1.64149177117125
542.1056,-1.65036167133428,1.71768025328055,-0.641972925470519,-1.30830979441432,1.96567065529505,1.96567065529521,0.486646353674662,2.46527791843036,1.42527005503284,-1.1643808343611,-0.548803875933308,-1.16438083436024,-0.982320250450525,1.14139974885885,-0.37988160396531,-0.0843343329149101,1.54252103079457,0.952593073009254,1.80245229887211,0.342264191682588,1.80245229887205,-0.422775164823309,0.0655833592700067,-0.365106680649844,1.23462141518336,2.96885737321589,2.96885737321637,-0.805437113434594,0.805437113431596,0.397828408654428,-1.29373001355113,0.832166139710199,-0.434038622909079,-0.193876465587308,-0.330063626360425,-0.391725730779558,1.15914110699267,0.460637600728696,0.460637600729594,-1.21333287650542,-0.303071116430207,-1.62672039486967,0.0524246030914335,-0.0785493539592609,-0.0226835873064322,1.1431094981352,-1.13410933299942,-1.13410933299815,-2.15030137410519,2.15030137410428,-1.63195417840843
542.208,-1.66750299610659,1.8021412893396,-0.605304888590803,-1.31603596081221,2.00222258418293,2.0022225841831,0.522921206539501,2.51470326450987,1.47771101517442,-1.1528434333209,-0.542592603187853,-1.15284343332006,-0.988324404711963,1.2027717907655,-0.362670638598726,-0.108455914290725,1.56820334298581,0.94166518530449,1.79520415778707,0.387046534583005,1.79520415778701,-0.440039334114169,0.103359537544399,-0.362982453962533,1.21399054474399,3.00897150946391,3.00897150946442,-0.83900687892627,0.839006878923284,0.409398040077343,-1.2539054663018,0.834972549825575,-0.404558841647727,-0.154000483051974,-0.350641064602481,-0.373268408214764,1.1784941765296,0.441818163677644,0.441818163678535,-1.22820872708742,-0.292116379231454,-1.63496093322821,0.0705595161240408,-0.06431261449049,0.0142824907907073,1.14880545160751,-1.10855359920088,-1.10855359919961,-2.16712732596351,2.16712732596259,-1.62138080252876
542.3104,-1.68429436377067,1.88635103926022,-0.56842725231017,-1.32392643006269,2.03696276758671,2.03696276758689,0.558811503405451,2.56282859138952,1.52928524718486,-1.1399500574973,-0.53480343487234,-1.13995005749647,-0.993351523836084,1.26287434936226,-0.345130034134425,-0.132466531048142,1.59349309160273,0.930600407297921,1.78752320385855,0.431167293312722,1.78752320385849,-0.456306823438975,0.140325727639808,-0.360315561067698,1.19078199469809,3.04640638346966,3.04640638347019,-0.872425714507429,0.872425714504459,0.419292966884283,-1.21343070394798,0.837198698796682,-0.374952802420451,-0.114266813101063,-0.370928883327182,-0.354725174004127,1.19597106624894,0.422737438764993,0.422737438765878,-1.24389487802843,-0.279771305232111,-1.64301721758598,0.0880895053207473,-0.0493302474699432,0.0513363508424515,1.1536431494484,-1.08212565078831,-1.08212565078703,-2.18422509004608,2.18422509004516,-1.60977040415267
542.4128,-1.70065487982542,1.97014451144324,-0.53136110725423,-1.3319865864841,2.06981580824249,2.06981580824268,0.594343133834306,2.60955157487802,1.57997507287898,-1.12564360038705,-0.525424555200315,-1.12564360038623,-0.997358210342743,1.32159805032041,-0.327264175914427,-0.156254684318446,1.61828872860524,0.919460958770816,1.779454196608,0.474542656701015,1.77945419660794,-0.47148223288223,0.176384261439351,-0.357063832357944,1.16501276858398,3.08107713050608,3.08107713050663,-0.90560935968669,0.905609359683741,0.427485658547296,-1.17243953778926,0.838800385975688,-0.345339276978065,-0.0746922085123918,-0.390897564557181,-0.336089127306988,1.21151564741792,0.403413649366633,0.403413649367512,-1.26032625210428,-0.266094153526659,-1.6508614434493,0.104973912851128,-0.0335747927006495,0.0884593759304928,1.15763647853962,-1.0549049252967,-1.05490492529542,-2.20154517747984,2.20154517747892,-1.59712128746476
542.5152,-1.71650673881382,2.05335974378368,-0.494128866353169,-1.34022007527565,2.10071511257853,2.10071511257872,0.629539979979617,2.65477372149442,1.62976254153272,-1.10987394716651,-0.51444685897747,-1.1098739471657,-1.00030439689862,1.37883813308411,-0.309078469828336,-0.179710518543202,1.64249174377574,0.90830919360546,1.77103921468771,0.517089201748254,1.77103921468766,-0.485477343967102,0.21143828921188,-0.353191443561101,1.13670765805513,3.11290732601216,3.11290732601275,-0.938473658120074,0.938473658117144,0.433951106095584,-1.13106672815524,0.839736142759991,-0.315836152280254,-0.0352915426832738,-0.410518863220268,-0.317352710171887,1.22507666018035,0.383865532073206,0.38386553207408,-1.27743530561131,-0.251146760630756,-1.65846584493225,0.121172223204861,-0.017021775164317,0.125629887750627,1.16080076991371,-1.02696927856062,-1.02696927855933,-2.2190377692884,2.21903776928747,-1.58343137704896
542.6176,-1.73177563164467,2.13583823540271,-0.456754418214701,-1.34862877738689,2.12960301803968,2.12960301803988,0.66442363227734,2.69840057314634,1.67862925597556,-1.0925981946533,-0.501863904377658,-1.0925981946525,-1.00215345975758,1.43449484500527,-0.290579291985119,-0.202726385631732,1.66600737184362,0.897207416814385,1.76231769141168,0.558724132449394,1.76231769141163,-0.498211468187359,0.245392218041924,-0.348669030194799,1.10589916553101,3.14182920983359,3.14182920983421,-0.970934977396747,0.970934977393839,0.438667090454506,-1.08944736815722,0.839967432243684,-0.286559885726098,0.00392190102916646,-0.42976581666148,-0.298507952974077,1.23660785257344,0.364112359298445,0.364112359299313,-1.29515254305326,-0.234994236732715,-1.66580303991928,0.13664414975152,0.000350253100808602,0.162823204195599,1.1631526935276,-0.998394728696707,-0.998394728695409,-2.23665309452898,2.23665309452804,-1.56869830462271
542.72,-1.74639112463596,2.21742535409859,-0.419263266146388,-1.35721281062671,2.15643085479873,2.15643085479894,0.699013117695133,2.74034189833952,1.72655620459172,-1.0737808245613,-0.487671872134924,-1.07378082456051,-1.00287231961887,1.48847380469603,-0.271773939322973,-0.225197382744309,1.68874527207126,0.886217713887883,1.75332646700749,0.599365500533137,1.75332646700745,-0.509611759714672,0.278152154989105,-0.343473766090753,1.0726273783295,3.1677838418767,3.16778384187735,-1.0029106172789,1.00291061727602,0.441614451627869,-1.04771625901708,0.839458825936256,-0.257624967491671,0.0429361380959488,-0.448612750132983,-0.279546718573484,1.24606810991236,0.344173974010829,0.344173974011692,-1.31340703104568,-0.21770465799425,-1.67284637118282,0.151349740565324,0.0185596779119117,0.200011727188312,1.1647101515444,-0.969255212827244,-0.96925521282594,-2.25434178393099,2.25434178393004,-1.55291950269023
542.8224,-1.76028699755855,2.29797071087117,-0.381682644890203,-1.36597055549277,2.18115893793214,2.18115893793236,0.733324646693891,2.780511866813,1.77352360352461,-1.05339382254217,-0.471869531764953,-1.05339382254139,-1.00243153438118,1.54068631999445,-0.25267059000167,-0.247021866013279,1.71062017135225,0.875401783629649,1.74409984930386,0.638932412825446,1.74409984930381,-0.519613491536797,0.309626352827768,-0.33758940633283,1.03693979075504,3.19072117812217,3.19072117812285,-1.03431920077267,1.03431920076981,0.442777352051334,-1.00600726460513,0.838178159573948,-0.22914338016494,0.08174019501386,-0.467035281799648,-0.260460943319038,1.25342157587994,0.324070832661934,0.324070832662793,-1.33212690540986,-0.199348751353599,-1.67957023374583,0.165249511852952,0.0376217842081066,0.237165059384754,1.16549217441778,-0.939622367111379,-0.93962236711007,-2.27205518609012,2.27205518608917,-1.53609230285978
542.9248,-1.77340153045328,2.3773285003384,-0.344041604935792,-1.37489869879836,2.20375649190327,2.2037564919035,0.767371391520593,2.81882921137355,1.81951076195282,-1.03141673941293,-0.454458212079816,-1.03141673941216,-1.00080537891797,1.59104965699348,-0.233278270933308,-0.268101938917901,1.73155246742927,0.864820773680991,1.73466968416777,0.677345232956385,1.73466968416773,-0.528160289053832,0.339725652557077,-0.331006291820705,0.998891077974307,3.21060006988447,3.21060006988519,-1.06508104889564,1.06508104889281,0.442143530210061,-0.964452649698289,0.836096670290287,-0.201224057551887,0.120323827370231,-0.485010333166724,-0.241242877018449,1.25863776799358,0.303824048238253,0.303824048239111,-1.35123986199475,-0.179999578550886,-1.68595038305049,0.178304605561225,0.057548714720603,0.274250146812464,1.16551882380176,-0.909565337067325,-0.909565337066009,-2.2897456520272,2.28974565202624,-1.51821404195572
543.0272,-1.78567773713083,2.4553578139287,-0.306371057705967,-1.38399228553729,2.22420151573153,2.22420151573177,0.801163308057335,2.85521738452136,1.86449598448048,-1.0078366960798,-0.435441772042548,-1.00783669607904,-0.997971900804486,1.63948726963762,-0.213606820138721,-0.288343910672747,1.75146879204945,0.854535124081115,1.72506544336699,0.714525786608286,1.72506544336695,-0.53520431228453,0.368363912861519,-0.323721311917647,0.958542834725461,3.22738820598506,3.22738820598581,-1.09511854555448,1.09511854555167,0.43970454468348,-0.92318242311026,0.833189116761752,-0.173972356549312,0.15867724369286,-0.502516149150835,-0.221885324904867,1.26169168994266,0.283455424628172,0.283455424629029,-1.37067362511093,-0.159732232918915,-1.6919642277562,0.190476957530267,0.078349435980984,0.311231441986926,1.16481110202402,-0.879150615218951,-0.879150615217631,-2.30736680716904,2.30736680716809,-1.49928218253151
543.1296,-1.79706355264552,2.5319229335075,-0.268703784405316,-1.39324477453628,2.24248060064899,2.24248060064924,0.834707003349492,2.88960471304896,1.90845651382686,-0.982648337589942,-0.414826570035569,-0.982648337589192,-0.993912945212353,1.68592900401848,-0.193666833401403,-0.307658719329414,1.77030253001187,0.844604422354278,1.71531433240972,0.750397581223454,1.71531433240968,-0.540706383048468,0.395458418019876,-0.315737825896455,0.915963296663554,3.24106202533475,3.24106202533554,-1.12435649793629,1.12435649793351,0.435456011960441,-0.88232370976575,0.829433883764362,-0.147489558127283,0.196790835576553,-0.519532327286079,-0.202381890838073,1.2625639428353,0.262987479159357,0.262987479160217,-1.39035639447461,-0.138623559708741,-1.6975911167834,0.201729465148912,0.100029720207631,0.348071083619663,1.16339086674947,-0.848441901586919,-0.848441901585593,-2.32487382176313,2.32487382176217,-1.47929445135637
543.232,-1.80751198524215,2.60689360949808,-0.231074417082896,-1.40264810045879,2.2585887103075,2.25858871030775,0.86800564106909,2.92192454820121,1.95136850587986,-0.955853744268166,-0.392621432052451,-0.955853744267424,-0.988614150550755,1.73031128704035,-0.173469593015295,-0.325962316393603,1.787994286432,0.835087268660217,1.70544141393471,0.784886047932185,1.70544141393468,-0.544636060504601,0.420930259949653,-0.307065548450612,0.871227058269954,3.25160662223705,3.25160662223788,-1.15272249150278,1.15272249150004,0.429397841328337,-0.842000167279017,0.824813071793039,-0.121872407948041,0.234654915926903,-0.536039853046931,-0.182727218102136,1.26124083630445,0.242443454757206,0.242443454758071,-1.4102172753354,-0.116751902721462,-1.70281262814888,0.212026151543128,0.122592146920276,0.384729093554617,1.16128074997954,-0.81749998700959,-0.817499987008257,-2.34222367743823,2.34222367743727,-1.45824899530433
543.3344,-1.81698123927032,2.68014532476644,-0.193519398006353,-1.41219274704298,2.27252892842722,2.27252892842748,0.90105887656304,2.95211540797132,1.9932070282262,-0.927462308295765,-0.368837620519819,-0.927462308295028,-0.982064920244563,1.77257730226139,-0.153026981952753,-0.343176011729461,1.80449229592842,0.826041148162888,1.69546974242298,0.81791880449973,1.69546974242295,-0.546971669272713,0.444704691212098,-0.297720404779632,0.824414792676975,3.2590156543243,3.25901565432516,-1.1801472329922,1.18014723298949,0.421534466271463,-0.802331452255309,0.81931256892932,-0.0972127018718819,0.272259466960325,-0.552021138308344,-0.162917224355026,1.25771449747865,0.221847322637248,0.221847322638119,-1.43018669619487,-0.0941968724519545,-1.70761286079822,0.221332325630136,0.146036127309148,0.421163593414795,1.1585040783528,-0.786382660347408,-0.786382660346069,-2.35937542346005,2.35937542345909,-1.43614455289385
543.4368,-1.8254348101242,2.75155954388159,-0.156076918727889,-1.42186783434174,2.28431217465985,2.28431217466012,0.933862817866972,2.98012110814869,2.03394607754603,-0.897490583076176,-0.343488805743472,-0.897490583075445,-0.974258375777607,1.81267714982452,-0.132351388683696,-0.359226777371964,1.81975276990974,0.817522309637089,1.68542050923956,0.849425930101171,1.68542050923953,-0.547700281087165,0.466711445682316,-0.287724357739312,0.775612972083826,3.26329125118805,3.26329125118894,-1.20656487370675,1.20656487370406,0.411875065839794,-0.763432734007592,0.812922098929245,-0.0735969181527465,0.309593899807774,-0.567460058685657,-0.142949326216571,1.25198297210494,0.201223776727065,0.201223776727941,-1.45019681510217,-0.0710391263714856,-1.71197872308354,0.229614736473236,0.170357952626385,0.457331040470541,1.15508479109844,-0.755144640837432,-0.755144640836085,-2.37629041288356,2.3762904128826,-1.41298063946731
543.5392,-1.83284154912042,2.82102394549504,-0.118786838084854,-1.4316612190508,2.29395688867987,2.29395688868015,0.966410011727532,3.00589087630435,2.07355861268172,-0.865962111757626,-0.316591041581033,-0.865962111756904,-0.965191295957265,1.85056798203949,-0.111455609660601,-0.374047508570486,1.83374017784707,0.809585649484005,1.67531319732786,0.879340241512649,1.67531319732783,-0.546817649415296,0.486885025342157,-0.277105207272459,0.724913583930152,3.26444391468098,3.2644439146819,-1.23191330738905,1.23191330738639,0.400433764513085,-0.725414249234659,0.805635241472482,-0.0511058941058061,0.346646829703383,-0.582341983290864,-0.122822645671404,1.24405030974929,0.180598223592677,0.180598223593558,-1.47018190980785,-0.0473601513461596,-1.71590020452048,0.236841723879445,0.195550859364562,0.493186477208355,1.15104735539256,-0.723837538202047,-0.72383753820069,-2.39293250153506,2.3929325015341,-1.38875774246685
543.6416,-1.83917569381681,2.88843263271514,-0.0816905776738045,-1.44155960477979,2.30148868242342,2.30148868242372,0.99868945357385,3.02937944068454,2.11201659921217,-0.832907238772177,-0.288162746608281,-0.832907238771463,-0.95486404858857,1.88621410192338,-0.0903527590023511,-0.387577242329738,1.84642745683405,0.802284596955641,1.66516574204152,0.907597563122368,1.6651657420415,-0.544328097999714,0.505164954466909,-0.265896362403842,0.672413835290307,3.26249239801251,3.26249239801346,-1.25613443804931,1.25613443804668,0.387229797503498,-0.688380888243632,0.797449425659761,-0.0298145400360927,0.383405872969828,-0.596653790560629,-0.102538188706409,1.23392662445974,0.159996771363027,0.15999677136391,-1.49007874174523,-0.0232420401112996,-1.71937061292891,0.242983375125948,0.221605092817967,0.5286837864355,1.14641668087729,-0.6925098408435,-0.692509840842136,-2.40926818913119,2.40926818913023,-1.36347751950305
543.744,-1.84441685637824,2.95368631384661,-0.0448309918796046,-1.45154865909343,2.30693995948582,2.30693995948612,1.03068661985778,3.05054708772104,2.14929106159046,-0.79836290373864,-0.258224692020839,-0.798362903737932,-0.943280521434548,1.91958701061892,-0.0690561959616189,-0.399761335845619,1.85779614399875,0.795670994053649,1.65499469059737,0.934136983683464,1.65499469059735,-0.540244366095631,0.52149600506201,-0.254136586529692,0.618215835925331,3.25746354789458,3.25746354789556,-1.27917441089271,1.27917441089011,0.372287630201092,-0.652431800266145,0.788365900435448,-0.00979157962403692,0.419857471847672,-0.610383866555939,-0.0820989886648504,1.22162812313476,0.139446218329837,0.139446218330726,-1.50982688258418,0.00123274554612025,-1.72238675824869,0.248011702091756,0.248507946882893,0.563775944928288,1.14121803465694,-0.661206928941075,-0.661206928939703,-2.42526668677229,2.42526668677132,-1.33714298817065
543.8464,-1.84854996188508,3.0166924477148,-0.00825220757989197,-1.4616131326074,2.3103495026913,2.31034950269161,1.06238352207761,3.06935968648839,2.18535214155948,-0.762372414675466,-0.2267999962236,-0.762372414674761,-0.930448056225593,1.95066539327087,-0.047579476942706,-0.410551606750756,1.86783642881438,0.789794965830742,1.64481535051209,0.958901091947907,1.64481535051208,-0.53458741334591,0.535828398924537,-0.241869716156121,0.562426251919134,3.24939209606651,3.24939209606752,-1.30098379772645,1.30098379772388,0.355637025050814,-0.617660007582922,0.778389685449996,0.0089006924279031,0.455986749905385,-0.623522086948856,-0.0615102129123523,1.20717709737576,0.118974039516972,0.118974039517865,-1.5293689965717,0.0259816313966375,-1.72494907009989,0.251900845366451,0.27624376766554,0.598415269983442,1.135476960097,-0.629971109953417,-0.629971109952036,-2.44089990762177,2.44089990762081,-1.30975869747985
543.9488,-1.8515651330562,3.07736535396244,0.0280005704880492,-1.47173697110466,2.31176203687099,2.31176203687131,1.09375878503538,3.08578868308392,2.22016916633247,-0.724985199575984,-0.193914122948303,-0.724985199575284,-0.916377382065783,1.97943504231761,-0.025936329508053,-0.419906435639543,1.87654712548311,0.78470478065934,1.63464191985894,0.981836188321861,1.63464191985893,-0.527386185568023,0.54811798960784,-0.229144352691766,0.505155928534534,3.23832039682679,3.23832039682783,-1.32151773440279,1.32151773440026,0.337313056182559,-0.584152029011526,0.767529505331361,0.0262066367828217,0.491777396559512,-0.636059789679353,-0.0407792389309703,1.19060188047058,0.0986083667356949,0.0986083667365932,-1.54865107774944,0.050922205634012,-1.72706164927358,0.254627296825734,0.304793924781433,0.632553652958544,1.12921920612329,-0.598841675953546,-0.598841675952155,-2.45614239371888,2.45614239371792,-1.28133087677648
544.0512,-1.85345752698134,3.13562629223495,0.0638812852814635,-1.48190341120912,2.31122777780979,2.31122777781011,1.12478775389424,3.09981107075124,2.25371073297904,-0.686256539417474,-0.159594877086978,-0.686256539416778,-0.901082537992088,2.00588872736383,-0.00414063684628062,-0.427790830386038,1.88393556651848,0.780446701809185,1.62448759660641,1.00289248013519,1.62448759660641,-0.51867734013198,0.558326420215777,-0.216013528031379,0.446519489855019,3.22429811958708,3.22429811958813,-1.34073602071302,1.34073602071051,0.317356078068743,-0.551987525310815,0.755797709189096,0.0420774721344424,0.527211578388219,-0.647989746954285,-0.0199157078419322,1.17193677400302,0.0783779563983616,0.0783779563992655,-1.5676226417647,0.0759724977684224,-1.72873226418087,0.256170123232388,0.334136765854338,0.666142775849951,1.12247067228064,-0.567854982918415,-0.567854982917013,-2.47097120414177,2.47097120414081,-1.25186756439576
544.1536,-1.85422713788684,3.19140351178314,0.0993432699717709,-1.49209505758192,2.30880197612488,2.30880197612522,1.15544263099578,3.11140933999568,2.28594481158242,-0.646247288694551,-0.123872392861884,-0.646247288693857,-0.884580774475123,2.03002602536141,0.0177935804369859,-0.434176451011112,1.89001741678056,0.777064831291423,1.61436466611727,1.02202427434751,1.61436466611727,-0.508504929638173,0.56642124577403,-0.20253434817919,0.386634928346171,3.20738191221882,3.2073819122199,-1.35860320054854,1.35860320054607,0.295811655291753,-0.521238983857236,0.743210176598594,0.0564714427037435,0.562269877738102,-0.659306140501617,0.00106844230803709,1.15122194614982,0.0583121427272182,0.0583121427281241,-1.58623686908504,0.101051243234041,-1.72997230322909,0.256511173039826,0.364247574715796,0.699134311906537,1.1152573690387,-0.537044553507628,-0.537044553506216,-2.48536579223082,2.48536579222986,-1.22137872029876
544.256,-1.8538785823258,3.24463227055148,0.134339489350843,-1.50229394790487,2.30454446036607,2.30454446036642,1.18569263730908,3.12057140828443,2.31683886238907,-0.605023590720741,-0.0867791124090529,-0.605023590720049,-0.866892429175649,2.0518531238234,0.0398521935421354,-0.439041594716071,1.89481640672446,0.774600945575406,1.60428456642166,1.0391901777238,1.60428456642167,-0.496920046759894,0.572376009162324,-0.188767622948,0.325623196896602,3.18763505180418,3.18763505180527,-1.37508863511898,1.37508863511654,0.272730457601804,-0.49197145887963,0.729786213156349,0.0693539409148085,0.596931260875201,-0.670004538249488,0.0221589666393808,1.12850330065576,0.0384407784950801,0.038440778495988,-1.60445069805948,0.126078123977177,-1.73079668911264,0.255635251081819,0.395098554657288,0.731480115178289,1.107605387913,-0.506441203995324,-0.506441203993899,-2.49930789280756,2.49930789280661,-1.18987632484249
544.3584,-1.85242087962896,3.29525482423497,0.168822766754344,-1.51248161415376,2.29851918100199,2.29851918100235,1.21550419083082,3.12729052734668,2.34635995924349,-0.562656594056112,-0.0483497567666063,-0.562656594055421,-0.848040777857543,2.07138260615877,0.0620210082515393,-0.442371141989064,1.89836398494904,0.773094322168647,1.5942579337872,1.05435330492721,1.59425793378722,-0.48398043682649,0.576170266689472,-0.174777489809499,0.263607810620921,3.16512709610335,3.16512709610446,-1.39016657114951,1.39016657114709,0.248168121550679,-0.46424237923907,0.715548440052215,0.080697579377391,0.631173076816138,-0.68008186806501,0.0433393309135236,1.10383231409774,0.0187941676344815,0.0187941676353906,-1.62222487259811,0.15097398807244,-1.73122375803459,0.253530250481641,0.426658854419518,0.763132405457187,1.09954087401944,-0.476073191525392,-0.476073191523956,-2.51278142737555,2.5127814273746,-1.157374464474
544.4608,-1.84986723486217,3.34322038770838,0.202745990341476,-1.52263914598093,2.29079375637933,2.29079375637969,1.24484109540964,3.131565168591,2.3744749136412,-0.519222173877525,-0.0086212938340184,-0.519222173876837,-0.828051865070259,2.08863322180931,0.084285818512676,-0.44415646272037,1.90069888836443,0.772581557167717,1.5842946342108,1.06748148697764,1.58429463421082,-0.469750084420131,0.577789568127223,-0.16063103544817,0.200714459033476,3.13993354166967,3.1399335416708,-1.40381619936037,1.40381619935797,0.222185078214598,-0.438101426247739,0.700522680309532,0.0904822119330073,0.664971086772783,-0.689536383040852,0.0645907602028772,1.07726583775674,-0.000597004798137964,-0.000597004797225491,-1.63952395330808,0.175661062074215,-1.73127510301133,0.250187238871685,0.458894646069641,0.794043955055267,1.09108999605152,-0.445966377127859,-0.445966377126409,-2.52577241943441,2.52577241943345,-1.12388940688544
544.5632,-1.84623482616109,3.38848507041935,0.236062297772465,-1.53274725775046,2.28143902240965,2.28143902241002,1.27366473497862,3.13339888865358,2.40115039569191,-0.4748006593508,0.0323670910239225,-0.474800659350112,-0.806954322109801,2.1036296357412,0.106632462835267,-0.444395278247794,1.90186662465619,0.773096374959945,1.57440378328105,1.07854746944236,1.57440378328108,-0.454298777688193,0.577225401674847,-0.146397913412319,0.137070623724541,3.11213548568916,3.1121354856903,-1.41602169808445,1.41602169808208,0.194846345547905,-0.413590472468028,0.684737843063168,0.098694910885258,0.698299524584082,-0.69836761159191,0.0858923237959875,1.04886585900941,-0.0197017397687277,-0.0197017397678133,-1.6563163002075,0.200063177328275,-1.73097537359869,0.245600504571698,0.49176925410702,0.82416828342086,1.08227891462972,-0.416144404158441,-0.416144404156977,-2.53826889940205,2.5382688994011,-1.08943966919074
544.6656,-1.84154459357352,3.43101178353821,0.268725240906918,-1.54278635745912,2.2705285875579,2.27052858755828,1.30193426852058,3.13280017461537,2.42635304759991,-0.42947656667422,0.0745740171131014,-0.429476566673533,-0.784779181265603,2.11640214538414,0.129046871985199,-0.44309147729471,1.90191886272317,0.774669429529987,1.56459374736632,1.0875290907019,1.56459374736636,-0.437701651779339,0.574475114416171,-0.132149954058585,0.0728051926433531,3.08181928152233,3.08181928152348,-1.42677225884399,1.42677225884165,0.166221282724497,-0.390743567179921,0.668225810143653,0.105329912857192,0.731131190298528,-0.706576285391573,0.107221063017172,1.01869921552604,-0.0384887848544586,-0.0384887848535411,-1.67257403132788,0.224106032957986,-1.73035201883835,0.239767572751009,0.525243330104534,0.853459865350257,1.07313375384903,-0.386628893522206,-0.386628893520727,-2.55026077525446,2.55026077525351,-1.05404607822854
544.768,-1.83582102295665,3.47077011216783,0.300688933045767,-1.55273661493983,2.25813839227827,2.25813839227867,1.32960682173838,3.12978226459216,2.45004958431651,-0.383338337111552,0.117955922121945,-0.383338337110864,-0.76155969399591,2.12698635030457,0.151515096547332,-0.440254890276481,1.90091273278751,0.777328093252042,1.55487211302156,1.09440943253124,1.55487211302161,-0.420038711691633,0.56954181529299,-0.117960763651804,0.00804805945115508,3.04907617335875,3.04907617335991,-1.43606209208814,1.43606209208582,0.136383301936573,-0.369586955489731,0.651021333009166,0.110388546958799,0.763437580932238,-0.714164240303247,0.128552168683232,0.986837254403072,-0.0569266873005657,-0.0569266872996438,-1.68827295520801,0.247717509390628,-1.72943496008429,0.232689198171153,0.559275067645028,0.881874354965541,1.06368058009136,-0.357439655162583,-0.357439655161091,-2.56173965078037,2.56173965077942,-1.0177318148815
544.8704,-1.82909191729059,3.50773614754314,0.331908183561184,-1.56257802495761,2.24434627182237,2.24434627182277,1.35663767444827,3.12436294102692,2.47220687941099,-0.336478078422337,0.162467069929446,-0.336478078421649,-0.737331156853946,2.13542276350704,0.174023307296301,-0.435901030966055,1.89891004595454,0.781096229234518,1.54524561665491,1.09917693580365,1.54524561665497,-0.401394335025388,0.562434263570442,-0.103905311638765,-0.0570703015432862,3.01400189616157,3.01400189616274,-1.44389040996011,1.44389040995782,0.105409534162726,-0.350139120046954,0.633161945956666,0.113879156354627,0.795189061017971,-0.721134291299292,0.149859209658808,0.953355432645315,-0.0749838423000721,-0.0749838422991471,-1.70339246924119,0.270828028760287,-1.72825618745643,0.224369334991281,0.593820451477798,0.9093688194575,1.05394539058826,-0.328594912805385,-0.328594912803876,-2.57269858432962,2.57269858432868,-0.980522433724713
544.9728,-1.82138815031139,3.54189228658484,0.362338630138643,-1.57229045331045,2.22923152863407,2.22923152863449,1.38298044619796,3.11656430508568,2.49279204177625,-0.288991307486544,0.208059557171032,-0.288991307485856,-0.712130744350257,2.14175636666831,0.196557769857698,-0.430050816004892,1.89597645583866,0.785993950276616,1.53572003978444,1.10182547617666,1.53572003978451,-0.381856756238564,0.553166742025304,-0.0900595079692103,-0.122419284001946,2.97669623765123,2.9766962376524,-1.45026138181454,1.45026138181227,0.0733804538190539,-0.332410838192983,0.614687891915594,0.11581701616055,0.826355067683148,-0.727490090926558,0.171114401456631,0.918332868266784,-0.0926285437704536,-0.0926285437695242,-1.71791541714251,0.293370939603811,-1.72684929025236,0.214815084866306,0.62883352833053,0.935901970458339,1.04395411356463,-0.300111535765906,-0.300111535764383,-2.58313179664466,2.58313179664372,-0.942445857449727
545.0752,-1.81274340284251,3.57322702093736,0.391936882622027,-1.58185364663632,2.21287453042103,2.21287453042146,1.40858728186078,3.10641255226606,2.51177249279853,-0.240976693618585,0.254683323583304,-0.240976693617896,-0.6859973448998,2.14603612949905,0.219104804007861,-0.422730275367222,1.89218060069781,0.792037375199161,1.52630008646408,1.1023544002981,1.52630008646416,-0.36151753602839,0.541758911604006,-0.0764997754451109,-0.187868607185231,2.93726257637274,2.93726257637392,-1.4551840631907,1.45518406318846,0.0403794786696309,-0.316405256579398,0.595642047907857,0.116224238917738,0.856904334391065,-0.733235986302281,0.19228889127021,0.881851864598754,-0.109829046419494,-0.109829046418561,-1.73182790753172,0.315282889405885,-1.72524895266861,0.204036631018299,0.664266679387715,0.961434380542724,1.03373261902133,-0.272005269307121,-0.272005269305581,-2.59303435469554,2.59303435469461,-0.903532352034157
545.1776,-1.80319388772092,3.60173473947558,0.420660687778352,-1.59124719197151,2.19535635068413,2.19535635068456,1.43340903402596,3.09393776686243,2.52911604819533,-0.192535805176187,0.30228616934612,-0.192535805175497,-0.658971397250134,2.14831452165825,0.241650739912587,-0.413970268679309,1.88759326855136,0.79923839394642,1.51698926086217,1.1007685281079,1.51698926086226,-0.340471023221432,0.528235644995613,-0.063302625269081,-0.253288762792285,2.89580742143797,2.89580742143916,-1.45867230667996,1.45867230667774,0.00649256547577431,-0.302117994630157,0.576069838282856,0.115129652934958,0.88680511408047,-0.738376886876333,0.21335303495085,0.84399743151318,-0.126553644635272,-0.126553644634333,-1.74511910135746,0.336504146324233,-1.72349045449855,0.1920471675868,0.700070873609888,0.985928673382143,1.0233067346298,-0.244290955503347,-0.244290955501791,-2.60240186633726,2.60240186633633,-0.863814486757822
545.28,-1.79277807240178,3.62741555532261,0.448469112481331,-1.60045042870583,2.17675845765083,2.17675845765127,1.45739543551601,3.07917373796504,2.54479099959177,-0.143772864583795,0.350813779853908,-0.143772864583103,-0.631094729044897,2.14864703875359,0.264181877707331,-0.403806217545414,1.88228661275708,0.807604448227481,1.50778975649615,1.09707812797442,1.50778975649625,-0.318813820237204,0.512626839948488,-0.0505442457785345,-0.318551437400602,2.85243997637174,2.85243997637293,-1.46074466427178,1.46074466426959,-0.0281921841401755,-0.289537290262085,0.556019132582337,0.112568642321747,0.916025389286167,-0.742918147490797,0.234276652501174,0.804856816396237,-0.14277076934137,-0.142770769340428,-1.75778097482476,0.356978845749721,-1.72160920383271,0.178862826751725,0.736195889591016,1.00934967720313,1.01270225982962,-0.216982737697666,-0.216982737696094,-2.61123020985477,2.61123020985385,-0.823327078925891
545.3824,-1.78153640817744,3.65027515370914,0.47532273340105,-1.60944232725382,2.15716244609879,2.15716244609925,1.48049525677759,3.06215778961483,2.55876618815204,-0.0947945178287215,0.40020975715981,-0.0947945178280279,-0.602410401379728,2.14709175192302,0.286684450727471,-0.39227785561997,1.87633342561495,0.817138330807306,1.49870236149585,1.09129887067571,1.49870236149595,-0.296644262459374,0.494967216082494,-0.0383001122471959,-0.383529905215739,2.80727173608173,2.80727173608292,-1.46142428442454,1.46142428442236,-0.0635849022759226,-0.278644196511985,0.535540129257267,0.108582943349327,0.944533065703012,-0.746865465721132,0.255029259879104,0.764519047339903,-0.158449101925727,-0.158449101924781,-1.76980806306446,0.376655160237865,-1.71964030890886,0.164502598051926,0.772590507819662,1.03166453693839,1.00194497434969,-0.1900942421937,-0.190094242192108,-2.61951530560215,2.61951530560123,-0.782107122747063
545.4848,-1.76951107204953,3.67032464978168,0.50118381967715,-1.61820134761869,2.13664980421973,2.1366498042202,1.50265644569517,3.04293062052456,2.57101106622273,-0.0457096234454468,0.450415658207749,-0.0457096234447512,-0.572962561571888,2.14370888257735,0.309144591170115,-0.379428993062308,1.8698064673827,0.827838005630213,1.48972638060016,1.08345176831789,1.48972638060028,-0.274061916301228,0.475296100474805,-0.0266446196865807,-0.44809938937441,2.76041611277264,2.76041611277384,-1.46073880022898,1.46073880022683,-0.0995943180801966,-0.269412831185868,0.514685223523883,0.103220394686472,0.972296149603253,-0.750224790977466,0.275580279220959,0.723074488334198,-0.173557703792541,-0.173557703791589,-1.78119719135187,0.395485407398391,-1.71761818524506,0.148988232867808,0.809202684558371,1.05284278884785,0.991060642810974,-0.163638735109756,-0.163638735108146,-2.62725292680073,2.62725292679982,-0.740193703294232
545.5872,-1.75674572349088,3.68758044462896,0.526016498560001,-1.62670528380687,2.11530171199438,2.11530171199486,1.52382624769202,3.02153615531212,2.58149574584516,0.00337093657159943,0.501371041805729,0.00337093657229781,-0.542796303674581,2.13856039931877,0.331548297492672,-0.365307288180558,1.86277784471481,0.839696453174119,1.48085957444142,1.07356310578201,1.48085957444155,-0.251167095183105,0.453657208412264,-0.0156507348103718,-0.512137390900107,2.71198807951161,2.71198807951282,-1.4587202021421,1.45872020213996,-0.136128107423454,-0.261810676636709,0.493508856536723,0.0965346419361285,0.999282909720861,-0.753002242699074,0.295899229862503,0.680614408082282,-0.188066158660743,-0.188066158659788,-1.79194720345426,0.413426115327228,-1.71557619336654,0.132344133538102,0.845979714231013,1.07285640443598,0.980075022359339,-0.137629261639284,-0.137629261637656,-2.63443853967806,2.63443853967715,-0.697627898214163
545.6896,-1.74328527454113,3.7020640696502,0.549786899254737,-1.63493109486377,2.09319886956001,2.0931988695605,1.54395130457893,2.99802140787598,2.5901910330035,0.0523344249853182,0.55301352866512,0.0523344249860201,-0.511957534676265,2.1317096298756,0.353881402633038,-0.349964012815653,1.85531842711275,0.852701549110992,1.47209811678601,1.06166437400815,1.47209811678615,-0.228060390852117,0.430098424471109,-0.00538966224449761,-0.575523986261526,2.66210381892991,2.66210381893112,-1.45540469009045,1.45540469008833,-0.173093230047675,-0.255798924310008,0.47206734886066,0.0885848019179312,1.02546202425478,-0.755204035339357,0.315955902312677,0.637230565958249,-0.201944723210502,-0.201944723209544,-1.80205869704783,0.430438064284393,-1.71354630355217,0.114597236264737,0.882868374832077,1.09167980861047,0.969013880872805,-0.112078780303943,-0.112078780302294,-2.64106715719664,2.64106715719573,-0.654452673126564
545.792,-1.72917566827919,3.71380201231843,0.572463275733058,-1.64285472084595,2.07042135184311,2.07042135184361,1.56297773344357,2.97243634879977,2.5970684455231,0.10106640129719,0.605278881634328,0.101066401297896,-0.480492843960758,2.12322087858064,0.376129541598954,-0.333453796114251,1.84749728423341,0.866835982676638,1.46343656802856,1.04779221550794,1.46343656802871,-0.20484221949304,0.404671584904441,0.00406947601033408,-0.638142095794348,2.61088036617504,2.61088036617624,-1.45083250353782,1.45083250353572,-0.210396254713228,-0.251332857805866,0.450418727226306,0.0794350961693965,1.05080271446434,-0.7568364104875,0.335720516152633,0.59301482094444,-0.215164482845178,-0.215164482844217,-1.81153377279649,0.446486318870274,-1.71155878375493,0.0957769020193297,0.919815044956602,1.10928987664109,0.957903027822323,-0.0870003005879359,-0.087000300586269,-2.64713319146318,2.64713319146227,-0.610712778494337
545.8944,-1.71446365889709,3.72282552243773,0.594016115149582,-1.65045087747141,2.04704848655693,2.04704848655745,1.58085118825725,2.94483376543217,2.60210021248124,0.149450864275842,0.658101114863941,0.149450864276552,-0.448449374148794,2.11315904373249,0.39827811790461,-0.315834340003413,1.83938112978439,0.882077212901915,1.4548678605509,1.03198839112256,1.45486786055107,-0.181612385987042,0.377432261354373,0.0126599447203443,-0.6998777217348,2.55843524000434,2.55843524000554,-1.44504773053844,1.44504773053636,-0.247943671027032,-0.248362267052131,0.428622552453618,0.0691544633232234,1.07527486613601,-0.757905581267121,0.355163859306581,0.548058774704594,-0.227697512499507,-0.227697512498543,-1.82037580142443,0.461540256566731,-1.70964191096119,0.0759148249518456,0.956765786925797,1.12566591523385,0.946768354028638,-0.0624070265438178,-0.06240702654213,-2.65263029726719,2.65263029726629,-0.566454651828701
545.9968,-1.69919658671367,3.7291704070289,0.614418244255272,-1.65769281770641,2.02315875800304,2.02315875800357,1.5975169077535,2.91526911188764,2.60525925722608,0.197370392383572,0.711412637345528,0.197370392384287,-0.415874692242931,2.10158923844069,0.420312271014471,-0.297166112298023,1.83103377120601,0.898397455165798,1.44638329161734,1.01429976870357,1.44638329161751,-0.158469671353414,0.348439550539396,0.0203176806941743,-0.76062014986182,2.50488606491088,2.50488606491207,-1.43809809602908,1.438098096027,-0.285642184121551,-0.246831885341414,0.406739750351539,0.057816157161303,1.09884913814878,-0.758417696512239,0.374257402780691,0.502453462627698,-0.239517043666876,-0.239517043665909,-1.82858921373082,0.475573588574518,-1.70782171488276,0.0550449565912725,0.993666401297014,1.14078963141091,0.935635874598938,-0.0383125072394662,-0.0383125072377583,-2.65755120849082,2.65755120848992,-0.521726321392781
546.0992,-1.68342214376392,3.73287682509697,0.633644945780326,-1.66455205336175,1.99882973911975,1.99882973912029,1.61291975766757,2.88380035552418,2.60651917390964,0.244706289345522,0.765144427169717,0.244706289346242,-0.382816660800913,2.0885764249306,0.442216848597414,-0.277512030418595,1.82251557882719,0.915763692102266,1.43797252055582,0.994778320342346,1.437972520556,-0.135511444725133,0.317755875667967,0.0269815607149394,-0.820262112449248,2.45035019340634,2.45035019340752,-1.43003472845811,1.43003472845604,-0.323398988821719,-0.246681842516411,0.384832441020652,0.0454973324547381,1.12149705646645,-0.758378828114594,0.392973387107618,0.4562890960808,-0.250597637657232,-0.250597637656263,-1.83617931667606,0.488564363521785,-1.70612176507259,0.0332034335320448,1.0304624674177,1.15464509043103,0.924531768936999,-0.0147307905935723,-0.014730790591843,-2.66188757946581,2.66188757946491,-0.476577302188325
546.2016,-1.66718813111256,3.73398908610392,0.651674086049561,-1.67099804650938,1.97413804675888,1.97413804675943,1.62700427828954,2.85048782663756,2.60585421009106,0.291338740596445,0.819226223788851,0.29133874059717,-0.349323310576507,2.07418507100896,0.463976385558754,-0.256937148829424,1.81388299260519,0.934137705753356,1.42962356617005,0.973481106638802,1.42962356617025,-0.112833297020742,0.28544679938847,0.0325936547007718,-0.878699919380515,2.39494433651797,2.39494433651915,-1.42091190547553,1.42091190547349,-0.361122023395413,-0.247848130307179,0.362963757249539,0.0322786161090695,1.1431910939435,-0.757794977260815,0.411284883821837,0.409654841751833,-0.260915363489129,-0.260915363488157,-1.84315213313687,0.500494948382471,-1.70456300323814,0.0104284907930072,1.06709939059597,1.16721866383803,0.913482411748615,0.00832343061713881,0.00832343061888963,-2.66562985013025,2.66562985012935,-0.431058476864696
546.304,-1.65054221502506,3.73255544641627,0.668486242498245,-1.67699789375218,1.94915931088308,1.94915931088364,1.6397147433386,2.81539407313457,2.60323926152288,0.337146982400308,0.873586723318873,0.337146982401039,-0.315442718290154,2.05847883243116,0.48557508824918,-0.235508359042333,1.80518807725197,0.953476127905962,1.42132280085576,0.950470232949159,1.42132280085597,-0.0905286947497594,0.251580845446109,0.0370994641879809,-0.935833566188135,2.33878420836212,2.33878420836329,-1.41078678319257,1.41078678319054,-0.398720204908984,-0.250263076450929,0.341197642520575,0.0182436605955387,1.16390473815581,-0.756672090232915,0.429165840338659,0.362638618416984,-0.270447976242648,-0.270447976241676,-1.84951425754115,0.511351988486375,-1.70316361036038,-0.0132396536674899,1.10352247415752,1.17849897015136,0.902514392984629,0.0308346905027566,0.0308346905045295,-2.66876714889311,2.66876714889221,-0.385221962558267
546.4064,-1.6335316903182,3.72862789302428,0.684064815254901,-1.68251602729141,1.92396814929343,1.92396814929401,1.65099522951622,2.77858371741787,2.59864987743395,0.382009481533359,0.928153766842448,0.382009481534095,-0.281222893614436,2.04152026007816,0.506996820174186,-0.213294104419748,1.79647812490732,0.973730505405525,1.413054943132,0.925812777395825,1.41305494313221,-0.0686886556350983,0.216229329711153,0.0404481448786827,-0.991566822915026,2.28198418934204,2.28198418934319,-1.39971911364552,1.39971911364351,-0.436103647690259,-0.253855823422125,0.319598624135394,0.00347868004394396,1.18361254887163,-0.755016074653076,0.44659111597273,0.315326899039427,-0.279175089959412,-0.279175089958439,-1.85527271595321,0.52112634875811,-1.70193889386753,-0.0377589469550025,1.13967702254618,1.18847681049392,0.891654530271577,0.0527866396459872,0.0527866396477819,-2.67128723314045,2.67128723313955,-0.339120971911759
546.5088,-1.61620325610116,3.72226190280178,0.698396109605106,-1.68751395143302,1.89863813825944,1.89863813826003,1.66078969469979,2.74012330924925,2.59206227197821,0.425804123274238,0.982854518977307,0.42580412327498,-0.246711677886218,2.02337052757349,0.528225085615563,-0.190364107216693,1.78779529777649,0.994847378294584,1.40480305437373,0.899580701349718,1.40480305437396,-0.0474014482174954,0.179466201750908,0.0425927117892015,-1.04580730532964,2.22465700800118,2.22465700800232,-1.38777094899911,1.38777094899711,-0.473183865811522,-0.258552809101485,0.298231562758183,-0.0119280283960155,1.20229020569966,-0.752832811382998,0.463536512901709,0.267804514435908,-0.287078342198257,-0.287078342197283,-1.86043481915598,0.529813031841078,-1.70090118525548,-0.063085676652287,1.17550847010869,1.19714509943038,0.880929876204808,0.0741619513667347,0.0741619513685512,-2.67317645693151,2.67317645693062,-0.292809676542272
546.6112,-1.59860280584984,3.71351616744495,0.711469380850557,-1.69195002624565,1.87324176703657,1.87324176703717,1.66904206432483,2.70008116645912,2.58345333818568,0.468408408029725,1.03761563966667,0.468408408030472,-0.21195665508995,2.00408917426302,0.549243008903981,-0.166789105036798,1.77917630406507,1.01676836956,1.39654854273633,0.871850756054936,1.39654854273658,-0.026752316292714,0.141367894304807,0.0434902249189535,-1.09846653083723,2.16691343521792,2.16691343521904,-1.37500632675069,1.37500632674871,-0.509873960734006,-0.264278250634375,0.27716138357013,-0.0278865758553734,1.21991454667388,-0.750128162279798,0.479978802560366,0.220154459159934,-0.29414155196999,-0.294141551969014,-1.8650080042579,0.537411068629105,-1.70005974662213,-0.0891746666036181,1.21096252766857,1.20449879083954,0.870367717109033,0.0949422506673115,0.0949422506691492,-2.67441975378056,2.67441975377968,-0.246343076137399
546.7136,-1.58077523120886,3.70245227877361,0.723276838750517,-1.6957793015127,1.84785036728567,1.84785036728629,1.67569632581101,2.65852719774172,2.5728006619787,0.509699658355489,1.09236345578665,0.509699658356242,-0.177005073539791,1.98373385936608,0.570033309101653,-0.142640595035499,1.77065210530447,1.03943028715397,1.38827117271679,0.84270439518724,1.38827117271705,-0.00682322686274977,0.102013175908428,0.0431019543707198,-1.14945996097203,2.10886198154263,2.10886198154374,-1.36149093371878,1.36149093371681,-0.546088796603393,-0.270954635162055,0.256452797258579,-0.0443059836243059,1.23646360007751,-0.74690797669572,0.495895747337638,0.172457703882117,-0.300350872994607,-0.30035087299363,-1.86899967092892,0.543923387408688,-1.69942068813487,-0.115979484629161,1.24598533955373,1.21053480091727,0.859995559324159,0.115108070916985,0.115108070918844,-2.67500062523193,2.67500062523105,-0.199776871866637
546.816,-1.56276423719741,3.68913437766495,0.73381361615,-1.69895339553872,1.82253401747931,1.82253401747995,1.68069662930212,2.61553271071516,2.56008253596948,0.549555238378408,1.14702414064266,0.549555238379168,-0.141903775403077,1.96236012570925,0.590578271821922,-0.117990585444525,1.7622476603448,1.06276524239002,1.37994907887183,0.812227692687089,1.3799490788721,0.0123073615063833,0.0614830027471316,0.041393525937724,-1.19870702909178,2.05060859245948,2.05060859246058,-1.34729175305464,1.34729175305269,-0.581745166840885,-0.278503219583384,0.23617002073324,-0.0610946915091542,1.25191661364419,-0.74317810078343,0.511266118139606,0.124793024560403,-0.30569494092836,-0.305694940927383,-1.87241702332013,0.549356677364395,-1.69898689648232,-0.143452648258559,1.28052364060906,1.21525193351794,0.849841103037239,0.134638834400816,0.134638834402698,-2.67490113176544,2.67490113176457,-0.153167341054731
546.9184,-1.54461216578313,3.67362878082203,0.743077714269394,-1.70142040728588,1.79736143160637,1.79736143160702,1.6839873935174,2.57117021778051,2.54527797697641,0.587852789728495,1.20152390583324,0.587852789729261,-0.10669913214896,1.94002117627409,0.610859720886566,-0.0929113582796644,1.75398171891211,1.08670078895592,1.37155878443423,0.780511253607271,1.37155878443451,0.0305647127443696,0.019860368442283,0.0383350491795153,-1.24613114864513,1.99225634518898,1.99225634519006,-1.33247670342724,1.3324767034253,-0.616761954085355,-0.286844536753487,0.216376506023135,-0.078161066057716,1.266254085279,-0.738944394077784,0.526069708097698,0.0772368631452763,-0.310165010292148,-0.31016501029117,-1.87526692571124,0.553721259104123,-1.69875797339554,-0.171545811846211,1.31452490099658,1.2186508144132,0.839932205116168,0.153512849385463,0.153512849387367,-2.67410189061659,2.67410189061573,-0.106571209394532
547.0208,-1.52635982343395,3.65600360350602,0.751069941127943,-1.70312485114585,1.77239984316402,1.77239984316469,1.68551342237097,2.52551325044571,2.52836675662167,0.624470492246391,1.25578920052511,0.624470492247163,-0.071436985561641,1.91676766930316,0.63085899217352,-0.0674752520277237,1.74586667796741,1.11116008119985,1.36307522537825,0.747650100461203,1.36307522537856,0.0478780123381294,-0.0227698463627247,0.0339012313192128,-1.29165969940459,1.9339051579757,1.93390515797677,-1.31711428359112,1.31711428358919,-0.651060282197143,-0.295898899479969,0.197134683705417,-0.0954138990010029,1.27945779698366,-0.734212755778305,0.540287342109962,0.0298632281314847,-0.313755075912346,-0.313755075911368,-1.87755577287109,0.557030960381835,-1.69873018681658,-0.200209926822007,1.34793745317108,1.22073383819781,0.830296831524106,0.171707321392954,0.17170732139488,-2.67258208894215,2.67258208894129,-0.0600455183856881
547.1232,-1.50804630802307,3.63632838878178,0.757793854893608,-1.70400761533394,1.74771488794356,1.74771488794425,1.68522004494483,2.47863618231398,2.5093294564167,0.659287359568912,1.30974690493034,0.659287359569692,-0.0361625946525513,1.89264753511764,0.650556910518462,-0.0417544725976532,1.73790850654427,1.13606204579189,1.35447177876714,0.713743518659606,1.35447177876745,0.0641805543519246,-0.066321022279464,0.0280714808723896,-1.33522399531668,1.87565152572069,1.87565152572174,-1.30127323664026,1.30127323663835,-0.684563656871416,-0.305586889712223,0.178505727621592,-0.112762883253722,1.29151085165516,-0.728989159734697,0.553900882642879,-0.0172563708417027,-0.316461974969182,-0.316461974968203,-1.87928936775933,0.559302979853416,-1.69889643999356,-0.229395380041348,1.38071060518597,1.22150512643771,0.820962999742317,0.189198383583099,0.189198383585046,-2.67031951888616,2.67031951888532,-0.0136474911231153
547.2256,-1.48970883484013,3.61467374316234,0.763255712348247,-1.70400596063606,1.72337047999199,1.72337047999269,1.68305328809008,2.43061405750638,2.48814755438938,0.692183575085904,1.36332450522309,0.692183575086692,-0.000920589445195502,1.86770581504074,0.669933769029038,-0.01582093532058,1.73010673880148,1.16132156329755,1.34572029470953,0.678894849190976,1.34572029470986,0.0794099178573299,-0.110704947681127,0.0208300021922651,-1.37675924073166,1.8175882946798,1.81758829468084,-1.28502224307276,1.28502224307087,-0.717198091086022,-0.315829822271707,0.160549346916819,-0.130119055591127,1.30239771299675,-0.72327969568512,0.566893233711332,-0.0640529676098181,-0.318285468100378,-0.318285468099399,-1.88047279617855,0.560557718234859,-1.69924626309984,-0.259052120703215,1.412794748452,1.22097049340552,0.811958711307909,0.20596115509506,0.205961155097028,-2.66729064027076,2.66729064026993,0.0325655958478398
547.328,-1.47138256683912,3.59111097272675,0.767464413144196,-1.70305358293189,1.69942867107125,1.69942867107196,1.67896008112809,2.38152242675994,2.46480354367465,0.723040865093848,1.41645024425494,0.723040865094643,0.0342450672430008,1.84198452305936,0.688969310134838,0.0102538647542684,1.72245453375477,1.18684966186182,1.33679113514967,0.643211224189028,1.33679113515001,0.0935081328747352,-0.155831966339344,0.0121658796190005,-1.41620448049909,1.75980448305876,1.75980448305979,-1.26842964462922,1.26842964462735,-0.748892212734264,-0.32655017999815,0.143323606277787,-0.147395203317339,1.31210424983476,-0.717090614716064,0.579248345530177,-0.110460175026619,-0.319228299690804,-0.319228299689824,-1.8811102956636,0.56081856856102,-1.69976583090357,-0.289129784249916,1.44414146647264,1.2191374164611,0.803311873070377,0.221969835538166,0.221969835540153,-2.66347067752105,2.66347067752022,0.0785365286188775
547.4304,-1.45310045537426,3.56571171221187,0.770431428310281,-1.70108075781429,1.67594948414465,1.67594948414538,1.67288848740697,2.33143719371903,2.43928107935712,0.751742900267474,1.46905324887335,0.751742900268274,0.0692911100839369,1.8155225308727,0.707642708656103,0.036398959657829,1.71493879889486,1.2125537274551,1.32765322624932,0.606803249542221,1.32765322624968,0.106421837242203,-0.201611130384975,0.0020731505270905,-1.45350254848046,1.70238514590715,1.70238514590817,-1.25156319684194,1.25156319684009,-0.779577353940332,-0.337672025153075,0.126884770592252,-0.164506240457389,1.32061778540159,-0.71042837727127,0.590951221474034,-0.156414220159471,-0.319296238305623,-0.319296238304643,-1.88120512588587,0.560111673956641,-1.70043800808382,-0.319577817288161,1.47470364642667,1.21601500829926,0.795050204317637,0.237197842000856,0.237197842002862,-2.65883375407952,2.6588337540787,0.124208259416557
547.5328,-1.43489309615194,3.53854754027662,0.77217070354266,-1.69801457614537,1.652990713493,1.65299071349374,1.66478795917305,2.28043446526729,2.41156514791506,0.77817571681393,1.52106363744315,0.778175716814735,0.104174994956161,1.78835547443892,0.725932557313356,0.0625439978560719,1.70754037367873,1.23833773438531,1.31827413101269,0.569784644029562,1.31827413101306,0.118102426879679,-0.247950363028146,-0.00944913256447786,-1.4886000194335,1.64541127608186,1.64541127608286,-1.23448984454458,1.23448984454275,-0.809187623767388,-0.349121394649023,0.111287169590905,-0.181369561290537,1.32792715071659,-0.703299702415358,0.601987927537704,-0.201853985052891,-0.318498098853067,-0.318498098852086,-1.88075945004128,0.558465669135451,-1.70124242006524,-0.350345601714106,1.50443558836109,1.21161398755766,0.787201127535742,0.25161799347313,0.251617993475153,-2.65335306034869,2.65335306034789,0.169524000845936
547.6352,-1.41678860353904,3.50968957609674,0.772698530783299,-1.69377927168939,1.630607686971,1.63060768697176,1.65460961339002,2.22859039506053,2.38164225279448,0.802228151701856,1.57241261275426,0.802228151702667,0.138854917949593,1.76051567639408,0.743816854147884,0.088619322297659,1.70023426888706,1.26410250057861,1.30862014810038,0.532271844224329,1.30862014810077,0.128506200952748,-0.29475663349674,-0.0223968506005539,-1.52144716936028,1.58895972806407,1.58895972806507,-1.21727551015974,1.21727551015792,-0.837659967798727,-0.360826683193011,0.096583078447922,-0.197905376369864,1.3340227411857,-0.695711618210134,0.612345603671396,-0.246721055023189,-0.31684574845985,-0.316845748458869,-1.87977423299064,0.555911420258819,-1.70215554428299,-0.381382571953429,1.53329310285514,1.205946645133,0.779791644234515,0.265202742158894,0.265202742160934,-2.64700104539584,2.64700104539504,0.214427315596018
547.7376,-1.39881250385701,3.47920805332146,0.772033384833658,-1.68829663776742,1.60885298785224,1.60885298785302,1.64230652391357,2.17598101510589,2.34950060991566,0.823792288875453,1.62303254847603,0.823792288876267,0.173289831424045,1.732032075967,0.761272990265328,0.114556045867461,1.69298995602506,1.2897459739322,1.29865644401912,0.494383581495019,1.29865644401952,0.137594502260275,-0.341936144442982,-0.0367607771332313,-1.55199794917707,1.53310314630759,1.53310314630858,-1.19998488268491,1.19998488268312,-0.864934219239152,-0.372719013591296,0.0828226103632867,-0.214037032756184,1.33889657735715,-0.687671514661347,0.622012476740721,-0.290959772962102,-0.314354098543623,-0.314354098542641,-1.87824915850669,0.552481774703028,-1.70315081535207,-0.412638318233823,1.56123359013763,1.19902680703071,0.772848200857045,0.277924443243178,0.277924443245231,-2.63974961953915,2.63974961953836,0.25886220711549
547.84,-1.38098764519447,3.44717186825644,0.770195725593945,-1.68148652668247,1.58777613508786,1.58777613508865,1.6278340235831,2.12268205695362,2.31513034794518,0.842763914627084,1.67285708064802,0.842763914627904,0.207439458462675,1.70293015850434,0.778277736148838,0.140286133294118,1.68577169935283,1.31516355535201,1.28834722414775,0.456240435023411,1.28834722414816,0.145333851591033,-0.389394531821105,-0.0525265491800289,-1.58020997519075,1.47790987822759,1.47790987822856,-1.18268119615525,1.18268119615349,-0.890953146272497,-0.384732591371234,0.0700536168952482,-0.229691318874389,1.34254237285998,-0.679187201941435,0.630977875709518,-0.334517295467535,-0.311041086409828,-0.311041086408846,-1.87618256699518,0.548211330828987,-1.70419873764925,-0.444062668935888,1.58821609721669,1.19086979829143,0.766396548569338,0.289755652970904,0.289755652972971,-2.63157035488051,2.63157035487973,0.302773217670473
547.9424,-1.36333411842797,3.41364810636559,0.767207774251001,-1.67326741746376,1.56742322606655,1.56742322606736,1.6111500124846,2.06876876692431,2.27852371173332,0.859042980809189,1.72182121473768,0.859042980810012,0.24126430762707,1.67323188268022,0.794807227383311,0.165742492936261,1.67853892786237,1.3402484606839,1.27765593991298,0.417964361248878,1.27765593991341,0.151696072631305,-0.437037075719484,-0.0696746522698763,-1.6060445361393,1.4234438608317,1.42344386083266,-1.16542599351002,1.16542599350827,-0.915662499278104,-0.396805041074158,0.0583215914458133,-0.2447987547463,1.34495561176902,-0.670266976469479,0.639232249084533,-0.37734364362626,-0.306927649249377,-0.306927649248395,-1.87357141441063,0.54313623304819,-1.70526700190688,-0.475605749060638,1.61420135590453,1.18149241463472,0.760461595575359,0.300669448803909,0.300669448805988,-2.62243467725711,2.62243467725634,0.346105540278965
548.0448,-1.34586918040316,3.37870156599664,0.763093285357366,-1.66355702278589,1.54783655703592,1.54783655703674,1.59221527548886,2.0143157234113,2.23967527493015,0.872534075946017,1.76986145031212,0.872534075946844,0.274725692521068,1.64295561343977,0.81083695630466,0.190859072850886,1.67124665168249,1.36489211799516,1.26654552161156,0.37967819830842,1.26654552161201,0.156658404428012,-0.484768917031804,-0.0881804200067349,-1.62946661176206,1.36976448837609,1.36976448837704,-1.14827888834757,1.14827888834584,-0.939011059325925,-0.408877721579259,0.0476695735025851,-0.259293867110472,1.34613363234927,-0.660919695151365,0.646767181894998,-0.419391738396503,-0.302037691045927,-0.302037691044945,-1.87041125103356,0.537293987513855,-1.70632060802332,-0.507218020783887,1.63915181541828,1.17091290952837,0.755067246984191,0.310639765048877,0.310639765050965,-2.61231405277226,2.61231405277149,0.38880514818991
548.1472,-1.32860716884295,3.34239430874262,0.757877345055689,-1.65227289646413,1.52905424593701,1.52905424593785,1.57099381773937,1.95939666512065,2.19858217313664,0.883146906617275,1.8169159150312,0.883146906618106,0.307785762127786,1.61211607548026,0.826341779685113,0.215570949916717,1.66384592584654,1.3889845889694,1.25497862625194,0.341505150702733,1.2549786262524,0.160203600525924,-0.532495274610813,-0.108014046378842,-1.6504448942146,1.31692648298948,1.31692648299042,-1.13129734832885,1.13129734832714,-0.960950686738115,-0.420896016015091,0.0381380557288323,-0.273115445131006,1.34607570931699,-0.651154855530182,0.653575407298386,-0.460617408448822,-0.296398040993231,-0.29639804099225,-1.86669621710304,0.530723285133725,-1.70732200127169,-0.538850316531588,1.66303168733963,1.15915100352368,0.750236228016992,0.319641732206,0.319641732208099,-2.6011801748765,2.60118017487574,0.430818939927803
548.2496,-1.31155940588195,3.30478526030457,0.751586214278137,-1.63933301278828,1.51110988062823,1.51110988062907,1.54745322457558,1.90408433128683,2.15524436384335,0.890796791185041,1.86292449689114,0.890796791185874,0.340407544198544,1.5807243397242,0.841295948758836,0.239814403118289,1.65628435330197,1.41241499838771,1.24291789495632,0.303568269063401,1.24291789495679,0.162320011949322,-0.580121662797446,-0.129140613418239,-1.66895180258825,1.26497979059086,1.26497979059179,-1.11453651448618,1.1145365144845,-0.981436366728736,-0.432809590107959,0.0297648985353614,-0.286206769760416,1.34478312882232,-0.640982679239439,0.65965080986137,-0.500979358675651,-0.290038401690747,-0.290038401689765,-1.86241905201085,0.523463817033853,-1.70823123001062,-0.570453869582674,1.68580701041383,1.14622791800022,0.74598988998059,0.327652008705631,0.327652008707738,-2.58900515318743,2.58900515318668,0.472094893525681
548.352,-1.29473409908888,3.26592987057076,0.744247213143194,-1.62465631136952,1.49403220487312,1.49403220487398,1.5215650428109,1.84845030787184,2.1096649079846,0.895405162988337,1.90782896760978,0.895405162989172,0.372554997988369,1.54878784749763,0.855673160301331,0.26352697041317,1.64850661113572,1.43507196008515,1.23032621969011,0.26598993955765,1.23032621969059,0.163001646840425,-0.627554114276273,-0.151520143361736,-1.68496348316583,1.21396951709623,1.21396951709714,-1.09804905354191,1.09804905354025,-1.0004262487681,-0.444572614669437,0.0225852569379884,-0.298515811022622,1.34225925578025,-0.630414195839811,0.664988422257265,-0.540439093295588,-0.282991284147095,-0.282991284146114,-1.85757111491571,0.515556075415211,-1.70900612808337,-0.601980342048943,1.70744573097463,1.13216642893941,0.742348002988284,0.334649100640507,0.33464910064262,-2.575761700179,2.57576170017825,0.512582221869556
548.4544,-1.27813625403671,3.22587983242031,0.735888631242055,-1.60816321539416,1.47784484649263,1.4778448464935,1.49330517174154,1.79256487706047,2.06185026157035,0.896900073449174,1.95157309412196,0.89690007345001,0.404193071057749,1.51631047216613,0.869446624428681,0.28664749751554,1.64045498661592,1.45684400007002,1.21716702311853,0.228891387011236,1.21716702311902,0.162248200179832,-0.674699412389147,-0.175107683491415,-1.69845979235035,1.1639359147819,1.1639359147828,-1.08188503653699,1.08188503653536,-1.01788167733149,-0.456143953023851,0.0166315234151433,-0.309995391670324,1.33850959436657,-0.619461322254759,0.669584419413565,-0.578960796072919,-0.275291924009472,-0.27529192400849,-1.85214241795014,0.507041146164285,-1.70960251816897,-0.633381854892867,1.72791779723857,1.11699093328484,0.739328542768985,0.34061366872911,0.340613668731229,-2.56142330903498,2.56142330903424,0.552231520566201
548.5568,-1.26176760899144,3.18468285783048,0.726539651621611,-1.58977613152798,1.46256608927423,1.46256608927512,1.46265425112775,1.73649687262418,2.01181056694347,0.895216681477352,1.99410273883409,0.895216681478188,0.435287758217321,1.48329261747021,0.882589147297926,0.30911619209677,1.63206991514142,1.47761998733204,1.20340455626324,0.192392187454622,1.20340455626374,0.160065052308324,-0.721465333901449,-0.199853425339669,-1.70942426295692,1.11491442336587,1.11491442336676,-1.06609184249313,1.06609184249152,-1.03376721441021,-0.467487318960329,0.0119332862173879,-0.320603321438429,1.33354184054334,-0.608136933665079,0.67343611207908,-0.616511175275558,-0.266978174462838,-0.266978174461855,-1.84612167629304,0.497960505530219,-1.70997443114035,-0.664611032535951,1.74719527601948,1.10072752222033,0.736947477094216,0.345528822753508,0.345528822755629,-2.54596441712894,2.54596441712822,0.590994901906386
548.6592,-1.24562659649928,3.14238250909379,0.716230281941682,-1.56941993520055,1.44820868775972,1.44820868776062,1.42959803680663,1.68031354264119,1.95955993585154,0.890297716383969,2.03536595308482,0.890297716384806,0.465806163989577,1.44973135159584,0.895073229467172,0.330874696235762,1.62329051353659,1.49728958299569,1.18900421401377,0.156609787354409,1.18900421401429,0.15646323916656,-0.767760903959428,-0.225702856364226,-1.71784405698469,1.06693576079964,1.06693576080052,-1.05071408564604,1.05071408564445,-1.04805065732645,-0.478571412630941,0.00851729691583638,-0.330302510614135,1.32736592481587,-0.596454925497007,0.676541938583668,-0.653059281716708,-0.258090376773342,-0.258090376772357,-1.83949638041494,0.488355828898619,-1.71007434108093,-0.695621072545791,1.76525250012156,1.08340405783498,0.735218551808886,0.349380406952266,0.349380406954388,-2.52936055656081,2.52936055656009,0.628826113826855
548.7616,-1.22970833137226,3.09901808012312,0.704991290072925,-1.54702244058196,1.43477972208239,1.43477972208331,1.3941277569593,1.62408041988784,1.90511671817989,0.882093906519343,2.07531306903453,0.882093906520179,0.495716571009581,1.4156205740049,0.906871180794119,0.351866186187434,1.61405510048214,1.51574371291337,1.17393286180655,0.121659033624393,1.17393286180707,0.151459398661435,-0.81349666599655,-0.252596941292275,-1.72370990879653,1.0200260500605,1.02002605006137,-1.03579355663093,1.03579355662936,-1.06070305620249,-0.489370040153271,0.00640743999153384,-0.339061071038139,1.31999404387381,-0.584430267748038,0.678901452805033,-0.688576307406265,-0.248671211529684,-0.248671211528697,-1.83225289609319,0.478268819041433,-1.70985341646146,-0.726365837042385,1.78206623910151,1.06505024925787,0.734153076946397,0.352157276143508,0.352157276145629,-2.51158849920883,2.51158849920812,0.665680647504135
548.864,-1.21400461897369,3.05462452189529,0.69285414676644,-1.52251485128092,1.42228049061585,1.42228049061679,1.35624044573827,1.56786120248073,1.84850375441406,0.87056437316194,2.11389679134201,0.870564373162776,0.524988516838425,1.38095120978009,0.917955251978293,0.372035505279899,1.60430169298493,1.53287506298137,1.15815916323377,0.0876517213380482,1.1581591632343,0.145075697750483,-0.858584965780052,-0.280472328430437,-1.72701606275354,0.974206966116398,0.97420696611726,-1.02136915920619,1.02136915920464,-1.07169873297152,-0.4998622174693,0.00562470113932811,-0.346852406809925,1.31144068008253,-0.572079051988307,0.680515307252425,-0.723035370833299,-0.238765530493198,-0.238765530492207,-1.8243765939273,0.467741063028891,-1.70926178212379,-0.756799949672567,1.79761587023429,1.04569772239395,0.733759722240932,0.353851550522245,0.353851550524363,-2.49262640271926,2.49262640271856,0.701515838529272
548.9664,-1.19850397366434,3.00923240706426,0.679850982971221,-1.49583218944189,1.41070643801739,1.41070643801835,1.31593926026147,1.51171764593954,1.78974861770619,0.855676997387998,2.15107228322766,0.855676997388833,0.553592880864176,1.34571142471255,0.928297781661707,0.391329328927882,1.59396846852966,1.54857858892114,1.14165389831219,0.0546961635723935,1.14165389831273,0.137339743133416,-0.902940245141546,-0.309261576065431,-1.72776021131266,0.929495890161767,0.92949589016262,-1.00747682524098,1.00747682523946,-1.08101530037297,-0.510032250488834,0.00618713345062992,-0.353655289588566,1.30172260820829,-0.559418532092987,0.681385230017427,-0.756411294066024,-0.228420168973537,-0.228420168972543,-1.81585199817319,0.456813913079285,-1.70824878421933,-0.786878884750128,1.81188352710382,1.02538007475891,0.734044337312797,0.35445883500835,0.354458835010465,-2.47245396053003,2.47245396052934,0.736290964586196
