time,S1-D1,S1-D8,S1-D9,S1-D15,S2-D1,S2-D2,S2-D3,S2-D9,S3-D1,S3-D2,S3-D16,S4-D2,S4-D3,S4-D5,S5-D3,S5-D4,S5-D5,S6-D2,S6-D5,S6-D17,S7-D6,S7-D7,S8-D6,S8-D7,S8-D18,S9-D3,S9-D4,S9-D9,S9-D11,S9-D19,S10-D8,S10-D9,S10-D10,S10-D11,S11-D8,S11-D10,S11-D20,S12-D10,S12-D11,S12-D12,S13-D4,S13-D11,S13-D12,S14-D10,S14-D12,S14-D21,S15-D13,S15-D14,S16-D13,S16-D14,S16-D22
870.5024,-0.47760269545394,-0.01801763937405,-0.516110988815549,-0.208217997463374,1.18140350069402,1.18140350069393,NaN,-0.0410725155419674,0.225995082549004,-0.359498295415167,-0.905927061222705,-0.359498295415798,1.03276458079668,-0.900959961987532,NaN,-0.212428627566719,1.18411145555938,0.297730541047956,-0.556429092267231,-2.25543660555671,-0.556429092267261,NaN,0.947168595121008,-0.943326431447855,NaN,0.10423822396659,-1.40968966544955,1.42326699340404,-1.4232669934031,-0.843842756637842,0.0017791648315646,1.20731108104042,1.0213158792309,NaN,-0.685811854076257,0.057998296454599,-0.805544089811735,1.58969311405087,1.58969311404684,0.926255234776431,0.835167257966433,1.25270332754988,0.764008210067877,0.0341244246935394,0.716138925819666,0.0953755305901527,0.726089109852175,NaN,0.237160915049925,-0.237160915050398,-1.88394471874363
870.6048,-0.466039637608548,0.00257363518757556,-0.490914895546246,-0.192857925772341,1.15459773522912,1.154597735229,NaN,-0.0321782655462087,0.248714611269741,-0.424185086237762,-0.877550315992352,-0.424185086238364,1.01681701505183,-0.895712856632706,NaN,-0.285872259555735,1.1427160048159,0.213144481637592,-0.630558778800031,-2.23419605891433,-0.630558778800063,NaN,0.95615674523007,-0.960175827123346,NaN,0.0854631699842529,-1.43415157127553,1.38604002009415,-1.38604002009323,-0.83306629782077,-0.0141916136712668,1.18562192328985,0.989145140719701,NaN,-0.679118703612873,0.0711427581855509,-0.841490687855041,1.57492295267062,1.57492295266659,0.88210899204489,0.816193393961059,1.19958150590405,0.682379052296257,0.0287713244356922,0.638169859230626,0.0581841537762955,0.663214957630368,NaN,0.227353142145075,-0.227353142145553,-1.92396172681301
870.7072,-0.455096051509454,0.0221238408435916,-0.46702952500647,-0.177001401778619,1.12751589376741,1.12751589376727,NaN,-0.0239826634101733,0.270729850944968,-0.488841446737845,-0.848701609771674,-0.488841446738419,1.00059366010456,-0.890134330230192,NaN,-0.3597131644334,1.10228439141189,0.128594972916932,-0.703215218508864,-2.21257454113168,-0.703215218508897,NaN,0.965729852674271,-0.9770442978945,NaN,0.066442461278923,-1.45887013735231,1.34806200717142,-1.34806200717051,-0.822389526916129,-0.0303910724416582,1.1641726278973,0.956978682228446,NaN,-0.672261187441442,0.0838478138923072,-0.876944907796773,1.55862857139416,1.55862857139013,0.838011007253314,0.797038414933036,1.1464539608918,0.601697797650875,0.0234496612386038,0.561080017151264,0.0202346463920286,0.601109437245223,NaN,0.217116934766891,-0.217116934767375,-1.96309452402709
870.8096,-0.44478136356063,0.0406147775073737,-0.444476308345449,-0.160682990879875,1.10019535083894,1.10019535083878,NaN,-0.0165036258919401,0.292013290686774,-0.553354943001978,-0.819441528518153,-0.553354943002523,0.984095859736752,-0.884208683270913,NaN,-0.43381697056235,1.06286978235362,0.0442273838097927,-0.77427388929547,-2.1906131308778,-0.774273889295503,NaN,0.975892066172778,-0.993896939229748,NaN,0.0471875333393547,-1.48380078013548,1.30937502958344,-1.30937502958255,-0.811819319307587,-0.0467689412612982,1.14298724384801,0.924880413985585,NaN,-0.66522577109524,0.0961010108781488,-0.911825982728453,1.54086734898224,1.54086734897821,0.794037136059984,0.777741848291703,1.0934141592494,0.522129499439382,0.0181802859175492,0.485035594807631,-0.0183471034935678,0.539870033637887,NaN,0.206476492262012,-0.206476492262506,-2.00124268901171
870.912,-0.435102211727725,0.058031820752833,-0.423271476529818,-0.143939128722842,1.07267317583127,1.07267317583108,NaN,-0.00975772493900876,0.312538958216659,-0.617613786839282,-0.789830816106682,-0.617613786839798,0.967325984083256,-0.877921111292464,NaN,-0.508048164587102,1.02451900140186,-0.0398145082574356,-0.84361523805089,-2.16835260435536,-0.843615238050925,NaN,0.986645641640983,-1.01069942010976,NaN,0.0277102754155972,-1.5088978320244,1.27002203716916,-1.27002203716829,-0.80136134189603,-0.0632754411636079,1.12208877752699,0.892912939533435,NaN,-0.657998427448562,0.107891721874063,-0.94605485843913,1.52169997477498,1.52169997477095,0.750262406207993,0.75834150364334,1.04055414104583,0.443833188672876,0.01298372626325,0.410197096419816,-0.0574346771236091,0.4795901855813,NaN,0.195454388307224,-0.195454388307722,-2.0383067472448
871.0144,-0.426062560111101,0.0743638743835087,-0.403426211319416,-0.126807932628198,1.04498596488126,1.04498596488106,NaN,-0.00376027196419571,0.332282292000704,-0.681507362976087,-0.759930148573117,-0.681507362976573,0.950287353690598,-0.871257697834458,NaN,-0.582270583481547,0.987272219555988,-0.123389097440516,-0.911125081125355,-2.14583312584817,-0.911125081125392,NaN,0.997990840634094,-1.02741817807068,NaN,0.00802302997112929,-1.53411448011457,1.23004686389761,-1.23004686389675,-0.791019996582424,-0.0798616038099414,1.10149926488053,0.86113733970117,NaN,-0.65056462946178,0.119211256433592,-0.979554489238536,1.50119013492089,1.50119013491686,0.70676061546278,0.738873305723925,0.987964037688249,0.366961149206698,0.00787997802506276,0.336718505266937,-0.0969015926596401,0.420358885215782,NaN,0.18407132632052,-0.184071326321021,-2.07418854050713
871.1168,-0.417663811199564,0.0896032979016157,-0.384946809608732,-0.109329038047857,1.01716967254744,1.01716967254722,NaN,0.00147459276629359,0.351220014633075,-0.744926739801014,-0.729799925092816,-0.744926739801472,0.932984123244498,-0.864205388424316,NaN,-0.656347907388303,0.95116270100367,-0.206357507215249,-0.976694963648107,-2.12309394317773,-0.976694963648147,NaN,1.00992580191612,-1.04402057268746,NaN,-0.0118614115094805,-1.55940270962115,1.18949422996384,-1.189494229963,-0.780798372217189,-0.0964795954872572,1.08123985534059,0.829612962505375,NaN,-0.642909354858449,0.130052968421217,-1.01225011748744,1.47940419806108,1.47940419805705,0.663603920128835,0.719371143927259,0.93573158511567,0.291658256354789,0.0028883107242104,0.264746523468058,-0.136621751389043,0.362260293790175,NaN,0.172345941653061,-0.172345941653563,-2.10879155827727
871.2192,-0.409904915538172,0.103745810713576,-0.367834859694917,-0.0915434509776392,0.98925944035761,0.989259440357362,NaN,0.00593380853193903,0.369330009553889,-0.807765166392892,-0.699500067010841,-0.807765166393322,0.915421113919986,-0.856751940772417,NaN,-0.730144153480573,0.916216595228939,-0.288584129851757,-1.04022247833126,-2.10017308032353,-1.0402224783313,NaN,1.02244638151214,-1.06047498691585,NaN,-0.0319298184657734,-1.58471324822197,1.14840972404827,-1.14840972404745,-0.770698196455696,-0.113083050842693,1.061330890351,0.798397200046712,NaN,-0.635017104959268,0.140412355319749,-1.04406954882565,1.45641089184282,1.45641089183879,0.620862409164307,0.699866733229443,0.883941625220103,0.218061361362845,-0.00197291934401074,0.194419859128299,-0.176469867627584,0.305373370502613,NaN,0.160294660519797,-0.1602946605203,-2.14202124158844
871.3216,-0.402782481616268,0.116790379544688,-0.352087428359335,-0.0734934025417978,0.961289419072773,0.961289419072505,NaN,0.0096053056835989,0.386591205248033,-0.86991855722547,-0.669089826754597,-0.869918557225872,0.897603593583819,-0.848885849978032,NaN,-0.803524172626789,0.882452772373347,-0.369937150466711,-1.10161154984455,-2.07710702713465,-1.10161154984459,NaN,1.03554596663743,-1.07675088057819,NaN,-0.0521685362816951,-1.60999551012478,1.10683976806005,-1.10683976805925,-0.760719785250043,-0.129627416848871,1.04179196982423,0.767545246339278,NaN,-0.626871938846969,0.15028714666983,-1.07494342162703,1.4322809592036,1.43228095919955,0.578603663718517,0.680389489918679,0.832675596385862,0.146298712610195,-0.00668644910658685,0.125868552479774,-0.216321878647598,0.249771515636085,NaN,0.147931620694674,-0.147931620695175,-2.17378527029503
871.424,-0.396290888044524,0.128739096278982,-0.337697256401828,-0.0552221963211847,0.933292589587841,0.93329258958755,NaN,0.0124779260902363,0.402983471251237,-0.931285955902465,-0.638627610649049,-0.931285955902838,0.879537020749609,-0.840596254015039,NaN,-0.876354141201084,0.849882706608793,-0.450289046650647,-1.16077268902627,-2.05393043719736,-1.16077268902632,NaN,1.04921528133626,-1.09281881187561,NaN,-0.07256350258959,-1.63519754561035,1.06483157748479,-1.06483157748401,-0.75086199084312,-0.146070299447065,1.02264200963369,0.73710984524565,NaN,-0.618457524556956,0.159677376922493,-1.1048054571384,1.40708679537534,1.4070867953713,0.536892317245889,0.660966426904869,0.782011030831989,0.076489423281346,-0.0112362822739034,0.0592133492948895,-0.256055323677562,0.195522238701209,NaN,0.135268650376825,-0.135268650377322,-2.20399383609065
871.5264,-0.390422396882598,0.139597050448696,-0.32465295876257,-0.0367740481856171,0.905300597229287,0.905300597228976,NaN,0.0145413561465489,0.41848752707633,-0.991769957189844,-0.608170814549727,-0.991769957190186,0.861226786167655,-0.831872834929412,NaN,-0.948502024957296,0.818510415439815,-0.52951703920451,-1.21762321243934,-2.03067585146013,-1.21762321243939,NaN,1.06344221356004,-1.10865044867049,NaN,-0.093100262284248,-1.66026601048481,1.02243313054544,-1.02243313054468,-0.741122148268956,-0.162371796563715,1.00389929446854,0.707141046312536,NaN,-0.609757210008723,0.168585433684762,-1.13359267372457,1.38090208061379,1.38090208060975,0.495789649756814,0.641622064990866,0.732021093439767,0.00874301275813256,-0.0156078647185267,-0.00543486095261511,-0.29554967918749,0.142686870198467,NaN,0.122315297861246,-0.122315297861742,-2.23255989317255
871.6288,-0.385167266815692,0.149372197055754,-0.312939227425769,-0.0181939230902128,0.87734361335965,0.877343613359317,NaN,0.0157860715519762,0.433084860366401,-1.05127706919075,-0.577775672263674,-1.05127706919107,0.842677991944454,-0.822705737499705,NaN,-1.01983799125062,0.788332460479457,-0.60750346992575,-1.2720874191958,-2.00737346114762,-1.27208741919585,NaN,1.07821170060694,-1.12421859434138,NaN,-0.113763983536277,-1.68514617254135,0.979693150537743,-0.979693150537001,-0.731496021546241,-0.178494797710235,0.985581531306847,0.677685990109382,NaN,-0.60075411479577,0.177016074907846,-1.16124555302073,1.3538014238839,1.35380142387984,0.455353251771221,0.622378351386956,0.682774197275965,-0.056840947974045,-0.0197882704623112,-0.0679755224255941,-0.334686641270681,0.0913203324535621,NaN,0.109078904748062,-0.109078904748557,-2.25939937187516
871.7312,-0.380513866463811,0.158075218268974,-0.302537038322838,0.00047262437375151,0.84945022885546,0.849450228855106,NaN,0.0162032890700821,0.446757649332469,-1.10971801352182,-0.547497124367568,-1.10971801352211,0.823895298429095,-0.813085526715456,NaN,-1.09023476316361,0.759338012941534,-0.684136099184984,-1.32409672008581,-1.9840509164583,-1.32409672008586,NaN,1.0935057031133,-1.13949724685252,NaN,-0.134539478409695,-1.70978196547366,0.936661097839431,-0.936661097838711,-0.721977756298172,-0.194405233838392,0.967705907939228,0.648788740973869,NaN,-0.591431240885413,0.18497641735155,-1.187708154985,1.32586001912507,1.325860019121,0.415636774723526,0.603254580727176,0.634333712192351,-0.120173071314206,-0.0237663982471805,-0.12831879171791,-0.373350357524068,0.0414709748351524,NaN,0.0955647204308908,-0.0955647204313823,-2.2844313448459
871.8336,-0.376448787617815,0.165719377609971,-0.293423862891432,0.0191795968763048,0.82164737699664,0.821647376996264,NaN,0.015784923073676,0.459488691293745,-1.1670079727992,-0.517388715266653,-1.16700797279946,0.804882849575371,-0.803003198007799,NaN,-1.15956792610865,0.731508987375128,-0.759308331523658,-1.37358971710839,-1.96073318747969,-1.37358971710844,NaN,1.10930327264434,-1.15446169166305,NaN,-0.155411225722058,-1.73411609024858,0.893387167741018,-0.893387167740319,-0.712559849638963,-0.210072270285193,0.950289153294763,0.620490170635404,NaN,-0.581771599810629,0.192475902342448,-1.21292818838758,1.29715330556041,1.29715330555632,0.376689761132979,0.584267320756213,0.586757760049689,-0.181174275593564,-0.0275331700769632,-0.186385817211577,-0.41142762612921,-0.00681952757956556,NaN,0.081776060283008,-0.0817760602834991,-2.30757814966383
871.936,-0.372956957864991,0.172320367791875,-0.285573882989003,0.0378806863883492,0.793960279054186,0.793960279053787,NaN,0.014523553941209,0.471261348532634,-1.2230667969814,-0.487502516184476,-1.22306679698163,0.785644258890675,-0.792450233488048,NaN,-1.22771620444591,0.704820241390074,-0.832919386296833,-1.42051223547931,-1.93744248179714,-1.42051223547937,NaN,1.12558068576173,-1.16908861098578,NaN,-0.176363387776615,-1.75809015266534,0.849922289233602,-0.849922289232926,-0.703233142771897,-0.225468449940627,0.933347593061067,0.592827881033042,NaN,-0.571758353245849,0.199526242245166,-1.23685704567328,1.26775662907391,1.26775662906981,0.338557530645121,0.565430350605637,0.540099073561967,-0.239775823139994,-0.0310817165328122,-0.242108931190352,-0.448808081361364,-0.053516217458029,NaN,0.0677145027130606,-0.0677145027135484,-2.32876547995953
872.0384,-0.370021753392747,0.177896156324474,-0.278958207402074,0.0565294001083945,0.766412402717388,0.766412402716969,NaN,0.0124124205567915,0.482059523897819,-1.27781917981625,-0.457889065439484,-1.27781917981646,0.766182617898372,-0.78141867670875,NaN,-1.29456172413092,0.679239826293656,-0.904874434323144,-1.46481731572393,-1.91419821267571,-1.46481731572399,NaN,1.1423116045523,-1.18335618904287,NaN,-0.197379814751833,-1.78164481796353,0.806318115303421,-0.806318115302768,-0.693986830195657,-0.240569804847667,0.916897200557894,0.565836150501396,NaN,-0.561374959812379,0.206141349666154,-1.25944980510411,1.23774491268696,1.23774491268283,0.301281091550373,0.54675462344365,0.494404890039897,-0.295919311221902,-0.0344075285243498,-0.295431770982512,-0.485384368639194,-0.0985908525011722,NaN,0.0533801066952002,-0.0533801066956922,-2.34792245080216
872.1408,-0.367625112072923,0.18246683351096,-0.273545087145033,0.0750791883445803,0.739025426642906,0.73902542664247,NaN,0.00944544395327931,0.491867671680253,-1.33119481084904,-0.428597320507448,-1.33119481084922,0.746500501114511,-0.769901203409175,NaN,-1.35999026628528,0.654729268700517,-0.975084713324364,-1.50646517300733,-1.89101700556947,-1.50646517300739,NaN,1.15946723797106,-1.19724420327271,NaN,-0.2184440356203,-1.80471996478351,0.762626999650073,-0.762626999649443,-0.684808474969202,-0.255355951926126,0.900953644470159,0.5395458910724,NaN,-0.550605319906801,0.21233725130631,-1.28066520019363,1.20719234440559,1.20719234440144,0.264897058953753,0.52824826238632,0.449716862746087,-0.349556643238661,-0.0375085600330868,-0.346309340586621,-0.521052300875658,-0.142021868092757,NaN,0.0387716291450212,-0.0387716291455153,-2.3649816402803
872.2432,-0.365747644184575,0.186054465637883,-0.26930012499061,0.0934835722444182,0.711819212630763,0.711819212630312,NaN,0.00561728132904805,0.500670843704011,-1.38312849593348,-0.399674618506383,-1.38312849593363,0.726599970195112,-0.757891188658988,NaN,-1.42389150028106,0.631243871702467,-1.04346761643728,-1.54542312349135,-1.86791273540899,-1.54542312349141,NaN,1.17701649254331,-1.21073409748128,NaN,-0.239539233928594,-1.8272548270627,0.718901968647608,-0.718901968647002,-0.675684025944612,-0.269810175539126,0.885532326176133,0.513984608399265,NaN,-0.539433916957773,0.218131986593306,-1.30046556432006,1.17617208114294,1.17617208113878,0.229437584493262,0.509916587258944,0.406070994327834,-0.400649984617568,-0.0403852828801551,-0.394708017670298,-0.555710994235243,-0.183794307668955,NaN,0.0238867300591594,-0.0238867300596613,-2.37987911938308
872.3456,-0.364368737375353,0.188682953632495,-0.26618647546611,0.111696266413962,0.684811791487562,0.684811791487096,NaN,0.000923407838090448,0.508454770038401,-1.4335602326517,-0.371166637242716,-1.43356023265182,0.706482592640045,-0.745382782092443,NaN,-1.48615917743618,0.608733033311461,-1.10994673741062,-1.58166547284413,-1.84489659149681,-1.5816654728442,NaN,1.19492609704421,-1.22380902880119,NaN,-0.260648206115576,-1.8491881179534,0.67519670268579,-0.675196702685209,-0.666597839075824,-0.283919489669695,0.870648392556973,0.489176358653494,NaN,-0.527845962035599,0.223545488636541,-1.31881676540576,1.14475596031119,1.14475596030701,0.194930317393899,0.49176215921893,0.363497609345085,-0.449171690936779,-0.0430407093312497,-0.440605508190451,-0.589262989127762,-0.223899714231994,NaN,0.00872216261300089,-0.0087221626135073,-2.39255449029126
872.448,-0.363466654546953,0.190377895580104,-0.264165034939026,0.129671299371307,0.658019367088805,0.658019367088321,NaN,-0.00463977460664754,0.515205973593301,-1.48243523351652,-0.343117345980954,-1.48243523351662,0.686149485435383,-0.732370995958651,NaN,-1.54669127359712,0.587140581720584,-1.17445186192291,-1.61517336443681,-1.82197716434778,-1.61517336443688,NaN,1.21316068157911,-1.23645387787192,NaN,-0.281753305012915,-1.87045813647951,0.631565529673404,-0.631565529672847,-0.657532703115769,-0.297674673877795,0.856316716340651,0.46514170073834,NaN,-0.515827550915089,0.228599443616215,-1.33568814047917,1.11301421150615,1.11301421150196,0.161398413636493,0.473784829207791,0.322021379370373,-0.495104193064898,-0.0454804026415492,-0.483990752084204,-0.621614358527102,-0.262335976086618,NaN,-0.00672604553993762,0.00672604553942717,-2.40295094449971
872.5504,-0.363018626193714,0.191166451219916,-0.263194624593668,0.147363141474721,0.631456339409292,0.631456339408789,NaN,-0.0110748036135903,0.520911914216581,-1.52970390082482,-0.31556894156134,-1.52970390082489,0.665601385352403,-0.718851800068215,NaN,-1.60539008211433,0.566405127162207,-1.23691890649401,-1.64593458932302,-1.79916054523802,-1.64593458932309,NaN,1.23168280515535,-1.2486552201153,NaN,-0.302836374361955,-1.89100286440045,0.588063419051812,-0.588063419051277,-0.648469867130857,-0.311070283009486,0.842551851868928,0.441897650506441,NaN,-0.503365836521454,0.233317127068432,-1.35105243011695,1.08101516611702,1.08101516611282,0.128860599248355,0.455981782381531,0.281661404592093,-0.538439826540738,-0.0477124913829548,-0.524863782037903,-0.652674800582706,-0.299107127026468,NaN,-0.0224624091981376,0.0224624091976216,-2.4110153352722
872.6528,-0.363000940140527,0.19107720659969,-0.263232170559177,0.164726846241686,0.605135343510292,0.605135343509774,NaN,-0.018383004363863,0.525561153901247,-1.57532176509143,-0.288561774942615,-1.57532176509148,0.644838739926851,-0.704822214545582,NaN,-1.66216226897263,0.546460432214472,-1.29728981500892,-1.67394336296485,-1.77645043059055,-1.67394336296492,NaN,1.2504529471583,-1.26040126838182,NaN,-0.323878678834736,-1.91076006457444,0.544745961084213,-0.544745961083703,-0.639389070248993,-0.32410463042223,0.829367982788539,0.4194576511243,NaN,-0.490449211863302,0.237723220511354,-1.3648857087458,1.04882496946493,1.04882496946072,0.0973312837767624,0.438347576416193,0.242431347051576,-0.579180596246035,-0.0497476932806211,-0.56323553216722,-0.682357716229072,-0.334223108519862,NaN,-0.0384917981590679,0.0384917981585453,-2.41669824751328
872.7552,-0.363389031193956,0.190140035859624,-0.264232885754831,0.181718202803956,0.579067297372738,0.579067297372202,NaN,-0.0265643274945816,0.529143535377448,-1.61924940280758,-0.262134273398751,-1.61924940280761,0.623861808248309,-0.69028039610693,NaN,-1.71691890733525,0.52723580238337,-1.35551242792459,-1.69920007589573,-1.75384822763802,-1.6992000758958,NaN,1.26942948172153,-1.27168179869653,NaN,-0.344860833000265,-1.92966739130832,0.501669321311965,-0.501669321311479,-0.630268579126406,-0.336779741106264,0.816778870524947,0.397831570205421,NaN,-0.477067495482595,0.241843614524538,-1.37716730899694,1.01650730500908,1.01650730500486,0.0668207113491865,0.420874174691025,0.204339602384656,-0.617337879056552,-0.0515993399979974,-0.599127591729859,-0.710580280604197,-0.367699503563221,NaN,-0.0548192583013827,0.0548192583008542,-2.41995404821656
872.8576,-0.364157572407018,0.188385956529596,-0.266150457528312,0.198293894767694,0.553261448257833,0.553261448257276,NaN,-0.0356171812148272,0.531650370277399,-1.66145234737135,-0.236322856486245,-1.66145234737136,0.602670760644627,-0.675225719177113,NaN,-1.76957550960844,0.508656495299809,-1.41154034145861,-1.72171102811309,-1.73135315887584,-1.72171102811317,NaN,1.28856863503577,-1.28248806034283,NaN,-0.365762731381775,-1.94766251547834,0.458890166067422,-0.458890166066958,-0.621085239225697,-0.349101271275009,0.804797801766132,0.377025725187045,NaN,-0.46321211081866,0.245705205259075,-1.38787974057786,0.984123139502946,0.984123139498705,0.037335131082675,0.403550978871582,0.167389492028543,-0.652932082663828,-0.0532833812069796,-0.632571901774488,-0.737263516290514,-0.399557251152906,NaN,-0.0714498629818744,0.0714498629813408,-2.42074090935234
872.96,-0.365280568734766,0.185846977517915,-0.268937242426174,0.21441166217911,0.52772540930159,0.527725409301012,NaN,-0.0455382599820495,0.533074634427965,-1.70190099874943,-0.211161842757838,-1.70190099874942,0.581265771260994,-0.659658855075104,NaN,-1.82005206890631,0.490644144928869,-1.46533276915538,-1.7414881568921,-1.70896236177393,-1.74148815689218,NaN,1.30782441534954,-1.29281266645886,NaN,-0.386563480777756,-1.96468325889408,0.416465559381705,-0.416465559381265,-0.611814541672129,-0.361078392120734,0.793437530523963,0.357042935204463,NaN,-0.448876250855187,0.249335692190571,-1.39700860277156,0.95173049382257,0.951730493818298,0.00887697213941235,0.386364868230758,0.131579462517815,-0.685992282048187,-0.0548183448004796,-0.663610394326486,-0.762332363740939,-0.429822350208269,NaN,-0.0883886070344315,0.0883886070338899,-2.41902080222504
873.0624,-0.366731452073112,0.182555943405826,-0.272544464754111,0.23003046251273,0.502465187115774,0.502465187115172,NaN,-0.0563223771339251,0.53341116365784,-1.74057052327681,-0.186683352057991,-1.74057052327678,0.559647110388751,-0.64358185581438,NaN,-1.86827310678892,0.473117203863286,-1.51685440168353,-1.75854876072123,-1.68667098606244,-1.75854876072131,NaN,1.32714852829552,-1.30264947195661,NaN,-0.407241337708797,-1.98066773345159,0.374452834505266,-0.37445283450485,-0.602430705475102,-0.372723632354313,0.782710211286745,0.33788260118492,NaN,-0.434055023310561,0.252763382633888,-1.40454249051,0.919384239593834,0.919384239589539,-0.0185549720805471,0.369300249575134,0.0969032978858375,-0.716555835052149,-0.056225245789426,-0.692294569059669,-0.785715739181066,-0.458525555343086,NaN,-0.105640334533193,0.105640334532649,-2.41475946281021
873.1648,-0.368483174729801,0.178546380128509,-0.276922412606545,0.245110625535763,0.477485210480304,0.477485210479682,NaN,-0.0679623164440135,0.532656837402204,-1.77744072249098,-0.16291721497305,-1.77744072249093,0.537815257018378,-0.626998252719395,NaN,-1.91416770894548,0.455991417418278,-1.56607524234694,-1.77291521240364,-1.66447230000419,-1.77291521240372,NaN,1.34649032085201,-1.3119934594696,NaN,-0.427773656060736,-1.99555448764644,0.332909442716468,-0.332909442716073,-0.59290677699565,-0.384052671148865,0.772627322603597,0.319540820871897,NaN,-0.418745578203005,0.25601700291439,-1.41047289774652,0.887135917664935,0.887135917660625,-0.0449653219288027,0.352339113478773,0.0633503744294179,-0.744667949715606,-0.0575274581015925,-0.718684994981415,-0.807346579969954,-0.485702052551205,NaN,-0.123209681304125,0.123209681303572,-2.40792632449261
873.2672,-0.370508297093846,0.173852345761322,-0.282020624547748,0.259614001023009,0.452788371969112,0.452788371968466,NaN,-0.0804487175675246,0.530810737126018,-1.81249585218014,-0.139890899049817,-1.81249585218007,0.515771046529254,-0.609913173223412,NaN,-1.95766952971558,0.439180341139255,-1.61297039595307,-1.78461465235176,-1.64235781446074,-1.78461465235185,NaN,1.36579679420251,-1.32084065324249,NaN,-0.448136851179107,-2.00928266454481,0.291892777490917,-0.291892777490542,-0.583214744510659,-0.395084079357332,0.763199582176638,0.302010541535835,NaN,-0.40294722340276,0.259125510774491,-1.41479411831864,0.855033572684801,0.855033572680472,-0.0703618218599799,0.335461088963721,0.0309059871853503,-0.770381174510306,-0.0587505729634463,-0.742850731350971,-0.827161881782624,-0.511391097905296,NaN,-0.141101020659242,0.141101020658688,-2.3984944144151
873.3696,-0.372779064768067,0.168508289866943,-0.28778805976233,0.273504104902618,0.428376089763345,0.428376089762676,NaN,-0.0937700023606351,0.527874272885608,-1.84572438728284,-0.117629454962973,-1.84572438728276,0.493515848460055,-0.592333467517028,NaN,-1.99871676002829,0.422595898331416,-1.65751980747795,-1.79367865908953,-1.6203174230351,-1.79367865908962,NaN,1.38501269277938,-1.3291880657708,NaN,-0.468306384275721,-2.0217921679714,0.251459970332776,-0.25145997033242,-0.573325657226576,-0.405839017994817,0.754436847765303,0.285281737763048,NaN,-0.386661532983705,0.262117901837126,-1.41750313722249,0.823121595535995,0.823121595531652,-0.0947549791502864,0.318643493310134,-0.000448248665226137,-0.793754812869685,-0.0599222606774813,-0.764868683410056,-0.84510272916412,-0.535635613228162,NaN,-0.15931841169157,0.159318411691013,-2.38644021897161
873.472,-0.375267471684816,0.16254892545607,-0.294173245443521,0.286746269492698,0.404248390340134,0.404248390339441,NaN,-0.107912342269411,0.523851276179478,-1.87711873987558,-0.0961554845509037,-1.87711873987548,0.47105176325793,-0.574267837509632,NaN,-2.03725206806822,0.406148965382616,-1.699707964153,-1.80014290003124,-1.59833955297332,-1.80014290003134,NaN,1.40408065545782,-1.33703367125951,NaN,-0.488256764798193,-2.03302382742285,0.211667660801989,-0.21166766080165,-0.563209739486582,-0.416340903803629,0.746347990344677,0.269341594356149,NaN,-0.369892449169018,0.265023007109304,-1.41859950646109,0.791440562317561,0.791440562313194,-0.11815765106451,0.301861380721337,-0.030733941723796,-0.814854285454789,-0.0610721411594431,-0.784822918576093,-0.86111432549722,-0.558481745428536,NaN,-0.177865555632172,0.177865555631615,-2.37174353416963
873.5744,-0.377945308419664,0.156009117441827,-0.301124398144333,0.299307796295878,0.380404006398914,0.380404006398199,NaN,-0.122859664613795,0.518748058966907,-1.90667494155445,-0.0754891364690268,-1.90667494155434,0.448381836787572,-0.555726971361534,NaN,-2.07322252875146,0.389749976770194,-1.73952357909967,-1.80404676885831,-1.57641132563934,-1.80404676885841,NaN,1.42294141960766,-1.34437640148324,NaN,-0.50796156577124,-2.04291955722606,0.172571749140986,-0.172571749140664,-0.552836500076164,-0.426615042450507,0.738940726927272,0.25417468323464,NaN,-0.35264637370354,0.267869284949031,-1.41808520520794,0.760027062689951,0.760027062685556,-0.140584606567961,0.28508759820416,-0.0599754388482623,-0.833750460796856,-0.0622316613774555,-0.802803960077044,-0.875146031271924,-0.579978405028781,NaN,-0.196745769478031,0.196745769477476,-2.35438731333081
873.6768,-0.380784196469874,0.148923791378722,-0.308589517513165,0.311158103038044,0.356840482020538,0.3568404820198,NaN,-0.138593693986546,0.512573441947562,-1.93439229958126,-0.0556481335145591,-1.93439229958113,0.425510295340841,-0.536723691941494,NaN,-2.10657955460506,0.373309548291552,-1.77695926867044,-1.8054330163834,-1.55451873199868,-1.8054330163835,NaN,1.44153407269019,-1.35121615976065,NaN,-0.527393448611325,-2.05142251507751,0.134227137677765,-0.134227137677462,-0.542174841864191,-0.436688225353947,0.732221405266078,0.239763131233153,NaN,-0.33493224235983,0.270684612586021,-1.41596448760731,0.728913520099802,0.728913520095395,-0.162052083084474,0.268292857665129,-0.0881993292137827,-0.850518969615076,-0.0634339727967882,-0.81890806591028,-0.887151411455564,-0.600176803751152,NaN,-0.215961985053738,0.215961985053186,-2.33435751759742
873.7792,-0.383755608919521,0.141327864637794,-0.316516451503913,0.322268854503585,0.333554279168662,0.3335542791679,NaN,-0.155094022886011,0.505338757202335,-1.96027302935586,-0.0366478251913484,-1.96027302935572,0.402442796000972,-0.51727312064511,NaN,-2.13727883017198,0.356739116540439,-1.81201122626536,-1.80434737957608,-1.5326468301363,-1.80434737957618,NaN,1.45979633706781,-1.35755384177573,NaN,-0.54652419322759,-2.05847726637911,0.0966874627900247,-0.0966874627897362,-0.531193177377538,-0.446588291544923,0.726194739484519,0.226086776774223,NaN,-0.31676157942874,0.273496079448919,-1.41224372655623,0.698128015563849,0.698128015559441,-0.182577347134904,0.25144582714466,-0.11543394646774,-0.865239516290705,-0.0647138008572117,-0.833236498456203,-0.897088288600801,-0.61913000434342,NaN,-0.235516769733766,0.23551676973322,-2.31164297765556
873.8816,-0.386830876882507,0.13325619797579,-0.324852933704016,0.332614069097796,0.310540880904579,0.310540880903796,NaN,-0.172338204224702,0.497057827397016,-1.98432186047563,-0.0185012493589664,-1.98432186047546,0.379186677845374,-0.4973928448172,NaN,-2.16528024310922,0.33995158388723,-1.84467889082607,-1.80083821081043,-1.5107799605145,-1.80083821081053,NaN,1.47766486728001,-1.3633913474506,NaN,-0.565324728527544,-2.06402995210249,0.0600048198448163,-0.0600048198445445,-0.519859551832076,-0.456343665579408,0.72086350815026,0.213123315587805,NaN,-0.298148534267707,0.276329783183603,-1.40693126595984,0.667694133233233,0.667694133228824,-0.202178256513259,0.234513233776911,-0.141708868820465,-0.877995193327867,-0.0661073062016924,-0.845894789750214,-0.904918802642007,-0.63689248385661,NaN,-0.255412347137458,0.255412347136918,-2.2862352803761
873.984,-0.389981181066711,0.124743563542999,-0.333546594578879,0.342170200445229,0.287794886536681,0.287794886535876,NaN,-0.190301858342132,0.487746920970915,-2.00654561478857,-0.00121918703721019,-2.00654561478839,0.355751197651601,-0.477103070565215,NaN,-2.19054780230188,0.322861950893539,-1.87496460864716,-1.79495610841974,-1.48890196189471,-1.79495610841984,NaN,1.49507554261586,-1.36873157087514,NaN,-0.583765162073777,-2.06802844865352,0.0242294865720709,-0.0242294865718134,-0.508141768063096,-0.46598289008411,0.716228237766441,0.200848438767756,NaN,-0.279109904935207,0.279210631101587,-1.40003729068881,0.637630842837567,0.637630842833157,-0.220872819717698,0.217459968134608,-0.167054415767856,-0.888871797776398,-0.0676519449690732,-0.856992007721647,-0.910609476102313,-0.653519707441152,NaN,-0.275650589397603,0.275650589397062,-2.25812869329669
874.0864,-0.393177531044077,0.11582462780218,-0.342544950326996,0.350916203818008,0.265310097694717,0.265310097693896,NaN,-0.208958788683089,0.477424684975087,-2.02695276031932,0.0151897962014869,-2.02695276031913,0.332147742063414,-0.456426750182424,NaN,-2.21304953513227,0.305387923385254,-1.90287328660968,-1.78675355039287,-1.46699637613897,-1.78675355039298,NaN,1.51196374769181,-1.37357836526783,NaN,-0.601814812857393,-2.07042251174142,-0.010590347813605,0.0105903478138489,-0.496007506613422,-0.475534172247443,0.712286894538934,0.189235965724777,NaN,-0.259665156472726,0.282162149542111,-1.39157371530691,0.607952419980275,0.607952419975866,-0.238678752534075,0.200249188251778,-0.191501141876192,-0.897957149856223,-0.0693863339583568,-0.866640028562973,-0.914131275385174,-0.66906771159693,NaN,-0.296232963245906,0.296232963245366,-2.22732013669347
874.1888,-0.396390740688355,0.10653394902421,-0.351795378499298,0.358833601890035,0.243079600418156,0.243079600417318,NaN,-0.228281102692006,0.466112061037729,-2.045552952477,0.0307193177378166,-2.0455529524768,0.308390020959135,-0.435389687166783,NaN,-2.23275736155445,0.28745049468312,-1.92841203447356,-1.77628453514561,-1.44504664699207,-1.77628453514572,NaN,1.52826464469412,-1.37793649385879,NaN,-0.619442253833323,-2.07116391213701,-0.0444088379600967,0.0444088379603293,-0.483424442383239,-0.485024956751427,0.709034597516444,0.178257972261299,NaN,-0.239836443927721,0.285206299736442,-1.38155408811614,0.578668393236619,0.578668393232198,-0.255613034854398,0.182842430797229,-0.215079328557831,-0.905340416233765,-0.0713501229379434,-0.874952819369823,-0.915459661286984,-0.683592697129423,NaN,-0.317160428354887,0.317160428354347,-2.1938092109719
874.2912,-0.399591411647056,0.0969059856182243,-0.361245095282162,0.365906555649443,0.221095849668616,0.221095849667765,NaN,-0.248239336981999,0.45383218914419,-2.06235657973749,0.0453651421824576,-2.06235657973727,0.28449425507934,-0.414020630619169,NaN,-2.24964694967937,0.268974512024094,-1.9515897967873,-1.76360423414296,-1.42303632496092,-1.76360423414307,NaN,1.5439134450416,-1.38181158542795,NaN,-0.63661536890692,-2.07020658066769,-0.0771827109673981,0.0771827109676208,-0.47036036807963,-0.49448152751299,0.706463359422719,0.167884917051923,NaN,-0.219648646095867,0.288363299040786,-1.36999351072443,0.549783507990212,0.549783507985772,-0.271691472432067,0.165199738066095,-0.237818476117863,-0.911111435617296,-0.0735838771252122,-0.882045731531171,-0.914574636093248,-0.697150634109713,NaN,-0.338433300267864,0.33843330026732,-2.15759828310849
874.3936,-0.402749932917731,0.0869751079529172,-0.370841147600383,0.37212192978446,0.199350761316496,0.19935076131563,NaN,-0.268802587348164,0.440610299325316,-2.07737432735783,0.0591251297458251,-2.07737432735759,0.260479369545442,-0.392351369400971,NaN,-2.26369755987749,0.249889237004091,-1.97241697675241,-1.74876865709738,-1.4009492856144,-1.74876865709749,NaN,1.55884568368088,-1.38521010702805,NaN,-0.653301422808543,-2.06750677267216,-0.108871460330275,0.108871460330488,-0.456783334398414,-0.503928634436303,0.704561859805696,0.158085773730004,NaN,-0.19912940636806,0.291651451647886,-1.3569085805288,0.521297709226796,0.521297709222335,-0.286928268719723,0.147279805519667,-0.259746800069899,-0.915360039482684,-0.0761289740348238,-0.88803480198201,-0.911460803938694,-0.70979688481933,NaN,-0.360051097934383,0.360051097933829,-2.11869262868089
874.496,-0.405836495641279,0.0767756073473586,-0.380530423086004,0.377469332573519,0.177835818690418,0.177835818689535,NaN,-0.2899386444304,0.426473589553083,-2.09061676189788,0.0719991656831355,-2.09061676189763,0.23636719451676,-0.37041682782897,NaN,-2.27489188118812,0.230128905740755,-1.99090505314762,-1.73183432471591,-1.37876996427256,-1.73183432471603,NaN,1.57299749179802,-1.38813935014261,NaN,-0.66946713630562,-2.06302324699698,-0.139437502605452,0.139437502605654,-0.44266180749468,-0.513389143675581,0.703315248862123,0.148828168495228,NaN,-0.178309173030682,0.295086994040582,-1.3423173652901,0.493206154872526,0.493206154868045,-0.301335613638397,0.129040150781713,-0.280890738744843,-0.918175370738231,-0.0790275147112454,-0.893036064857544,-0.906107454483759,-0.721585853062356,NaN,-0.382012388002816,0.382012388002258,-2.07710062214976
874.5984,-0.408821117292136,0.066341699921098,-0.390259673217706,0.381941118790642,0.156542200043278,0.156542200042383,NaN,-0.311614135076012,0.411451091306856,-2.10209393682208,0.0839890816212226,-2.10209393682181,0.212182661057382,-0.348255156860013,NaN,-2.28321586507815,0.209633286155711,-2.00706619602017,-1.71285794640045,-1.3564836068472,-1.71285794640057,NaN,1.58630585851585,-1.39060741435846,NaN,-0.685078758155809,-2.0567174434673,-0.168846300001915,0.168846300002106,-0.427964835543817,-0.522883716180088,0.702704972452147,0.140078511091834,NaN,-0.157221234215742,0.298683957194355,-1.326239412539,0.46549926593859,0.465499265934099,-0.314923303004645,0.110437303841714,-0.301274486924605,-0.919645224111975,-0.0823222387613071,-0.897164885919716,-0.898508664875064,-0.732570666913461,NaN,-0.404314621223635,0.40431462122307,-2.03283396895383
874.7008,-0.411673673041734,0.0557075249878635,-0.399975547479677,0.385532365024015,0.135460922748991,0.135460922748082,NaN,-0.333794666916199,0.395573527614762,-2.11181503162143,0.0950985850329185,-2.11181503162115,0.187953967546795,-0.325907808030016,NaN,-2.2886585720903,0.188348216948333,-2.02091290181608,-1.69189611213018,-1.33407652503111,-1.6918961121303,NaN,1.59870887115043,-1.39262317211197,NaN,-0.700102128584073,-2.0485536418712,-0.197066461549907,0.197066461550085,-0.412662211772099,-0.532430523648014,0.702708611377466,0.13180210539188,NaN,-0.135901743443948,0.30245404645386,-1.30869578564371,0.438162811580482,0.438162811575975,-0.3276984112265,0.0914270194397057,-0.320919579329405,-0.919855443998119,-0.0860564246158197,-0.900535336071877,-0.888663403328522,-0.742802899226624,NaN,-0.42695395368664,0.426953953686068,-1.98590796854715
874.8032,-0.414363936780623,0.0449071366602575,-0.409624642006382,0.388240840578502,0.114582991221087,0.114582991220163,NaN,-0.35644497203663,0.378873167058743,-2.11978804706932,0.105333206075279,-2.11978804706903,0.163712684502482,-0.303419570141077,NaN,-2.29121205265022,0.166226101513123,-2.03245767858557,-1.66900501535097,-1.31153632925676,-1.66900501535109,NaN,1.61014592614671,-1.39419620246393,NaN,-0.714502735160317,-2.03849909340984,-0.224069842699135,0.224069842699301,-0.396724617999116,-0.542045011593396,0.703299737872747,0.123963233659104,NaN,-0.114389729603447,0.306406540179112,-1.28970910964339,0.411178030753953,0.411178030749419,-0.339665038497684,0.0719645121481059,-0.339844546457974,-0.918889407754029,-0.090273761931619,-0.903259617983009,-0.876575614678001,-0.752332328155195,NaN,-0.44992505896108,0.449925058960502,-1.93634178644743
874.9056,-0.416861633087535,0.0339744867335017,-0.41915356529219,0.390066990674424,0.0938995412790688,0.0938995412781281,NaN,-0.379529048683094,0.361383672520377,-2.12601956937543,0.114700260546524,-2.12601956937511,0.139493778683041,-0.280838552323931,NaN,-2.29087127004617,0.1432263327404,-2.04171279862314,-1.64424021715794,-1.28885211529626,-1.64424021715807,NaN,1.62055790818724,-1.39533668774152,NaN,-0.72824577008677,-2.02652412666611,-0.249831657184038,0.249831657184192,-0.380123734955983,-0.55173971480202,0.704447797770502,0.116525217063842,NaN,-0.0927270878029658,0.310548205444388,-1.26930361038503,0.38452179647805,0.384521796473477,-0.350824134433538,0.0520047094369287,-0.358064646344862,-0.916827598781479,-0.0950181991797382,-0.905447552313564,-0.862254274177925,-0.761206734208826,NaN,-0.473220944159927,0.473220944159331,-1.88415871151517
875.008,-0.419136498090338,0.0229433986250276,-0.428509018934613,0.391013932488942,0.0734019844891736,0.0734019844882149,NaN,-0.40301030334969,0.343139940993808,-2.13051459623906,0.123208823187516,-2.13051459623873,0.115335568062458,-0.258216115003131,NaN,-2.28763405415279,0.11931564053405,-2.04869011145646,-1.61765645000197,-1.26601460062728,-1.6176564500021,NaN,1.62988734217728,-1.39605527691327,NaN,-0.741296202857409,-2.01260223904034,-0.274330597887716,0.274330597887858,-0.362832316060343,-0.561524124711009,0.706118028091203,0.109450461089521,NaN,-0.0709585532881188,0.314883225799763,-1.247505137388,0.358166822717382,0.358166822712777,-0.361173378950538,0.0315025135839121,-0.375591654629206,-0.913747250991602,-0.100333781871894,-0.907206120160212,-0.845713402573959,-0.769471722579386,NaN,-0.496832774289367,0.496832774288753,-1.82938638681196
875.1104,-0.421158347392713,0.0118475345895056,-0.437637890082486,0.391087455688622,0.0530821576102699,0.0530821576092932,NaN,-0.426851694170977,0.324177932743479,-2.13327641152558,0.130869703059402,-2.13327641152524,0.0912796370319269,-0.235606762164497,NaN,-2.2815010722089,0.0944683673476186,-2.05340090242187,-1.58930745537664,-1.243016222105,-1.58930745537678,NaN,1.63807852925381,-1.39636292960145,NaN,-0.753618878499231,-1.99671018706415,-0.297548949631343,0.297548949631477,-0.344824231892969,-0.571404605341949,0.708271422017934,0.102700498855074,NaN,-0.0491316607127309,0.319413137397807,-1.22434116414911,0.33208190799814,0.332081907993499,-0.370707100861486,0.0104130669073233,-0.392433693834366,-0.909722041458571,-0.106264494850064,-0.90863905229794,-0.826972038047708,-0.777170558102125,NaN,-0.520749698877905,0.520749698877277,-1.7720570128266
875.2128,-0.422897151088663,0.000720359089506139,-0.446487353797486,0.390296017169997,0.0329324773685845,0.0329324773675934,NaN,-0.451015874013966,0.304534491480651,-2.13430650344305,0.137695409443979,-2.13430650344269,0.0673707319958306,-0.213068003392529,NaN,-2.27247581533552,0.0686666810986886,-2.05585579172756,-1.55924585402956,-1.21985120789938,-1.5592458540297,NaN,1.64507768063538,-1.39627075796934,NaN,-0.765178641669797,-1.97882808386413,-0.31947267740052,0.319472677400647,-0.32607449833227,-0.581384350358367,0.710864751428351,0.0962360473888397,NaN,-0.0272966859525641,0.324136774846918,-1.19984076045654,0.306232212827567,0.306232212822903,-0.37941623044793,-0.0113079783147582,-0.4085950974367,-0.904821818083227,-0.112854108712584,-0.909846453430443,-0.806054167584091,-0.784344005182827,NaN,-0.544958675597573,0.544958675596925,-1.71220752291441
875.3152,-0.424323115832279,-0.0104049002005595,-0.45500498436344,0.388650719553789,0.0129460965831666,0.0129460965821605,NaN,-0.475465331278327,0.284247159664768,-2.13360452882073,0.143700101002862,-2.13360452882035,0.043656637868608,-0.190660185751778,NaN,-2.2605646083239,0.0419007332358768,-2.05606467767709,-1.52752304978517,-1.1965156330268,-1.52752304978531,NaN,1.650833058768,-1.39578987920524,NaN,-0.775940477358854,-1.95893950201584,-0.340091485596464,0.340091485596581,-0.306559301694167,-0.591463369431977,0.713850648459796,0.0900170883476134,NaN,-0.00550656353158153,0.329050232891839,-1.17403453770351,0.280579574107767,0.280579574103074,-0.387288295197339,-0.0337041813228498,-0.424076317293488,-0.899112361327541,-0.120146017829938,-0.910924449914858,-0.782988629978713,-0.79103017378987,NaN,-0.569444296451726,0.569444296451058,-1.6498797296083
875.4176,-0.425406773621944,-0.0214952928715013,-0.463138874625076,0.386165267874899,-0.00688294624241685,-0.00688294624343734,NaN,-0.500162524954391,0.263353994152267,-2.13116832846668,0.148899520311059,-2.1311683284663,0.0201880227516705,-0.168446293731619,NaN,-2.24577665134274,0.0141687649522776,-2.05403673074139,-1.49418916740887,-1.17300746400676,-1.49418916740902,NaN,1.65529512589873,-1.39493128327892,NaN,-0.78586965573155,-1.93703157249272,-0.359398854407286,0.359398854407394,-0.286256028580143,-0.601638496953984,0.717177741551166,0.0840029753715046,NaN,0.016183228152184,0.334146851702542,-1.14695457673332,0.255082861964992,0.25508286196028,-0.394307472677725,-0.0568180206791809,-0.438873887742463,-0.892655188643192,-0.128183053696482,-0.911964854867964,-0.757809001647084,-0.797264384312686,NaN,-0.594188631789985,0.594188631789301,-1.58512044277326
875.52,-0.426119077597648,-0.0325181854776572,-0.470837762247886,0.382855906224109,-0.0265595943287562,-0.0265595943297911,NaN,-0.525070008562646,0.241893386234035,-2.1269939957321,0.15331091804539,-2.1269939957317,-0.00298176154200601,-0.14649171766912,NaN,-2.22812409725528,-0.0145228393160532,-2.04978044222265,-1.45929302390081,-1.14932659511507,-1.45929302390096,NaN,1.65841669573186,-1.39370571535068,NaN,-0.794931873580195,-1.9130950730625,-0.377392059839792,0.377392059839888,-0.265143301699108,-0.611903426689374,0.720790841203164,0.078152560935072,NaN,0.0377148166244395,0.339417230407442,-1.11863435279,0.229698380785152,0.229698380780416,-0.400454709429627,-0.0806905828980441,-0.452980454114729,-0.885507410794978,-0.137007264591435,-0.913054851237611,-0.730553470494324,-0.803079067833264,NaN,-0.619171102815796,0.619171102815095,-1.51798156768351
875.6224,-0.426431504460473,-0.0434412971283293,-0.478051160388729,0.378741336718337,-0.0460876625947111,-0.0460876625957562,NaN,-0.550150539193758,0.219903886783935,-2.12107598859531,0.156952968357418,-2.1210759885949,-0.0257969216121015,-0.124863994168327,NaN,-2.20762215411836,-0.0441595486722805,-2.04330371693265,-1.42288212915249,-1.12547488016037,-1.42288212915265,NaN,1.6601530910708,-1.39212357341486,NaN,-0.803093391155949,-1.8871245092991,-0.394072175518935,0.394072175519024,-0.243201023044544,-0.622248775921152,0.724631165726466,0.0724243313996328,NaN,0.0590281118457499,0.344849266013789,-1.08910867693677,0.204380309467325,0.204380309462556,-0.405707894901034,-0.105361233948669,-0.466384854592413,-0.877721633575537,-0.146659670204862,-0.914276694365158,-0.701264710025023,-0.808503705623512,NaN,-0.644368375240518,0.6443683752398,-1.44852020180024
875.7248,-0.426316160451732,-0.0542327277868213,-0.484729487533145,0.373842618788811,-0.0654697446380239,-0.0654697446390839,NaN,-0.575367170225673,0.197424035772821,-2.1134072609463,0.159845677916684,-2.11340726094588,-0.048199492403288,-0.103632522308712,NaN,-2.18428918752428,-0.0747187240529859,-2.03461398299553,-1.3850027066191,-1.10145616653788,-1.38500270661926,NaN,1.66046232197913,-1.39019482582088,NaN,-0.81032116464228,-1.85911819531195,-0.409444044448891,0.40944404444897,-0.220410428311782,-0.632662172425438,0.728636586038237,0.0667765383549672,NaN,0.0800609940047998,0.350428207825905,-1.05841367500259,0.179081172018509,0.179081172013714,-0.410042058897154,-0.130867288043677,-0.479072226310243,-0.869345881002733,-0.157180018277435,-0.915707435582788,-0.6699897777431,-0.813564795077942,NaN,-0.669754252015638,0.66975425201491,-1.37679875633823
875.8272,-0.425745885938966,-0.0648609771251188,-0.490824189908971,0.368183046430164,-0.0847071258896087,-0.0847071258906784,NaN,-0.600683326713688,0.174492197056885,-2.10397938851246,0.162010291739278,-2.10397938851204,-0.0701296224927591,-0.0828682545097695,NaN,-2.15814679930249,-0.106169691079533,-2.02371829434216,-1.3456997239924,-1.07727633207941,-1.34569972399256,NaN,1.65930529815878,-1.38792895117353,NaN,-0.816582974940912,-1.82907833266542,-0.423516207588122,0.423516207588191,-0.196754151442144,-0.643128354548799,0.732741868401119,0.0611673168601583,NaN,0.100749503990163,0.356136718040804,-1.02658681342478,0.153752329911869,0.153752329907048,-0.413429564454261,-0.157243690832531,-0.491024111124818,-0.860423520369885,-0.168606571313489,-0.917418673098466,-0.636780052276628,-0.818285826419402,NaN,-0.695299546278861,0.695299546278119,-1.30288512029874
875.9296,-0.424694356298978,-0.0752949542081109,-0.496287854207673,0.361788007582627,-0.103799698751793,-0.103799698752875,NaN,-0.62606286278656,0.151146400122753,-2.09278268567364,0.163469192062022,-2.09278268567322,-0.0915258719685148,-0.0626433577777154,NaN,-2.12921988091832,-0.138473851285377,-2.01062342595957,-1.30501693158208,-1.05294331021052,-1.30501693158225,NaN,1.65664607404497,-1.38533489677163,NaN,-0.821847557134055,-1.79701107623083,-0.436300784621101,0.436300784621162,-0.172216289089549,-0.653629283462059,0.736878915452881,0.0555547916805609,NaN,0.121028042879733,0.361954938495052,-0.993666957856898,0.128344488301776,0.128344488296938,-0.415840294308944,-0.184522721994927,-0.502218560678059,-0.85099319001957,-0.180975931211156,-0.919476337634315,-0.601691192692976,-0.822687265333324,NaN,-0.720971933602157,0.720971933601405,-1.22685285862966
876.032,-0.423136183014153,-0.0855039811026122,-0.501074316702799,0.354684836658401,-0.122745885369691,-0.122745885370784,NaN,-0.651470099291834,0.127424190079761,-2.07980633607247,0.164245778187509,-2.07980633607204,-0.112325520311801,-0.0430308457719775,NaN,-2.09753666505237,-0.17158484576752,-1.99533598927943,-1.26299691805408,-1.02846707962658,-1.26299691805426,NaN,1.65245211378114,-1.38242105310693,NaN,-0.826084738755361,-1.76292657955836,-0.447813312220451,0.447813312220501,-0.146782453846684,-0.664144276067862,0.740977029472117,0.0498971843947753,NaN,0.140829594884431,0.367860572145976,-0.959694432688586,0.102808209787505,0.102808209782643,-0.417241854450009,-0.212733707442703,-0.512630262732738,-0.841088746111603,-0.194322887230433,-0.92194051502938,-0.56478308479428,-0.826786548800712,NaN,-0.74673579807048,0.746735798069719,-1.14878141364982
876.1344,-0.421047021314928,-0.0954577944968609,-0.505138778033075,0.346902666589155,-0.141542575359828,-0.141542575360934,NaN,-0.676869838124593,0.103362487987187,-2.06503856730776,0.164364315427729,-2.06503856730732,-0.132464876014355,-0.024104189428689,NaN,-2.06312880405495,-0.205448785509722,-1.97786259995264,-1.2196811977303,-1.00385960345088,-1.21968119773048,NaN,1.64669456530998,-1.37919525019132,NaN,-0.829265594210471,-1.7268390257931,-0.45807254976104,0.458072549761079,-0.120439814567785,-0.67465016687076,0.744963222695897,0.0441529351269583,NaN,0.16008598456634,0.373828988059976,-0.924711054390605,0.0770944350197974,0.0770944350149248,-0.417599822980843,-0.241902728037966,-0.52223071477529,-0.830739244340149,-0.20868026656297,-0.92486530248847,-0.526119752585209,-0.830598104450895,NaN,-0.772552091204624,0.772552091203853,-1.06875627922718
876.2368,-0.418403686291231,-0.10512654805575,-0.5084379273996,0.338472269345743,-0.160185078065414,-0.16018507806653,NaN,-0.702227351995048,0.0789974630459692,-2.04846688162101,0.16384974522797,-2.04846688162057,-0.151879577647614,-0.00593691712431764,NaN,-2.02603148366479,-0.240004551436713,-1.95821010697731,-1.17511033515258,-0.979134724012206,-1.17511033515277,NaN,1.63934854075352,-1.37566478738,NaN,-0.83136261994568,-1.68876666103545,-0.467100258656859,0.467100258656886,-0.0931771329969643,-0.685121497836076,0.748762585519633,0.0382808488968991,NaN,0.178728172242494,0.379833353933235,-0.888760131948537,0.0511550177945215,0.0511550177896352,-0.416878054259915,-0.272052317950673,-0.530988453353008,-0.819968955342035,-0.224078775808447,-0.928298687381886,-0.485769236611422,-0.834133396139533,NaN,-0.798378224917113,0.798378224916328,-0.98686913017674
876.3392,-0.415184274399994,-0.114480815631047,-0.510930073004678,0.329425862044436,-0.178667082254999,-0.178667082256124,NaN,-0.727508352381191,0.0543644147020697,-2.03007833277031,0.162727449099674,-2.03007833276987,-0.170504881089849,0.0113977888002592,NaN,-1.98628355734848,-0.275184157276643,-1.9363858668687,-1.12932410135532,-0.954308031845384,-1.12932410135552,NaN,1.63039340643675,-1.37183650774232,NaN,-0.832349934987363,-1.64873184907891,-0.474920954337114,0.474920954337133,-0.0649848078110426,-0.695530728316474,0.752298714257865,0.0322402748753478,NaN,0.196686589743335,0.385844796734416,-0.851886441826128,0.0249432870681569,0.0249432870632553,-0.415039027388185,-0.303201150706057,-0.538869326860508,-0.808797396630406,-0.240546832210777,-0.932282432182008,-0.443803447766542,-0.837400990287662,NaN,-0.824168020336312,0.824168020335522,-0.903217898110487
876.4416,-0.411368286727359,-0.123491593574369,-0.512575273779719,0.319796865396611,-0.196980620600425,-0.196980620601559,NaN,-0.75267893761131,0.0294976615357988,-2.00985983520391,0.161022966076867,-2.00985983520347,-0.188275942414612,0.0278275025634731,NaN,-1.94392768368604,-0.310913171477461,-1.91239804518922,-1.08236165351131,-0.929396721119037,-1.08236165351151,NaN,1.61981308584326,-1.36771691855207,NaN,-0.832203510497875,-1.60676115541322,-0.481561631015641,0.481561631015648,-0.0358549287682473,-0.705848460947224,0.755494194575063,0.0259913188129651,NaN,0.213891520614407,0.391832591377544,-0.814136187390474,-0.00158535712235519,-0.00158535712726775,-0.41204422782358,-0.335363712569027,-0.545836799686985,-0.797239373554858,-0.258110385112872,-0.936851959183824,-0.400297998733747,-0.840406638751496,NaN,-0.849871720791065,0.849871720790259,-0.817906791487623
876.544,-0.406936752683096,-0.132130301521274,-0.513335470606487,0.309619622113736,-0.215116044944642,-0.215116044945784,NaN,-0.777705519289363,0.00443043796097771,-1.98779850162943,0.158761681028425,-1.98779850162899,-0.205128117424198,0.0432809810872685,NaN,-1.89901046297177,-0.347111203161318,-1.88625594399778,-1.03426173438996,-0.90441943055409,-1.03426173439017,NaN,1.60759637204875,-1.36331234775626,NaN,-0.830901427735933,-1.56288545165195,-0.487051464861472,0.487051464861468,-0.00578133397682636,-0.716043687890318,0.758271133091452,0.0194950785134497,NaN,0.230273527365745,0.397764377302689,-0.775556947566311,-0.0284728173222703,-0.0284728173272022,-0.407854565420603,-0.368549964376056,-0.551852291595795,-0.785305042830974,-0.276792724148887,-0.942036244222723,-0.355332007015137,-0.843153378334865,NaN,-0.875436058973372,0.875436058972555,-0.731046260306885
876.6464,-0.401872354922912,-0.14036878417987,-0.513174619469059,0.298929093688348,-0.233062018366412,-0.233062018367565,NaN,-0.802554725039193,-0.0208051967838782,-1.96388201501851,0.155968509887836,-1.96388201501807,-0.22099729061558,0.0576886096386647,NaN,-1.85158258098334,-0.383692459149382,-1.85797036543897,-0.985062893503474,-0.879396059543312,-0.985062893503687,NaN,1.59373724060197,-1.35862912486016,NaN,-0.82842416337721,-1.51714002500125,-0.49142149769745,0.491421497697434,0.0252403411074045,-0.726084065899279,0.760551734740424,0.0127138929566249,NaN,0.245763924612779,0.40360640186191,-0.736197607840543,-0.0557576482970433,-0.0557576483019893,-0.40243083949906,-0.402764994667528,-0.556875564557639,-0.77300001421019,-0.296614272086647,-0.947857731614021,-0.308987853900687,-0.845641646701635,NaN,-0.900804370635956,0.900804370635131,-0.642752896425479
876.7488,-0.396159556709055,-0.148179318192947,-0.512058830379787,0.287760552477655,-0.25080552462425,-0.250805524625412,NaN,-0.827193279547911,-0.0461784345449485,-1.93809904387067,0.152667599165894,-1.93809904387023,-0.23582023215119,0.0709828660767218,NaN,-1.80169896810346,-0.420566374864659,-1.82755402014686,-0.934803732952263,-0.854347543932144,-0.934803732952483,NaN,1.57823515237364,-1.35367377949282,NaN,-0.824754904129784,-1.46956468014739,-0.494704298236466,0.49470429823644,0.0572126349326704,-0.735936227260032,0.76225892802376,0.00561160076555763,NaN,0.260295295822508,0.409323788046832,-0.696108259275128,-0.0834743889377501,-0.0834743889427093,-0.395734257181719,-0.438008669829532,-0.560865165502464,-0.760325496567153,-0.317592365998342,-0.954332279092856,-0.261350877545174,-0.847869415653366,NaN,-0.92591676433254,0.925916764331706,-0.553149252106487
876.8512,-0.389784731269935,-0.155534627298737,-0.509956513647331,0.276149284689672,-0.26833189401271,-0.268331894013881,NaN,-0.851587871404396,-0.0716597782046472,-1.91043970402599,0.148882048321925,-1.91043970402555,-0.249534977929308,0.0830987999708301,NaN,-1.74941897645715,-0.457638311210448,-1.79502197961886,-0.883523176860755,-0.829295581200343,-0.883523176860981,NaN,1.56109533240786,-1.34845324981872,NaN,-0.81987988887651,-1.42020382165621,-0.496933606922459,0.496933606922423,0.0901362599563228,-0.745566127574959,0.763317030241707,-0.00184619951326889,NaN,0.273802046395206,0.414880821845428,-0.655340057154946,-0.111652895243354,-0.111652895248325,-0.387727002848912,-0.474275291234306,-0.563778925849752,-0.747278494212654,-0.339741030758616,-0.961469141384674,-0.212508987416956,-0.849832346786689,NaN,-0.950710366003141,0.950710366002299,-0.462363569857091
876.9536,-0.382736290230542,-0.162407907656365,-0.506838531567929,0.264130320204086,-0.285624844904629,-0.285624844905809,NaN,-0.875705018674424,-0.0972210844951517,-1.8808960580914,0.144633662328149,-1.88089605809096,-0.262081225498634,0.0939745156821155,NaN,-1.69480657360379,-0.494810291876221,-1.76039216059184,-0.831260756454592,-0.804262314136214,-0.831260756454824,NaN,1.5423290118601,-1.34297509098521,NaN,-0.813788767009271,-1.36910650363933,-0.498143985460574,0.498143985460529,0.12401013085879,-0.754939420902877,0.763652429684192,-0.00969189852777089,NaN,0.286220974567264,0.420241251894852,-0.613945042332757,-0.14031771202859,-0.14031771203357,-0.378372846135949,-0.511553271295735,-0.565574508160484,-0.733852058303261,-0.363070745040955,-0.96927099693255,-0.16255221044432,-0.85152397128772,NaN,-0.975119656812495,0.975119656811647,-0.370529434382136
877.056,-0.375004807421033,-0.168772863874296,-0.502678351976584,0.251738198072607,-0.302666539065253,-0.302666539066438,NaN,-0.899510947615805,-0.12283559036734,-1.84946263314538,0.139942736630136,-1.84946263314495,-0.273400730670207,0.103551642124441,NaN,-1.63793054848088,-0.531981745665477,-1.72368582274523,-0.778056898240065,-0.779269999360211,-0.778056898240303,NaN,1.52195363546598,-1.33724768061462,NaN,-0.806474956501828,-1.31632643802686,-0.498370493982684,0.498370493982634,0.158831408930587,-0.764021842604166,0.763194260298942,-0.0179556382748688,NaN,0.297491838221181,0.425368595246226,-0.571975936246215,-0.169487521992006,-0.169487521997006,-0.367637766933821,-0.549824837393498,-0.566209979747214,-0.720035585362821,-0.387588200643555,-0.977734011308725,-0.111572199715658,-0.852935885965969,NaN,-0.999076913042597,0.999076913041745,-0.277785364083554
877.1584,-0.366583136764284,-0.174603753910337,-0.497452201130965,0.239006764772259,-0.319437650209843,-0.319437650211037,NaN,-0.922971491820998,-0.148477926391514,-1.81613693899028,0.134827865816138,-1.81613693898985,-0.283437687241763,0.111775773339534,NaN,-1.57886472379306,-0.569050227014261,-1.68492806324341,-0.723953205116967,-0.754340687836376,-0.72395320511721,NaN,1.49999304827103,-1.33128042525448,NaN,-0.797935984777733,-1.26192196594537,-0.497648410345442,0.497648410345388,0.194595544295214,-0.772779577115813,0.761875053590305,-0.0266650804179601,NaN,0.307557904115982,0.430226447475866,-0.529485926790269,-0.199174689462586,-0.199174689467597,-0.355490576641379,-0.589065767197706,-0.565644392206219,-0.70581514449117,-0.41329606089811,-0.986847925642979,-0.0596617432674367,-0.854057955874697,NaN,-1.02251272801803,1.02251272801718,-0.184274362734532
877.2608,-0.357466526659723,-0.179875437905541,-0.49113921537135,0.225968999686383,-0.33591744958022,-0.335917449581422,NaN,-0.946052007592071,-0.174124118352459,-1.78091998071944,0.129305762877141,-1.78091998071901,-0.292139080181254,0.118596868882431,NaN,-1.51768817143866,-0.605912103422638,-1.64414830030047,-0.66899272879365,-0.72949593528299,-0.668992728793896,NaN,1.47647766597216,-1.32508396865851,NaN,-0.788173795252747,-1.205956009811,-0.496013001504755,0.4960130015047,0.23129629879083,-0.781179594131228,0.759631358032989,-0.0358451746424008,NaN,0.316366472085248,0.434778796327621,-0.486528465805655,-0.229384893886887,-0.22938489389191,-0.341903524974779,-0.629245154558172,-0.563838355191588,-0.69117382139722,-0.440192726090575,-0.996596166155007,-0.00691430461158661,-0.854878523035142,NaN,-1.04535655997427,1.04535655997342,-0.0901434606955618
877.3632,-0.347652733277585,-0.184563425928946,-0.483721590942701,0.212656867957007,-0.352083912304832,-0.352083912306041,NaN,-0.96871729699097,-0.199751573436642,-1.74381676663621,0.123391083785119,-1.7438167666358,-0.299455014594666,0.123969609418789,NaN,-1.45448543028569,-0.64246320876899,-1.60138074470748,-0.613220238272543,-0.704756550654339,-0.613220238272797,NaN,1.45144462032506,-1.31867039476275,NaN,-0.777195008163914,-1.14849602376971,-0.49349935331471,0.493499353314653,0.268925741839383,-0.789189948066971,0.756404316299456,-0.0455179308048273,NaN,0.323869364833678,0.438990333903324,-0.44315709180949,-0.26011684063007,-0.260116840635101,-0.326852889636487,-0.670325205300369,-0.560754601343601,-0.67609208236641,-0.46827211083687,-1.0069559817988,0.0465763871396929,-0.8553846262578,NaN,-1.067537242983,1.06753724298214,0.00445672769086612
877.4656,-0.337142130074273,-0.188643923025804,-0.475184728123779,0.199101201494484,-0.36791384147965,-0.367913841480866,NaN,-0.990931534800468,-0.225339046330358,-1.70483680668127,0.117096262989385,-1.70483680668086,-0.305339031806558,0.127853713001116,NaN,-1.3893467206993,-0.678599465887147,-1.55666485559365,-0.556682486402346,-0.680142383217189,-0.556682486402608,NaN,1.42493786985464,-1.31205341228166,NaN,-0.765011136212973,-1.08961394644441,-0.490142252870674,0.490142252870616,0.307474224917851,-0.796780044033653,0.752140191668225,-0.0557022049582695,NaN,0.330023372964845,0.442826759318787,-0.399425277399926,-0.291362039494577,-0.291362039499614,-0.310319544175615,-0.712261067077935,-0.556358538699613,-0.660548167026087,-0.497523434258397,-1.01789861870979,0.1007166963884,-0.855562232126804,NaN,-1.0889834287002,1.08898342869935,0.0993724244946481
877.568,-0.325937807898446,-0.192093870744453,-0.465517363193034,0.185331607018558,-0.383383001998538,-0.383383001999764,NaN,-1.01265819830907,-0.250866581203519,-1.66399458592649,0.11043136777288,-1.66399458592609,-0.309748423016679,0.130214222321944,NaN,-1.32236814038236,-0.71421748194436,-1.51004576773243,-0.499428469283542,-0.655672145966121,-0.499428469283812,NaN,1.3970082716018,-1.30524850979825,NaN,-0.751638760438371,-1.02938614757954,-0.485976105715106,0.485976105715047,0.346930346087355,-0.803920875042728,0.746790839004333,-0.0664135072495003,NaN,0.334790649616735,0.446255065222948,-0.355386295430365,-0.32310464633827,-0.323104646343308,-0.292289492047923,-0.75500070048002,-0.550618780061366,-0.644518511064763,-0.52793102417597,-1.0293895335324,0.155413399994617,-0.855396473034991,NaN,-1.10962395823207,1.10962395823122,0.194447092177752
877.6704,-0.314045663347608,-0.194890982140034,-0.4547116838664,0.171376404056295,-0.398466259687247,-0.398466259688482,NaN,-1.03385999629024,-0.276315426074048,-1.6213099958281,0.103403974827598,-1.6213099958277,-0.312644538744638,0.131021765798077,NaN,-1.25365182220671,-0.749215117389953,-1.46157467298933,-0.441509670422002,-0.631363272629458,-0.441509670422279,NaN,1.3677136149352,-1.29827308056604,NaN,-0.737099666817355,-0.967893360327498,-0.481034871826578,0.481034871826522,0.387280911997478,-0.8105852338935,0.740314119968856,-0.0776638349654985,NaN,0.338139054036238,0.449243803808216,-0.311093103730332,-0.355321368736392,-0.35532136874143,-0.272754350079861,-0.798484798735981,-0.543507633710134,-0.627978187638865,-0.559474144968708,-1.041388643715,0.210573978016308,-0.85487189002764,NaN,-1.12938817244002,1.12938817243918,0.289521820295959
877.7728,-0.301474475771722,-0.19701376920104,-0.442763427961866,0.157262596162535,-0.413137725481662,-0.413137725482907,NaN,-1.05449879675751,-0.301667921246428,-1.57680871119434,0.0960190675463141,-1.57680871119395,-0.313993077524973,0.130252785960705,NaN,-1.18330603784235,-0.783492025045911,-1.41130913963235,-0.382980282602519,-0.607231802793481,-0.382980282602803,NaN,1.33711861916775,-1.29114652367983,NaN,-0.721420942026211,-0.905220597987368,-0.475352010107014,0.47535201010696,0.428510899849087,-0.816747900404318,0.732674266363847,-0.0894615280053193,NaN,0.340042442681916,0.451763328525318,-0.266598250330897,-0.387981441331514,-0.387981441336551,-0.251711761802989,-0.84264676556097,-0.535001537633846,-0.610901344455879,-0.592126870241961,-1.05385061209231,0.266106883186469,-0.853972677687614,NaN,-1.14820617306192,1.14820617306109,0.384435695869222
877.8752,-0.288235970649495,-0.198441566758367,-0.42967196544538,0.143015868759325,-0.427370901634232,-0.427370901635485,NaN,-1.07453556216431,-0.326907370891532,-1.53052250475577,0.0882789494367387,-1.53052250475539,-0.31376433499566,0.127889728781296,NaN,-1.11144523714528,-0.816950153748006,-1.35931335797067,-0.323897401840225,-0.583292288976585,-0.323897401840515,NaN,1.30529489211169,-1.28389032552389,NaN,-0.70463503135461,-0.841457054132409,-0.468960421831662,0.468960421831613,0.470603420713107,-0.822385799430087,0.723842198084222,-0.101811137358264,NaN,0.340480903116742,0.453786009783183,-0.221953793321929,-0.421046678017169,-0.421046678022201,-0.229165724546704,-0.887412760786199,-0.525081423114493,-0.593261611602891,-0.625858019961575,-1.06672516008264,0.321921791767608,-0.85268292493112,NaN,-1.1660090572395,1.16600905723867,0.479026175647294
877.9776,-0.274344862840678,-0.199154557963476,-0.41544036019737,0.128660599865987,-0.441138824262551,-0.441138824263812,NaN,-1.09393030246369,-0.352017905808233,-1.48248949444962,0.0801831733862026,-1.48248949444925,-0.311933411064642,0.123921195002872,NaN,-1.03819002207751,-0.84949421476004,-1.30565831045705,-0.264321189690029,-0.559557723557422,-0.264321189690326,NaN,1.27232084128578,-1.27652811783054,NaN,-0.686779762977679,-0.776695974382873,-0.46189238905299,0.461892389052947,0.513539686084932,-0.827478123758431,0.713795794512441,-0.114713302448237,NaN,0.339440926704596,0.455286426449504,-0.177211224003909,-0.454471606647372,-0.454471606652397,-0.205126831781592,-0.932701817988094,-0.513733010600727,-0.575032476011801,-0.66063116252391,-1.0799574062049,0.377929833516056,-0.850986849071406,NaN,-1.18272914789479,1.18272914789396,0.573129481899888
878.08,-0.2598188723925,-0.199133803818076,-0.400075405326029,0.114219871005555,-0.454414200704425,-0.454414200705693,NaN,-1.11264205032181,-0.376984337991022,-1.43275432165593,0.0717284974599918,-1.43275432165557,-0.308480387154676,0.118342056728403,NaN,-0.963667058510437,-0.881032112323785,-1.2504218698948,-0.204315002322755,-0.536039488788908,-0.204315002323059,NaN,1.23828153008915,-1.26908570734722,NaN,-0.667898337554169,-0.711034483453207,-0.454179512470884,0.454179512470849,0.557298976998537,-0.832006420936726,0.702520103675723,-0.128164649766901,NaN,0.336915518476296,0.456241534747663,-0.132421391009815,-0.488203686961798,-0.488203686966812,-0.179612446419402,-0.978426036574365,-0.500947055408324,-0.556187641640726,-0.696404668036747,-1.09348823538012,0.434043789137559,-0.848869027388658,NaN,-1.19830022567062,1.1983002256698,0.666581023775211
878.1824,-0.244678709679212,-0.198361278245361,-0.383587629562121,0.0997154684618531,-0.467169547009376,-0.467169547010647,NaN,-1.13062885860718,-0.401792005683742,-1.3813682597298,0.0629088807442841,-1.38136825972945,-0.303390475833768,0.111153533277102,NaN,-0.888008925885669,-0.911475335856092,-1.19368882469023,-0.143945486481145,-0.512747335593262,-0.143945486481456,NaN,1.20326847879262,-1.26159108126563,NaN,-0.648039279485778,-0.644573366351498,-0.445852651211769,0.445852651211744,0.601858609077091,-0.835954646284618,0.69000747214064,-0.142157729131474,NaN,0.332904241527881,0.456630812448673,-0.0876344366049234,-0.52218360388916,-0.522183603894163,-0.152646811393607,-1.02449085438927,-0.486719551915181,-0.536701387495063,-0.733131805849653,-1.10725470398941,0.490178237790655,-0.846314628155013,NaN,-1.21265775234126,1.21265775234044,0.759215832171175
878.2848,-0.228948033061376,-0.196819910684032,-0.365991279351611,0.0851678719850817,-0.479377335765883,-0.479377335767157,NaN,-1.14784781827994,-0.426426610610824,-1.32838925515731,0.0537155255586448,-1.32838925515698,-0.296654129175774,0.102363211114562,NaN,-0.811353904025586,-0.940739310214728,-1.13555082901292,-0.0832826448905797,-0.489689393136124,-0.0832826448908995,NaN,1.16737941436775,-1.25407440068474,NaN,-0.627256348393074,-0.577416819090871,-0.436941859181013,0.436941859180997,0.647193885458447,-0.839309183075953,0.676257594186926,-0.156680989652166,NaN,0.327413194310284,0.456436376176991,-0.0428997559652435,-0.556345624543249,-0.556345624548237,-0.124261090311099,-1.07079540484703,-0.47105188982179,-0.516548914389217,-0.770760889477992,-1.1211904751842,0.546249647921605,-0.84330963622201,NaN,-1.22573907344949,1.22573907344868,0.850869003114961
878.3872,-0.212653384742007,-0.194493636810313,-0.347304283027394,0.0705962380584379,-0.491010163866413,-0.491010163867692,NaN,-1.16425509337401,-0.450874049230078,-1.27388190716234,0.0441369681536867,-1.27388190716202,-0.288267094196874,0.0919849946186001,NaN,-0.733845699343048,-0.968743708092333,-1.07610628161562,-0.022399874864279,-0.466872205287437,-0.0223998748646075,NaN,1.13071796770187,-1.24656799085068,NaN,-0.60560840915528,-0.509672178337553,-0.427476308186115,0.427476308186112,0.693278036464422,-0.842058830039096,0.661277489987735,-0.171718787322178,NaN,0.320454925304322,0.45564307391801,0.00173402236694146,-0.590618015873676,-0.59061801587865,-0.0944933342991782,-1.11723295505262,-0.453950957220779,-0.495706669282949,-0.809235469263141,-1.13522627469916,0.602176427676415,-0.839841069653066,NaN,-1.23748359543762,1.23748359543681,0.941376155304308
878.4896,-0.195824105961526,-0.19136745544029,-0.327548197039633,0.0560183873998089,-0.502040942373179,-0.502040942374463,NaN,-1.17980597454968,-0.475120240357013,-1.21791738716678,0.0341592190454771,-1.21791738716649,-0.278230418188098,0.0800389853668377,NaN,-0.655633107181372,-0.995412735236339,-1.0154601347658,0.038626021030695,-0.444300787854863,0.0386260210303549,NaN,1.09339330811418,-1.23910632437859,NaN,-0.583159255942808,-0.441449620230478,-0.417484188609405,0.417484188609415,0.74008215538375,-0.844194757378381,0.645081417383131,-0.187251421399052,NaN,0.312048292862899,0.454238556645155,0.0462190454802417,-0.624923532672939,-0.624923532677896,-0.0633883769938167,-1.16369141994279,-0.435429190983086,-0.474152648269051,-0.848494568177927,-1.14929036422483,0.657878965237578,-0.835897189034906,NaN,-1.24783294330306,1.24783294330225,1.03057391164452
878.592,-0.178492227006267,-0.187427488430351,-0.306748127456941,0.0414508040898649,-0.512443104727273,-0.512443104728561,NaN,-1.19445496113289,-0.499150956911049,-1.16057329194733,0.0237659494646873,-1.16057329194705,-0.266550421251034,0.066551301209259,NaN,-0.576869598648813,-1.0206753994432,-0.953723627170222,0.0997148605102873,-0.42197869877396,0.0997148605099347,NaN,1.05551970027898,-1.23172598038581,NaN,-0.55997738483758,-0.37286180757116,-0.406992590318185,0.406992590318209,0.787575148825815,-0.845710435110133,0.627690713216847,-0.203255206271238,NaN,0.302218275540587,0.452213331173965,0.0905082464272763,-0.659179989110669,-0.659179989115602,-0.0309976581803772,-1.21005395155045,-0.415504574722958,-0.451866687784833,-0.888472958815314,-1.16330903927661,0.713279687062939,-0.831467702178907,NaN,-1.25673111368672,1.25673111368592,1.11830042102512
878.6944,-0.160692327924527,-0.182661041027621,-0.284932620793211,0.026908656785573,-0.522190833382134,-0.522190833383427,NaN,-1.20815588133667,-0.522951672605549,-1.10193342835976,0.0129387180241129,-1.1019334283595,-0.253238660763252,0.0515538538646103,NaN,-0.49771282763976,-1.04446577489985,-0.891013941755574,0.160783149270322,-0.399908107681551,0.160783149269957,NaN,1.01721596999028,-1.22446555929158,NaN,-0.536135709693362,-0.30402346506087,-0.396027384419169,0.39602738441921,0.835723722939941,-0.846601543067642,0.609133560340373,-0.219702590213194,NaN,0.290995735466525,0.449560794689792,0.134555368662914,-0.693300920161176,-0.693300920166082,0.00262101704580314,-1.25619960302789,-0.394200591557483,-0.428830760211306,-0.929101483881889,-1.1772071680744,0.768303154418,-0.826543969935926,NaN,-1.26412463593599,1.26412463593519,1.2043959397917
878.7968,-0.142461369410624,-0.177056664354201,-0.262133524650953,0.0124058536726333,-0.53125931285401,-0.531259312855307,NaN,-1.22086205317363,-0.546507430788646,-1.04208754135625,0.00165723971607713,-1.04208754135601,-0.23831190685886,0.0350840979102654,NaN,-0.418324073030412,-1.06672327746773,-0.827453808540148,0.221744185618094,-0.378089844332127,0.221744185617719,NaN,0.978604869355033,-1.2173655418803,NaN,-0.511711215782375,-0.235050868224286,-0.384613133377863,0.384613133377918,0.884492421413344,-0.846865876708252,0.589444680327627,-0.236562333249511,NaN,0.278417135417465,0.446277250308909,0.178315018032354,-0.727196327885045,-0.727196327889924,0.0374037618393728,-1.30200406736727,-0.371546154869239,-0.405029296631371,-0.970307425099821,-1.19090879608829,0.822876209564058,-0.821119224502815,NaN,-1.26996274137167,1.26996274137087,1.28870348449554
878.8992,-0.123838493768138,-0.170604228183046,-0.238385823227931,-0.00204486801122484,-0.539625018493553,-0.539625018494854,NaN,-1.23252648798174,-0.56980273904502,-0.981131003005793,-0.0101002923750249,-0.98113100300557,-0.221792134039546,0.0171847507409972,NaN,-0.33886764023253,-1.08739296381905,-0.763171080149147,0.282508191460911,-0.356523406667796,0.282508191460528,NaN,0.939812333410073,-1.21046808926892,NaN,-0.48678455155328,-0.166061244104735,-0.372773051838137,0.372773051838209,0.933843721076145,-0.846503258294451,0.568664953477913,-0.253799751096652,NaN,0.264524208422412,0.442361902283346,0.221742752192385,-0.760773497539553,-0.760773497544405,0.0732809104573412,-1.34734049464437,-0.347575543290345,-0.380449554623444,-1.01201492522704,-1.20433783633933,0.876928168450052,-0.815188808275421,NaN,-1.27419753581141,1.27419753581062,1.37106956126922
879.0016,-0.104864796951298,-0.163295012536193,-0.213727454118494,-0.0164318299401443,-0.547266042667255,-0.547266042668559,NaN,-1.24310214103712,-0.592821491477082,-0.91916447395893,-0.0223568304120836,-0.919164473958725,-0.203706522914926,-0.00209652401629955,NaN,-0.25951024156353,-1.10642584996261,-0.698298295965262,0.342982463100438,-0.3352069255138,0.342982463100047,NaN,0.900966626514904,-1.20381678272583,NaN,-0.461439574906145,-0.0971721061362756,-0.360529030785114,0.360529030785201,0.983738177035905,-0.845515451583807,0.546840971719613,-0.271377018824119,NaN,0.249363581207651,0.437816829454455,0.264795210175189,-0.793937859781943,-0.793937859786766,0.11017733284024,-1.39208038634337,-0.322328347526254,-0.355082030975228,-1.05414545712081,-1.21741884017592,0.930391039597147,-0.808750426575055,NaN,-1.27678417714677,1.27678417714598,1.45134497182506
879.104,-0.0855830794878704,-0.155121818344109,-0.188199114807075,-0.0307442933300147,-0.554162447206623,-0.554162447207925,NaN,-1.25254220551978,-0.615546915515266,-0.856293543975679,-0.0351360579921844,-0.856293543975494,-0.184087461448517,-0.0227074708191023,NaN,-0.1804203708683,-1.12377922448547,-0.632972238808476,0.403071538540726,-0.314137104312213,0.403071538540328,NaN,0.862197399832248,-1.19745630784666,NaN,-0.435762886516966,-0.0285005726598345,-0.347901723488801,0.347901723488901,1.0341345938014,-0.843906073410036,0.524024542470374,-0.289253513244752,NaN,0.232986362619796,0.432646936710211,0.30743027516191,-0.826593861484547,-0.826593861489338,0.14801276500944,-1.43609454223836,-0.295849416905583,-0.328920902034328,-1.09661831291417,-1.23007781003934,0.983199738283579,-0.801804393210299,NaN,-1.27768106642683,1.27768106642604,1.5293856744876
879.2064,-0.0660375895855154,-0.146079089537204,-0.161844068104736,-0.0449723458045397,-0.560296617782881,-0.560296617784182,NaN,-1.26080043309818,-0.637961534402415,-0.792628358602427,-0.0484619670149493,-0.79262835860226,-0.162972534358024,-0.0445916206265838,NaN,-0.101767685394963,-1.13941692765627,-0.567333484068307,0.462677378612609,-0.293309160740901,0.462677378612207,NaN,0.823634708680027,-1.19143209830041,NaN,-0.409843381799124,0.0398372770779732,-0.33491067443388,0.334910674433995,1.08499019404065,-0.841680500091337,0.500272174765235,-0.307386165796627,NaN,0.215447718796944,0.426859887801265,0.349607253394818,-0.858645796852533,-0.858645796857288,0.186702156843165,-1.47925401312761,-0.26818878922811,-0.301964464533992,-1.13935107617515,-1.24224299815831,1.03529226981077,-0.794353843876839,NaN,-1.27685006115109,1.2768500611503,1.60505365417325
879.3088,-0.0462737683260372,-0.136163038639898,-0.134707951999449,-0.0591068070221109,-0.565653590941892,-0.565653590943192,NaN,-1.26783146320785,-0.660047137805376,-0.728283235128774,-0.0623584432117833,-0.728283235128624,-0.140404491200849,-0.067688669982341,NaN,-0.023722397972092,-1.15330957885613,-0.501525936789735,0.521699562761987,-0.272716788119416,0.521699562761581,NaN,0.785408046011645,-1.18578995978665,NaN,-0.38377183638554,0.10772697910569,-0.321574462130018,0.321574462130147,1.13626076795163,-0.838845770827918,0.475644576613382,-0.325729803329392,NaN,0.196806456966881,0.42046602540731,0.391287046577528,-0.889998560208919,-0.889998560213635,0.226156036196061,-1.52143101740214,-0.23940159173673,-0.274215546850613,-1.1822600560485,-1.25384564626368,1.08660987038586,-0.786404898748301,NaN,-1.27425671071112,1.27425671071034,1.6782177539027
879.4112,-0.0263379998894802,-0.12537177081221,-0.106838593843912,-0.0731391590218042,-0.570221334061941,-0.570221334063239,NaN,-1.27359115241664,-0.68178475872196,-0.663376262740941,-0.0768488617677011,-0.66337626274081,-0.11643118982816,-0.0919348407582903,NaN,0.0535453292807921,-1.16543474549322,-0.435696345823218,0.580035505762347,-0.252352142253261,0.580035505761938,NaN,0.747645431808288,-1.18057568833102,NaN,-0.357640523810531,0.175056190192925,-0.307910830349115,0.307910830349259,1.18790080118679,-0.835410490846645,0.450206173366918,-0.344237470923184,NaN,0.177124628190556,0.41347828146663,0.432432296974339,-0.920558310319019,-0.920558310323694,0.266280892161315,-1.56249980449181,-0.209547904866668,-0.245681869635268,-1.22526068702116,-1.26482065048794,1.13709710600408,-0.777966767495795,NaN,-1.26987049604591,1.26987049604512,1.74875443449066
879.5136,-0.00627736783633361,-0.113705400144199,-0.0782858260640254,-0.0870614926642883,-0.573990974028093,-0.573990974029388,NaN,-1.27803690146193,-0.703154657340025,-0.598028879569189,-0.0919556890071466,-0.598028879569076,-0.0911055190128707,-0.11726321243352,NaN,0.129866000970359,-1.1757770513521,-0.369993783857514,0.637580703538506,-0.23220585467159,0.637580703538094,NaN,0.710472574047634,-1.17583468670144,NaN,-0.331542854996155,0.241715135741491,-0.29393679295818,0.293936792958334,1.23986358650557,-0.831384737021826,0.424024640351321,-0.362860744808658,NaN,0.156467148488953,0.405912077698701,0.473007492535473,-0.950233062601051,-0.950233062605689,0.306979580081959,-1.60233746349964,-0.178692585455505,-0.216376352101831,-1.26826790377594,-1.27510715617038,1.18670193806786,-0.769051802311626,NaN,-1.26366504646494,1.26366504646416,1.81654844030884
879.616,0.0138605779481802,-0.101166150242515,-0.0491013032373304,-0.100866448347042,-0.576956979873295,-0.576956979874585,NaN,-1.28112797692272,-0.724136312712192,-0.532365429087607,-0.107700091777427,-0.532365429087513,-0.0644853043156102,-0.143604029859299,NaN,0.205071415687778,-1.18432822893365,-0.304569093842124,0.694229011774131,-0.21226706859231,0.694229011773717,NaN,0.674012098629461,-1.17161157909238,NaN,-0.3055730265294,0.307597019255833,-0.279668710201089,0.279668710201255,1.29210132490951,-0.826779967863616,0.39717044443437,-0.381550041524805,NaN,0.134901438577118,0.397785220025128,0.512979029135837,-0.978933233377457,-0.978933233382054,0.348151741276611,-1.64082467271681,-0.146905055562164,-0.186317372091582,-1.31119648868796,-1.28464908778627,1.23537577058404,-0.759675512715529,NaN,-1.2556183219842,1.25561832198342,1.88149336088553
879.7184,0.0340280358337298,-0.0877584359866159,-0.0193383268320403,-0.11454712921407,-0.579117308058457,-0.579117308059743,NaN,-1.28282582318622,-0.74470842473972,-0.466512714851271,-0.124101560854865,-0.466512714851195,-0.0366331962121269,-0.170884994966006,NaN,0.278995287725889,-1.19108712838487,-0.239574322434102,0.749872951709488,-0.192523483320501,0.749872951709073,NaN,0.638382836272813,-1.16794982611594,NaN,-0.27982566856956,0.372598410718266,-0.265122353112307,0.265122353112486,1.34456521960491,-0.821608937375663,0.36971640221053,-0.400254916397905,NaN,0.112497091371292,0.389117798420543,0.552315233644955,-1.0065721514568,-1.00657215146136,0.389694217048638,-1.67784638041221,-0.114259075668909,-0.155528990273646,-1.35396137817605,-1.29339561156949,1.28307349130163,-0.74985655886445,NaN,-1.24571277234587,1.2457127723451,1.94349209429578
879.8208,0.054177143438987,-0.0734889305908363,0.0109483143869647,-0.128096980592535,-0.580473520073149,-0.580473520074429,NaN,-1.28309436111866,-0.764848928660692,-0.400599578711805,-0.14117755295692,-0.400599578711747,-0.00761653827864957,-0.199031550509384,NaN,0.351473834352739,-1.19605969606391,-0.17516217240669,0.804404031217657,-0.172961389308344,0.804404031217239,NaN,0.60369915408223,-1.16489134393806,NaN,-0.254395488344167,0.436619624498736,-0.250312987518228,0.250312987518417,1.39720556290324,-0.815885610560066,0.341737268157212,-0.418924338132916,NaN,0.0893255799549316,0.379932105747001,0.590986355578219,-1.03306654029237,-1.03306654029689,0.431501429927984,-1.71329240727667,-0.0808325281023891,-0.124041147155486,-1.39647791316739,-1.30130152606991,1.32975351011628,-0.739616738056199,NaN,-1.23393548793138,1.23393548793061,2.00245722732011
879.9232,0.074260146834666,-0.0583666234292282,0.0417024867429721,-0.141509647767772,-0.581030879002899,-0.581030879004174,NaN,-1.28190027096431,-0.784535020135775,-0.334756513958203,-0.158943150439083,-0.334756513958163,0.022492782538282,-0.22796715836539,NaN,0.422346308787881,-1.1992589270834,-0.1114854940371,0.857713071734244,-0.153565689693923,0.857713071733827,NaN,0.570070327867562,-1.16247613206834,NaN,-0.229376906923624,0.499565087272989,-0.235255501635358,0.235255501635563,1.44997181416155,-0.809625078176704,0.31330935811919,-0.437506932917791,NaN,0.0654600107992466,0.370252580743247,0.628964537236244,-1.0583369662292,-1.05833696623368,0.473465715246901,-1.74705796528565,-0.0467072270581666,-0.0918898369132105,-1.4386620272805,-1.30832757880305,1.37537779155032,-0.728980971053357,NaN,-1.2202783456551,1.22027834565434,2.05831134505446
880.0256,0.09422955334969,-0.0424028701124589,0.0728668415855134,-0.154778830980516,-0.580798423143263,-0.580798423144536,NaN,-1.27921325801386,-0.803743187304384,-0.269115304978915,-0.177410737456304,-0.269115304978892,0.0536185004498178,-0.257613568305362,NaN,0.491455482171859,-1.20070478467731,-0.0486968094790185,0.909690538511081,-0.134319922152664,0.909690538510662,NaN,0.537599963505068,-1.16074191681486,NaN,-0.204863688733094,0.56134368234991,-0.219964574483314,0.219964574483531,1.50281266552504,-0.802843467432962,0.284510207173866,-0.455951195958129,NaN,0.0409749166635964,0.360105768979624,0.666223771070604,-1.08230824181678,-1.08230824182121,0.515477611623035,-1.77904409485598,-0.011968746669394,-0.0591172497544922,-1.48043037737042,-1.31444070549601,1.41991187499312,-0.717977281872184,NaN,-1.20473814766307,1.20473814766231,2.11098728047694
880.128,0.11403827172694,-0.0256114323529428,0.104382938293731,-0.167898151203673,-0.579789006029388,-0.579789006030656,NaN,-1.27500630080406,-0.822449249355002,-0.203808676425911,-0.196589701484924,-0.203808676425906,0.0856801544240515,-0.287891073920166,NaN,0.558648093549647,-1.20042407220243,0.0130521532294103,0.960226875562958,-0.115206300432484,0.96022687556254,NaN,0.50638548191731,-1.15972382175258,NaN,-0.180948567697045,0.621869046527732,-0.204454860760482,0.204454860760715,1.5556760913013,-0.795557843731119,0.25541826335862,-0.47420566496514,NaN,0.0159460795688334,0.349520290064503,0.702739850214671,-1.1049097682954,-1.10490976829977,0.557426141332188,-1.80915802780846,0.0232937635795322,-0.0257718598920116,-1.52170042928507,-1.31961418226276,1.46332487287022,-0.706636753768295,NaN,-1.18731675639875,1.187316756398,2.16042831423459
880.2304,0.13363974203519,-0.00800850428485073,0.136191364988971,-0.180861032151683,-0.578019291675253,-0.57801929167652,NaN,-1.26925588342526,-0.840628404005528,-0.138969937384247,-0.216486174668156,-0.138969937384262,0.118593302245674,-0.318718760094524,NaN,0.623775286888687,-1.19845024554611,0.0736109390555849,1.00921284782555,-0.0962057868614891,1.00921284782513,NaN,0.476517676266433,-1.15945407454063,NaN,-0.157722876578959,0.681059802097472,-0.188741170671772,0.188741170672021,1.60850937888575,-0.787786099464888,0.226112614809212,-0.492219054190847,NaN,-0.00954962510522343,0.33852680015756,0.738490313016605,-1.12607580885587,-1.12607580886018,0.599199112759081,-1.83731348683769,0.0589878070729895,0.00809156435432972,-1.56239051598719,-1.32382768420691,1.50558943528699,-0.694993444759583,NaN,-1.16802122765351,1.16802122765277,2.20658832625269
880.3328,0.152988059229036,0.0103872758685472,0.168231861767633,-0.193660599854627,-0.575509700953264,-0.575509700954528,NaN,-1.26194221544612,-0.858255286611789,-0.0747326099395439,-0.237102818312707,-0.0747326099395761,0.152269773164956,-0.35001475012861,NaN,0.68669304858558,-1.19482316252684,0.132830871521083,1.05653989505302,-0.0772981940921453,1.0565398950526,NaN,0.448080337554255,-1.15996174828861,NaN,-0.13527618354536,0.738839728358409,-0.172838638544862,0.172838638545126,1.66125914466434,-0.779546830274064,0.196672737550776,-0.509940360141813,NaN,-0.035434370558335,0.327157942929364,0.773454375003062,-1.14574570231274,-1.14574570231698,0.640683461834172,-1.86343093584501,0.0950178254300218,0.042412037634901,-1.60241988587559,-1.32706725727466,1.54668167629026,-0.6830842575739,NaN,-1.14686393083292,1.1468639308322,2.24943188891313
880.4352,0.172038094569416,0.0295548274965764,0.200443450097452,-0.206289598302012,-0.572284313574585,-0.572284313575848,NaN,-1.25304944184123,-0.875304042941364,-0.0112300351791454,-0.258438641060986,-0.0112300351791955,0.186617959400896,-0.381696457390068,NaN,0.74726265455707,-1.18958877570716,0.190565590581454,1.10210050236862,-0.0584623033288849,1.1021005023682,NaN,0.421149937777031,-1.16127252705589,NaN,-0.113695935312801,0.795137891752359,-0.156762878844575,0.156762878844851,1.71387134435718,-0.770859205355172,0.167178252680991,-0.527318954204668,NaN,-0.0616295122070813,0.315448286003305,0.807612841702415,-1.16386403481095,-1.16386403481512,0.681765634927177,-1.88743779657099,0.131285538775029,0.0771225182907871,-1.64170875652252,-1.32932521950274,1.58658107045292,-0.670948769197434,NaN,-1.12386263740624,1.12386263740554,2.28893429169502
880.5376,0.190745616492846,0.0494706412119706,0.232764569135732,-0.21874031555473,-0.568370735189532,-0.56837073519079,NaN,-1.24256584194335,-0.891748416783761,0.0514050441922239,-0.280488841734884,0.0514050441921564,0.221543145328784,-0.413680844752386,NaN,0.805351129734215,-1.1827987804605,0.246671620496731,1.14578858889051,-0.039675984277716,1.14578858889009,NaN,0.39579536081699,-1.16340848687879,NaN,-0.093067103043748,0.849888748171159,-0.140530124605214,0.140530124605504,1.7662912895413,-0.761742839731189,0.137708690976051,-0.544304670700886,NaN,-0.0880557188780223,0.3034342408937,0.840948004615986,-1.18038077913845,-1.18038077914254,0.72233200888265,-1.90926864110358,0.167690333281184,0.112150144465372,-1.68017838344576,-1.33060000727679,1.62527033543728,-0.658629026155623,NaN,-1.09904056119694,1.09904056119627,2.3250814974765
880.64,0.209067411116336,0.070108803924983,0.265133218886114,-0.231004518208121,-0.563799935679649,-0.563799935680905,NaN,-1.23048401621158,-0.907561853868279,0.113040921465475,-0.303244677192875,0.11304092146539,0.256947874693907,-0.445884694540362,NaN,0.86083171614926,-1.17451022755718,0.301008960343329,1.18749991283336,-0.0209163118376967,1.18749991283293,NaN,0.372077675617777,-1.16638789020992,NaN,-0.0734718264140116,0.903032219820415,-0.124157343494207,0.124157343494514,1.81846367783365,-0.752217669467007,0.10834326521587,-0.560847890976087,NaN,-0.11463310734584,0.291153964622509,0.87344352839378,-1.19525140126607,-1.1952514012701,0.762269342258708,-1.92886536087737,0.204129689452237,0.147416538711322,-1.71775114556052,-1.33089597420302,1.66273530829313,-0.646169306308811,NaN,-1.07242634927861,1.07242634927798,2.35787004068953
880.7424,0.226961403965957,0.0914410360093105,0.297487112268261,-0.24307340446812,-0.558606055337038,-0.55860605533829,NaN,-1.2168010610036,-0.922717623949264,0.173547381921015,-0.326693365660565,0.173547381920913,0.292732353459011,-0.478224886001328,NaN,0.913584342648981,-1.16478510037878,0.353441690732056,1.22713248974378,-0.00215968644968266,1.22713248974335,NaN,0.350049952212033,-1.17022499731318,NaN,-0.0549890533445284,0.954513744977411,-0.107662328449188,0.107662328449506,1.87033263682472,-0.742303824938881,0.0791606509274579,-0.576899618691131,NaN,-0.141281382853381,0.27864724297834,0.905084339131477,-1.20843692941702,-1.20843692942097,0.80146525276098,-1.94617730578687,0.24049964781232,0.182838181211783,-1.7543506414025,-1.33022313745244,1.69896481199246,-0.633615843457084,NaN,-1.04405403985404,1.04405403985345,2.3873068838179
880.8448,0.244386784620857,0.11343674251122,0.329763839118078,-0.2549375915828,-0.552826172233869,-0.552826172235117,NaN,-1.20151872892915,-0.937188960519521,0.232796177644703,-0.350818040914715,0.232796177644585,0.328794886045155,-0.510618674302584,NaN,0.963496088862497,-1.15368984676643,0.403838594127986,1.26458701782252,0.0166180306568784,1.26458701782209,NaN,0.329757127661779,-1.17492990381043,NaN,-0.037694176143107,1.00428429448405,-0.0910637597486158,0.0910637597489543,1.92184177642066,-0.732021497518097,0.0502387802716229,-0.592411538299993,NaN,-0.167919984673939,0.265955356672845,0.935856525751154,-1.21990397951864,-1.21990397952252,0.839808719882747,-1.96116138391901,0.27669531394854,0.21832686258238,-1.78990178834615,-1.32859685509052,1.73395050572415,-0.621016511011414,NaN,-1.01396300429143,1.01396300429088,2.41340924798123
880.9472,0.261304133811835,0.136063081049467,0.361901043299759,-0.266587147146602,-0.546500030038366,-0.546500030039613,NaN,-1.18464356713624,-0.950949214308022,0.290661523239668,-0.375597767576331,0.290661523239533,0.365032352056894,-0.542983973252032,NaN,1.01046163958018,-1.14129485164392,0.452073791012078,1.29976730431217,0.0354413585970145,1.29976730431174,NaN,0.311235930908573,-1.18050841762093,NaN,-0.0216586658089279,1.05230034046146,-0.0743812359278144,0.074381235928169,1.97293424279582,-0.721390794796205,0.0216546524231151,-0.607336049658827,NaN,-0.194468236279003,0.253120930104631,0.965747261158047,-1.22962472845045,-1.22962472845425,0.877190618731891,-1.97378211611909,0.312611411119063,0.253790234001448,-1.82433092369299,-1.3260374174736,1.76768671475631,-0.608420463317122,NaN,-0.982197877181645,0.98219787718115,2.43620442265868
881.0496,0.27767555220452,0.159285047990422,0.393836613114362,-0.278011666803376,-0.53966973198035,-0.539669731981599,NaN,-1.16618702397818,-0.963972015610467,0.347020615747035,-0.401007614487889,0.347020615746882,0.401340738367839,-0.575239654122813,NaN,1.05438373262028,-1.12767384307355,0.498027397760808,1.33258069133443,0.0543350122304234,1.33258069133399,NaN,0.294514868916122,-1.18696198493417,NaN,-0.00694970492034958,1.0985237616457,-0.0576352725133254,0.0576352725136968,2.02355277189675,-0.71043157870687,-0.00651584629522091,-0.621626279563307,NaN,-0.220845502960246,0.240187759330869,0.994744738322825,-1.2375768254989,-1.23757682550262,0.913504293333428,-1.98401164890428,0.348142888164363,0.289132465148728,-1.85756591493128,-1.32256954950779,1.80017024087577,-0.59587773493108,NaN,-0.948808470917326,0.948808470916876,2.45572954743498
881.152,0.293464792383982,0.183065581799386,0.425508885915422,-0.28920039519656,-0.532379408758947,-0.532379408760197,NaN,-1.14616551778297,-0.976231440237333,0.40175417862671,-0.427018767967773,0.40175417862654,0.437615733403916,-0.607305871539848,NaN,1.09517360483726,-1.11290323866728,0.541586207633034,1.36293848245053,0.0733236992969631,1.36293848245008,NaN,0.279614264189655,-1.1942876621997,NaN,0.00637017905442877,1.14292168247776,-0.0408472704786772,0.0408472704790638,2.07363975074687,-0.699163285628971,-0.0341981282528399,-0.635236082705613,NaN,-0.246971360435301,0.227200614948068,1.0228381142906,-1.24374324151637,-1.24374324152003,0.948646167672499,-1.99182973678834,0.383185577372831,0.324254999364345,-1.88953628741549,-1.3182218403196,1.83140016435965,-0.58343880036705,NaN,-0.913849673064639,0.913849673064234,2.4720313574447
881.2544,0.308637395635521,0.207365679372297,0.456856865973041,-0.300142377606216,-0.524674870699762,-0.524674870701013,NaN,-1.12460046604453,-0.987702172565595,0.454747018319166,-0.45359865720912,0.45474701831898,0.47375336925537,-0.639104414969493,NaN,1.1327514305989,-1.09706145706017,0.582644379382528,1.39075636827942,0.092431914532315,1.39075636827897,NaN,0.266546325337643,-1.20247811980314,NaN,0.0182434703620943,1.18546626294113,-0.0240394590618331,0.0240394590622334,2.12313730047618,-0.687604734531314,-0.0613191113987588,-0.648120050038074,NaN,-0.272765775880472,0.214205019926833,1.05001746460131,-1.24811207298304,-1.24811207298662,0.982516373592328,-1.99722370695526,0.417636875917153,0.359057371464001,-1.92017337386735,-1.31302613517159,1.86137765560565,-0.571154104525903,NaN,-0.877381322422529,0.877381322422177,2.48516589090549
881.3568,0.323160830583032,0.232144519321988,0.487820448683577,-0.310826622109914,-0.516603259499407,-0.516603259500658,NaN,-1.10151827761485,-0.99835965946968,0.505888568047971,-0.480711069305969,0.50588856804777,0.509650681787072,-0.670559074471121,NaN,1.16704673079394,-1.0802282344385,0.621104096737132,1.41595484325145,0.111683745535914,1.41595484325099,NaN,0.255315233332164,-1.21152166481737,NaN,0.0286179926981633,1.22613447241582,-0.00723481596345423,0.0072348159638654,2.17198738603392,-0.675773929355795,-0.087807453613712,-0.660233535338702,NaN,-0.298149301275481,0.201247011945023,1.07627375623272,-1.25067633280146,-1.25067633280498,1.01501935764975,-2.00018841575136,0.4513964074138,0.393438038161496,-1.94941048831871,-1.30701693686399,1.89010580700191,-0.559073588127471,NaN,-0.839468051226072,0.839468051225767,2.49519815939294
881.4592,0.337004626781126,0.257359586705444,0.518340640354236,-0.321242257173142,-0.508212715343498,-0.508212715344749,NaN,-1.0769503153959,-1.00818025359647,0.555073388777729,-0.50831624999831,0.555073388777514,0.545206359762294,-0.701596009272591,NaN,1.19799872175554,-1.06248398627615,0.656876153959655,1.43845960214751,0.131102696767327,1.43845960214706,NaN,0.245917232306297,-1.22140228023052,NaN,0.037447189232628,1.2649078844265,0.00954303425094903,-0.00954303425052459,2.22013194239939,-0.663687856121288,-0.113593810879102,-0.67153269731548,NaN,-0.323043276502872,0.188372908599931,1.10159884181283,-1.2514337628332,-1.25143376283667,1.04606442540376,-2.00072619753837,0.484366619107318,0.427295173182231,-1.9771831237602,-1.30023085908591,1.91758947699276,-0.547246241127804,NaN,-0.800179080068712,0.800179080068455,2.50220178050793
881.5616,0.350140498539374,0.282966796885083,0.548359767118727,-0.331378684908495,-0.499552067600436,-0.49955206760169,NaN,-1.05093283677879,-1.0171413484451,0.602201608290674,-0.536371000844625,0.602201608290444,0.580321364405936,-0.732144111302359,NaN,1.22555658059359,-1.04390923269109,0.68988043826964,1.45820190814217,0.150711528861228,1.45820190814172,NaN,0.238340720983956,-1.23209968291346,NaN,0.0446903476174947,1.30177251322503,0.0262699379979456,-0.0262699379975099,2.26751300482239,-0.651362275382296,-0.138611109248544,-0.681974549340632,NaN,-0.34737003721714,0.175629091346909,1.1259854709979,-1.25038668709733,-1.25038668710075,1.07556619525718,-1.99884679620409,0.516453287984652,0.460527399587883,-2.00342916455651,-1.29270614881275,1.9438351296028,-0.535719706780608,NaN,-0.759587961045477,0.759587961045276,2.5062585766209
881.664,0.362542460214192,0.308920620888912,0.577821675779959,-0.341225740776884,-0.490670549098536,-0.490670549099793,NaN,-1.02350691016305,-1.02522150502975,0.64717929782254,-0.564828783580314,0.647179297822297,0.614899514328619,-0.762135359354737,NaN,1.24967962047349,-1.02458407665709,0.720046307676586,1.47511893034957,0.17053210711659,1.47511893034911,NaN,0.232566347276543,-1.24358939983279,NaN,0.0503127748604607,1.33671868401294,0.0429213334853428,-0.0429213334848942,2.31407284335859,-0.638811519825054,-0.162794821201066,-0.691517017341367,NaN,-0.371053126137302,0.163061808406945,1.14942731548803,-1.24754189300494,-1.2475418930083,1.10344495613643,-1.99456726689273,0.547565933649471,0.493034455626404,-2.02808909973042,-1.28448226922383,1.96885066463891,-0.524539936259887,NaN,-0.717772268686894,0.717772268686741,2.5074581489416
881.7664,0.374186937655191,0.335174217168705,0.606671934620291,-0.350773869563562,-0.481617531631562,-0.481617531632823,NaN,-0.9947182985819,-1.03240056523995,0.689918795307535,-0.593639838174366,0.689918795307281,0.648848041384336,-0.79150516414412,NaN,1.27033738199109,-1.00458771253706,0.747312879239076,1.48915405131729,0.190585256470073,1.48915405131682,NaN,0.228567110298215,-1.25584285875969,NaN,0.0542859300488472,1.36974090910143,0.0594723607509587,-0.0594723607504965,2.35975411344766,-0.626048313389737,-0.186083242794014,-0.70011901703466,NaN,-0.394017513623973,0.150716983189484,1.17191900895208,-1.24291051007636,-1.24291051007965,1.1296269378631,-1.98791184135222,0.577618149494481,0.524717799974652,-2.05110622662662,-1.2755995289276,1.99264524913048,-0.513750881071054,NaN,-0.674813232468663,0.674813232468556,2.50589743501523
881.8688,0.385052879547064,0.36167957295696,0.634858040150047,-0.360014323274797,-0.4724422819245,-0.472442281925765,NaN,-0.964617303699014,-1.03865974750106,0.730338980556041,-0.622751322137387,0.730338980555771,0.682078121253298,-0.820192706658352,NaN,1.28750964883813,-0.983997955001424,0.771629239399682,1.50025714239653,0.210890625068938,1.50025714239606,NaN,0.226308470919907,-1.26882749106365,NaN,0.0565875199985099,1.40083774674843,0.0758979543641865,-0.0758979543637083,2.40450003377935,-0.613083624148951,-0.208417773304227,-0.707740562538952,NaN,-0.416189834491412,0.138640015460828,1.19345620397765,-1.23650786914306,-1.2365078691463,1.15404450303202,-1.97891175637846,0.606527861745509,0.555481157369453,-2.07242684094599,-1.26609875318311,2.01522916037934,-0.503394217132094,NaN,-0.630795302133179,0.630795302133111,2.50168025092061
881.9712,0.395121869301003,0.388387655501144,0.662329630660992,-0.368939383419615,-0.463193740235092,-0.463193740236357,NaN,-0.933258567126954,-1.04398172304271,0.768365499915023,-0.652107479194766,0.768365499914741,0.714505373477372,-0.848141270734278,NaN,1.30118639230775,-0.962890799188049,0.792954576052424,1.50838480271272,0.231466561165444,1.50838480271224,NaN,0.225748468429169,-1.28250684889714,NaN,0.057201558614513,1.43001163922067,0.0921729202167069,-0.0921729202162202,2.44825459509895,-0.59992655220602,-0.229743200987244,-0.714342910524488,NaN,-0.437498642251744,0.12687557251217,1.21403564479385,-1.22835334827272,-1.22835334827589,1.17663626149626,-1.96760504796227,0.63421751672859,0.58523100022154,-2.0920004154734,-1.25602100305878,2.036613640508,-0.493509107094559,NaN,-0.58580564533216,0.58580564533213,2.49491681343839
882.0736,0.404378234660435,0.415248573231505,0.689038703623818,-0.377542601538691,-0.453920329378647,-0.453920329379912,NaN,-0.900700820487669,-1.04835066830454,0.803930931876657,-0.68164983853918,0.803930931876367,0.746050325313058,-0.875298570452384,NaN,1.31136764315211,-0.941340036962523,0.811258220636997,1.5135005565077,0.252330012951557,1.51350055650721,NaN,0.226837839483525,-1.29684074275566,NaN,0.0561183850341554,1.45726874539389,0.108272005522676,-0.108272005522181,2.49096279868893,-0.586584243145349,-0.250007996767454,-0.719888733222721,NaN,-0.457874677037819,0.115467376170191,1.23365525485602,-1.2184702200635,-1.2184702200666,1.19734710083199,-1.95403631883738,0.660614186853021,0.613876963649225,-2.10977977708005,-1.24540735299633,2.05681075689922,-0.484132012910111,NaN,-0.539933583215729,0.539933583215737,2.48572323385632
882.176,0.412809149585108,0.442211748441111,0.714939832179397,-0.385819038188616,-0.444669805210047,-0.444669805211308,NaN,-0.86700656943235,-1.05175228377414,0.836974884684779,-0.711317434666786,0.836974884684477,0.776638841337327,-0.901617073066342,NaN,1.31806328648171,-0.919416955206485,0.826519585520255,1.51557500344732,0.273496466805443,1.51557500344683,NaN,0.229520137805317,-1.31178540575355,NaN,0.053334632809885,1.48261878952741,0.124169977658762,-0.124169977658263,2.53257092345691,-0.57306181226592,-0.269164613404423,-0.724342305412918,NaN,-0.477251142164245,0.10445799377386,1.25231424386556,-1.20688551012557,-1.20688551012861,1.21612812591566,-1.9382564939577,0.685649583387569,0.641332197689431,-2.12572129540556,-1.23429873482108,2.07583326873377,-0.475296567917223,NaN,-0.49326996818246,0.493269968182509,2.47422097537314
882.2784,0.420404722329897,0.469226102453549,0.739990374908964,-0.393765473000162,-0.435489149780867,-0.435489149782125,NaN,-0.832241709792558,-1.05417377520149,0.867444030605908,-0.741047031363732,0.867444030605595,0.806202522736897,-0.927054312025588,NaN,1.32129278647011,-0.897190125264182,0.838727999071012,1.51458592240865,0.294979931908909,1.51458592240816,NaN,0.233731860478216,-1.32729368833167,NaN,0.0488531482424396,1.50607493873625,0.139841723897771,-0.139841723897266,2.57302681841401,-0.55936227011382,-0.287169783458061,-0.727669691520784,NaN,-0.495563983519982,0.0938886376543845,1.27001323826638,-1.19362986882007,-1.19362986882304,1.23293651745642,-1.92032257732728,0.709259982295318,0.667513668095262,-2.13978508968196,-1.22273584344448,2.0936945094001,-0.46703350745867,NaN,-0.445906521422219,0.445906521422305,2.46053627615164
882.3808,0.427158064153802,0.496240250671013,0.764150671359317,-0.40138056472918,-0.426424492177498,-0.426424492178755,NaN,-0.79647509968317,-1.05560380982171,0.895292100735758,-0.770773338197204,0.895292100735436,0.834679075214872,-0.951573176622116,NaN,1.32108486505351,-0.874725266564076,0.847882467680478,1.51051833924701,0.316792957436681,1.51051833924652,NaN,0.239402594838916,-1.34331528318247,NaN,0.0426828677704325,1.52765370309884,0.155262366193936,-0.155262366193421,2.61228020789364,-0.54548645412317,-0.303984805383231,-0.729838927987959,NaN,-0.512752164918677,0.0837989728268039,1.2867544266612,-1.17873745361857,-1.17873745362146,1.24773534330829,-1.90029741011745,0.731386099254626,0.692342422907602,-2.15193524525556,-1.21075908160789,2.11040829240286,-0.459370642276924,NaN,-0.397935177833265,0.397935177833393,2.44479955157636
882.4832,0.433065334228545,0.523202702249211,0.78738421533006,-0.408664956608954,-0.417521040021222,-0.417521040022472,NaN,-0.759778120381413,-1.05603246934404,0.920479864561178,-0.800429221092169,0.920479864560846,0.862012641478849,-0.975142168059532,NaN,1.31747715868742,-0.852085157871857,0.853991397841572,1.50336457088326,0.338946655750198,1.50336457088276,NaN,0.24645519851536,-1.35979697777299,NaN,0.0348386707591324,1.54737484018264,0.170407368085513,-0.170407368084989,2.65028298919688,-0.531432980394515,-0.319575805956862,-0.730820203114669,NaN,-0.528757932427244,0.0742269328130698,1.30254170074853,-1.16224582036653,-1.16224582036933,1.26049335770411,-1.87824941558723,0.75197295595736,0.715743838370987,-2.16214002244987,-1.19840851667671,2.12598883414686,-0.452332855313024,NaN,-0.349447488948174,0.349447488948342,2.42714478697567
882.5856,0.438125758080186,0.550062060992502,0.809657800957949,-0.415621334465452,-0.408823017464309,-0.408823017465551,NaN,-0.72222424624067,-1.05545121406347,0.942975099000777,-0.829945918701459,0.942975099000437,0.888154094169704,-0.997735621965499,NaN,1.31051585859964,-0.829329587682418,0.857072286808647,1.49312425016841,0.361450713308006,1.49312425016791,NaN,0.254806013292225,-1.37668293166066,NaN,0.0253412158135817,1.56526125619465,0.185252613391321,-0.185252613390788,2.68698950570008,-0.517198222724998,-0.333913971909544,-0.730586034524612,NaN,-0.543527060296677,0.0652085501953781,1.31738077790746,-1.14419582568684,-1.14419582568957,1.27118479606568,-1.85425231487484,0.770969750890506,0.73764784380995,-2.17037204450409,-1.18572383852836,2.14045068009237,-0.445942119899652,NaN,-0.300534095040391,0.3005340950406,2.40770892754563
882.688,0.442341618210872,0.576767227518394,0.830941640199576,-0.42225444495839,-0.40037361468162,-0.400373614682855,NaN,-0.683888630388485,-1.0538528607498,0.962752538639121,-0.859253273968165,0.962752538638777,0.913061283802195,-1.01933389887451,NaN,1.30025532790481,-0.806515355225088,0.857151370979029,1.4798043295536,0.384313384355312,1.4798043295531,NaN,0.264365105636772,-1.3939149760054,NaN,0.0142167542923482,1.58133891570551,0.199774452124999,-0.199774452124454,2.72235678672974,-0.502776312220533,-0.346975749741109,-0.729111437605753,NaN,-0.557009070976948,0.0567778138027528,1.33127930423851,-1.12463154365594,-1.12463154365858,1.27978915091434,-1.8283848071116,0.788329721217891,0.757989115741809,-2.17660845884763,-1.17274432238875,2.15380862939869,-0.440217554557155,NaN,-0.251284245174974,0.251284245175223,2.3866312784383
882.7904,0.445718216607698,0.603267602902023,0.851209451535383,-0.428571078108609,-0.392214952796129,-0.392214952797358,NaN,-0.644847707544494,-1.05123157206982,0.979793803511882,-0.888279980505664,0.979793803511539,0.936699235113863,-1.03992353771742,NaN,1.28675769335824,-0.783696329584414,0.85426322683688,1.46341906117563,0.407541467258187,1.46341906117513,NaN,0.275036531730863,-1.41143293299262,NaN,0.00149691093900263,1.59563677062669,0.213949716411073,-0.213949716410522,2.7563447508345,-0.488159148414717,-0.358743014834575,-0.726374077997791,NaN,-0.569157425899492,0.0489665592292519,1.3442469401472,-1.10360019459292,-1.10360019459548,1.28629092079309,-1.80073021594685,0.804009986467363,0.776707236662556,-2.18083106996185,-1.15950879923125,2.16607766224013,-0.435175523951017,NaN,-0.201785353877991,0.201785353878286,2.36405292906962
882.8928,0.448263810818608,0.62951329241122,0.870438520794922,-0.434580018984108,-0.384388064777012,-0.384388064778236,NaN,-0.60517881200751,-1.04758285516127,0.994087308712502,-0.916953839668636,0.994087308712162,0.95904028546624,-1.0594973628357,NaN,1.27009241684907,-0.760923557794356,0.848450332940562,1.44398995199995,0.431140266210041,1.44398995199944,NaN,0.28671863376771,-1.42917495373637,NaN,-0.012781571172662,1.60818670141518,0.227755706073114,-0.227755706072555,2.78891637413931,-0.473336423199743,-0.369203208325643,-0.72235440795506,NaN,-0.579929691198724,0.0418043874086369,1.35629542692524,-1.08115207512251,-1.081152075125,1.29067934134423,-1.77137610887694,0.817971381763978,0.793746824403749,-2.18302644763404,-1.14605563167589,2.17727287322743,-0.430829779123559,NaN,-0.152122606589084,0.152122606589424,2.34011620370791
882.9952,0.449989526908179,0.655455308256357,0.888609736926675,-0.440291973455079,-0.37693289045015,-0.376932890451373,NaN,-0.564959805168376,-1.04290356769829,1.0056281621506,-0.945202028735821,1.00562816215027,0.980064160384575,-1.07805453534494,NaN,1.25033585488195,-0.738245404473343,0.839762607771815,1.42154569341057,0.45511354767869,1.42154569341006,NaN,0.299304377090201,-1.44707787352525,NaN,-0.0285771165615798,1.61902345485656,0.241170144048088,-0.241170144047525,2.82003783104893,-0.458295666819218,-0.378349435906313,-0.717035789689777,NaN,-0.589287686021217,0.0353185992645386,1.36743863171514,-1.05734047386222,-1.05734047386464,1.29294811596316,-1.74041389764378,0.830178296593389,0.809057644530827,-2.1831860199042,-1.13242269209811,2.1874094128452,-0.427191622059981,NaN,-0.102378632272965,0.102378632273349,2.31496412898428
883.0976,0.450909252322905,0.681045771901585,0.905707606258703,-0.445719469887835,-0.369888279875053,-0.369888279876271,NaN,-0.524268706147367,-1.03719193109125,1.01441805657319,-0.972951383810029,1.01441805657286,0.999757983729933,-1.09560054327659,NaN,1.22757081690653,-0.715707707948007,0.828256939668857,1.39612206614612,0.47946350323562,1.39612206614561,NaN,0.3126817351137,-1.46507758284654,NaN,-0.0458436271260116,1.62818456651565,0.254171109598729,-0.254171109598162,2.84967861625117,-0.443022323998668,-0.38618052268127,-0.710404607731553,NaN,-0.597197617958848,0.0295341362447789,1.37769256956634,-1.03222156259864,-1.03222156260098,1.29309516245104,-1.70793842603556,0.840598534625039,0.822594717337162,-2.18130615739046,-1.11864733825226,2.1965024442766,-0.424270081005482,NaN,-0.0526332574858406,0.0526332574862698,2.28873990666181
883.2,0.451039510508672,0.706238118790361,0.921720248995363,-0.450876734245223,-0.363291994928331,-0.363291994929546,NaN,-0.48318332160402,-1.03044755108274,1.02046516097874,-1.00012870031197,1.02046516097841,1.01811622252532,-1.11214712938712,NaN,1.20188613368285,-0.693353945564943,0.813996722142871,1.3677618227777,0.504190724274546,1.36776182277718,NaN,0.32673412507306,-1.48310941345246,NaN,-0.0645308126815926,1.63571026499719,0.266736962530708,-0.266736962530132,2.87781165649856,-0.427499865490533,-0.392701023261929,-0.702450374190996,NaN,-0.603630206183706,0.0244735206924444,1.38707540344484,-1.00585426484535,-1.00585426484762,1.29112238429765,-1.67404754614321,0.849203203476147,0.834318420515098,-2.17738824832368,-1.10476638486748,2.20456712786515,-0.422072090117282,NaN,-0.00296334980080142,0.00296334980127077,2.26158638596048
883.3024,0.450399318015048,0.730987309528289,0.936639381274206,-0.455779533295002,-0.357180697528984,-0.357180697530196,NaN,-0.441780874815436,-1.02267144518588,1.02378401319353,-1.02666105415459,1.02378401319322,1.03514057016962,-1.12771215833931,NaN,1.17337624079708,-0.671225405869587,0.797051400234328,1.33651455110899,0.529294187453119,1.33651455110846,NaN,0.341340894475263,-1.50110853844692,NaN,-0.0845845437642678,1.64164336436517,0.278846267828228,-0.278846267827642,2.90441341821206,-0.411709938055029,-0.397921189407313,-0.69316583149818,NaN,-0.608560790170118,0.0201567940617681,1.3956074256171,-0.978300109106994,-0.97830010910919,1.28703546573683,-1.63884168031995,0.855966634370831,0.844194579283046,-2.17143875821795,-1.09081607343433,2.2116186392854,-0.420602671798741,NaN,0.0465572561777145,-0.0465572561772066,2.23364553607936
883.4048,0.449010022747537,0.755250045187769,0.950460279896343,-0.460444987272422,-0.351589913550087,-0.351589913551298,NaN,-0.400137640660454,-1.01386607558695,1.02439540841201,-1.05247614705102,1.0243954084117,1.05083977521006,-1.14231942348247,NaN,1.14214077005105,-0.649361356331033,0.777496025944418,1.3024365230633,0.554771246839209,1.30243652306276,NaN,0.356377858511243,-1.5190103760009,NaN,-0.105947227795283,1.64602914804566,0.290477721307038,-0.290477721306435,2.92946400298455,-0.395632548391153,-0.401856891393083,-0.682547045500204,NaN,-0.611969413561914,0.0166014586439178,1.40331102070227,-0.949623064920749,-0.949623064922877,1.28084368718433,-1.60242336356527,0.860866329743672,0.852194542815779,-2.16346925947822,-1.07683202869652,2.21767220822231,-0.419865109941809,NaN,0.0958577779191042,-0.0958577779185598,2.20505791271147
883.5072,0.446895119145,0.778984972715192,0.963181716433154,-0.464891369310738,-0.34655396291311,-0.34655396291432,NaN,-0.358328597307686,-1.0040353845851,1.02232626928681,-1.07750267768254,1.02232626928651,1.06522942057927,-1.15599838784012,NaN,1.10828412752036,-0.627799178428732,0.75541081501542,1.26559053127797,0.580617628360032,1.26559053127743,NaN,0.371717894082246,-1.53675097141711,NaN,-0.128558207133471,1.64891522904232,0.301610067705182,-0.301610067704563,2.9529472019357,-0.379246269167219,-0.404529476388509,-0.670593464517461,NaN,-0.613840861093527,0.0138224371935828,1.4102105998007,-0.919889342646162,-0.919889342648235,1.27255975912583,-1.56489675622092,0.863882939920867,0.858295261175115,-2.15349640346522,-1.06284916566792,2.22274314280513,-0.419861085980044,NaN,0.144870489285863,-0.144870489285279,2.17596209236771
883.6096,0.444080036913058,0.802152864233147,0.974805846935412,-0.46913791636155,-0.342105854640391,-0.342105854641597,NaN,-0.316427101331568,-0.993184827469165,1.01760948067479,-1.10167073565037,1.0176094806745,1.07833165376163,-1.16878385527401,NaN,1.07191503562523,-0.606574445325563,0.730880694585496,1.22604570998539,0.606827424360254,1.22604570998485,NaN,0.387231595048518,-1.55426733223811,NaN,-0.1523541745443,1.65035136125419,0.312221999604162,-0.312221999603528,2.97485047932761,-0.362528458746845,-0.405965546195205,-0.657307922165025,NaN,-0.614164629755357,0.0118320637478898,1.41633249021453,-0.889167135147538,-0.889167135149565,1.26219966904797,-1.52636711802892,0.865000265935514,0.862479375043033,-2.14154181117677,-1.04890151580056,2.22684680639853,-0.420590755569438,NaN,0.193530740646862,-0.19353074064624,2.14649404421707
883.712,0.440591907513746,0.824716765043332,0.985338058410678,-0.473204664341032,-0.338277160981479,-0.338277160982682,NaN,-0.274504587584256,-0.981321398665175,1.01028368295482,-1.12491220364344,1.01028368295454,1.09017487402486,-1.18071558588384,NaN,1.03314603623909,-0.585720948296107,0.703994836422868,1.1838773346118,0.633393087874887,1.18387733461126,NaN,0.402787973637765,-1.5714977126049,NaN,-0.177269594117959,1.65038919449859,0.322292038433354,-0.322292038432704,2.9951648852449,-0.345455493097681,-0.406196661005597,-0.64269658825103,NaN,-0.612934837609599,0.0106401062236691,1.42170477898502,-0.85752630407767,-0.857526304079651,1.24978253219297,-1.48694025213441,0.864205275922775,0.864735308135223,-2.12763188942276,-1.03502198726511,2.22999854806612,-0.422052774179704,NaN,0.24177699880139,-0.241776998800729,2.11678644343221
883.8144,0.436459319743649,0.84664211561171,0.994786787373709,-0.477112301411941,-0.33509789315119,-0.335097893152391,NaN,-0.232630294969722,-0.968453650572489,1.00039303133021,-1.14716114010149,1.00039303132994,1.10079339579933,-1.19183788813544,NaN,0.992092974183169,-0.565270703204594,0.674846180468172,1.13916659762899,0.660305424117686,1.13916659762844,NaN,0.418255172030407,-1.58838186325784,NaN,-0.203237108792898,1.64908199175103,0.331798418247655,-0.331798418246992,3.01388492546785,-0.328003007783894,-0.405259003161782,-0.62676889463393,NaN,-0.610150092089134,0.0102538099762202,1.42635712749789,-0.82503804173596,-0.825038041737906,1.235330440364,-1.44672194692428,0.861488120118308,0.865057333845613,-2.1117976072937,-1.02124211457676,2.23221362263742,-0.424244302074016,NaN,0.289550889374207,-0.289550889373505,2.08696797053001
883.9168,0.431712074807691,0.867896854640377,1.00316332594559,-0.480882023597092,-0.33259639289593,-0.332596392897128,NaN,-0.19087102107715,-0.954591708185598,0.98798693411877,-1.16835411454342,0.987986934118506,1.11022710737849,-1.20219921439065,NaN,0.948874485235611,-0.545253963469837,0.643530959819405,1.09200036283862,0.687553574692323,1.09200036283807,NaN,0.433501152026701,-1.60486126254779,NaN,-0.230187918783931,1.64648433690469,0.340718995067181,-0.340718995066508,3.03100841845543,-0.310146146137744,-0.40319303646591,-0.609537462681135,NaN,-0.605813339888562,0.0106779506365907,1.430320574914,-0.791774543276161,-0.791774543278077,1.21886830923993,-1.40581744147603,0.856842136803865,0.863445590251158,-2.0940742641689,-1.00759184745227,2.23350713403242,-0.427161013296505,NaN,0.336797222064878,-0.336797222064137,2.0571626444524
884.0192,0.426380947630993,0.888451507457422,1.01048162529377,-0.48453538252763,-0.330799236596743,-0.33079923659794,NaN,-0.149290912017232,-0.939747287405338,0.973119786046116,-1.1884304843372,0.97311978604586,1.11852112890777,-1.21185176419406,NaN,0.903611507613775,-0.525699246408812,0.610148241682002,1.04247090578113,0.71512499214802,1.04247090578057,NaN,0.448394350316204,-1.62087933008427,NaN,-0.258052125313761,1.64265185944108,0.349031190095912,-0.34903119009523,3.04653635576621,-0.29185981257501,-0.400043179691985,-0.59101804718407,NaN,-0.599931713584476,0.0119148892923097,1.4336273337101,-0.757808710992495,-0.757808710994385,1.20042372992804,-1.36433092359552,0.850263852477713,0.859906035813021,-2.07450126172289,-0.994099396404614,2.233894008536,-0.430797112587425,NaN,0.383463988654549,-0.383463988653765,2.02748921433073
884.1216,0.420497460645789,0.90827926066255,1.01675810359541,-0.488094129886536,-0.329731139114956,-0.329731139116154,NaN,-0.107951296524715,-0.923933726610422,0.955850711808374,-1.20733262169202,0.955850711808129,1.12572546458218,-1.22085108832479,NaN,0.856426828513184,-0.506633368967356,0.574799496569641,0.990675650389059,0.743005405709041,0.990675650388502,NaN,0.462804298337407,-1.63638161790111,NaN,-0.286759042033637,1.63764099364791,0.356711964520731,-0.356711964520037,3.06047277048339,-0.273118931520164,-0.395857500415589,-0.571229502300165,NaN,-0.592516385312034,0.0139646265980739,1.43631057455632,-0.723213901129759,-0.723213901131614,1.18002683202471,-1.32236505992245,0.841752984175352,0.854450354276453,-2.05312188409157,-0.980791130974642,2.23338898494049,-0.435145352314489,NaN,0.429502331869615,-0.429502331868792,1.9980606165203
884.224,0.414093674130723,0.927356022613315,1.0220114625718,-0.491580068533354,-0.329414852327774,-0.329414852328979,NaN,-0.0669105666488879,-0.907166033235759,0.936243321852258,-1.22500610766257,0.936243321852023,1.13189464716862,-1.22925568970062,NaN,0.807444661940216,-0.488081490327424,0.537588193348489,0.936716904860488,0.771178779325417,0.936716904859932,NaN,0.47660220886861,-1.65131597934672,NaN,-0.316237476085116,1.63150877335566,0.363737821067874,-0.363737821067167,3.07282461091897,-0.253898709151698,-0.390687432271155,-0.550193769728953,NaN,-0.583582432542781,0.0168248550243024,1.43840420364752,-0.68806371650035,-0.688063716502178,1.157710156303,-1.2800205568413,0.831312442331166,0.847095817439788,-2.02998308908292,-0.967691525260304,2.23200660121756,-0.440197048341133,NaN,0.474866485136567,-0.474866485135706,1.9689834955716
884.3264,0.407201992635746,0.945660469199194,1.02626251175186,-0.495014912132873,-0.329871065836282,-0.329871065837493,NaN,-0.0262240960982599,-0.889460936688516,0.914365470877224,-1.2413999029518,0.914365470877,1.13708737502718,-1.2371266194534,NaN,0.756790243369708,-0.470067158874538,0.498619407900261,0.880701590961641,0.799627261839487,0.880701590961086,NaN,0.489661534682696,-1.66563272128396,NaN,-0.346415973796627,1.62431264914013,0.370084828015304,-0.370084828014583,3.08360161454024,-0.234174893018499,-0.384587516357574,-0.527935885439212,NaN,-0.573148716782765,0.0204910091397407,1.43994264003933,-0.652431837546162,-0.652431837547953,1.13350852818439,-1.23739575234835,0.81894832469418,0.837865110027315,-2.00513531040834,-0.954823146914647,2.22976116042325,-0.44594210149979,NaN,0.519513684249281,-0.519513684248384,1.94035778871785
884.4288,0.399854987055789,0.963174072647769,1.02953399858201,-0.498420151452874,-0.331118317043123,-0.331118317044344,NaN,0.0140558131393929,-0.870836937755885,0.890289019489589,-1.25646649468032,0.890289019489379,1.14136614183626,-1.24452706717574,NaN,0.704589439758826,-0.452612350788133,0.457999449355559,0.822740963678859,0.828331129989533,0.822740963678308,NaN,0.501858504326381,-1.67928474266075,NaN,-0.377223025134034,1.61611031129028,0.375728666707443,-0.375728666706701,3.09281617987968,-0.213924027649943,-0.37761516001233,-0.504483997592109,NaN,-0.561237775387906,0.0249563100861778,1.44096060070276,-0.616391868737085,-0.616391868738851,1.10745893824828,-1.19458624331518,0.804669906570056,0.826786130223537,-1.97863226950175,-0.942206676199901,2.22666667925263,-0.452369021123683,NaN,0.56340405634534,-0.563404056344412,1.91227637797255
884.5312,0.392085234332483,0.979881111612674,1.03185044537089,-0.50181692980967,-0.333172909864651,-0.333172909865878,NaN,0.0538799584100061,-0.851314351066702,0.864089613167484,-1.27016201752619,0.864089613167287,1.14479686176646,-1.25152194915369,NaN,0.6509683916254,-0.435737483641491,0.415835526134011,0.762950324816578,0.857268727178069,0.762950324816032,NaN,0.513072634620887,-1.69222765873436,NaN,-0.408587229528461,1.60695950686104,0.380644708681942,-0.380644708681184,3.10048323764437,-0.193123707052914,-0.369830400231711,-0.479869385688974,NaN,-0.547875723312029,0.030211798826819,1.44149289985297,-0.580017173371196,-0.580017173372936,1.0796004514831,-1.15168455226782,0.788489649256238,0.813891787794055,-1.95053079364934,-0.929860932588238,2.2227368457255,-0.459464935066032,NaN,0.606500493986451,-0.606500493985493,1.88482481185062
884.6336,0.383925174175904,0.995768666733506,1.033237995067,-0.505225928747551,-0.336048840676364,-0.336048840677599,NaN,0.093202240929416,-0.830915340828707,0.835846483675754,-1.28244635711357,0.835846483675572,1.14744849171114,-1.25817750033646,NaN,0.596053197071319,-0.419461404900448,0.37223546090027,0.701448730501112,0.886416400203939,0.70144873050057,NaN,0.523187215882425,-1.70441991000091,NaN,-0.440437430763611,1.59691784879458,0.384808123761197,-0.384808123760427,3.10662012327236,-0.171752822851422,-0.361295663274668,-0.454126472716547,NaN,-0.533092155256338,0.0362463581784184,1.44157426559066,-0.5433806885708,-0.543380688572521,1.04997415238847,-1.10877982776795,0.77042323612815,0.799219807806728,-1.92089063359468,-0.917802895879341,2.21798500692431,-0.467215577805351,NaN,0.648768520465988,-0.648768520465002,1.858081092803
