time,S1-D1,S1-D8,S1-D9,S1-D15,S2-D1,S2-D2,S2-D3,S2-D9,S3-D1,S3-D2,S3-D16,S4-D2,S4-D3,S4-D5,S5-D3,S5-D4,S5-D5,S6-D2,S6-D5,S6-D17,S7-D6,S7-D7,S8-D6,S8-D7,S8-D18,S9-D3,S9-D4,S9-D9,S9-D11,S9-D19,S10-D8,S10-D9,S10-D10,S10-D11,S11-D8,S11-D10,S11-D20,S12-D10,S12-D11,S12-D12,S13-D4,S13-D11,S13-D12,S14-D10,S14-D12,S14-D21,S15-D13,S15-D14,S16-D13,S16-D14,S16-D22
1264.8448,0.404638940356249,-0.231672525155499,0.282154193073146,-0.258964141632938,-0.479397172377701,-0.479397172377944,NaN,0.830911376963659,0.615429885696613,1.48141313536614,1.33923519191064,1.48141313536609,1.18920612422932,-0.287992712866357,NaN,1.38771365260412,0.629363868055907,1.41714564346845,0.670471762103486,-0.764799067822921,0.67047176210478,NaN,-1.62651311902984,0.764895818866697,NaN,0.0841523983896974,0.273508317967402,-0.459504723683804,0.45950472368386,0.0472281158775211,1.26524141083677,0.540421515574155,1.14631452568572,NaN,0.330973849334169,0.638770937375325,-0.206501420242759,-0.000356328968504385,-0.000356328971369444,-0.440493672333923,0.286599135823205,-0.379500269891661,1.53532046702673,0.790781001726379,1.63762106382972,0.265963370984323,0.981401748381822,NaN,0.692618860436375,-0.692618860437113,-0.994856068542232
1264.9472,0.393770829145425,-0.225107755067945,0.27477272433854,-0.258186533478556,-0.50531597393867,-0.505315973938909,NaN,0.866837901398444,0.646963606139782,1.47732881643255,1.33342383564152,1.4773288164325,1.22294056653821,-0.315553269861133,NaN,1.39452875191948,0.624717911483345,1.42178538532048,0.689550351432252,-0.762804116161796,0.689550351433556,NaN,-1.61570569688311,0.764808107347876,NaN,0.0832349296506346,0.281697647435555,-0.459130470607198,0.45913047060727,0.0753471917016638,1.28997598401068,0.533274756903295,1.15691456210731,NaN,0.338725364858281,0.650487992962114,-0.204988835085587,-0.0398874933155493,-0.0398874933183919,-0.47263192456935,0.289543914172641,-0.417435418037665,1.52938268574046,0.774694786208057,1.62281152861198,0.264886615762914,0.958860223691926,NaN,0.710254378524275,-0.710254378525009,-1.0029540589891
1265.0496,0.383100798944047,-0.219055857916698,0.267299671006918,-0.257573699355872,-0.529850140567086,-0.529850140567319,NaN,0.902469644842469,0.677921297086917,1.47184592014154,1.32740222475195,1.47184592014149,1.25676051526037,-0.343633272346503,NaN,1.39955844895806,0.62061660756056,1.42500797319122,0.707812026601598,-0.759788259655189,0.70781202660291,NaN,-1.60453676859346,0.764174073723857,NaN,0.0822172435167685,0.289608105171231,-0.458452981980512,0.458452981980599,0.103530060672462,1.31437138797299,0.526072471677443,1.16726688070216,NaN,0.346479272948234,0.662022496195935,-0.204095564662665,-0.0776477474491536,-0.077647747451959,-0.504421198237043,0.292137898997953,-0.455140485401897,1.52313540586129,0.758036907143672,1.60740365547247,0.264771482342866,0.935934263880832,NaN,0.727997563958185,-0.727997563958918,-1.01002953072608
1265.152,0.372649999219242,-0.213518889490086,0.259755561510315,-0.257134438576915,-0.552990443498615,-0.552990443498846,NaN,0.937754170799296,0.708227287700597,1.46494039354936,1.32117746153477,1.46494039354931,1.29062598739969,-0.372208968325124,NaN,1.40276745352832,0.617072743655719,1.42678600190948,0.725191934423293,-0.755750226013548,0.725191934424613,NaN,-1.5930127986642,0.762958232392706,NaN,0.0810982758630415,0.297216085540319,-0.45744637462844,0.457446374628545,0.131726565359828,1.33841125054678,0.518855036035104,1.17738823261555,NaN,0.354235589604477,0.673361593748929,-0.203834417730275,-0.11356433654449,-0.113564336547275,-0.535811681116345,0.294371424304735,-0.492559584859063,1.51660238866974,0.740838238688435,1.59143491354041,0.265589391502544,0.912637599050328,NaN,0.745834326036947,-0.745834326037674,-1.01606949937562
1265.2544,0.362437842368798,-0.208495536303924,0.252161078581417,-0.256876476856223,-0.574732033476673,-0.574732033476907,NaN,0.972643588298622,0.737810829430873,1.45658872782539,1.31475616737375,1.45658872782535,1.32449591043083,-0.401254403920102,NaN,1.40412376256461,0.614095614395459,1.42709392881637,0.741625534765818,-0.750691936325557,0.741625534767145,NaN,-1.58114213799953,0.761127068762608,NaN,0.079877685825372,0.304497330160459,-0.456083695430797,0.456083695430915,0.159885929313964,1.36207962022519,0.511663960278367,1.1872963865439,NaN,0.361995001703613,0.684493006996247,-0.204216891918724,-0.14756940616496,-0.147569406167728,-0.566755372346687,0.296235854461264,-0.529638474341617,1.50980857257678,0.723131318810204,1.57494471554489,0.267308140026356,0.888984580491114,NaN,0.763751136424112,-0.763751136424832,-1.02106569931578
1265.3568,0.35248195002381,-0.203981182133209,0.24453696587335,-0.25680639332233,-0.595074366520878,-0.595074366521112,NaN,1.0070944407653,0.766606082100301,1.44676809391217,1.3081444790357,1.44676809391213,1.35832812274764,-0.430741391405888,NaN,1.40359890121455,0.611691070634415,1.42590830186381,0.757048885400636,-0.744618493605408,0.757048885401972,NaN,-1.56893496705837,0.7586491700704,NaN,0.0785559117898895,0.311427027230031,-0.454337129994322,0.45433712999445,0.187956876564734,1.38536089393257,0.504541717212693,1.19700996940133,NaN,0.369758804366825,0.695405022226395,-0.205253054547036,-0.179600141536826,-0.179600141539548,-0.597206207563004,0.297723698497408,-0.566324645893301,1.50277994766086,0.704950331284286,1.55797431432093,0.269892047421925,0.864990169729749,NaN,0.781735037301791,-0.781735037302503,-1.02501459226065
1265.4592,0.342798116418693,-0.199967996692122,0.236903939363577,-0.256929553840096,-0.614021116356848,-0.614021116357083,NaN,1.04106757233706,0.794552080217,1.43545649744393,1.30134806265687,1.43545649744389,1.39207938657423,-0.460639480879916,NaN,1.40116817411282,0.609861594149151,1.42320800444381,0.771398937121464,-0.737538167543248,0.771398937122809,NaN,-1.55640322929787,0.755495340764818,NaN,0.0771342165987649,0.317979908508412,-0.452178206416276,0.452178206416413,0.215887766275192,1.40823976630081,0.49753155456331,1.20654830973437,NaN,0.377528840008703,0.706086473994836,-0.206951416009369,-0.209598889804512,-0.209598889807155,-0.62712016111509,0.298828711155812,-0.602567394031649,1.49554342688026,0.68633107959184,1.54056669161563,0.273302136537747,0.840669954757919,NaN,0.799773649296784,-0.79977364929749,-1.02791734823146
1265.5616,0.333400287393447,-0.196445041618877,0.229282604853868,-0.257250051495598,-0.631580073311588,-0.631580073311826,NaN,1.07452798121976,0.821592684316023,1.42263294292208,1.29437214094042,1.42263294292204,1.42570541902492,-0.490915944131533,NaN,1.39681091359442,0.608606386596643,1.41897450178575,0.784613830575808,-0.729462361798108,0.784613830577162,NaN,-1.54356055335575,0.751638713015253,NaN,0.0756147266259628,0.324130347467881,-0.449577997938101,0.449577997938244,0.243626739836632,1.43070120534123,0.49067729150998,1.21593128694435,NaN,0.385307436995295,0.716526724707751,-0.209318796212971,-0.237513263899201,-0.237513263901785,-0.656455342745168,0.299545982364152,-0.638317883883778,1.48812671287322,0.667310951342119,1.52276643750153,0.277496336936434,0.81604017399507,NaN,0.817855178003614,-0.817855178004316,-1.02977980271502
1265.664,0.324300552113694,-0.193398388946264,0.221693381345697,-0.257770657203074,-0.647763030437607,-0.64776303043784,NaN,1.10744466257182,0.847676517938354,1.40827760165101,1.28722153089426,1.40827760165097,1.45916094320564,-0.521535775143076,NaN,1.39051071040313,0.607921471395478,1.41319207573302,0.796633188455048,-0.720405559384187,0.796633188456415,NaN,-1.53042216676946,0.74705485282776,NaN,0.0740004651702894,0.32985245706296,-0.446507334018919,0.446507334019064,0.271121877147307,1.45273045224126,0.484023097802713,1.22517918388177,NaN,0.393097347283062,0.726715643361183,-0.212360193361319,-0.263296227287233,-0.263296227289744,-0.685172100462073,0.299872019922072,-0.673529230830507,1.48055815638048,0.647928875655294,1.50461961908149,0.282429695855685,0.791117733013073,NaN,0.83596841408377,-0.835968414084464,-1.03061239539364
1265.7664,0.315509144745566,-0.190811248020368,0.214156429776629,-0.258492781942284,-0.662585659170405,-0.662585659170638,NaN,1.13979044391053,0.872756891858931,1.39237198326995,1.27990069280952,1.39237198326992,1.49239975889593,-0.552461706231286,NaN,1.38225561738631,0.607799817329643,1.40584804212026,0.807398398884535,-0.710385247807646,0.807398398885913,NaN,-1.51700480449133,0.741721855257957,NaN,0.0722953793892585,0.335120184352758,-0.442937024131899,0.442937024132042,0.298321360850615,1.47431304011643,0.477613256303428,1.23431254016471,NaN,0.400901685671708,0.736643585853657,-0.216078668353707,-0.28690615578127,-0.28690615578371,-0.713233130887399,0.2998048299114,-0.708156590659263,1.47286660714258,0.628225276407747,1.48617364099677,0.288054584918535,0.765920214161613,NaN,0.854102722357722,-0.854102722358409,-1.03043009305398
1265.8688,0.307034453894457,-0.188664095745464,0.206691587813833,-0.259416448329512,-0.676067380005734,-0.676067380005974,NaN,1.17154182320385,0.896791723004019,1.3748991094919,1.27241378831467,1.37489910949187,1.52537482660481,-0.583654231992464,NaN,1.37203832144257,0.608231490664421,1.39693294859701,0.816852885829502,-0.699421825662309,0.816852885830896,NaN,-1.50332661138671,0.735620426664303,NaN,0.0705043593496013,0.339907398651441,-0.438838092917786,0.438838092917926,0.325173649409303,1.4954348281175,0.47149191199497,1.24335200601281,NaN,0.408723872204339,0.746301375245498,-0.220475251021646,-0.308306871462163,-0.308306871464523,-0.740603592747611,0.299343994688659,-0.742157254973807,1.46508126213509,0.60824201753687,1.46747709882153,0.294320897682073,0.740465886715147,NaN,0.872248017852931,-0.872248017853617,-1.02925229626914
1265.9712,0.298883039509828,-0.186934806088625,0.199318312737467,-0.260540270310869,-0.688231231536984,-0.688231231537231,NaN,1.20267882275354,0.919743458882001,1.35584368500175,1.26476474329548,1.35584368500172,1.55803835548453,-0.615071631441453,NaN,1.35985628361916,0.609203833248019,1.38644075204872,0.824942362478073,-0.687538490186607,0.824942362479481,NaN,-1.48940703605816,0.72873395870203,NaN,0.0686332444833966,0.344187969895772,-0.434182023407031,0.434182023407166,0.351627661279606,1.51608205081187,0.465702810971232,1.25231819888937,NaN,0.416567577981557,0.75568027842286,-0.22554886563706,-0.327467649213497,-0.327467649215752,-0.767251218838722,0.298490744550951,-0.77549074832973,1.45723151560258,0.588022332441229,1.44857962342544,0.301176238428304,0.714773722581033,NaN,0.890394731989104,-0.890394731989785,-1.02710273309342
1266.0736,0.291059660982034,-0.185598781460122,0.192055634734342,-0.261861443160551,-0.699103734442446,-0.699103734442701,NaN,1.2331848641383,0.941579016030505,1.33519226386127,1.25695731472163,1.33519226386124,1.59034188930373,-0.646669983069756,NaN,1.34571185365829,0.610701656173851,1.37436897806547,0.831615067998144,-0.674761101893495,0.831615067999566,NaN,-1.47526671164915,0.721048599168989,NaN,0.0666888119511566,0.347935840568873,-0.428941000464643,0.428941000464774,0.377632971990618,1.5362413863546,0.460289033642757,1.26123156795884,NaN,0.424436675687111,0.764771979750494,-0.231296267329681,-0.344363204207991,-0.344363204210171,-0.793146420578531,0.297248017768093,-0.808118922868647,1.44934681590733,0.567610731530935,1.4295317161057,0.308566107096478,0.688863417791579,NaN,0.908533775223704,-0.908533775224381,-1.02400934179922
1266.176,0.283567322465674,-0.184629093248249,0.184922122611034,-0.263375744520822,-0.708714743679204,-0.708714743679475,NaN,1.26304665967189,0.96226973673958,1.31293341907571,1.24899516254881,1.31293341907569,1.6222363905113,-0.678403170303872,NaN,1.32961236963108,0.61270744033065,1.36071886927533,0.836821994693899,-0.661118021924961,0.836821994695334,NaN,-1.4609273172506,0.712553322227807,NaN,0.0646787449161417,0.351125102690885,-0.423088140784463,0.423088140784588,0.403140023859684,1.55590004826599,0.455292725922723,1.27011227186216,NaN,0.432335195081272,0.773568555629969,-0.237711978017166,-0.358973671560746,-0.358973671562855,-0.818262376172547,0.295620503611053,-0.840006042452495,1.44145653630401,0.5470528851243,1.41038457786629,0.316434088371654,0.662755419604648,NaN,0.926656498442429,-0.926656498443099,-1.02000413462332
1266.2784,0.276407338537584,-0.18399663514092,0.17793586302826,-0.265077542199252,-0.717097285864703,-0.717097285864988,NaN,1.29225411721539,0.981791367156418,1.28905792461889,1.24088192738696,1.28905792461887,1.65367232703296,-0.710222876124935,NaN,1.31157024933977,0.615201542935483,1.34549552818487,0.840517113049346,-0.646639922312134,0.840517113050795,NaN,-1.44641141675608,0.703240000993274,NaN,0.0626115836995763,0.353730091739383,-0.41659770099878,0.4165977009989,0.428100346902529,1.57504590357573,0.450754829074633,1.27898007197886,NaN,0.44026728004563,0.782062451901264,-0.244788213806653,-0.371284583557071,-0.37128458355912,-0.842575097373934,0.293614665739683,-0.871118851614526,1.43358986467279,0.526395481365797,1.39118993631444,0.324722050479526,0.636470960609258,NaN,0.944754648693135,-0.944754648693796,-1.01512303127101
1266.3808,0.269579418580987,-0.183670288432986,0.171114452066007,-0.266959805760478,-0.724287384758467,-0.724287384758764,NaN,1.32080026401409,1.00012406003602,1.26355894872748,1.23262131632573,1.26355894872746,1.68459976887306,-0.742078571315683,NaN,1.29160307101985,0.618162410253112,1.3287080524026,0.842657595252628,-0.631359573846368,0.842657595254089,NaN,-1.43174227930724,0.693103486890651,NaN,0.0604966662061348,0.355725503266537,-0.409445271188579,0.409445271188692,0.45246678850147,1.59366761680506,0.446714806653842,1.28785423980222,NaN,0.448237143705748,0.790246464019944,-0.252514805842623,-0.381286841112849,-0.381286841114849,-0.866063481346648,0.291238747108318,-0.901426636689674,1.42577571160833,0.505686061197411,1.37199987105555,0.333370353347976,0.61003209858767,NaN,0.962820314644292,-0.962820314644945,-1.00940566065923
1266.4832,0.26308176567612,-0.183617099904321,0.16447499445137,-0.269014126035506,-0.730323879855659,-0.730323879855964,NaN,1.34868119478246,1.01725240046791,1.23643224801231,1.22421720196878,1.23643224801229,1.7149684981679,-0.773917507203348,NaN,1.26973363625503,0.621566792463571,1.31036965476132,0.84320403234464,-0.615311619443807,0.843204032346112,NaN,-1.41694368927078,0.682141695656641,NaN,0.0583440620359244,0.357086530007805,-0.401607970651647,0.401607970651755,0.47619374665721,1.61175481473932,0.443210368055756,1.29675347496698,NaN,0.456249022415524,0.798113720771816,-0.260879125694832,-0.388976675191082,-0.388976675193013,-0.888709358583193,0.288502759119399,-0.930901291066166,1.41804263196005,0.484972834856787,1.35286663690922,0.342318063113315,0.583461756843895,NaN,0.980845862513446,-0.98084586251409,-1.0028951385469
1266.5856,0.256911183962595,-0.183802474578868,0.158034102925756,-0.271230748225629,-0.735248241669981,-0.735248241670295,NaN,1.37589603622286,1.03316544387877,1.20767635374072,1.21567373767239,1.20767635374071,1.74472812849239,-0.805684723475081,NaN,1.2459900096369,0.625389957026581,1.29049776240348,0.842120640460859,-0.598532347328472,0.842120640462347,NaN,-1.40203975043059,0.670355691864471,NaN,0.0561644992875401,0.357789010534801,-0.393064656725664,0.393064656725764,0.499237398060687,1.62929826069642,0.440277192451912,1.30569582943456,NaN,0.464307131585037,0.805657673236323,-0.269866028235278,-0.394355601058645,-0.394355601060527,-0.910497539574053,0.285418458459011,-0.959517385924307,1.41041875412659,0.464304487134393,1.33384248548422,0.351503171915023,0.556783760180964,NaN,0.998823865636025,-0.998823865636659,-0.99563783076038
1266.688,0.251063187500659,-0.184190383247776,0.151807890660875,-0.273598622637749,-0.739104385417731,-0.739104385418051,NaN,1.40244691021088,1.04785675133188,1.17729274904054,1.20699548498386,1.17729274904052,1.77382822555111,-0.837323076907341,NaN,1.22040553231742,0.629605900101959,1.26911409217322,0.839375453695748,-0.581059486186423,0.839375453697247,NaN,-1.38705468390364,0.657749764254583,NaN,0.0539692822565152,0.357809578947471,-0.383796145380863,0.383796145380959,0.521555909482065,1.64629002385924,0.437948662063515,1.31469863483797,NaN,0.472415625029005,0.812872090368152,-0.279457821145509,-0.397430372593083,-0.397430372594906,-0.931415853296797,0.281999315443195,-0.987252235733906,1.4029317143673,0.44372997905553,1.31497948809742,0.360862824735607,0.530022865706602,NaN,1.01674702888108,-1.01674702888171,-0.987683113840134
1266.7904,0.24553210621482,-0.184743582109424,0.145811953712043,-0.276105478577959,-0.741938484549451,-0.741938484549784,NaN,1.42833888206525,1.06132441190986,1.1452860398519,1.19818754441843,1.14528603985188,1.80221842541999,-0.868773293443173,NaN,1.19301880785658,0.634187554777768,1.24624470052636,0.834940501831394,-0.562932041527118,0.834940501832904,NaN,-1.37201262224212,0.644331493192244,NaN,0.0517702036115432,0.35712580851965,-0.373785438592086,0.373785438592177,0.543109622530443,1.66272363293997,0.436255613800731,1.32377843233936,NaN,0.480578557627653,0.819751060599485,-0.289634264615568,-0.398212938787285,-0.398212938789061,-0.951455168769034,0.278260475377137,-1.01408594686086,1.39560859717406,0.423298349363207,1.29632936299656,0.37033355470775,0.503204790665561,NaN,1.03460810715517,-1.0346081071558,-0.979083144657737
1266.8928,0.240311188912725,-0.185423843673528,0.140061343991842,-0.278737923255231,-0.743798788525168,-0.743798788525509,NaN,1.45357988940564,1.07357104976924,1.11166412038661,1.18925568241656,1.1116641203866,1.8298485528933,-0.899974044430995,NaN,1.16387365889233,0.639106990953751,1.22192000510953,0.82879197125128,-0.544190174606007,0.828791971252797,NaN,-1.35693741651899,0.630111815011017,NaN,0.0495794578772519,0.35571634649379,-0.363017955002857,0.363017955002944,0.563861208252266,1.67859421097225,0.435226112457064,1.33295090513629,NaN,0.488799848381061,0.826288996705643,-0.30037259649459,-0.396720396423643,-0.396720396425348,-0.970609394686077,0.274218709859245,-1.04000144489532,1.38847588372357,0.403058513012329,1.27794330654956,0.379851526975741,0.476356236977997,NaN,1.05239981777662,-1.05239981777723,-0.969892636480668
1266.9952,0.235392705854428,-0.186192202896223,0.134570533023895,-0.281481556677208,-0.744735452184565,-0.744735452184918,NaN,1.47818064808337,1.08460381628534,1.07643832916314,1.18020645060246,1.07643832916313,1.85666874488513,-0.930862046577997,NaN,1.13301905325221,0.644335598857441,1.19617477438083,0.820910348224627,-0.524875107635277,0.820910348226151,NaN,-1.34185248646436,0.615105081556879,NaN,0.047409559382,0.353561040294874,-0.351481755702979,0.351481755703056,0.583775793200857,1.69389859342299,0.434885245348115,1.34223081490466,NaN,0.49708323783851,0.832480641771348,-0.311647567766795,-0.392974932823838,-0.39297493282548,-0.98887545511117,0.269892351586969,-1.06498448187151,1.38155940877396,0.383059050521203,1.2598718246628,0.389352795055259,0.44950490407985,NaN,1.07011474970198,-1.07011474970258,-0.960168617816883
1267.0976,0.230768053388056,-0.187009222600658,0.129353366727964,-0.284321086968936,-0.744800380086133,-0.744800380086488,NaN,1.50215453001251,1.09443436620467,1.03962359078793,1.17104729443453,1.03962359078792,1.8826295826166,-0.961372185165923,NaN,1.1005089999901,0.649844249308152,1.16904808363534,0.811280545536013,-0.505029034770304,0.811280545537543,NaN,-1.32678073518875,0.599329106245632,NaN,0.0452732635128282,0.350641058608506,-0.339167750759336,0.339167750759404,0.602821061928115,1.70863543111109,0.435254941949243,1.35163194547204,NaN,0.505432235178697,0.83832107722544,-0.323431471653278,-0.387003761090477,-0.387003761092083,-1.00625324079657,0.265301208445239,-1.08902362526585,1.37488432429732,0.363347985494802,1.24216456143125,0.398773579040414,0.422679477364916,NaN,1.08774527532595,-1.08774527532653,-0.949970147753665
1267.2,0.226427861827705,-0.187835274235207,0.124423014713612,-0.2872404321824,-0.744047079870826,-0.744047079871184,NaN,1.52551741150191,1.10307881475873,1.00123854329078,1.16178664955215,1.00123854329076,1.9076822362759,-0.991437661902639,NaN,1.0664024184495,0.655603428764898,1.14058323959223,0.799892015396117,-0.484695023714766,0.799892015397653,NaN,-1.31174452048576,0.582805184822385,NaN,0.0431834898168596,0.346939015745084,-0.32606987325704,0.3260698732571,0.620967345034866,1.7228052762718,0.436353825002958,1.36116705700416,NaN,0.513850056417633,0.843805737450167,-0.335694162420641,-0.378839057425003,-0.378839057426567,-1.02274553978227,0.260466461102393,-1.11211023085891,1.36847506704694,0.343972557030678,1.22487012733763,0.408050571054841,0.395909585797875,NaN,1.10528346884429,-1.10528346884486,-0.93935798118881
1267.3024,0.222362105797615,-0.188630824360618,0.119791918811215,-0.2902228013248,-0.74253051524895,-0.742530515249309,NaN,1.54828749219572,1.11055766976088,0.961305655117362,1.15243402475535,0.961305655117348,1.93177862567042,-1.02099016987294,NaN,1.03076298333947,0.661583350505336,1.11082767659054,0.786738852777258,-0.463916902335318,0.7867388527788,NaN,-1.29676565674648,0.565558080221561,NaN,0.0411532461290837,0.342439110879597,-0.312185211498491,0.312185211498543,0.638187698825718,1.73641065281512,0.438197093467582,1.37084785160339,NaN,0.522339558332747,0.848930437165379,-0.348403071545862,-0.368517910142315,-0.368517910143837,-1.03835795449101,0.255410553787183,-1.13423840284142,1.36235532770097,0.324978997504252,1.20803593210457,0.417121260341462,0.369225731520117,NaN,1.12272103138276,-1.12272103138332,-0.928394190901033
1267.4048,0.218560214388622,-0.18935671913101,0.115471742563887,-0.293250758283003,-0.740306955052006,-0.740306955052371,NaN,1.57048508295744,1.11689573144159,0.919851334906714,1.14300006715833,0.919851334906699,1.95487159633964,-1.04996009703779,NaN,0.993658945802076,0.667754044974272,1.07983282528621,0.771819891792851,-0.44273913778221,0.7718198917944,NaN,-1.28186542896415,0.547615968197536,NaN,0.0391955523875233,0.337127288075978,-0.297514094603053,0.297514094603094,0.654457969920642,1.7494561186573,0.440796427527902,1.38068494869331,NaN,0.530903169252417,0.853691414523459,-0.361523228442805,-0.356082283540571,-0.356082283542055,-1.05309881019851,0.250157083393658,-1.15540494424285,1.3565480209989,0.306412318568265,1.19170802361733,0.425924259973043,0.342659198130796,NaN,1.14004922364489,-1.14004922364543,-0.917141752227549
1267.5072,0.215011177455267,-0.189974459068096,0.111473322339435,-0.296306282460647,-0.737433819089422,-0.737433819089797,NaN,1.59213236511652,1.12212195680506,0.876906033218077,1.13349659997757,0.876906033218061,1.97691510834934,-1.07827676031925,NaN,0.955162928580515,0.674085437349746,1.0476539545897,0.755138793330676,-0.421206725766008,0.755138793332232,NaN,-1.26706460655815,0.529010347450072,NaN,0.0373233615816295,0.330991410678709,-0.282060136577418,0.282060136577449,0.66975683188547,1.76194832748199,0.444159903739163,1.39068786680567,NaN,0.539542815850958,0.858085386008377,-0.375017292524727,-0.34157899134168,-0.341578991343099,-1.06697905540453,0.24473068565939,-1.17560929904592,1.35107525645152,0.28831610230245,1.17593093061679,0.434399618013044,0.316241944781831,NaN,1.15725881072976,-1.15725881073028,-0.90566409870022
1267.6096,0.211703644951082,-0.190446453876941,0.107806622772613,-0.299370838560214,-0.733969520340132,-0.733969520340507,NaN,1.61325312854345,1.12626929016536,0.832504331312768,1.12393662244551,0.832504331312752,1.99786443996206,-1.10586867634081,NaN,0.915351693463841,0.680547422083973,1.01434998815531,0.736704118271934,-0.399365103471846,0.736704118273495,NaN,-1.25238344127076,0.50977591621878,NaN,0.0355494764163355,0.324021436628891,-0.265830251417063,0.265830251417083,0.684065788799254,1.77389608729111,0.448291916971044,1.40086500790702,NaN,0.548259848332811,0.862109605944724,-0.38884560711881,-0.325059670233178,-0.325059670234571,-1.08001215564377,0.239156917499851,-1.19485348840727,1.34595830555181,0.270732298447245,1.1607475067912,0.442489105691132,0.290006490140062,NaN,1.17434002385454,-1.17434002385505,-0.894024660533972
1267.712,0.208626017832702,-0.190736251252059,0.104480698509065,-0.302425453405826,-0.729973306624567,-0.729973306624941,NaN,1.63387249408715,1.12937446342369,0.786685007525385,1.11433426770095,0.786685007525368,2.01767641143065,-1.1326638756786,NaN,0.874305877222234,0.687109936489697,0.979983292691445,0.716529379198915,-0.377260080490176,0.716529379200483,NaN,-1.23784164233846,0.489950411382217,NaN,0.0338864670658178,0.316209584138099,-0.248834647111176,0.248834647111183,0.697369151626035,1.78531040382949,0.453193117122348,1.41122364217758,NaN,0.557054967432571,0.865761926264305,-0.402966281394824,-0.306580743978439,-0.306580743979791,-1.09221398753754,0.233462137219765,-1.21314204838581,1.3412175583494,0.253701032049124,1.14619877386084,0.450136483902209,0.263985780389479,NaN,1.19128253932984,-1.19128253933034,-0.882286389483221
1267.8144,0.205766531046655,-0.190808742571606,0.101503661112066,-0.305450785479702,-0.725505111094632,-0.725505111095003,NaN,1.65401662240841,1.13147777013745,0.739491070899578,1.10470472599833,0.73949107089956,2.03630962842015,-1.15859026163297,NaN,0.832109690254451,0.693743031769146,0.944619432496251,0.694633065004949,-0.354937765249714,0.694633065006522,NaN,-1.22345834094114,0.469574404779289,NaN,0.032346600914684,0.30755048317118,-0.231086796696288,0.23108679669628,0.709653999124065,1.79620449602175,0.458860373787181,1.42176989404117,NaN,0.565928153538137,0.86904085614409,-0.417335297469815,-0.28620337054594,-0.286203370547259,-1.10360274040248,0.227673383259463,-1.23048197782179,1.33687246525102,0.237260423083397,1.132323761648,0.457287752080592,0.238213028895086,NaN,1.20807547252814,-1.20807547252862,-0.870511265602602
1267.9168,0.203113331578875,-0.19063035132495,0.0988826508299517,-0.308427176992307,-0.72062541350325,-0.720625413503619,NaN,1.67371241194796,1.13262281697238,0.690969761170942,1.09506414868964,0.690969761170924,2.05372474241893,-1.18357601120263,NaN,0.788850578900414,0.700416949304624,0.908326893406705,0.671038638937397,-0.332444466876966,0.671038638938973,NaN,-1.20925205744286,0.448691053862469,NaN,0.0309417892246859,0.298041312827605,-0.212603379343565,0.212603379343545,0.720910136425768,1.80659377830461,0.465286777200202,1.43250873182015,NaN,0.574878598443017,0.871945622216319,-0.431906641705677,-0.263993370866614,-0.263993370867892,-1.1141988231565,0.221818249126644,-1.24688269492102,1.33294146758327,0.221446417458269,1.11915934733089,0.463891384165568,0.212721524780222,NaN,1.22470738600859,-1.22470738600906,-0.858759788367329
1268.0192,0.20065455648182,-0.190169204987967,0.0966238178587313,-0.311334691748751,-0.715395096637726,-0.715395096638093,NaN,1.69298719257946,1.13285625571047,0.641172528084762,1.08542954522369,0.641172528084743,2.06988473490395,-1.20755002027733,NaN,0.744618866613243,0.707102218303353,0.871176794436832,0.645774518887625,-0.309826568585317,0.645774518889204,NaN,-1.19524066454163,0.427345806470901,NaN,0.0296835428188507,0.287681928093518,-0.193404185465564,0.193404185465527,0.73113006192334,1.81649581518737,0.47246167412332,1.44344396343631,NaN,0.583904644731025,0.874476228691273,-0.446632468443717,-0.240021144275825,-0.240021144277082,-1.12402476193367,0.215924750060983,-1.26235598710217,1.32944192632288,0.206292629964198,1.10674010112883,0.469898559938277,0.187544424525199,NaN,1.24116631402965,-1.24116631403009,-0.84709046883417
1268.1216,0.198378414984599,-0.189395286556654,0.0947323194932498,-0.31415314910287,-0.709875275665506,-0.709875275665863,NaN,1.71186842353068,1.13222749896861,0.590155007752377,1.07581867457193,0.590155007752358,2.08475523869681,-1.2304423991669,NaN,0.699507395936575,0.713769787420281,0.833242610317189,0.618874052267473,-0.287130380547935,0.618874052269056,NaN,-1.18144131947399,0.405586062643473,NaN,0.0285829229783024,0.276474979742845,-0.173511987443267,0.173511987443213,0.7403089467605,1.82593025601405,0.480370733914858,1.45457823993772,NaN,0.593003739021084,0.876633514809362,-0.461463306562868,-0.214361575906706,-0.214361575907924,-1.13310507116342,0.210021176400156,-1.27691593572017,1.32639005738515,0.191830201201398,1.09509814587929,0.475263404496513,0.16271454619225,NaN,1.25743980931767,-1.25743980931809,-0.835559346152919
1268.224,0.196273274682349,-0.188280564680842,0.0932123337715638,-0.316862161713547,-0.704127089367662,-0.704127089368007,NaN,1.73038339867894,1.1307884201207,0.537977006059178,1.06624992538993,0.537977006059157,2.09830490080607,-1.2521850198346,NaN,0.653611184082874,0.720391195172815,0.794599917706077,0.590375493601528,-0.264401984244481,0.590375493603113,NaN,-1.16787033995777,0.383460800401679,NaN,0.0276504794019697,0.264426027855274,-0.152952384962612,0.152952384962539,0.748444621767215,1.83491875168297,0.488996043074527,1.46591306680415,NaN,0.602172398977857,0.878419205882752,-0.476348312248416,-0.187093938530464,-0.187093938531647,-1.14146608961209,0.204135930131207,-1.29057880719167,1.32380087553703,0.178087669584179,1.08426303273324,0.479943245000231,0.138264177199609,NaN,1.27351501909701,-1.2735150190974,-0.824219544521012
1268.3264,0.194327747821731,-0.186799106940127,0.092067082911848,-0.319441180375816,-0.698211458626079,-0.698211458626413,NaN,1.74855895360734,1.12859303516174,0.484702488480873,1.05674218134245,0.484702488480851,2.11050577227921,-1.27271210157472,NaN,0.607027091213665,0.726938776096703,0.755326163361812,0.560321984607083,-0.241687082207881,0.560321984608672,NaN,-1.15454302194301,0.361020178295917,NaN,0.0268961771029923,0.25154364695249,-0.13175363293612,0.131753632936028,0.755537559164164,1.84348485172186,0.498316226613944,1.47744882093592,NaN,0.611406185426695,0.879835954520019,-0.491235562460373,-0.158301789082473,-0.158301789083619,-1.14913578350457,0.19829734414543,-1.30336291340761,1.32168814464163,0.165090855774879,1.07426162956898,0.483898880371086,0.114224895896932,NaN,1.28937879042704,-1.2893787904274,-0.813120873478488
1268.4288,0.192530774411224,-0.184927181736903,0.0912988600354194,-0.321869548321533,-0.692188825087676,-0.692188825087996,NaN,1.76642116887273,1.12569716809826,0.430399571801579,1.0473146765041,0.430399571801556,2.12133369759202,-1.29196080671835,NaN,0.559853497220201,0.733385888930082,0.715500446444963,0.52876153005781,-0.219030864871129,0.528761530059397,NaN,-1.1414734237632,0.338315134414981,NaN,0.0263293202450439,0.237839522243906,-0.109946458518423,0.109946458518312,0.76159084023533,1.85165388453248,0.508306590685934,1.48918477136204,NaN,0.620699669485446,0.880887370585125,-0.506072378732913,-0.128072855721162,-0.128072855722277,-1.15614352399133,0.192533487386339,-1.31528844856917,1.32006433389679,0.152862754623731,1.06511801867421,0.487094848791684,0.0906274062484386,NaN,1.30501779166296,-1.30501779166329,-0.802309468613169
1268.5312,0.190871702749044,-0.182643350993669,0.09090905852678,-0.324126567715997,-0.686118881076305,-0.686118881076613,NaN,1.78399507262524,1.12215810884169,0.375140514685133,1.03798685297065,0.375140514685108,2.1307686768465,-1.30987181467594,NaN,0.512189986944824,0.739707144638004,0.675203308244597,0.49574696112661,-0.196477899425728,0.495746961128197,NaN,-1.12867415345859,0.315397002977641,NaN,0.0259584802110595,0.223328537960314,-0.0875638783608072,0.0875638783606806,0.76661011302429,1.85945282785255,0.518939278866688,1.50111910297483,NaN,0.63004639159005,0.881578040758124,-0.520805670178938,-0.0964989065862254,-0.0964989065873158,-1.16251984713624,0.186871962875085,-1.32637730854075,1.31894058363291,0.141423432016305,1.05685340461392,0.489499678105468,0.067501390440345,NaN,1.32041862862338,-1.32041862862367,-0.791827470773304
1268.6336,0.189340368832633,-0.17992855335463,0.0908982057059265,-0.326191578704619,-0.680060299437955,-0.680060299438248,NaN,1.8013043524476,1.11803427499017,0.319001701845753,1.02877823166794,0.319001701845726,2.13879518270954,-1.32638985099914,NaN,0.464137042977547,0.745878614521089,0.634516522638415,0.461335878574926,-0.174072041542483,0.461335878576511,NaN,-1.11615618973339,0.292317160924644,NaN,0.0257914287419996,0.208028854999957,-0.0646410277811044,0.0646410277809615,0.770603550808766,1.8669101752135,0.530183435564739,1.51324894252892,NaN,0.639438817179029,0.881913539471541,-0.535382283278912,-0.0636755921249244,-0.0636755921259936,-1.16829620450928,0.181339707279133,-1.33665289774198,1.31832668385058,0.130789927514911,1.04948603518744,0.491086110283222,0.0448753832731767,NaN,1.33556793863865,-1.33556793863892,-0.781712741270218
1268.736,0.187927173206407,-0.17676617733076,0.0912659996538361,-0.328044047245926,-0.674070471416008,-0.674070471416289,NaN,1.8183710877217,1.11338488573649,0.262063610819515,1.01970829955848,0.262063610819485,2.14540242161338,-1.34146415766736,NaN,0.415795739913645,0.75187800972331,0.593522879270126,0.425590568554445,-0.151856371362413,0.425590568556029,NaN,-1.10392874917381,0.269126704302475,NaN,0.0258350697779136,0.191961968823477,-0.041215006727061,0.0412150067269012,0.773581818286221,1.87405580006939,0.542005372666606,1.52557038535175,NaN,0.648868296945494,0.881900431936175,-0.549749342921541,-0.0297022577740226,-0.0297022577750661,-1.17350471080789,0.175962799050118,-1.34613992748945,1.31823106506124,0.120976165119767,1.04303113666822,0.491831296812283,0.0227766652537913,NaN,1.35045245687236,-1.35045245687261,-0.771998608661856
1268.8384,0.186623151998688,-0.173142124745776,0.092011345650308,-0.329663655382839,-0.668205258650762,-0.668205258651026,NaN,1.83521551197253,1.10826965186661,0.204410749468171,1.01079640978065,0.204410749468138,2.15058453398627,-1.35504889613966,NaN,0.367267433665631,0.757684831444623,0.552305953564628,0.388577885508111,-0.129873154963711,0.388577885509692,NaN,-1.091999195827,0.245876146374627,NaN,0.0260953630198269,0.175152737663459,-0.0173247421006229,0.0173247421004489,0.775558046671182,1.88092081549514,0.554368740029427,1.53807852186674,NaN,0.658325037876699,0.881546268138947,-0.563854567343823,0.00531827338767544,0.00531827338665805,-1.17817789142583,0.170766279660581,-1.35486420680258,1.31866079875107,0.111992875595344,1.03750086360783,0.491716967810587,0.00123116956342221,NaN,1.36505905671912,-1.36505905671934,-0.76271364176195
1268.9408,0.185420040339064,-0.169044866154789,0.0931323894060872,-0.331030388255809,-0.662518763196945,-0.662518763197193,NaN,1.85185580934192,1.10274848157454,0.146131557038492,1.00206168868144,0.146131557038456,2.15434073312647,-1.36710347896107,NaN,0.318653444315281,0.763280492012979,0.510949862286824,0.350369100956876,-0.108163828928718,0.350369100958454,NaN,-1.08037298257786,0.222615126990342,NaN,0.0265772395487018,0.157629377251748,0.00698913636471532,-0.00698913636490303,0.776547815424935,1.88753742532828,0.567234705786006,1.55076746534381,NaN,0.667798087913595,0.880859566393222,-0.577646541044634,0.0412799490756883,0.0412799490746871,-1.18234843147628,0.165773991340351,-1.36285242559098,1.31962160380182,0.103847536786194,1.03290426470168,0.490729583363937,-0.0197365988383323,NaN,1.3793747685092,-1.37937476850941,-0.753881441517193
1269.0432,0.1843103284977,-0.164465489666163,0.0946265466172216,-0.332124615557716,-0.657063118070366,-0.657063118070597,NaN,1.86830794207318,1.09688119722985,0.0873182665341131,0.993522943373988,0.0873182665340727,2.15667538564897,-1.37759283110303,NaN,0.270054734614559,0.768648408598973,0.469539007045561,0.311039722140916,-0.0867690015726692,0.311039722142488,NaN,-1.06905361613349,0.199392125149036,NaN,0.0272845180216229,0.139423424501514,0.0316844118544501,-0.0316844118546535,0.776569135788637,1.89393876380505,0.580562152496837,1.56363038306864,NaN,0.677275334311256,0.879849786459324,-0.591074936511853,0.078073768427747,0.0780737684267366,-1.18604893074856,0.161008434216936,-1.37013193408849,1.32111785339862,0.0965443407436103,1.02924726645457,0.488860473891096,-0.0401036337217134,NaN,1.3933867798071,-1.39338677980728,-0.745520443185824
1269.1456,0.183287311018021,-0.15939774157355,0.0964905300363934,-0.33292716888953,-0.651888298929568,-0.651888298929782,NaN,1.88458550029866,1.09072725472423,0.0280667301997838,0.985198564274123,0.0280667301997403,2.15759803691491,-1.38648758546978,NaN,0.22157158720298,0.773774076410101,0.428157810508233,0.270669286922401,-0.0657284639626665,0.270669286923967,NaN,-1.05804264354332,0.176254174941394,NaN,0.0282198325647809,0.120569674064815,0.0567173950414931,-0.056717395041711,0.775642428642221,1.9001587245253,0.594307887492607,1.576659530345,NaN,0.686743513072479,0.878527293149193,-0.604090688388229,0.115588093278366,0.115588093277373,-1.18931167139117,0.156490644154283,-1.37673052616823,1.32315257693864,0.090084192989897,1.02653267409818,0.486105964344405,-0.0598484913102479,NaN,1.40708241573555,-1.40708241573572,-0.737643725579646
1269.248,0.182345126967239,-0.1538380542779,0.0987203747351248,-0.333419418056426,-0.647041957216617,-0.647041957216812,NaN,1.90069956450275,1.08434545675099,-0.0315237879076111,0.977106418613067,-0.0315237879076586,2.15712338408736,-1.39376421680609,NaN,0.173303283660015,0.778645129072578,0.386890450397943,0.229341138110916,-0.0450812055503983,0.229341138112473,NaN,-1.04733966348337,0.153246593316743,NaN,0.0293845794116443,0.101106089241691,0.0820430446190735,-0.0820430446193084,0.773790487408334,1.90623178172058,0.608426859333904,1.58984628379425,NaN,0.696188224925169,0.876903310831689,-0.616646134809742,0.153708986318418,0.153708986317413,-1.19216840163599,0.152240089643929,-1.38267623156356,1.32572745553965,0.0844647400791704,1.02476018623687,0.482467465861038,-0.0789513496002955,NaN,1.42044909367558,-1.42044909367574,-0.73025883585975
1269.3504,0.181478788100581,-0.147785557791939,0.101311460399743,-0.333583348284889,-0.642569278392961,-0.642569278393139,NaN,1.91665857600027,1.07779365559035,-0.0913508511077472,0.969263733233249,-0.091350851107799,2.15527119948913,-1.39940511867264,NaN,0.125347787784096,0.783251388432387,0.345820594059456,0.187142174874801,-0.0248654282129788,0.187142174876352,NaN,-1.0369423691839,0.130412729124599,NaN,0.0307788811721496,0.0810736827886622,0.10761509609583,-0.107615096096076,0.771038419745382,1.91219280365754,0.62287237440922,1.60318116986165,NaN,0.70559395414985,0.874989867556325,-0.628695141118654,0.192320574993953,0.192320574992943,-1.1946501332719,0.148274583736516,-1.38799711645875,1.32884281273031,0.0796804148522424,1.02392641748077,0.477951519634001,-0.0973940640372615,NaN,1.43347424789291,-1.43347424789306,-0.723367648269686
1269.4528,0.180684192762374,-0.141242075148806,0.104258528241488,-0.33340163878307,-0.638512871717978,-0.638512871718139,NaN,1.93246821757995,1.07112844722913,-0.15130912496174,0.961686968412114,-0.151309124961797,2.152066206918,-1.40339862994141,NaN,0.0778014345194632,0.787584900668951,0.305031133920513,0.144162578063399,-0.00511855131348134,0.14416257806494,NaN,-1.02684663327442,0.107793738006977,NaN,0.0324015625118281,0.0605163569130055,0.133386193804162,-0.133386193804419,0.767413568663651,1.91807685231495,0.637596313332031,1.61665388466172,NaN,0.714944087674398,0.872799724659831,-0.640193212428687,0.231305445835375,0.231305445834351,-1.19678694882476,0.144610206839035,-1.39272108984617,1.33249759963709,0.0757224900308705,1.02402492247858,0.472569786951457,-0.115160221331207,NaN,1.44614522189032,-1.44614522189046,-0.716966276622231
1269.5552,0.179958125095243,-0.134212105080661,0.10755569014516,-0.33285774239123,-0.634912695381651,-0.634912695381796,NaN,1.94813130825073,1.06440486085584,-0.21129069218731,0.954391686437484,-0.211290692187372,2.14753791160921,-1.4057390162264,NaN,0.0307586261883956,0.791639953645724,0.264603923793815,0.10049550996291,0.0141227959886308,0.100495509964437,NaN,-1.01704664466156,0.0854283819769367,NaN,0.0342501352455274,0.0394806929746854,0.159308018930649,-0.159308018930915,0.762945417116536,1.92391896182152,0.652549350001368,1.63025330240555,NaN,0.724220931746136,0.870346286493298,-0.651097591188286,0.270545074547938,0.270545074546906,-1.19860781543205,0.14126123784517,-1.3968757133829,1.33668937178605,0.0725791368818142,1.02504621711502,0.466338987238844,-0.132235193032139,NaN,1.45844912809777,-1.4584491280979,-0.711045053613573
1269.6576,0.179298239985918,-0.126702794832071,0.111196428848835,-0.33193596405825,-0.631806015073152,-0.631806015073275,NaN,1.96364771238596,1.05767604397151,-0.271185408075387,0.947392417304142,-0.271185408075455,2.14172038364536,-1.40642640886939,NaN,-0.0156884609064844,0.795413070635584,0.224619517274717,0.0562367915056396,0.0328227951321646,0.056236791507153,NaN,-1.00753509937944,0.0633528489269943,NaN,0.0363208001517612,0.0180156897566482,0.185331410649796,-0.185331410650072,0.757665479864483,1.92975389079123,0.66768117889536,1.64396747310263,NaN,0.733405727297726,0.86764348825392,-0.661367329253034,0.309920290228217,0.309920290227193,-1.20014040227657,0.138240093741884,-1.4004880107996,1.34141425631113,0.0702354922995276,1.0269777981676,0.459280793168034,-0.148606187433217,NaN,1.4703726811587,-1.47037268115883,-0.705588579335808
1269.76,0.17870303431097,-0.118723904838532,0.115173588737879,-0.330621531500858,-0.629227392115063,-0.629227392115167,NaN,1.97901426022448,1.05099293923995,-0.330881295147624,0.940702523685722,-0.330881295147698,2.13465199846933,-1.40546670464657,NaN,-0.0614501570433184,0.798902978718486,0.18515690990746,0.011484559052434,0.0509464737092295,0.0114845590539321,NaN,-0.998303438135861,0.0416005875260976,NaN,0.0386084771720065,-0.00382754480148692,0.211406482709352,-0.211406482709638,0.751607187021923,1.93561584529493,0.682940760199992,1.65778361391374,NaN,0.742478672381397,0.864705665495608,-0.6709633225563,0.349311766073424,0.349311766072403,-1.20141089871448,0.13555728026038,-1.4035842718659,1.34666691015035,0.0686737426474122,1.02980416727403,0.451421697716672,-0.164262297257647,NaN,1.48190201815219,-1.48190201815231,-0.700575833188771
1269.8624,0.178171805053909,-0.110287767572631,0.119479356515818,-0.328900649481788,-0.627208700323507,-0.627208700323591,NaN,1.99422467694834,1.04440395038848,-0.390264977374132,0.934334070109126,-0.390264977374212,2.12637514047548,-1.40287143089226,NaN,-0.106439568898285,0.802110555005285,0.146293284213167,-0.0336610982190559,0.0684597636490576,-0.0336610982175746,NaN,-0.98934212138949,0.0202021561982557,NaN,0.0411068708959324,-0.0259961423489138,0.237482740215888,-0.237482740216184,0.744805762538674,1.94153816943225,0.698276591651766,1.6716880981889,NaN,0.751418959836512,0.861547411496591,-0.679848301087006,0.388600529731272,0.388600529730276,-1.20244383555181,0.133221355359493,-1.40618985291743,1.35244046980091,0.0678732314355087,1.03350686423312,0.442792863609839,-0.179194544672075,NaN,1.49302251848511,-1.49302251848523,-0.695980342950005
1269.9648,0.177704595048809,-0.101409242038937,0.124105231675603,-0.326760534079452,-0.625779173533922,-0.625779173533989,NaN,2.00926952039753,1.03795460017843,-0.449222154335453,0.928297701005888,-0.44922215433554,2.11693586936719,-1.39865757736229,NaN,-0.150572843965063,0.805038754374633,0.108103753952697,-0.0790985174263724,0.0853295890189721,-0.0790985174249087,NaN,-0.980640932736084,-0.000814911526298654,NaN,0.0438085693478557,-0.04843585736919,0.263509198882953,-0.263509198883256,0.73729809608237,1.94755300127855,0.713637007331444,1.68566644096642,NaN,0.760204828845478,0.858183426077431,-0.687986777964431,0.427668491344598,0.427668491343592,-1.20326192042404,0.131238903423466,-1.40832898865564,1.35872649194178,0.0678105896092399,1.03806450833597,0.433429952720186,-0.193395932002114,NaN,1.50371863427555,-1.50371863427568,-0.691770410845362
1270.0672,0.177302126572623,-0.0921056617395889,0.129041988251773,-0.324189429967923,-0.624965485708093,-0.624965485708136,NaN,2.02413613188575,1.03168718939492,-0.507638115063113,0.922602527653641,-0.507638115063206,2.10638354076221,-1.39284739020773,NaN,-0.193769432616436,0.807692517721126,0.0706611046329519,-0.12472485298583,0.101523984941245,-0.124724852984383,NaN,-0.972189299509287,-0.0214262211788313,NaN,0.04670516997008,-0.0710914814130891,0.289434503478075,-0.289434503478387,0.729122604031397,1.95369089261621,0.728970496240217,1.69970327516473,NaN,0.768813622857315,0.854628354993103,-0.695344971841989,0.466398991595719,0.466398991594739,-1.20388590209166,0.129614516483049,-1.41002463558455,1.36551488180368,0.06845988076908,1.04345284044822,0.423372926077155,-0.206861510629021,NaN,1.5139737438189,-1.51397374381901,-0.687909402186121
1270.1696,0.176965720594537,-0.082396770664098,0.134279628735631,-0.321176613764531,-0.624791865332343,-0.624791865332367,NaN,2.03880861044691,1.0256404695019,-0.565398293458457,0.917256020767737,-0.565398293458558,2.09477037135156,-1.38546812096753,NaN,-0.23595234775474,0.810078655922194,0.0340355288667722,-0.170436477921256,0.117012245276239,-0.170436477919829,NaN,-0.963976622066372,-0.0416106073349443,NaN,0.0497874295390682,-0.0939072896156685,0.315207040406777,-0.315207040407095,0.72031907664647,1.95998039306043,0.744226034224537,1.71378231455642,NaN,0.777221849025807,0.850896617912176,-0.701890716971226,0.504677372011794,0.504677372010832,-1.20433447467164,0.128350781875317,-1.41129836100154,1.37279380585466,0.0697927552931709,1.04964475941121,0.412665808189444,-0.219588479103963,NaN,1.52377003832983,-1.52377003832994,-0.684356102001218
1270.272,0.176697197830028,-0.0723046418853442,0.139807329314467,-0.317712383089169,-0.625280245613805,-0.625280245613816,NaN,2.05326782461047,1.019849343018,-0.622388866823575,0.912263906622974,-0.622388866823685,2.08215094276663,-1.37655172544708,NaN,-0.27704842197568,0.812205705540628,-0.00170564454111795,-0.21612939792854,0.131765095983102,-0.216129397927132,NaN,-0.955992608662073,-0.0613501956177453,NaN,0.0530454366462238,-0.116827519801213,0.340775042800465,-0.340775042800789,0.710928510097119,1.96644760559781,0.759353425721164,1.72788630553157,NaN,0.785405238408462,0.847002226491515,-0.707593369158848,0.542391564787579,0.542391564786634,-1.20462422565833,0.1274482787266,-1.41217028093205,1.3805495895969,0.0717786120974337,1.05661035252049,0.401356414056168,-0.231576317041161,NaN,1.53308844434928,-1.53308844434938,-0.681065140644441
1270.3744,0.176498760751667,-0.0618535770407201,0.145613376554042,-0.31378803310565,-0.62645044705534,-0.626450447055337,NaN,2.06749147107897,1.01434460427358,-0.678497390139423,0.907630069055304,-0.678497390139541,2.06858164376963,-1.36613451232013,NaN,-0.316988562847683,0.814083757894122,-0.0364982278260015,-0.261699679256836,0.145754889249621,-0.261699679255447,NaN,-0.948227613582581,-0.0806304292355669,NaN,0.0564687990477365,-0.139796873336423,0.366086687200992,-0.366086687201324,0.700992923225773,1.97311572905722,0.774303649881372,1.74199697366306,NaN,0.793338807907978,0.842958599347734,-0.712423715975556,0.579432690735967,0.579432690735036,-1.20476962621414,0.1269055856966,-1.41265904374452,1.38876660580411,0.0743847691499541,1.06431692470712,0.389496039268364,-0.24282695459175,NaN,1.54190857674542,-1.54190857674551,-0.677987484564815
1270.4768,0.176372860709328,-0.0510699890218759,0.151685098451077,-0.309395827791994,-0.6283203786802,-0.628320378680181,NaN,2.08145417875148,1.00915272894665,-0.733613447869194,0.903356465263853,-0.733613447869321,2.05412005996463,-1.35425674904397,NaN,-0.355708007147496,0.815724270793374,-0.0702814557679915,-0.307043886791988,0.158955810567223,-0.307043886790616,NaN,-0.940672972377267,-0.0994400494779898,NaN,0.0600468273896144,-0.162761013305817,0.391090174723436,-0.391090174723774,0.690555160904138,1.98000460946474,0.78902920173475,1.75609497248352,NaN,0.800996929071926,0.838778386149994,-0.716353908070944,0.615695644584037,0.615695644583128,-1.20478306141708,0.126719303815193,-1.41278185440908,1.39742715926714,0.0775766468000258,1.07272903350191,0.37713911329041,-0.253344966195717,NaN,1.55020871149587,-1.55020871149596,-0.675070984030499
1270.5792,0.176322055338044,-0.0399822699999254,0.158008793948375,-0.304528972673173,-0.630906236226823,-0.630906236226787,NaN,2.09512765175987,1.00429571623719,-0.787629302385973,0.899443066296781,-0.78762930238611,2.03882433734154,-1.34096224338813,NaN,-0.39314657463901,0.817139874182744,-0.102998268620844,-0.35205952705916,0.171344093138375,-0.352059527057807,NaN,-0.933321320785855,-0.117771028665216,NaN,0.0637686926730871,-0.185667030708771,0.415733786090492,-0.415733786090835,0.679658687564549,1.98713032438828,0.803484420757139,1.77015984435687,NaN,0.808353417467344,0.834473318337345,-0.719357436467618,0.651079644190686,0.651079644189801,-1.20467490003624,0.126884103467264,-1.41255453370656,1.40651137452164,0.0813179735671728,1.08180854079391,0.364342812516434,-0.263137765908108,NaN,1.55796576998333,-1.55796576998341,-0.67226096313816
1270.6816,0.176348860496016,-0.0286206440781495,0.164569665674725,-0.29918159012684,-0.634222677952163,-0.63422267795211,NaN,2.10848085005221,0.99979098527272,-0.840440521723604,0.895887828232889,-0.84044052172375,2.02275256612365,-1.32629793092483,NaN,-0.429248917565315,0.818344174087567,-0.134595591753816,-0.396645491862954,0.182898238176491,-0.396645491861616,NaN,-0.926166874944618,-0.13561847602153,NaN,0.067623544896519,-0.208463859776883,0.43996590833172,-0.439965908332069,0.668347377846319,1.99450481984713,0.817625804252046,1.78417000387788,NaN,0.815381658368338,0.830054101126515,-0.721409174543401,0.685488730196448,0.685488730195594,-1.20445360026365,0.127392805396087,-1.41199160235528,1.41599709673481,0.0855710223588063,1.09151469401229,0.351166631043896,-0.272215778823736,NaN,1.56515532189769,-1.56515532189776,-0.669500824955295
1270.784,0.17645560512222,-0.017017005386088,0.171351764053607,-0.293348697582214,-0.638282971023657,-0.63828297102359,NaN,2.12148020824291,0.995651327129352,-0.891946569742804,0.892686686359308,-0.891946569742959,2.00596223459644,-1.31031350268361,NaN,-0.463964752524103,0.819351553528113,-0.165024600608494,-0.44070249659482,0.193599229667564,-0.440702496593495,NaN,-0.91920565205977,-0.152980546854672,NaN,0.0716006011937784,-0.231102643880596,0.463735043400656,-0.463735043401011,0.656665318412527,2.00213560558588,0.83141229958808,1.79810274342967,NaN,0.82205476597775,0.825530340343539,-0.722485475031763,0.718832217699922,0.718832217699092,-1.2041258359256,0.128236491994226,-1.41110637310649,1.4258598171564,0.09029686716197,1.10180423859844,0.337671927493452,-0.280592573421014,NaN,1.57175162282625,-1.57175162282632,-0.666732630817856
1270.8864,0.176644303666428,-0.00520474906541259,0.178337953538011,-0.287026193532005,-0.643099114106017,-0.643099114105933,NaN,2.13408988545733,0.991884912755911,-0.942051338584538,0.889833553447094,-0.942051338584704,1.98850977400156,-1.29306109058903,NaN,-0.497249054790428,0.82017697311159,-0.194240952509907,-0.484133502368219,0.203430712524697,-0.484133502366908,NaN,-0.912435629510792,-0.169858364393554,NaN,0.0756892283722953,-0.253537065059068,0.486989815865974,-0.486989815866333,0.644656638132439,2.01002549843136,0.844805560368859,1.81193424456209,NaN,0.828345746888393,0.820910472932027,-0.722564280450842,0.751025107321599,0.751025107320804,-1.20369661652465,0.129404625944908,-1.40991103104275,1.43607262891957,0.0954556305728336,1.11263154671868,0.323921492357353,-0.288284955128958,NaN,1.5777276874465,-1.57772768744656,-0.663897614126473
1270.9888,0.176916557865154,0.00678139395297675,0.185509906789681,-0.28021085730425,-0.648681943907356,-0.648681943907259,NaN,2.14627203121193,0.988495352339507,-0.990663606916743,0.887320307922443,-0.990663606916918,1.97045017700505,-1.27459499892931,NaN,-0.529062200243547,0.820835781249681,-0.222204969209585,-0.526844109439452,0.212379106399766,-0.526844109438155,NaN,-0.905856858959583,-0.186255937218314,NaN,0.0798790422595967,-0.275723643282206,0.509678997752631,-0.509678997752993,0.632365373120205,2.01817240012897,0.857770155637857,1.82563957947383,NaN,0.834227637023312,0.816201673459603,-0.721625204812033,0.781988457604735,0.781988457603964,-1.20316937798129,0.130885151231812,-1.40841668781627,1.44660621382473,0.101006695977219,1.12394874564345,0.30997917373234,-0.295313027071138,NaN,1.58305537956666,-1.58305537956672,-0.660936613337728
1271.0912,0.177273486412928,0.0189055115997286,0.1928481214144,-0.272900363935638,-0.655041226940017,-0.655041226939901,NaN,2.15798705586652,0.985481796178354,-1.03769742366056,0.885136775511261,-1.03769742366074,1.95183665865872,-1.25497145459468,NaN,-0.559370056120679,0.821343543659968,-0.248881768346957,-0.568742915680551,0.220433661291249,-0.568742915679263,NaN,-0.899471553132833,-0.202180055672471,NaN,0.084160027426434,-0.297621999644466,0.531751558524655,-0.531751558525021,0.619835354734777,2.02656910746662,0.870273738989436,1.83919270581854,NaN,0.839673609527315,0.811409740718224,-0.71964957977471,0.811649714883553,0.811649714882805,-1.20254604144602,0.132664571123188,-1.40663340966276,1.45742885923371,0.106908884499589,1.135705845231,0.295909556644368,-0.301700219552743,NaN,1.58770550373069,-1.58770550373074,-0.657790442372992
1271.1936,0.177715669749366,0.0311306545556533,0.200331946025478,-0.265093309247657,-0.662185733848635,-0.662185733848501,NaN,2.16919390329376,0.982839066858444,-1.08307243547921,0.883270723184383,-1.0830724354794,1.93272034090385,-1.23424835727847,NaN,-0.588144037039606,0.821715894388311,-0.274241357712988,-0.60974184451517,0.227586491268693,-0.609741844513892,NaN,-0.893284150417406,-0.21764016779322,NaN,0.0885226632306322,-0.319195074802588,0.553156729780131,-0.553156729780498,0.607110099994757,2.03520316404045,0.882287194311015,1.85256647179737,NaN,0.844657076877983,0.806538993876822,-0.716620493425726,0.839942996359541,0.839942996358807,-1.20182705990266,0.134728017943885,-1.40457023505047,1.46850650065885,0.113120620177468,1.14785087654689,0.281777656091181,-0.307473289324455,NaN,1.59164790255494,-1.59164790255499,-0.654400235071646
1271.296,0.178243097124486,0.043418973598041,0.207939604883876,-0.256789236345245,-0.670123296087811,-0.670123296087658,NaN,2.17985032879398,0.980557817419303,-1.12671418122028,0.881707883719239,-1.12671418122048,1.91314995794249,-1.21248502793791,NaN,-0.615361144236694,0.821968402080846,-0.298258710083153,-0.64975645291006,0.233832623251946,-0.649756452908795,NaN,-0.887301349558226,-0.232648245420362,NaN,0.092958038362283,-0.3404092988089,0.573844067972111,-0.573844067972483,0.594232690905502,2.04405676494998,0.893784767607999,1.86573264485198,NaN,0.849151811152881,0.801592205819988,-0.712522853718737,0.866809325287889,0.866809325287169,-1.2010114777791,0.137059333200754,-1.40223520245714,1.47980278303773,0.119600108054727,1.16033005255786,0.267648585373729,-0.3126622945947,NaN,1.59485157543615,-1.59485157543621,-0.650707790970653
1271.3984,0.178855110013292,0.0557318571337879,0.215648218898136,-0.247988657580576,-0.678860846987294,-0.678860846987118,NaN,2.18991318723775,0.978624714649654,-1.16855436616386,0.880432013695647,-1.16855436616407,1.89317159154588,-1.18974196650781,NaN,-0.641003995593262,0.822116439617607,-0.320913828888093,-0.688706227663951,0.239170076784913,-0.688706227662699,NaN,-0.881532104839115,-0.24721865145812,NaN,0.0974579442623929,-0.361234714297881,0.593763508530061,-0.593763508530437,0.581245640772283,2.05310672033492,0.904744184969529,1.87866196766959,NaN,0.853132092349285,0.796570585055426,-0.707343490281339,0.892196820423327,0.892196820422599,-1.20009701741142,0.139641168894046,-1.39963539916368,1.49127913722179,0.12630553616037,1.17308795549509,0.253587186468597,-0.317300552147365,NaN,1.59728483037121,-1.59728483037126,-0.646655927661518
1271.5008,0.179550340432257,0.0680300760291456,0.223433825586814,-0.238693071706019,-0.68840444742075,-0.688404447420553,NaN,2.19933873472265,0.977022646549158,-1.20853111705287,0.879424973821085,-1.20853111705309,1.87282844821175,-1.1660806314434,NaN,-0.665060844946484,0.822175047462374,-0.342191806282981,-0.726514871149984,0.243599969896569,-0.726514871148743,NaN,-0.8759875825873,-0.261368013406441,NaN,0.102014947268158,-0.381645056653148,0.612865414444852,-0.612865414445234,0.568190750494799,2.06232447634735,0.91514675734086,1.89132424107027,NaN,0.856572884907934,0.791473806155219,-0.701071293351694,0.916060840532981,0.916060840532245,-1.19908019279458,0.142455113748164,-1.39677702946893,1.50289487164339,0.13319530253285,1.18606775161597,0.239657631406057,-0.321424576640074,NaN,1.59891546765865,-1.59891546765871,-0.642188834373752
1271.6032,0.180326643589818,0.0802739393678136,0.231271399508771,-0.228904974535012,-0.698759294900651,-0.698759294900429,NaN,2.20808293831057,0.97573094953821,-1.24658921388249,0.878666821564438,-1.24658921388272,1.85216067687351,-1.14156323830422,NaN,-0.687525586080173,0.822158792565691,-0.362082868988611,-0.763110571187058,0.247126637708934,-0.763110571185826,NaN,-0.870681089719102,-0.275115098211382,NaN,0.106622441546696,-0.40161779270449,0.631100625358032,-0.631100625358417,0.555108957926611,2.07167618643736,0.924977475948038,1.90368843191652,NaN,0.859450038183776,0.7863000835028,-0.693697381820733,0.938364079642695,0.938364079641945,-1.19795644245928,0.145481843133577,-1.3936654929671,1.51460727878173,0.140228265275637,1.19921143177598,0.225923010304512,-0.325073994731547,NaN,1.59971098084479,-1.59971098084486,-0.637252422472676
1271.7056,0.181181026046835,0.092423459564331,0.239134873463968,-0.218627854508623,-0.70992971694372,-0.709929716943475,NaN,2.2161017781751,0.974725648507282,-1.28268029260758,0.878135914700158,-1.28268029260781,1.83120520802825,-1.11625255543828,NaN,-0.708397734758971,0.822081635389479,-0.380582402260863,-0.798426245866886,0.249757748849443,-0.798426245865663,NaN,-0.865627984598959,-0.288480675964143,NaN,0.111274681537537,-0.421134118413757,0.648420512933442,-0.64842051293383,0.5420401854066,2.08112282243138,0.934225098918292,1.91572279987191,NaN,0.861740500708306,0.781046277159453,-0.685215284870166,0.959076606366044,0.959076606365247,-1.19672026806397,0.148701285795102,-1.3903054602843,1.52637175574767,0.147364007794919,1.21246007220669,0.212444920411864,-0.328291424413101,NaN,1.59963875450509,-1.59963875450516,-0.631794667448201
1271.808,0.18210957388503,0.10443852335104,0.246997163079954,-0.207866162724566,-0.721919150460694,-0.721919150460427,NaN,2.22335152453835,0.973979703118193,-1.31676301116365,0.877809025995896,-1.31676301116389,1.80999559531508,-1.09021167632459,NaN,-0.72768238072851,0.821956817648384,-0.39769094106151,-0.832399753657363,0.251504402564058,-0.832399753656145,NaN,-0.860845573637604,-0.301487361317864,NaN,0.115966792885808,-0.440178916166038,0.664777048555441,-0.664777048555829,0.529023194339659,2.09062031473643,0.942882223264446,1.92739503249412,NaN,0.863422534461268,0.775708015442409,-0.675621115197523,0.978175842043678,0.978175842042834,-1.19536536544696,0.152092797111495,-1.38670093579552,1.53814193762991,0.154563104743917,1.22575410508866,0.199283070979414,-0.331122316066903,NaN,1.5986662430885,-1.59866624308858,-0.625765931092766
1271.9104,0.183107388311416,0.116279065907539,0.254830200838697,-0.196625253593128,-0.734730106668839,-0.734730106668551,NaN,2.22978897941143,0.973463256294122,-1.34880317141392,0.877661465026363,-1.34880317141418,1.78856186076384,-1.0635037693837,NaN,-0.745390104176817,0.821796775871138,-0.413414122027281,-0.864974062773058,0.252381192217488,-0.864974062771843,NaN,-0.856352987456588,-0.314159432060299,NaN,0.120694768960379,-0.458740672744322,0.680122892609899,-0.680122892610284,0.516095457099115,2.10011971669651,0.950945331915722,1.9386723786931,NaN,0.864475917270519,0.770279820971756,-0.66491371364688,0.995646476693769,0.995646476692884,-1.19388474180084,0.155635328785338,-1.38285530527185,1.54986984114531,0.161787372940994,1.239033586886,0.186494917862235,-0.333614760698065,NaN,1.59676112734464,-1.59676112734474,-0.619119244992292
1272.0128,0.184168536997319,0.127905244326274,0.26260498587371,-0.184911302516507,-0.748364119622703,-0.748364119622399,NaN,2.23537168300413,0.973143884138015,-1.37877379270487,0.877667203609301,-1.37877379270514,1.76693036235774,-1.03619182186571,NaN,-0.761536856844672,0.821613078916461,-0.427762596962694,-0.896097379184781,0.252406231355352,-0.896097379183569,NaN,-0.85217102179263,-0.326522634831558,NaN,0.125455467284559,-0.47681136016921,0.694411514568444,-0.694411514568826,0.503293052997823,2.10956739770722,0.958414803901974,1.94952177548572,NaN,0.864882124569743,0.764755233453064,-0.653094755477537,1.01148032861125,1.01148032861033,-1.192270821922,0.159307586029179,-1.3787713771928,1.56150601819321,0.169000094198928,1.25223845565096,0.17413533334138,-0.335819274642402,NaN,1.59389145672358,-1.59389145672369,-0.611810532672346
1272.1152,0.185286026962457,0.139277604781823,0.270291652263235,-0.172731214264566,-0.762821678683532,-0.762821678683213,NaN,2.24005808959183,0.97298684845345,-1.40665513671677,0.877799006506279,-1.40665513671705,1.7451236998808,-1.00833839250277,NaN,-0.776143812480582,0.821416383880618,-0.440751913681402,-0.925723235504138,0.251601145684613,-0.925723235502928,NaN,-0.848321928578872,-0.33860398790818,NaN,0.13024661596003,-0.494386281637112,0.707597345498997,-0.707597345499378,0.490650588005855,2.11890527475944,0.965294878698295,1.95990996805844,NaN,0.864624485127359,0.75912692900662,-0.640168820278476,1.02567615651123,1.02567615651026,-1.19051555241538,0.1630881660015,-1.37445143223289,1.57299972173222,0.176166201913164,1.26530877376399,0.16225630686179,-0.33778856888174,NaN,1.59002579023381,-1.59002579023393,-0.603798755862876
1272.2176,0.186451800334191,0.150357238620071,0.277859554434033,-0.160092535579244,-0.77810215024313,-0.778102150242803,NaN,2.2438077185264,0.972955353396795,-1.43243468630666,0.878028570926376,-1.43243468630694,1.72316066292799,-0.980005379237107,NaN,-0.789237192178131,0.821216404133582,-0.452402370976165,-0.953810543892182,0.249991033863676,-0.953810543890979,NaN,-0.844829150883466,-0.350431586320213,NaN,0.13506682971848,-0.511463886062492,0.719635958728858,-0.719635958729241,0.478201133354869,2.12807108823599,0.971593572970363,1.96980362558222,NaN,0.863688310216728,0.75338683881975,-0.626143432641704,1.03823943199167,1.03823943199066,-1.18861051140492,0.166955675531817,-1.36989729134763,1.58429908614478,0.183252428974051,1.27818495610882,0.150906670828853,-0.339577306870409,NaN,1.58513334763642,-1.58513334763655,-0.595045985640489
1272.32,0.187656749578441,0.161105926063561,0.285277365432298,-0.147003379248005,-0.794203696300141,-0.7942036962998,NaN,2.24658128635305,0.973010806258878,-1.45610708341582,0.87832667686625,-1.45610708341611,1.70105621834675,-0.951253802133158,NaN,-0.800848069734366,0.821021884365898,-0.462738853800918,-0.98032361780204,0.247604402852967,-0.980323617800841,NaN,-0.841717005677712,-0.362034413366093,NaN,0.139915630081999,-0.528045556305406,0.730484276722657,-0.730484276723042,0.465976176960572,2.13699872278977,0.977322557256802,1.97916945831963,NaN,0.862061003493752,0.747526273166568,-0.611029082124856,1.04918207859924,1.0491820785982,-1.1865470253888,0.17088883137834,-1.3651104026293,1.59535132293988,0.190227421118207,1.29080798698223,0.140131845965601,-0.341241847536817,NaN,1.5791841782331,-1.57918417823325,-0.585517412145786
1272.4224,0.188890744644049,0.171486271117468,0.292513182364109,-0.133472359178405,-0.81112319236529,-0.811123192364939,NaN,2.24834082426034,0.973113078754519,-1.47767403273844,0.87866334828887,-1.47767403273874,1.67882153124171,-0.922143596294265,NaN,-0.81101216294601,0.820840578885646,-0.471790655030183,-1.00523216839062,0.244473089953766,-1.00523216838943,NaN,-0.839010326952472,-0.373442158513205,NaN,0.144793464006971,-0.544135371247801,0.740100805729638,-0.740100805730028,0.4540055798834,2.14561857467437,0.982497006596497,1.98797434621581,NaN,0.859732167480416,0.741536063346669,-0.594839234161265,1.05852217821516,1.05852217821408,-1.18431629189194,0.174866552090994,-1.36009194009675,1.60610293152788,0.197061827486859,1.30311963320001,0.129973596521382,-0.342839965265748,NaN,1.57214934406653,-1.57214934406668,-0.575181315020243
1272.5248,0.190142665329332,0.181461833563146,0.299534635521886,-0.119508530254191,-0.828856141179788,-0.82885614117942,NaN,2.24904978075643,0.973220764476361,-1.49714417545565,0.879008020769343,-1.49714417545597,1.6564640126277,-0.892733409130603,NaN,-0.819769614338957,0.82067923117832,-0.47959128748596,-1.02851127936913,0.240632177361171,-1.02851127936794,NaN,-0.836734080337981,-0.384685035027139,NaN,0.149701718293963,-0.559739837185627,0.748445899208448,-0.748445899208841,0.442317532886682,2.15385796648043,0.98713543538815,1.99618548642461,NaN,0.856693718883683,0.735406730786193,-0.577590338043345,1.06628363972786,1.06628363972674,-1.18190950548734,0.178868049489941,-1.35484290685715,1.6164999232122,0.203728379002314,1.31506265894572,0.120469793164688,-0.344430543299599,NaN,1.5640011096128,-1.56400110961296,-0.564009010957744
1272.6272,0.191400439223841,0.190997259909528,0.306309002634679,-0.105121325245347,-0.847396579623778,-0.847396579623395,NaN,2.2486731065587,0.973291432418429,-1.5145329306552,0.879329706812554,-1.51453293065554,1.63398739116092,-0.863080402557586,NaN,-0.827164756705942,0.820543555256122,-0.48617828197997,-1.05014136005307,0.236119886899609,-1.05014136005188,NaN,-0.83491294971571,-0.395793592394673,NaN,0.154642734895859,-0.574867589464369,0.755482050505263,-0.755482050505658,0.430938518407072,2.16164160496692,0.991259515663606,2.00377055654651,NaN,0.852940007802037,0.7291286757271,-0.559301820500145,1.07249582862489,1.07249582862375,-1.17931797925071,0.182872916903999,-1.34936423448648,1.62648805612031,0.210201952190735,1.32658103915314,0.111654204993936,-0.346073245452985,NaN,1.55471313649235,-1.55471313649251,-0.551974772431127
1272.7296,0.192651090137301,0.200058411050895,0.312803331989938,-0.0903204836658356,-0.866736978955334,-0.866736978954932,NaN,2.24717732181517,0.973281879496397,-1.52986229748693,0.879597150997866,-1.52986229748728,1.61139181356315,-0.83324006593312,NaN,-0.83324585363973,0.820438220478595,-0.491592962180603,-1.0701080742159,0.230977435114917,-1.07010807421472,NaN,-0.833570889814321,-0.406798528037936,NaN,0.159619838205997,-0.589529073384786,0.761174215166849,-0.761174215167249,0.4198932900076,2.16889207501705,0.994893872185809,2.01069788485465,NaN,0.848467926612455,0.72269236814484,-0.5399960452539,1.07719316437232,1.07719316437116,-1.17653324915479,0.186861205085535,-1.34365686841016,1.63601308063223,0.216459608370061,1.33762016454012,0.103556351143815,-0.347828170395052,NaN,1.54426068858524,-1.54426068858541,-0.539055697680011
1272.832,0.193880799831004,0.208612485919848,0.318984576907726,-0.0751159710483841,-0.886868138071896,-0.886868138071468,NaN,2.244530571981,0.973148383495211,-1.54316061401845,0.879778971701678,-1.54316061401881,1.58867398288821,-0.803266045620534,NaN,-0.838064810103465,0.820366840847044,-0.495880191614742,-1.08840224405385,0.225248841188843,-1.08840224405268,NaN,-0.832730640870893,-0.417730506572617,NaN,0.164637381309162,-0.603736215191167,0.765490160247936,-0.765490160248341,0.409204877711108,2.17553036561135,0.998065849903695,2.01693662197856,NaN,0.843276999792205,0.716088529571375,-0.51969822916551,1.08041469520169,1.0804146952005,-1.1735471547475,0.190813481755694,-1.33772183338682,1.64502099692621,0.222480602136671,1.34812703553192,0.0962014233125496,-0.349755485457711,NaN,1.53262085349176,-1.53262085349194,-0.525231520466336
1272.9344,0.19507498329414,0.216628140620399,0.324819741520174,-0.0595178909697536,-0.907779070928143,-0.907779070927696,NaN,2.24070267690901,0.972846953980932,-1.55446227678064,0.879843790975678,-1.55446227678102,1.56582733938706,-0.773209992451701,NaN,-0.841676857501397,0.820331970658473,-0.499088096189949,-1.1050197314855,0.218980696952157,-1.10501973148433,NaN,-0.832413207639875,-0.428619986403983,NaN,0.169700810144422,-0.617502090302199,0.768400834622373,-0.768400834622782,0.398894618619347,2.18147642632135,1.00080525250994,2.02245691227973,NaN,0.837369451236858,0.709308303659993,-0.498436316825939,1.08220365550303,1.08220365550183,-1.17035190084763,0.194710874476035,-1.33156028510384,1.65345832573616,0.228246356719008,1.3580504442926,0.0896102693270596,-0.351915036961193,NaN,1.51977277956522,-1.51977277956541,-0.510484363095309
1273.0368,0.196218376242687,0.22407559822865,0.330276033731255,-0.0435363970213524,-0.92945689400125,-0.92945689400078,NaN,2.23566516859732,0.972333574849981,-1.56380743258949,0.879760359745178,-1.56380743258988,1.54284227618498,-0.74312142102379,NaN,-0.844140225093462,0.820335111296698,-0.501267771288467,-1.11996130013822,0.212221913990464,-1.11996130013706,NaN,-0.832637314873428,-0.439497043471024,NaN,0.174816741674755,-0.630840589350412,0.769880751946064,-0.76988075194648,0.388982203950221,2.18664975048895,1.0031440559408,2.02723006509666,NaN,0.83075024858277,0.702343420068,-0.476240822547218,1.08260700495358,1.08260700495237,-1.16694011241621,0.19853509686952,-1.3251735628582,1.66127238879777,0.233740407360703,1.36734114304344,0.0837994217013631,-0.354365943590227,NaN,1.50569791739606,-1.50569791739625,-0.494798447819585
1273.1392,0.197295129536041,0.230926744959315,0.335321017437708,-0.0271816144895821,-0.951886721176819,-0.951886721176326,NaN,2.22939131200637,0.971564432168243,-1.57124165897081,0.879497687951649,-1.5712416589712,1.51970637547865,-0.713047574931374,NaN,-0.845515814458483,0.820376734275796,-0.502472986686593,-1.13323246172513,0.205023459663418,-1.13323246172397,NaN,-0.833418864343287,-0.450391183739975,NaN,0.179993051552914,-0.643766078509817,0.769908373841216,-0.769908373841639,0.379485730296183,2.19096997349913,1.0051161098487,2.03122872734644,NaN,0.823427132170162,0.695186361939085,-0.453144659798595,1.08167495056365,1.08167495056244,-1.16330489791245,0.202268464959494,-1.31856325833179,1.66841158845722,0.238948325119425,1.37595199902718,0.0787811540478627,-0.357166190314268,NaN,1.49038025240049,-1.4903802524007,-0.478159792372532
1273.2416,0.19828890189291,0.237155216756884,0.339922757497914,-0.0104635778667682,-0.975051571806632,-0.975051571806115,NaN,2.22185611187608,0.970496125742879,-1.57681564829971,0.879025180793628,-1.57681564830012,1.49640465791859,-0.683033304196219,NaN,-0.845866892017611,0.820456323643867,-0.502759901656058,-1.14484331128617,0.197438091356385,-1.14484331128502,NaN,-0.834770429083406,-0.461331147316376,NaN,0.185238962677889,-0.656293055746637,0.768466479436432,-0.768466479436859,0.370421746301461,2.19435746664124,1.006756844205,2.03442705680675,NaN,0.815410641875217,0.687830545256907,-0.429182983991123,1.07946046330219,1.07946046330098,-1.15943993294092,0.20589391728571,-1.3117313072245,1.67482567334258,0.243857640286988,1.38383813903018,0.0745635467702177,-0.360372245982583,NaN,1.4738065223152,-1.47380652231541,-0.460555920675067
1273.344,0.199182943689584,0.242736486457043,0.344049955874469,0.0066078172810502,-0.998932298466959,-0.998932298466413,NaN,2.2130363128891,0.969085867157296,-1.58058490201827,0.878312769619354,-1.58058490201869,1.47291984544684,-0.653120969368495,NaN,-0.845258803283922,0.820572439370385,-0.502186793005774,-1.15480835568351,0.18952009694625,-1.15480835568236,NaN,-0.836700818648005,-0.472344712170028,NaN,0.190565122401192,-0.668435814942355,0.765542512782509,-0.765542512782944,0.361805291940107,2.19673390714778,1.00810299071639,2.0368008904763,NaN,0.806714148773484,0.680270507516234,-0.404393063954101,1.07601880657063,1.07601880656943,-1.15533956267156,0.209395047541921,-1.30468009688515,1.68046598286648,0.248457775347993,1.390957084625,0.0711505475559607,-0.36403872184048,NaN,1.45596641613707,-1.45596641613729,-0.441975615747303
1273.4464,0.199960168788783,0.247647956851416,0.347672078884407,0.0240228525313496,-1.02350753990878,-1.02350753990821,NaN,2.2029103999551,0.967291668226491,-1.58260943436397,0.877331029284222,-1.58260943436441,1.44923263345672,-0.623350377771642,NaN,-0.84375870307044,0.820722797519153,-0.500813792217048,-1.16314633842695,0.181325047130998,-1.16314633842581,NaN,-0.839214727682562,-0.483458494380575,NaN,0.195983659024287,-0.680208133641141,0.761128904820245,-0.761128904820686,0.35364993203266,2.19802281193649,1.0091923199028,2.03832790083026,NaN,0.797353889617219,0.672502096662894,-0.378814183139876,1.07140708987457,1.07140708987338,-1.15099891220698,0.212756149015857,-1.29741257700691,1.68528566973409,0.252739986721811,1.39726887703784,0.0685420211965592,-0.368218072743584,NaN,1.43685274981312,-1.43685274981335,-0.422408732371624
1273.5488,0.200603215764263,0.25186905426339,0.350759473857723,0.0417720143696992,-1.04875369581328,-1.04875369581268,NaN,2.1914586067004,0.965072524673582,-1.58295348547183,0.876051290020782,-1.58295348547227,1.42532195815719,-0.593758741004099,NaN,-0.841435297016834,0.820904354950293,-0.498702631240251,-1.16988006178186,0.172909563941192,-1.16988006178073,NaN,-0.842312455050244,-0.494697731378985,NaN,0.201508214145544,-0.691622996449778,0.755223366561478,-0.755223366561921,0.345967789411286,2.19815002635902,1.01006339435226,2.0389877349118,NaN,0.787348999626546,0.66452265286269,-0.352487566094425,1.06568385624402,1.06568385624284,-1.14641399820114,0.215962266583119,-1.28993236755667,1.68923989984045,0.256697314677286,1.40273619079288,0.0667337919577494,-0.37296033113648,NaN,1.41646162168545,-1.41646162168568,-0.401846076817446
1273.6512,0.201094503732584,0.255381312590391,0.353283474777845,0.0598460053861431,-1.07464490902474,-1.07464490902412,NaN,2.17866294027793,0.962388600343415,-1.58168524115098,0.874445754886173,-1.58168524115143,1.40116524463537,-0.564380636943476,NaN,-0.838358590968087,0.821113390101565,-0.495916396417809,-1.17503620369031,0.164331107315016,-1.17503620368918,NaN,-0.845989677481355,-0.506086048928843,NaN,0.207153948907391,-0.702692363341662,0.747829148056547,-0.747829148056997,0.338769586261013,2.19704415794069,1.01075534068573,2.03876213172685,NaN,0.776721537273074,0.656331174012716,-0.325456322648324,1.05890870919148,1.0589087091903,-1.1415818373544,0.21899925090211,-1.28224386159862,1.69228602896168,0.26032454046745,1.4073244350781,0.0657176876276309,-0.378312862123106,NaN,1.3947925594638,-1.39479255946403,-0.380279352671453
1273.7536,0.201416289160132,0.258168442161419,0.355216500191432,0.0782357330707293,-1.10115303696027,-1.10115303695962,NaN,2.16450722650845,0.959201415211281,-1.57887654973487,0.872487621944414,-1.57887654973533,1.37673863398878,-0.535247969579281,NaN,-0.834599641093012,0.821345582830892,-0.492519283343623,-1.17864512430755,0.155647775468593,-1.17864512430643,NaN,-0.850237271385531,-0.517645233900448,NaN,0.212937521044487,-0.713426988076507,0.738955254010056,-0.738955254010509,0.332064701590221,2.19463694783217,1.01130764041361,2.03763501354167,NaN,0.765496491759892,0.647928452364619,-0.297765399416671,1.05114198036049,1.05114198035931,-1.1365005430073,0.221853809228738,-1.27435231537603,1.69438375847484,0.263618145514923,1.41100184110423,0.0654815947977348,-0.384320130199575,NaN,1.37184866454221,-1.37184866454244,-0.357701164800343
1273.856,0.201550726985899,0.260216384413973,0.356532147394077,0.0969322752553169,-1.12824760010083,-1.12824760010015,NaN,2.14897717479021,0.955474036157562,-1.57460262795762,0.870151204770904,-1.57460262795809,1.35201720453809,-0.506389936842228,NaN,-0.830230298912502,0.821596096504211,-0.488576346543232,-1.18074065822251,0.146918111018409,-1.1807406582214,NaN,-0.855041176172794,-0.529395031585087,NaN,0.218877032694259,-0.723836280084519,0.728616603350087,-0.728616603350541,0.32586124736519,2.19086358393607,1.01175993653136,2.03559255144275,NaN,0.753701767132923,0.639317176455569,-0.269461532310255,1.0424444327081,1.04244443270691,-1.13116940504348,0.22451355205356,-1.26626392020187,1.69549527219464,0.266576270729083,1.41373953573592,0.0660095294519239,-0.391023471357823,NaN,1.34763674938076,-1.34763674938099,-0.334105067361444
1273.9584,0.201479935150226,0.261513356344096,0.357205284231487,0.115926825010299,-1.15589570811335,-1.15589570811265,NaN,2.13206045917919,0.951171265948975,-1.56894175633765,0.867412047977166,-1.56894175633814,1.32697520904555,-0.477833024756624,NaN,-0.825322951618987,0.821859658220398,-0.484153245544256,-1.181359891714,0.138200908566516,-1.18135989171289,NaN,-0.860382291837353,-0.541352974624638,NaN,0.224991952749107,-0.733928194989363,0.716834123185277,-0.716834123185735,0.32016615874924,2.18566297068234,1.0121518495583,2.03262321026307,NaN,0.741368142700114,0.630502003332521,-0.240593200468106,1.03287699147141,1.03287699147019,-1.12558895905889,0.226967038910277,-1.25798586159142,1.69558535412998,0.269198679882406,1.41551160380605,0.067281719735573,-0.398460869525317,NaN,1.32216746690118,-1.3221674669014,-0.309485642453314
1274.0608,0.201186059425548,0.262049887776409,0.357212137081907,0.135210617849954,-1.18406197419925,-1.18406197419853,NaN,2.11374681162112,0.946259825765178,-1.56197496873428,0.864247036395413,-1.56197496873478,1.30158633823088,-0.449601036383808,NaN,-0.819950261513815,0.8221306342397,-0.479315991604279,-1.18054292592134,0.129555025028634,-1.18054292592024,NaN,-0.866236415678854,-0.553534252526559,NaN,0.231303015966934,-0.743709145787565,0.703634776710041,-0.703634776710505,0.314985290026523,2.17897797086545,1.01252279359768,2.02871777616724,NaN,0.728529209342938,0.62148960702493,-0.211210583447222,1.0225004996524,1.02250049965115,-1.11976105395819,0.229203824271499,-1.24952637640641,1.69462148815104,0.271486727660048,1.41629514023771,0.069274693235798,-0.406666741023404,NaN,1.29545543737814,-1.29545543737836,-0.283838604916017
1274.1632,0.200651334205515,0.261818854059816,0.35653037205929,0.154774844989307,-1.21270843137339,-1.21270843137264,NaN,2.09402812565647,0.940708528814039,-1.55378574046168,0.860634496492882,-1.55378574046219,1.27582400078888,-0.421715146564425,NaN,-0.814184908924284,0.822403104401578,-0.474130697821986,-1.17833262765124,0.12103919376955,-1.17833262765014,NaN,-0.872574231987138,-0.565951625597461,NaN,0.237832099494582,-0.753183935927456,0.689051531787328,-0.689051531787797,0.310323508604896,2.17075562641598,1.01291178558948,2.02386936661152,NaN,0.715221280584878,0.612288705034204,-0.181365522833932,1.01137550119871,1.01137550119743,-1.1136889224024,0.231214501975845,-1.2408948143513,1.69257394333802,0.273443327242302,1.41607029138787,0.071961361995704,-0.415671732435599,NaN,1.2675193711878,-1.26751937118803,-0.257160937602346
1274.2656,0.199858134304623,0.260815508076721,0.355139166593714,0.174610559529094,-1.24179446403521,-1.24179446403444,NaN,2.07289856894324,0.934488443117613,-1.54445967678332,0.856554287123891,-1.54445967678383,1.24966160176843,-0.39419396751883,NaN,-0.808099340533955,0.822670941678425,-0.46866333250024,-1.17477437073293,0.112711839116277,-1.17477437073184,NaN,-0.879361363310918,-0.578615366814736,NaN,0.244602079594102,-0.762355715676423,0.673123279459928,-0.6731232794604,0.306184781933298,2.16094735681811,1.0133572481586,2.01807342214698,NaN,0.701483280965653,0.602910063311612,-0.151111489329652,0.99956205550936,0.999562055508066,-1.1073772499689,0.23299074725972,-1.23210169924865,1.68941584896789,0.275072911960873,1.41482028495546,0.0753111028199286,-0.425502536512712,NaN,1.23838217314466,-1.23838217314489,-0.229451065161359
1274.368,0.198789015008162,0.259037514157435,0.35301927004594,0.194708582275187,-1.27127676522642,-1.27127676522563,NaN,2.05035469791768,0.927573039430261,-1.53408419910649,0.851987876513044,-1.53408419910701,1.22307280606333,-0.36705361608614,NaN,-0.801765520489895,0.822927902163072,-0.462979471838736,-1.16991577039269,0.104630885357519,-1.16991577039161,NaN,-0.886558482337194,-0.591533206753947,NaN,0.251636672719254,-0.771225960559553,0.655894713927067,-0.655894713927538,0.302572254180894,2.14950913264701,1.01389680918486,2.01132768058115,NaN,0.687356617575471,0.593366480324264,-0.120503554651103,0.987119581225748,0.987119581224421,-1.10083222978319,0.23452535472492,-1.22315877472462,1.68512326118742,0.276381387843977,1.41253144787976,0.0792898321098143,-0.436181725306635,NaN,1.20807101197701,-1.20807101197724,-0.200709070926365
1274.4704,0.197426741254098,0.256484982579031,0.35015305350164,0.215059409644283,-1.30110932145665,-1.30110932145584,NaN,2.02639556647208,0.919938320437786,-1.52274822499712,0.846918405871274,-1.52274822499766,1.19603178479381,-0.340307782157434,NaN,-0.79525468153223,0.823167730137851,-0.457144048124141,-1.16380641119935,0.0968535543030569,-1.16380641119827,NaN,-0.894121476424895,-0.604710274164467,NaN,0.258960265436081,-0.779794470602783,0.637416187378951,-0.637416187379421,0.299488312281648,2.13640162501124,1.01456709943584,2.00363213488002,NaN,0.672885040035666,0.5836727503105,-0.0895983653897495,0.97410672346263,0.974106723461275,-1.09406158953802,0.235812270024839,-1.21407901944067,1.67967522135997,0.277376077511213,1.40919321252003,0.0838600753659012,-0.447727591800847,NaN,1.17661734810671,-1.17661734810694,-0.170936948939009
1274.5728,0.195754308512707,0.253160501520833,0.346524549580578,0.235653123464563,-1.33124341788195,-1.33124341788112,NaN,2.00102282754407,0.911562932056694,-1.51054184019539,0.84133073966661,-1.51054184019593,1.16851345789337,-0.313967809557254,NaN,-0.788637075406044,0.823384280562141,-0.451221092061981,-1.15649756795059,0.0894361450740349,-1.15649756794952,NaN,-0.902001656404826,-0.61814905137063,NaN,0.266597737338788,-0.788059391143517,0.61774354855315,-0.617743548553616,0.296934644123182,2.12159033128727,1.01540355068921,1.99498897666898,NaN,0.658114490197451,0.573845603410276,-0.0584541132473028,0.960581240851906,0.960581240850525,-1.08707458568344,0.236846614556833,-1.20487662584828,1.67305380627104,0.278065658170151,1.40479811304217,0.0889810392630197,-0.460153991843312,NaN,1.1440569255644,-1.14405692556462,-0.14013887275115
1274.6752,0.193754957096328,0.249069163271349,0.342119482195975,0.256479305210544,-1.36162765790469,-1.36162765790384,NaN,1.97424082726348,0.902428257831018,-1.49755596047457,0.835211497430349,-1.49755596047512,1.14049375087598,-0.288042805543473,NaN,-0.781981717494129,0.823571655913578,-0.445273465688716,-1.14804191926483,0.0824337912229795,-1.14804191926376,NaN,-0.91014601513795,-0.631849370038335,NaN,0.274574276945822,-0.796017257950409,0.596937968669509,-0.596937968669968,0.294912291540573,2.10504567458569,1.01644020105516,1.98540252821644,NaN,0.643092940064428,0.563903619187635,-0.0271304913249723,0.946599908487953,0.946599908486552,-1.07988195866756,0.237624701946438,-1.19556693561492,1.66524417385872,0.278460093190376,1.39934177435296,0.0946087033503521,-0.473470187271611,NaN,1.11042973579297,-1.11042973579319,-0.108321469082608
1274.7776,0.191412179787169,0.244218580443501,0.336925283709048,0.277526961620379,-1.39220800073423,-1.39220800073336,NaN,1.94605667919791,0.892518489310091,-1.48388198197876,0.828549063547074,-1.48388198197933,1.11194986569152,-0.26253978118588,NaN,-0.775356116332716,0.823724348344284,-0.439362580308238,-1.13849325472105,0.0759001941374781,-1.13849325471999,NaN,-0.918497562404098,-0.64580845492128,NaN,0.282915185488155,-0.803663068424994,0.575065760080025,-0.575065760080479,0.293421697052306,2.08674307593048,1.01770951596796,1.97487916791444,NaN,0.627870219009359,0.553867114838236,0.00431137584380707,0.932218424874247,0.932218424872847,-1.07249583662906,0.238144043291761,-1.18616631792074,1.65623460853769,0.278570553565217,1.39282289415802,0.100695945785798,-0.48768069650191,NaN,1.07577994867352,-1.07577994867374,-0.0754940994316989
1274.88,0.188709721814312,0.238618887256467,0.330931095642515,0.298784466085669,-1.42292782320859,-1.42292782320769,NaN,1.91648030288486,0.881820662405636,-1.46961142700662,0.821333579957306,-1.46961142700719,1.08286054472485,-0.237463805622475,NaN,-0.768825986268311,0.823837374378466,-0.43354810174108,-1.12790617676516,0.0698873347198199,-1.1279061767641,NaN,-0.926995765360663,-0.660021009950642,NaN,0.291645663821793,-0.810990379602507,0.552198188499975,-0.552198188500425,0.292462741501971,2.06666299939581,1.01924223029165,1.96342725303846,NaN,0.612497833633179,0.543758013954979,0.0358090349199516,0.917491308384138,0.917491308382717,-1.0649295851363,0.238403339614965,-1.17669198854703,1.64601656130636,0.278409329347125,1.38524321467998,0.107192705376826,-0.502785159827451,NaN,1.04015579519965,-1.04015579519987,-0.0416691565803982
1274.9824,0.185631572803308,0.232282722132085,0.324127750408881,0.320239512279374,-1.45372800669235,-1.45372800669143,NaN,1.88552442498275,0.870324658066313,-1.45483559996926,0.813556930624628,-1.45483559996984,1.05320630404062,-0.212818152595485,NaN,-0.762454953575742,0.823906391719003,-0.42788765515003,-1.11633579853801,0.0644451697866823,-1.11633579853696,NaN,-0.935577101644808,-0.674479343164947,NaN,0.300790582462588,-0.817991436169379,0.528411264782732,-0.528411264783174,0.292034771134335,2.04479096715755,1.02106721193751,1.9510570381616,NaN,0.597028781108839,0.533599699672783,0.0672988364028236,0.902471781078068,0.902471781076625,-1.05719762032115,0.238402462147369,-1.16716179078305,1.63458467115312,0.277989736328595,1.37660747760333,0.114046173165051,-0.518778228904554,NaN,1.00360938587627,-1.00360938587651,-0.00686237583082567
1275.0848,0.182161950460429,0.225225190817814,0.316507733356164,0.341879075195608,-1.48454704853418,-1.48454704853324,NaN,1.85320455171048,0.858023172143425,-1.43964526441626,0.805212722764541,-1.43964526441685,1.02296962183545,-0.188604426164272,NaN,-0.756304268661195,0.823927797254097,-0.422436540889531,-1.10383744043989,0.0596213270846307,-1.10383744043884,NaN,-0.944175709234515,-0.689173526982155,NaN,0.31037423722409,-0.824657332580852,0.503785498787783,-0.503785498788221,0.292136612250261,2.02111754205839,1.02321134445727,1.93778058604035,NaN,0.581517355505981,0.523416853738937,0.0987160903763275,0.887211651609022,0.887211651607571,-1.04931520426873,0.238142420676972,-1.15759396126981,1.62193675838262,0.277326023604766,1.36692335905145,0.121201003411354,-0.535649489188791,NaN,0.96619645449473,-0.966196454494977,0.0289068440494216
1275.1872,0.178285275853177,0.217463813343994,0.308065126891018,0.363689379947682,-1.51532120076283,-1.51532120076187,NaN,1.8195389194755,0.844911658393746,-1.42413034404087,0.796296265221676,-1.42413034404146,0.992135079782788,-0.164822663081381,NaN,-0.750432534275448,0.823898811490544,-0.4172474685976,-1.09046633226954,0.0554608175906996,-1.0904663322685,NaN,-0.952724102958506,-0.704091581954995,NaN,0.320420090996074,-0.830978206518775,0.47840561142761,-0.478405611428045,0.292766570762159,1.99563828314946,1.02569942689355,1.92361167321993,NaN,0.566018949650016,0.513235286999794,0.129995237648064,0.871761209357796,0.871761209356314,-1.04129823211121,0.237625322219499,-1.14800689113702,1.60807379064035,0.276433287354935,1.35620138863798,0.128599532542381,-0.553383420134515,NaN,0.927976030925951,-0.927976030926205,0.0656151187977668
1275.2896,0.173986143594464,0.209018459681008,0.298795542872366,0.385655879729023,-1.54598463715793,-1.54598463715696,NaN,1.78454842959168,0.830988248695327,-1.40837964831808,0.786804543547439,-1.40837964831868,0.960689466596019,-0.141471418017179,NaN,-0.744895460426365,0.823817550616763,-0.412370318631673,-1.07627733023082,0.0520057826594736,-1.07627733022978,NaN,-0.961153912179399,-0.719219666722297,NaN,0.330950501377739,-0.836943452157757,0.452360210806767,-0.452360210807198,0.293922418815961,1.96835368613258,1.02855408947924,1.90856569682732,NaN,0.550589855541513,0.50308177008155,0.161070028575805,0.85616913383598,0.856169133834462,-1.03316302141005,0.236854326531712,-1.13841889176206,1.5929998274173,0.275327394994835,1.34445485952291,0.136181998914713,-0.571959398421941,NaN,0.889010067347416,-0.889010067347672,0.103234773873307
1275.392,0.169249295945671,0.1999112738071,0.288696052363555,0.407763241138386,-1.57646964524582,-1.57646964524483,NaN,1.74825657469387,0.816253657621416,-1.39248062102771,0.776736192849868,-1.39248062102832,0.928621860761695,-0.118547841310484,NaN,-0.739745654051948,0.823683083507172,-0.407851938790499,-1.06132465500368,0.0492952873663277,-1.06132465500265,NaN,-0.969396588219562,-0.734542262853065,NaN,0.341986438413615,-0.842541942139865,0.42574143512033,-0.425741435120756,0.295601378640568,1.93926911866451,1.03179572044983,1.89265958558236,NaN,0.535287060546042,0.492983866980129,0.191873707142279,0.840482418990683,0.840482418989163,-1.02492611514734,0.235833602046181,-1.12884797706354,1.57672195017996,0.274024915626802,1.33169973205083,0.143886769335918,-0.591351751421675,NaN,0.849363051502443,-0.849363051502698,0.141733584111575
1275.4944,0.164059611256467,0.190166577562834,0.277765118478242,0.429995334560593,-1.60670684068187,-1.60670684068086,NaN,1.71068936155,0.800711078044067,-1.37651910369647,0.766091471930626,-1.37651910369709,0.895923706119779,-0.0960477542038733,NaN,-0.735032441376362,0.823495473569206,-0.40373597451256,-1.04566165146127,0.0473651618074196,-1.04566165146024,NaN,-0.977384050102709,-0.750042356022602,NaN,0.353547203679423,-0.847762256714316,0.398644559846357,-0.398644559846776,0.297800115768829,1.90839475217745,1.03544239899619,1.87591171273895,NaN,0.520168032098472,0.482969765103772,0.222339207256299,0.824746313865481,0.824746313863945,-1.01660409594412,0.2345682769766,-1.11931166238831,1.55925018593805,0.272543044702411,1.31795452882323,0.151650590220821,-0.611529861681921,NaN,0.809101628937004,-0.809101628937258,0.181074581979368
1275.5968,0.158402111411155,0.179810743677262,0.266002531009627,0.452335230258571,-1.63662540834242,-1.63662540834141,NaN,1.67187523154858,0.784366070485958,-1.36057910435124,0.75487224396882,-1.36057910435187,0.862588886836984,-0.0739657216966556,NaN,-0.730801713828865,0.823255806609913,-0.400062724124885,-1.02934056850894,0.0462478863490147,-1.02934056850791,NaN,-0.985049268909393,-0.765701624233555,NaN,0.365650164849242,-0.852592927021694,0.371167568924401,-0.37116756892481,0.300514747604282,1.87574548627572,1.03950983639345,1.85834180986622,NaN,0.505290486954521,0.473068095035588,0.252399370610064,0.809004285191743,0.809004285190202,-1.0082133965195,0.233064378509152,-1.10982676556009,1.5405974310473,0.270899514777735,1.30324022089438,0.159408878106011,-0.632458311989666,NaN,0.768294238226388,-0.768294238226638,0.221215945000845
1275.6992,0.152261985066022,0.168872035519182,0.253409338135379,0.474765203823184,-1.66615337974858,-1.66615337974755,NaN,1.63184498374271,0.767226448420062,-1.34474256982463,0.743081966969823,-1.34474256982526,0.828613807591993,-0.0522951259889137,NaN,-0.727095794120135,0.822966202174848,-0.396869016891419,-1.01241235908564,0.045972518567934,-1.01241235908462,NaN,-0.992326805717938,-0.781500642152516,NaN,0.378310514775764,-0.857022698536872,0.343410692248145,-0.343410692248547,0.303740865943576,1.84134086360538,1.04401133181767,1.8399708845047,NaN,0.490712147245689,0.463307740799984,0.28198718604681,0.793298008245614,0.793298008244057,-0.999770100344814,0.231328761203141,-1.10040920199676,1.52077937767322,0.269112495014942,1.28758010859214,0.167096048446982,-0.654097060810808,NaN,0.727010754629695,-0.727010754629945,0.262110958338932
1275.8016,0.145624620192376,0.157380421816501,0.239987773280835,0.497266755106017,-1.69521795371206,-1.69521795371103,NaN,1.5906317094259,0.749302165721585,-1.32908916942645,0.730725691974021,-1.32908916942708,0.793997483394008,-0.0310282472606024,NaN,-0.723953330748732,0.82262980379236,-0.394188122553553,-0.994926500966066,0.0465646598713703,-0.994926500965047,NaN,-0.999153310302333,-0.797419097257749,NaN,0.391541055417974,-0.8610408089994,0.315475908644488,-0.315475908644882,0.307473568361579,1.80520497697654,1.04895774371277,1.82082114337838,NaN,0.476490486715823,0.453717646686215,0.311036040183668,0.777667385270369,0.777667385268772,-0.99128974854221,0.229369032543806,-1.09107378914936,1.49981443851437,0.267200486303942,1.27099969821578,0.174645870349517,-0.676401652751336,NaN,0.685322137257246,-0.685322137257497,0.303708041309173
1275.904,0.138475642182276,0.145367377566074,0.225741179751524,0.519820640378251,-1.7237458563407,-1.72374585633965,NaN,1.5482707432524,0.730605214725054,-1.31369609924521,0.717810064909833,-1.31369609924584,0.75874163669713,-0.010156357174116,NaN,-0.721409232012427,0.822250745878154,-0.392049702839554,-0.976930837800614,0.048046454491226,-0.976930837799598,NaN,-1.00546797744774,-0.813436000428723,NaN,0.405352002724805,-0.864637261437627,0.287466415000633,-0.287466415001021,0.311707491399874,1.76736637338058,1.05435746984288,1.80091591946895,NaN,0.462682468529281,0.444326627639128,0.339479968155292,0.762150580928749,0.762150580927128,-0.982787177487037,0.227193481327667,-1.08183408717179,1.47772366444743,0.26518221481794,1.2535265725371,0.181991834910808,-0.699323476915858,NaN,0.643300077721281,-0.643300077721527,0.345950825855218
1276.0064,0.130800957692923,0.132865678329178,0.210673937453069,0.542406910113872,-1.75166372556317,-1.75166372556213,NaN,1.50479963102885,0.711149541564293,-1.29863791214791,0.704343331742093,-1.29863791214855,0.722850796832402,0.0103301726917037,NaN,-0.719494643328072,0.821834095945364,-0.390479808716207,-0.958471440926131,0.0504366113949236,-0.95847144092512,NaN,-1.01121295755758,-0.829529873452794,NaN,0.419750811502024,-0.86780306903938,0.25948607360628,-0.259486073606661,0.316436837576004,1.72785796339658,1.0602164297936,1.78027960407082,NaN,0.449344278540983,0.435163191682943,0.367253897111649,0.746784061116133,0.746784061114493,-0.974276401392251,0.224811009544737,-1.07270229304266,1.45453065799564,0.263076523985741,1.23519025721602,0.189067528527345,-0.722810074986493,NaN,0.601016655142658,-0.601016655142896,0.388778274093418
1276.1088,0.122586805311513,0.119909192632572,0.194791395523175,0.5650049427785,-1.77889850394766,-1.77889850394662,NaN,1.46025811516029,0.690950982431198,-1.28398637614688,0.690335348498374,-1.28398637614752,0.686332399427802,0.0304417482551566,NaN,-0.718236964120964,0.821385768618542,-0.389500921122765,-0.939592495797739,0.0537504440176423,-0.939592495796732,NaN,-1.01633371963757,-0.845678905070758,NaN,0.434742025373746,-0.870530456066361,0.231638857352541,-0.231638857352919,0.321655391230246,1.68671694582139,1.06653805071686,1.75893759046583,NaN,0.436531062116616,0.426255383495361,0.394293877712078,0.731602624392265,0.731602624390605,-0.965770542675313,0.222231067627446,-1.0636891916652,1.43026149143348,0.260902267681781,1.21602209140007,0.195807007559565,-0.746805487262748,NaN,0.558544009316965,-0.558544009317195,0.432124824315508
1276.2112,0.113819813754682,0.106532677772724,0.178099814655031,0.587593470071212,-1.80537783118034,-1.8053778311793,NaN,1.41468813875883,0.67002722094118,-1.26981036151506,0.675797593028745,-1.2698103615157,0.649196884905405,0.0501894179502077,NaN,-0.717659896147376,0.820912408031919,-0.389132029010194,-0.920336216975994,0.0579999273957832,-0.920336216974992,NaN,-1.02077936182316,-0.861861076426662,NaN,0.450327158237541,-0.872813009315661,0.204028308496961,-0.204028308497334,0.327356523885459,1.64398475223123,1.07332326207037,1.73691623597699,NaN,0.424296670836385,0.417630654067364,0.420537302772829,0.716639417979976,0.716639417978283,-0.957281806701641,0.219463593622333,-1.05480415942989,1.40494463461846,0.25867820989266,1.19605510965324,0.202145177258185,-0.771250623033826,NaN,0.515954045026235,-0.515954045026455,0.475920563964366
1276.3136,0.104487068544995,0.0927715830457469,0.160606322392748,0.6101505946566,-1.83103043370694,-1.8310304337059,NaN,1.36813386402561,0.648397762522747,-1.25617575130454,0.660743171849693,-1.25617575130519,0.611457796351908,0.0695847247372558,NaN,-0.717783512297365,0.820421240110116,-0.389388734540742,-0.900742790311197,0.0631937701779965,-0.900742790310199,NaN,-1.02450286538114,-0.878054263346218,NaN,0.466504607457298,-0.874645781906351,0.176757019388847,-0.176757019389215,0.333533192861248,1.59970700811659,1.08057050494934,1.7142428440473,NaN,0.412693420388946,0.409315754743053,0.445923117267187,0.701925932904255,0.701925932902511,-0.948821490892169,0.216518955727832,-1.04605520821558,1.37861089100882,0.256422934218979,1.17532393627187,0.208018180140404,-0.79608364371107,NaN,0.473318177316643,-0.473318177316856,0.520091434312481
1276.416,0.094576186590623,0.0786618617344153,0.142318881575281,0.632653807893649,-1.85578650822477,-1.85578650822373,NaN,1.32064169194713,0.626083916260101,-1.24314536490554,0.645186817873259,-1.24314536490619,0.573131877997475,0.0886395456910131,NaN,-0.718624334325544,0.819919903122168,-0.390283372705546,-0.880850334077014,0.0693374915697645,-0.880850334076022,NaN,-1.02746129464104,-0.89423632675401,NaN,0.483269593140256,-0.876025356187811,0.149926139546287,-0.14992613954665,0.340177936127972,1.55393350046999,1.08827575874986,1.69094566188339,NaN,0.401771859142477,0.401336649182053,0.470392025988283,0.687491976813952,0.687491976812161,-0.940400011282497,0.213407897265575,-1.03744904951412,1.35129333630942,0.254154764120381,1.153864688513,0.213363795944357,-0.821240346943705,NaN,0.430707121349582,-0.43070712134979,0.564559471632383
1276.5184,0.0840753954938125,0.0642397920752888,0.123246268798521,0.655080022122695,-1.87957809305852,-1.87957809305748,NaN,1.2722602638749,0.603108770023964,-1.23077888572488,0.629144877746064,-1.23077888572554,0.53423917189126,0.107365927154528,NaN,-0.720195411048391,0.819416268127451,-0.391825134386153,-0.860694868225293,0.0764334945886055,-0.860694868224308,NaN,-1.02961594852592,-0.910385201995688,NaN,0.500614117665995,-0.876949875103792,0.123634912091942,-0.123634912092301,0.347282863896381,1.50671813956193,1.09643258463007,1.6670538856892,NaN,0.391580547358642,0.393718436477748,0.493886704013828,0.673365626088661,0.673365626086815,-0.932026929899079,0.21014148421869,-1.02899115809785,1.3230272527011,0.251891694110239,1.13171488371568,0.21812184998588,-0.846654544081992,NaN,0.388190721459343,-0.388190721459546,0.609243090573354
1276.6208,0.0729736151776678,0.0495418061574729,0.103398059818181,0.677405628255658,-1.90233942407268,-1.90233942407163,NaN,1.22304042889694,0.579497146669255,-1.21913279142243,0.612635288544709,-1.21913279142309,0.494803103646579,0.125775927532277,NaN,-0.72250639508749,0.81891825724693,-0.394020188780964,-0.840310285273499,0.084481140206195,-0.840310285272521,NaN,-1.03093246789514,-0.926478990639239,NaN,0.518526942192614,-0.877419048530899,0.09798023992747,-0.0979802399278239,0.354839643817714,1.45811890849659,1.10503218205551,1.64259766703241,NaN,0.38216584634479,0.386485283394539,0.516352012215992,0.659573161128647,0.659573161126729,-0.923710977060298,0.206731054714022,-1.02068582832269,1.29385005342625,0.249651330431706,1.1089133455364,0.222234620893875,-0.872258434098423,NaN,0.345837806817838,-0.345837806818035,0.654057414168391
1276.7232,0.0612605424853674,0.0346043237533573,0.0827846208400453,0.699606574307375,-1.92400727837492,-1.92400727837387,NaN,1.17303517154386,0.555275536669377,-1.20826029178077,0.59567754408417,-1.20826029178143,0.454850543115441,0.143881476522653,NaN,-0.725563622988965,0.818433660212538,-0.396871809336661,-0.819728323068079,0.0934768322803859,-0.819728323067109,NaN,-1.0313809029231,-0.942496048835507,NaN,0.536993578827155,-0.877434135799022,0.0730562752923426,-0.0730562752926924,0.362839473996355,1.40819780180183,1.11406345144072,1.61760811646377,NaN,0.373571715666295,0.379660368187636,0.537735216451126,0.646138990095335,0.646138990093329,-0.915460075343957,0.203188168351108,-1.01253623257263,1.26380119494915,0.247450837245516,1.08550010468106,0.225647236006463,-0.897982986016962,NaN,0.303716058585688,-0.303716058585876,0.698914648147008
1276.8256,0.0489267401894666,0.0194635888473007,0.061417105888741,0.72165844995465,-1.94452131136405,-1.944521311363,NaN,1.12229950136413,0.530472008046202,-1.19821127989759,0.578292650698082,-1.19821127989825,0.414411827786756,0.161694252423038,NaN,-0.729370206174006,0.817969943225327,-0.400380511573741,-0.798978543058425,0.103414111838001,-0.798978543057462,NaN,-1.03093574642992,-0.958415062704248,NaN,0.555996298213697,-0.876997903569426,0.0489540206437468,-0.0489540206440935,0.371273039805687,1.35702075384201,1.12351305468515,1.59211729941023,NaN,0.365839517266858,0.373265837608162,0.557986206136208,0.633085564061335,0.633085564059265,-0.907281376346211,0.199524555357252,-1.00454449557064,1.23292207318419,0.245306885357439,1.06151628963452,0.228308044463665,-0.92375834146655,NaN,0.26189187598703,-0.261891875987211,0.743724493100149
1276.928,0.0359637307557642,0.00415551056537562,0.0393074615879792,0.743536561402186,-1.96382438658459,-1.96382438658354,NaN,1.07089030998958,0.505116096435632,-1.18903229903261,0.560503072964745,-1.18903229903327,0.373520748802202,0.179225569935815,NaN,-0.733926137404343,0.817534042926813,-0.404544209110014,-0.778088318606309,0.114283748005151,-0.778088318605355,NaN,-1.02957594087808,-0.974215104506933,NaN,0.575514152540569,-0.87611455966441,0.0257609338777526,-0.0257609338781012,0.380130455264845,1.30465755329497,1.13336547015899,1.56615821971045,NaN,0.359007828811679,0.367322776624154,0.57705770531408,0.620433284192363,0.620433284190212,-0.899181318328989,0.195752070079457,-0.996711791963847,1.20125590184726,0.243235605472308,1.03700400725779,0.23016895968723,-0.949514238321833,NaN,0.220430238632706,-0.22043023863288,0.78839458600794
1277.0304,0.0223640945396257,-0.0112844861673828,0.0164684420845215,0.765215985909734,-1.98186289028519,-1.98186289028415,NaN,1.01886620589374,0.479238679766431,-1.18076652545441,0.542332671223105,-1.18076652545507,0.332214510039449,0.196486267590742,NaN,-0.739228413032995,0.817132143738026,-0.40935838864476,-0.757082838696396,0.126073814403609,-0.757082838695451,NaN,-1.02728486730875,-0.989875668652437,NaN,0.59552301352814,-0.874789666706898,0.00356054250971293,-0.0035605425100588,0.389401193436052,1.25118173806726,1.14360304724795,1.53976479070428,NaN,0.353112271652139,0.361851190400728,0.594905468277359,0.608200404344892,0.608200404342684,-0.89116570842642,0.191882655460253,-0.989038467916116,1.1688475768416,0.241252550750497,1.01200621922127,0.231185764603293,-0.975180445199662,NaN,0.179394573349687,-0.179394573349851,0.832830958601936
1277.1328,0.00812157073277461,-0.0268215940405973,-0.00708636404454827,0.786671608637834,-1.99858702546104,-1.99858702546,NaN,0.966287336597193,0.452871843198966,-1.17345376886096,0.523806629906717,-1.17345376886162,0.29053366622844,0.213486591948159,NaN,-0.74527117096098,0.816769442503193,-0.414816302652829,-0.735985131903222,0.13876974836572,-0.735985131902287,NaN,-1.02405032027902,-1.00537668874072,NaN,0.615995625360226,-0.873030043195887,-0.0175679270258171,0.0175679270254707,0.39907401239205,1.1966704617899,1.15420607019499,1.51297179486682,NaN,0.348185356129565,0.3568699958559,0.611488456767856,0.596402936368501,0.59640293636623,-0.883239830450582,0.187928323661557,-0.98152418504493,1.13574353031733,0.239372670220878,0.986566617947436,0.231318379584051,-1.00068719948192,NaN,0.13884663271831,-0.138846632718467,0.876938503312774
1277.2352,-0.00676884266668791,-0.0424217362858814,-0.0313424961069027,0.807878158817938,-2.01395109201556,-2.01395109201453,NaN,0.913215203209858,0.426048739420617,-1.16713049218718,0.504951371080454,-1.16713049218784,0.248522038422591,0.230236082176144,NaN,-0.752045846298188,0.816449904530385,-0.42090918033043,-0.714816112455267,0.152354395495849,-0.714816112454343,NaN,-1.01986446723968,-1.02069853526152,NaN,0.636901674347478,-0.870843659060539,-0.0375499070899258,0.0375499070895774,0.409136883460812,1.1412043196325,1.16515284025752,1.48581483038305,NaN,0.344256340074876,0.352397016671241,0.626769004113675,0.58505456465273,0.585054564650404,-0.875408577295779,0.183901155217142,-0.974168084111059,1.10199157165343,0.237610290460181,0.960729498365137,0.230531101007186,-1.02596565295216,NaN,0.098846384930541,-0.0988463849306887,0.920621447763179
1277.3376,-0.0223107928503979,-0.0580516579613351,-0.0562845752359421,0.828810261406154,-2.02791376358732,-2.0279137635863,NaN,0.859712466574918,0.398803445105266,-1.161829846822,0.485794446340045,-1.16182984682267,0.206226608387116,0.24674345527988,NaN,-0.759541343141407,0.816176012117504,-0.427626455061404,-0.693594644849956,0.166808040012222,-0.693594644849042,NaN,-1.0147237891831,-1.03582199452427,NaN,0.658207878736926,-0.868239525926315,-0.0563158387921362,0.0563158387917852,0.419576924683822,1.08486712484734,1.176419782774,1.45833024372433,NaN,0.34135109273219,0.348448976207343,0.640712976273871,0.574166569814098,0.574166569811711,-0.867676601028758,0.179813315065222,-0.966968960880628,1.06764071120843,0.235979102188406,0.9345396202571,0.228792820552557,-1.05094832942983,NaN,0.0594519140284014,-0.0594519140285405,0.963783844789763
1277.44,-0.0385064800024949,-0.0736789974934118,-0.0818962508866959,0.849442507414433,-2.04043836377782,-2.04043836377681,NaN,0.805842737655064,0.371170807459066,-1.15758171322518,0.466364399478628,-1.15758171322585,0.163697396214873,0.263016490265507,NaN,-0.767744214793357,0.81594850423549,-0.434956002007164,-0.672337618584941,0.18210841715695,-0.672337618584037,NaN,-1.00862899920777,-1.05072823391624,NaN,0.679878102821049,-0.865227576316403,-0.0738015155687498,0.0738015155683959,0.430380336216738,1.0277456356697,1.18798158106455,1.43055504927811,NaN,0.33949195836277,0.34504148553263,0.653289939341809,0.56374775398805,0.563747753985623,-0.860048468464582,0.175677078821465,-0.959925442908165,1.03274096496684,0.234492148095342,0.908042057433182,0.226077232757206,-1.07556959104767,NaN,0.0207193309502568,-0.0207193309503918,1.00633008793169
1277.5424,-0.0553565684784572,-0.0892723397331351,-0.108160140167412,0.869749538255164,-2.05149314101242,-2.05149314101142,NaN,0.751670344132069,0.343186273169789,-1.15441274130924,0.446690592145298,-1.15441274130991,0.120987319730308,0.279061911882797,NaN,-0.776638848586146,0.815766108458326,-0.442884382097379,-0.651060026564624,0.198230706031548,-0.651060026563731,NaN,-1.0015849370838,-1.0653987595661,NaN,0.701873499615759,-0.86181852755969,-0.0899484191013603,0.0899484191010089,0.441532330866947,0.969929237650131,1.1998113337684,1.4025268369186,NaN,0.338697619585196,0.342189026531699,0.664473337025129,0.55380436247228,0.553804362469812,-0.852528816997043,0.171504862488339,-0.953036164673388,0.997343137911072,0.233161808424323,0.881282029881563,0.222363032872379,-1.0997661107323,NaN,-0.0172973070295994,0.0172973070294698,1.04816546068742
1277.6448,-0.072860104582522,-0.104801248931788,-0.135057762397768,0.889706143771765,-2.06105154748479,-2.0610515474838,NaN,0.697260071622651,0.314885697304811,-1.15234639504579,0.426802990003915,-1.15234639504646,0.0781520276182493,0.294885275938342,NaN,-0.78620766215901,0.815625272898603,-0.451397096158522,-0.629775048258064,0.215147507421864,-0.629775048257179,NaN,-0.993600442266389,-1.07981537158305,NaN,0.724152685541158,-0.858023732604361,-0.104704046909624,0.104704046909271,0.453017054872184,0.911509583990539,1.21188073180274,1.37428366657214,NaN,0.338982966077416,0.339904932284223,0.674240672255755,0.544340006880648,0.544340006878159,-0.845122518141569,0.167309255010242,-0.946299950601563,0.961498581860949,0.231999784193826,0.854304715705366,0.217634099833501,-1.12347735542592,NaN,-0.0545460740845668,0.0545460740844476,1.08919672036558
1277.7472,-0.0910144459752694,-0.120236280647201,-0.162569473490104,0.909287383157066,-2.06909253116861,-2.06909253116762,NaN,0.642676878717865,0.286305134005368,-1.15140300779826,0.406731913129801,-1.15140300779894,0.0352496919058,0.310490862297666,NaN,-0.796431320222071,0.815519905788264,-0.460478854884574,-0.608494141458469,0.232828813554072,-0.608494141457592,NaN,-0.984688207186433,-1.09396012493997,NaN,0.746671948306986,-0.853855023061043,-0.118022231650469,0.118022231650115,0.464817498462973,0.852580187824193,1.2241602534325,1.34586394500558,NaN,0.340358973343076,0.33820136543196,0.682573685500467,0.535355598326995,0.535355598324484,-0.837834856220689,0.163103056309633,-0.939716013622895,0.925258921596016,0.231017079357979,0.827155039166964,0.211879654783055,-1.1466460863758,NaN,-0.0909772603657133,0.0909772603656057,1.12933271915579
1277.8496,-0.109815203209702,-0.135548975470282,-0.190674402326923,0.928468735701852,-2.0756008405922,-2.07560084059122,NaN,0.587985583137965,0.257480613281221,-1.15159984647402,0.386507757402325,-1.15159984647469,-0.00765925430174926,0.325881585204586,NaN,-0.807288971159009,0.815441124133564,-0.470113863648561,-0.587227142697931,0.251241976802957,-0.587227142697063,NaN,-0.974864605706979,-1.10781530521731,NaN,0.769385483615761,-0.849324546783437,-0.129863446177515,0.129863446177158,0.476915398108749,0.793235963133016,1.23661937455111,1.31730628085015,NaN,0.342832591925035,0.337089293874809,0.689458527292371,0.526849293678609,0.526849293676092,-0.83067171771201,0.158899318868347,-0.933284164852854,0.888675748636866,0.230223979972014,0.799877433125299,0.205094385000176,-1.16921887510855,NaN,-0.126543472472626,0.126543472472528,1.16848506883486
1277.952,-0.129256185837636,-0.150711838798941,-0.219350383806674,0.947226267314485,-2.0805673217818,-2.08056732178082,NaN,0.533250527683023,0.22844791365724,-1.15295117083661,0.366160702640778,-1.15295117083728,-0.050512428372783,0.341058923242269,NaN,-0.818758489852679,0.815377018782088,-0.480286107901528,-0.565982373763477,0.270351688094754,-0.565982373762619,NaN,-0.964149487201153,-1.12136342341063,NaN,0.792245646068856,-0.844444598960094,-0.140195072466753,0.140195072466396,0.489291134247,0.733572736093169,1.24922678622923,1.28864932610112,NaN,0.346406651433951,0.33657846902353,0.694885916032419,0.518816455451007,0.518816455448491,-0.823639777107881,0.154711386035767,-0.927005020839576,0.851800301226,0.229630028055096,0.772515587927866,0.197278521924882,-1.19114661351006,NaN,-0.161199746951057,0.161199746950968,1.20656883031218
1278.0544,-0.149329341291767,-0.165698309795046,-0.248573878253395,0.965536782150513,-2.08398917330103,-2.08398917330007,NaN,0.478535250149157,0.19924234545207,-1.15546826870701,0.345720437487998,-1.15546826870768,-0.093245831085767,0.356022861357117,NaN,-0.830816706543348,0.815312458377879,-0.490979614546635,-0.544766752909368,0.290119982347582,-0.544766752908522,NaN,-0.952565928432842,-1.13458722887225,NaN,0.815203193262831,-0.839227447512203,-0.14899159911845,0.148991599118092,0.501923633136882,0.673686769888767,1.26195060907248,1.25993162385639,NaN,0.351079793551561,0.336677418336739,0.698851257649435,0.511249627460769,0.511249627458239,-0.816746663072239,0.150552920182889,-0.920880192316496,0.814683164350451,0.229243992327315,0.745112212930067,0.188437861994592,-1.21238497756406,NaN,-0.194903662687123,0.194903662687044,1.24350317278715
1278.1568,-0.170024678613519,-0.180482723534888,-0.278319871356086,0.983377938624714,-2.08587013683069,-2.08587013682976,NaN,0.423902177853893,0.169898557098001,-1.15915945520225,0.32521592940812,-1.15915945520292,-0.135794177139301,0.370771840135268,NaN,-0.843439606692863,0.815228951722845,-0.502178670133849,-0.52358591070081,0.310506289009684,-0.523585910699977,NaN,-0.940139947614943,-1.14746973696477,NaN,0.838207509870784,-0.833685158727129,-0.156234718233242,0.156234718232883,0.514790283706514,0.613674332639333,1.27475859878556,1.23119147697424,NaN,0.356846448584642,0.337393459805651,0.701354706767904,0.504138526332702,0.504138526330145,-0.810001092408821,0.146437915843772,-0.914912441840873,0.777374012582799,0.229073839578672,0.717708829748596,0.178583725746011,-1.23289481263909,NaN,-0.227615442432046,0.227615442431977,1.27921195301047
1278.2592,-0.191330176633367,-0.195040270575763,-0.308561756662247,1.00072833049352,-2.08622062282751,-2.08622062282659,NaN,0.369412349853719,0.140450369719515,-1.16403003541322,0.30467524725222,-1.16403003541389,-0.178091222156341,0.385302719701261,NaN,-0.856602496191571,0.815104565926604,-0.513867991647091,-0.502444309472192,0.331467532817424,-0.502444309471373,NaN,-0.926900207230169,-1.15999426530509,NaN,0.86120681136807,-0.82782943129908,-0.161913313179777,0.161913313179417,0.527866875459305,0.55363130822183,1.28761834273442,1.20246683737528,NaN,0.363696859606432,0.338732735052924,0.702401169352366,0.497470043653152,0.497470043650578,-0.803412964569885,0.142380694696803,-0.909105803151187,0.739921394326358,0.229126706602904,0.690345596170629,0.167732858816017,-1.25264243324507,NaN,-0.259298045685628,0.259298045685566,1.31362420753652
1278.3616,-0.213231679008165,-0.209346954886112,-0.339271203638698,1.01756754130712,-2.08505777512553,-2.08505777512462,NaN,0.315125159967347,0.110930640535207,-1.1700822296926,0.284125427279039,-1.17008222969327,-0.220070096363248,0.399610771340822,NaN,-0.870280128458057,0.814913885902028,-0.526032851160576,-0.481345362555631,0.352958274266887,-0.481345362554827,NaN,-0.912877744581414,-1.17214447110158,NaN,0.884148329284455,-0.821671443030701,-0.166023342794845,0.166023342794488,0.541127558201347,0.493652840824661,1.30049744440987,1.17379520823199,NaN,0.371617148280524,0.340700251329187,0.702000259960291,0.491228250468518,0.491228250465919,-0.796993410836475,0.138395879537667,-0.903465656633593,0.70237254836236,0.22940886792105,0.663061150953557,0.15590727964768,-1.27159983886628,NaN,-0.289917260309909,0.289917260309855,1.34667457785568
1278.464,-0.235712775961599,-0.223379550398891,-0.370418011291052,1.03387617369121,-2.0824054691724,-2.08240546917151,NaN,0.261098113958334,0.0813711534879718,-1.17731505492697,0.263592372229338,-1.17731505492763,-0.261663649924758,0.413689703266068,NaN,-0.884446789167034,0.814628008397433,-0.538659152630924,-0.460291547913132,0.374930879535793,-0.460291547912342,NaN,-0.898105755722163,-1.18390438512331,NaN,0.906978476467722,-0.815221708927827,-0.168567627733427,0.168567627733068,0.554544822471302,0.433833012302582,1.31336368916795,1.14521355405023,NaN,0.380589412769584,0.343299924878961,0.700166225658974,0.485394396928023,0.485394396925385,-0.790754792329628,0.13449834316263,-0.897998756026003,0.664773250484756,0.229925693012907,0.635892473808364,0.143134075566741,-1.2897448428819,NaN,-0.319441795385071,0.319441795385025,1.3783036856141
1278.5664,-0.258754671461981,-0.237115560302799,-0.401969948408532,1.04963584572947,-2.07829423747167,-2.07829423747079,NaN,0.20738659682077,0.0518025331868986,-1.18572415894204,0.243100779291258,-1.1857241589427,-0.302804809468645,0.427531717979751,NaN,-0.899076339651763,0.814214572575813,-0.551733461148466,-0.439284513552418,0.397335720055019,-0.439284513551641,NaN,-0.882619426829998,-1.19525844286631,NaN,0.929642994519205,-0.808489948955878,-0.169555544993571,0.169555544993212,0.568089498739292,0.374264550991095,1.32618518953152,1.11675821666567,NaN,0.390591850188517,0.346534624269836,0.696917839797543,0.479946904966189,0.479946904963502,-0.784710647570918,0.13070312924731,-0.892713208907845,0.627167689116571,0.230681590921638,0.608874758368645,0.129445145477296,-1.30706111510847,NaN,-0.347843371094071,0.347843371094034,1.40845846094729
1278.6688,-0.282336037325196,-0.250533183324939,-0.433892584407394,1.06482914172513,-2.07276112317521,-2.07276112317435,NaN,0.154043651775926,0.0222541789363274,-1.19530161502149,0.222674099466698,-1.19530161502216,-0.343426946783403,0.441127596957283,NaN,-0.914142227654845,0.813637830529144,-0.565242991310091,-0.418325177606969,0.420121404175347,-0.418325177606206,NaN,-0.866455779804728,-1.20619151432595,NaN,0.952087093909753,-0.801484967180451,-0.169002644941142,0.169002644940782,0.581730773883253,0.315038561676581,1.33893051390444,1.08846483332227,NaN,0.401598902319064,0.350406216141061,0.692278255701808,0.47486135967879,0.474861359676045,-0.778875601397568,0.127025348005044,-0.887618423939084,0.589598363856748,0.231679947011489,0.582041296828617,0.114876883102416,-1.3235381473823,NaN,-0.375096802790585,0.375096802790551,1.43709240971241
1278.7712,-0.306432858668425,-0.263611285620372,-0.466149114519811,1.0794395073449,-2.0658494673574,-2.06584946735655,NaN,0.101119779928701,-0.00724577901691296,-1.20603568776316,0.20233453216341,-1.20603568776382,-0.383464263627269,0.454466811596847,NaN,-0.929617476724126,0.812858763265392,-0.579175563053228,-0.397413829141058,0.44323503908984,-0.397413829140308,NaN,-0.849653499041991,-1.21668892854056,NaN,0.974255599236539,-0.794214546990927,-0.166930209025685,0.166930209025322,0.595436224909263,0.256244265121668,1.35156880044112,1.06036825078856,NaN,0.413581427613645,0.35491561470618,0.686274803429725,0.470110512460807,0.470110512458,-0.773265250958912,0.123480053885929,-0.882725040092396,0.552105999808758,0.232923059074205,0.555423375702192,0.0994697932962405,-1.33917115385947,NaN,-0.401180083874738,0.401180083874703,1.46416579341729
1278.8736,-0.331018276457155,-0.276329374482854,-0.498700183046176,1.09345109204722,-2.05760863687427,-2.05760863687342,NaN,0.048662769767082,-0.0366704945833928,-1.21791057971142,0.182103055784512,-1.21791057971208,-0.422852195993613,0.467537661709168,NaN,-0.945474663862492,0.81183525509539,-0.593519529580567,-0.376550233258558,0.466622524666078,-0.376550233257823,NaN,-0.832252727515049,-1.22673648593169,NaN,0.996093105233083,-0.786685372057285,-0.163364758060814,0.163364758060447,0.609171871423726,0.197968740645842,1.36406985352772,1.03250242977781,NaN,0.426506899860672,0.360062831022515,0.678938720227739,0.465664315483638,0.465664315480776,-0.767896036115757,0.120082110863606,-0.878044843739379,0.514729470691862,0.234412077509489,0.529050180657437,0.083268039305252,-1.35396091246914,NaN,-0.42607447415626,0.426074474156225,1.48964569834091
1278.976,-0.356062433813358,-0.288667574374649,-0.531503711801922,1.10684855853775,-2.04809370233395,-2.04809370233311,NaN,-0.00328244180106959,-0.0659943873463075,-1.23090616575458,0.161999495021506,-1.23090616575523,-0.461527836472083,0.480327440994339,NaN,-0.961685892060385,0.81052234439993,-0.608263677852022,-0.355733738278598,0.490228890552913,-0.355733738277878,NaN,-0.814294830807714,-1.23632045792859,NaN,1.01754414227081,-0.778902989512386,-0.158337511834107,0.158337511833738,0.622902250399109,0.140296665624487,1.37640422104728,1.00490033464119,NaN,0.440339629851162,0.365847012846886,0.670304818413866,0.461490010624296,0.461490010621386,-0.762785089325376,0.116846046804067,-0.873590666677325,0.477505721629232,0.23614695261086,0.502948705737479,0.066318926851076,-1.367913547422,NaN,-0.449764593463426,0.449764593463391,1.51350598114786
1279.0784,-0.381532333520461,-0.300606608829778,-0.56451474343563,1.11961688599003,-2.03736507782575,-2.03736507782493,NaN,-0.0546738798148925,-0.095193090424305,-1.24499772284086,0.142042625407272,-1.24499772284151,-0.499430365765054,0.492822622594345,NaN,-0.978222761507498,0.808872561595852,-0.623397101760563,-0.334963379387558,0.513998685481587,-0.334963379386854,NaN,-0.795822125465738,-1.24542758250615,NaN,1.03855334906881,-0.770871828788359,-0.151883802745159,0.151883802744789,0.636590515265065,0.0833100463675269,1.38854325434656,0.977593806171898,NaN,0.455041006989001,0.372266467306567,0.660411104690658,0.457552287625592,0.457552287622599,-0.75795005739614,0.113785897510421,-0.869376255370057,0.440469684613634,0.238126391452801,0.47714366347158,0.0486723378249485,-1.38104025367183,NaN,-0.47223851294458,0.472238512944543,1.53572709154625
1279.1808,-0.40739171436997,-0.31212778814033,-0.597685307414174,1.13174118674069,-2.02548813311326,-2.02548813311246,NaN,-0.105472611858045,-0.124243368442321,-1.26015566736445,0.122250308803284,-1.26015566736509,-0.536501477386562,0.505009052515762,NaN,-0.995056342001718,0.806836346777807,-0.638909052476871,-0.314237975235288,0.53787640566083,-0.314237975234597,NaN,-0.77687757737504,-1.25404506465082,NaN,1.05906565208522,-0.762595271267762,-0.14404245755238,0.14404245755201,0.650198553763024,0.0270879449800424,1.40045915560605,0.950613423513936,NaN,0.470569758247252,0.37931866696507,0.649298373423603,0.453813505140536,0.453813505137483,-0.753408897737924,0.110915043885634,-0.865416112676628,0.403654189048351,0.240347825499894,0.451657398359456,0.0303801335022057,-1.39335697425483,NaN,-0.493487835526098,0.493487835526061,1.55629579301222
