time,S1-D1,S1-D8,S1-D9,S1-D15,S2-D1,S2-D2,S2-D3,S2-D9,S3-D1,S3-D2,S3-D16,S4-D2,S4-D3,S4-D5,S5-D3,S5-D4,S5-D5,S6-D2,S6-D5,S6-D17,S7-D6,S7-D7,S8-D6,S8-D7,S8-D18,S9-D3,S9-D4,S9-D9,S9-D11,S9-D19,S10-D8,S10-D9,S10-D10,S10-D11,S11-D8,S11-D10,S11-D20,S12-D10,S12-D11,S12-D12,S13-D4,S13-D11,S13-D12,S14-D10,S14-D12,S14-D21,S15-D13,S15-D14,S16-D13,S16-D14,S16-D22
150.7328,1.85694664709212,0.234269525118557,2.58085668396727,-0.932946904825181,1.89950017831062,1.89950017831256,0.903154919976022,0.811239966637993,0.88509738559803,0.0974666878964961,0.903430979381061,0.0974666878976444,-0.983759776986535,NaN,NaN,NaN,NaN,-0.883336270104196,-1.37238578480484,0.60933576177238,-1.37238578480309,0.465623315615832,0.617989461590597,NaN,1.54853171114459,-1.94429735612683,NaN,NaN,0.710179084258291,-1.09366178799225,-0.692740542375828,0.970347051117168,0.501452575699814,1.4251638690499,-2.11908889713479,0.125915115681852,0.870610515485777,0.606834875692911,0.606834875696244,NaN,-1.0207185820717,NaN,NaN,-1.16003998844219,0.148073772095767,-1.18964543514628,-0.627700196273793,-0.627700196275123,1.75077941133422,-1.75077941133516,1.33211578544117
150.8352,1.82943182898459,0.235975300548184,2.54745765080524,-0.891811864373028,1.91802131669559,1.91802131669754,0.947143021287293,0.839221469222735,0.922984624127481,0.0843100203658027,0.902371587071144,0.0843100203669531,-0.974981891095342,NaN,NaN,NaN,NaN,-0.897475286365373,-1.3640014163599,0.61377949127662,-1.36400141635815,0.445229660280449,0.60903627830776,NaN,1.51767315518835,-1.99822425457061,NaN,NaN,0.710075417453012,-1.02143857699041,-0.652711710828614,0.931713299915991,0.496463190486082,1.40411509948669,-2.15371186328665,0.0936807019829927,0.855100078946055,0.614442427583693,0.614442427587029,NaN,-1.04111134516944,NaN,NaN,-1.17422540644142,0.152374876566124,-1.20094519394323,-0.632935500733804,-0.63293550073516,1.76043055144823,-1.76043055144917,1.29279411121693
150.9376,1.80019808131374,0.238544357097612,2.51267985301642,-0.849091521457754,1.93605565556693,1.93605565556888,0.990710013360987,0.86664940704232,0.960379781919724,0.0705832478477984,0.899992317007391,0.0705832478489516,-0.965665620281236,NaN,NaN,NaN,NaN,-0.911865929401159,-1.35463300248768,0.617872760203646,-1.35463300248594,0.424385752155577,0.599231895559667,NaN,1.48521760286775,-2.05206696181046,NaN,NaN,0.709099630983913,-0.949655338479264,-0.611188458197209,0.892265080133224,0.492151269791254,1.38164384389072,-2.18651238606278,0.0611857568024174,0.838341804756171,0.622014774945222,0.622014774948563,NaN,-1.06044496455686,NaN,NaN,-1.18732672893947,0.156684797894913,-1.21072525480785,-0.637763471385723,-0.637763471387105,1.77048221792764,-1.77048221792859,1.2520471247107
151.04,1.76930891142953,0.241912034112028,2.47654358372564,-0.80488943935835,1.95362042407951,1.95362042408147,1.03373947524531,0.893488510451705,0.997200149978847,0.0563340674924643,0.896289744729909,0.056334067493619,-0.955819543613106,NaN,NaN,NaN,NaN,-0.926484710839058,-1.3443025834835,0.621580981582329,-1.34430258348176,0.403135450656989,0.588613626198135,NaN,1.45115530458137,-2.10573693529222,NaN,NaN,0.707283165719598,-0.878455178112468,-0.568246086264016,0.852086239630756,0.488541566418429,1.35775317442389,-2.21737600683511,0.0284853963944089,0.820314282812469,0.629592796659126,0.629592796662474,NaN,-1.07869380057537,NaN,NaN,-1.19928368664303,0.161035510003374,-1.21893807846779,-0.64213534732337,-0.642135347324781,1.78091068651991,-1.78091068652087,1.20991514228723
151.1424,1.73683024883444,0.246010361223881,2.43906912102431,-0.759314337408275,1.97073165614564,1.97073165614761,1.07611520987323,0.91970468558777,1.03336368010745,0.0416111333973653,0.891264252061732,0.0416111333985208,-0.945452760806806,NaN,NaN,NaN,NaN,-0.941309084029097,-1.33303191502469,0.624869032936155,-1.33303191502297,0.381523888822043,0.577221388447275,NaN,1.41548165563316,-2.15914218544111,NaN,NaN,0.704659504126293,-0.807983370012611,-0.523966693059865,0.811264700301142,0.485656261275737,1.3324520478274,-2.24618820471962,-0.00436068266220481,0.800999792756506,0.637214138853086,0.637214138856443,NaN,-1.0958334939557,NaN,NaN,-1.21003754195658,0.1654575472078,-1.22554006358698,-0.646002146764908,-0.646002146766342,1.79168828161914,-1.7916882816201,1.16644325868466
151.2448,1.7028302559246,0.250768504514909,2.40027690456557,-0.71247966662527,1.98740404248959,1.98740404249156,1.11772187678802,0.945265173583159,1.06878941971003,0.0264637368960695,0.884919872655132,0.0264637368972251,-0.934574860295835,NaN,NaN,NaN,NaN,-0.956317412826781,-1.32084245079527,0.627701335078214,-1.32084245079356,0.359597214357478,0.565097485255027,NaN,1.37819740876128,-2.21218758165842,NaN,NaN,0.701263925481936,-0.738386694305568,-0.478438924832078,0.769892073066609,0.48351473214542,1.30575536477363,-2.27283493690464,-0.0372884065274771,0.780384496811254,0.644913215681766,0.644913215685131,NaN,-1.1118409515007,NaN,NaN,-1.21953132317147,0.169979829621839,-1.23049186269885,-0.649314899251599,-0.649314899253054,1.8027835534038,-1.80278355340477,1.12168121830758
151.3472,1.66737912449328,0.256113211925355,2.3601876933474,-0.664503145846604,2.00365079628345,2.00365079628543,1.15844564947744,0.970138709165526,1.10339796042459,0.0109415001076682,0.877264111405724,0.0109415001088253,-0.923195869143063,NaN,NaN,NaN,NaN,-0.97148892617954,-1.30775533507549,0.630041946309498,-1.3077553350738,0.337402336578373,0.552286364403312,NaN,1.33930886418914,-2.26477520505197,NaN,NaN,0.697133241318802,-0.669812684947142,-0.431757648116315,0.728063204722657,0.48213332481509,1.27768397099016,-2.29720323091999,-0.0702295961353251,0.758458638547077,0.652721195710304,0.652721195713675,NaN,-1.12669432635081,NaN,NaN,-1.22771007435177,0.174629484809004,-1.23375868283514,-0.652024883441771,-0.65202488344325,1.81416147322256,-1.81416147322354,1.0756832421236
151.4496,1.63054885818354,0.26196926597749,2.31882271246625,-0.615506257546009,2.01948353552714,2.01948353552913,1.19817488049818,0.994295670836285,1.13711188740673,-0.00490592297482295,0.868307727810194,-0.00490592297366384,-0.91132616743597,NaN,NaN,NaN,NaN,-0.986803654386204,-1.29379139418452,0.631854667391475,-1.29379139418284,0.314986693102927,0.538834374719925,NaN,1.29882802763612,-2.31680474991275,NaN,NaN,0.692305516530224,-0.602408792067354,-0.384023538734484,0.685875659573364,0.48152513444843,1.24826460234971,-2.31918183887598,-0.10311231112438,0.735216742911992,0.660665979016335,0.660665979019717,NaN,-1.14037300679178,NaN,NaN,-1.23452113294871,0.17943166725645,-1.2353105744975,-0.654083878458622,-0.654083878460124,1.82578364805956,-1.82578364806054,1.02850779442064
151.552,1.59241303898408,0.268259952425119,2.27620379447222,-0.565613704081391,2.0349121837816,2.03491218378359,1.23680076159979,1.01770821857797,1.16985622009944,-0.0210291409036683,0.858064486169163,-0.0210291409025079,-0.898976353036781,NaN,NaN,NaN,NaN,-1.00224234743075,-1.27897111936424,0.633103148194301,-1.27897111936257,0.292398040935935,0.52478952795875,NaN,1.25677272696317,-2.36817397249397,NaN,NaN,0.686819770529525,-0.536321461625351,-0.335342593370722,0.64342914445051,0.481699802215393,1.21752977639033,-2.33866196272601,-0.135861267930421,0.710657810433259,0.668772167383023,0.668772167386414,NaN,-1.15285762219019,NaN,NaN,-1.23991444479525,0.184409379959456,-1.23512270749786,-0.655444436034781,-0.655444436036302,1.83760855249376,-1.83760855249474,0.980217276302272
151.6544,1.55304657914759,0.274907545791519,2.23235351797988,-0.514952827902386,2.04994489073481,2.04994489073681,1.27421797227735,1.04035041927191,1.20155884080441,-0.0373793122017528,0.846550892997626,-0.0373793122005907,-0.886157056619166,NaN,NaN,NaN,NaN,-1.01778637765706,-1.26331464434193,0.633750992608241,-1.26331464434028,0.269684264303332,0.510201260783433,NaN,1.21316668243141,-2.41877918244322,NaN,NaN,0.680715646031466,-0.471695135219596,-0.285825576261646,0.600824890856345,0.482663331001298,1.18551763520916,-2.355538046909,-0.168398326537746,0.684785499068818,0.677061032865895,0.677061032869299,NaN,-1.16413006948328,NaN,NaN,-1.24384291658427,0.189583310155773,-1.23317562745516,-0.656060177030813,-0.656060177032353,1.84959177652499,-1.84959177652599,0.930877652291935
151.7568,1.51252546984719,0.281833799513187,2.18729534643828,-0.463653009844954,2.06458797461411,2.06458797461612,1.31032530544668,1.0621983567137,1.2321509031641,-0.0539084181512106,0.833785948417257,-0.0539084181500469,-0.872878722795754,NaN,NaN,NaN,NaN,-1.03341762619502,-1.2468417252637,0.633761864786948,-1.24684172526207,0.24689319312912,0.495120188160436,NaN,1.16803953083506,-2.46851576568265,NaN,NaN,0.67403303818685,-0.408671184348842,-0.235587428320499,0.558165020251739,0.484417923124468,1.15227174924287,-2.36970861482864,-0.200643027683155,0.657608287017788,0.685550493430524,0.685550493433943,NaN,-1.17417356060263,NaN,NaN,-1.2462627913802,0.194971695694124,-1.22945548571599,-0.655886107050311,-0.655886107051862,1.8616862931505,-1.8616862931515,0.880558038980245
151.8592,1.47092653851385,0.288960420543288,2.14105376340689,-0.411845066510466,2.07884588447912,2.07884588448114,1.34502625480635,1.08323021710696,1.26156720757647,-0.0705695151021291,0.819790931327716,-0.0705695151009646,-0.859151387784178,NaN,NaN,NaN,NaN,-1.0491183542805,-1.22957172899399,0.633099601861049,-1.22957172899238,0.224072433896879,0.479597845389914,NaN,1.12142680928512,-2.51727871844032,NaN,NaN,0.666811691922854,-0.347386817523293,-0.184746681153675,0.515551927151951,0.486961836665243,1.11784089079912,-2.3810771122049,-0.232513156623725,0.629139609147656,0.694255100708035,0.69425510071147,NaN,-1.18297268471905,NaN,NaN,-1.24713402150803,0.200590229840326,-1.22395423592674,-0.654878937526701,-0.654878937528266,1.87384275104602,-1.87384275104702,0.829330287280345
151.9616,1.42832721300007,0.296209513352323,2.09365438789003,-0.359660659283359,2.09272117219381,2.09272117219584,1.37822955428337,1.10342633914371,1.28974653310502,-0.087316969771346,0.804589226512843,-0.0873169697701809,-0.844984490183408,NaN,NaN,NaN,NaN,-1.06487106766678,-1.21152363728442,0.631728337984972,-1.21152363728284,0.201269215011723,0.46368641780779,NaN,1.07336990754113,-2.56496316996749,NaN,NaN,0.659090789345967,-0.287974014764609,-0.13342491440424,0.473087705382421,0.490289249043059,1.08227878203079,-2.38955272664655,-0.263925315715872,0.599397959740322,0.703186038212137,0.703186038215585,NaN,-1.19051347365656,NaN,NaN,-1.24642061407552,0.206451997209418,-1.21666979428586,-0.652997397919927,-0.6529973979215,1.88600978758041,-1.88600978758143,0.777268571838632
152.064,1.38480527744564,0.303503991465715,2.04512404875445,-0.307231711870325,2.10621445794851,2.10621445795054,1.40984966714774,1.12276921900806,1.31663192012398,-0.104106686808499,0.788206197898131,-0.104106686807333,-0.830386739748579,NaN,NaN,NaN,NaN,-1.08065838415127,-1.19271607511823,0.629612646268051,-1.19271607511667,0.178530241138884,0.447438453528231,NaN,1.02391599537846,-2.61146488085389,NaN,NaN,0.650908551319185,-0.230558531469781,-0.0817462690510591,0.430873620710195,0.49439011707208,1.04564381924025,-2.39505117595497,-0.294795500894853,0.568406954555012,0.712351126970306,0.712351126973765,NaN,-1.19678346122954,NaN,NaN,-1.24409093637411,0.212567425278096,-1.20760616868308,-0.650202531205129,-0.650202531206711,1.89813434586946,-1.89813434587048,0.724448983912191
152.1664,1.34043860292861,0.310767965187266,1.99549080480412,-0.25468982340899,2.11932437366798,2.11932437367002,1.43980722286784,1.14124346211616,1.34217089888565,-0.120896333482545,0.770669119819059,-0.120896333481378,-0.815366048559883,NaN,NaN,NaN,NaN,-1.09646290924518,-1.17316736415319,0.626717708193837,-1.17316736415165,0.155901543967518,0.430906551426074,NaN,0.973117925130457,-2.65668071789354,NaN,NaN,0.642301869290424,-0.175258988276097,-0.029837004202946,0.38900961799292,0.499250032173613,1.00799876927659,-2.3974954745373,-0.325039689653284,0.536195345755508,0.721754839464104,0.721754839467578,NaN,-1.20177173476669,NaN,NaN,-1.24011798227116,0.218944239243381,-1.19677356708757,-0.646457974025586,-0.646457974027176,1.91016197940618,-1.9101619794072,0.670949117457737
152.2688,1.29530484519265,0.317927114695553,1.94478390930035,-0.2021656633032,2.13204747522711,2.13204747522916,1.4680293964597,1.15883567899386,1.36631565982562,-0.137645557802962,0.752007179007391,-0.137645557801796,-0.799929517554715,NaN,NaN,NaN,NaN,-1.11226712325032,-1.15289559744011,0.623009515668583,-1.1528955974386,0.133428316685237,0.414143018433272,NaN,0.92103410516025,-2.70050911298291,NaN,NaN,0.633305974713669,-0.122186055790064,0.0221749219244042,0.347593853536486,0.504850081173485,0.969410429428885,-2.39681667814544,-0.354574447267959,0.502796986223184,0.731398327866677,0.731398327870163,NaN,-1.20546898104043,NaN,NaN,-1.23447960563272,0.22558741707266,-1.18418849241357,-0.641730225103388,-0.641730225104988,1.92203713269435,-1.92203713269537,0.616847638383038
152.3712,1.24948111861521,0.324909049958534,1.89303373193491,-0.149788342817451,2.14437812431783,2.14437812431988,1.49445022481055,1.17553433703922,1.38902316776134,-0.154316190222911,0.732251537715137,-0.154316190221747,-0.784083469202457,NaN,NaN,NaN,NaN,-1.12805328587015,-1.13191873620635,0.618455098552386,-1.13191873620486,0.111154726464449,0.397199499187731,NaN,0.867728342012216,-2.74285050764176,NaN,NaN,0.623954152638936,-0.0714417510344385,0.0741602618317835,0.306722253224928,0.511166731485435,0.92994925255158,-2.39295458386778,-0.383317539300581,0.468250747242606,0.741279476394051,0.741279476397548,NaN,-1.2078675265271,NaN,NaN,-1.22715872129043,0.232499148104885,-1.16987382174738,-0.635988896864809,-0.635988896866417,1.9337033887031,-1.93370338870412,0.562223836818832
152.4736,1.20304367134407,0.331643652225892,1.84027166505854,-0.0976847771938656,2.15630835092335,2.15630835092541,1.519010860158,1.19132959493149,1.41025523220734,-0.170872415239992,0.711435423635541,-0.17087241523883,-0.767833514093678,NaN,NaN,NaN,NaN,-1.14380336242128,-1.1102547288894,0.613022765138016,-1.11025472888793,0.089123708895374,0.380126592631455,NaN,0.81326965557365,-2.78360777662422,NaN,NaN,0.614277510983497,-0.0231188598004351,0.125988891780642,0.266488098827168,0.518171758931208,0.889688950790917,-2.38585835562685,-0.411188526325117,0.432600401794701,0.751392987733501,0.751392987737013,NaN,-1.2089613686114,NaN,NaN,-1.2181434686997,0.239678800138929,-1.15385885774558,-0.629206937470337,-0.629206937471953,1.94510368122535,-1.94510368122637,0.507157180974428
152.576,1.15606758780531,0.338063392214654,1.78653004292244,-0.0459790674190094,2.16782771500562,2.16782771500768,1.54165976904784,1.20621314741388,1.42997855113445,-0.18728089933475,0.689594213067314,-0.18728089933359,-0.751184635848492,NaN,NaN,NaN,NaN,-1.15949896838473,-1.08792164397444,0.606682348628403,-1.087921643973,0.0673767530885848,0.362973474033353,NaN,0.75773207617582,-2.82268662683129,NaN,NaN,0.604304814056022,0.0226995236950149,0.177530242757846,0.22698163571304,0.525832226572397,0.848706082731087,-2.37548706423033,-0.438109332107796,0.39589448707049,0.761730508257578,0.761730508261104,NaN,-1.20874619474405,NaN,NaN,-1.20742733533101,0.247122898988868,-1.13617933574635,-0.621360814963035,-0.62136081496466,1.95618048334843,-1.95618048334945,0.451726901389382
152.6784,1.10862653078256,0.344103622756834,1.73184208736197,0.00520807127022569,2.17892319041121,2.17892319041328,1.56235288885535,1.22017809348931,1.44816474100559,-0.203510870280945,0.666765490003906,-0.203510870279787,-0.734141282467976,NaN,NaN,NaN,NaN,-1.17512132787729,-1.06493780699539,0.59940545679721,-1.06493780699398,0.0459536851212281,0.345787534892821,NaN,0.701194429821279,-2.85999597710844,NaN,NaN,0.594062376970211,0.065940371826328,0.228653764304981,0.188289685720252,0.534110510166713,0.807079614867181,-2.36181015076779,-0.464004796324427,0.358186152843941,0.772280786064579,0.772280786068121,NaN,-1.2072193890486,NaN,NaN,-1.19500924150242,0.254825121168446,-1.11687737183273,-0.612430670536788,-0.612430670538425,1.96687598873128,-1.9668759887323,0.396011626674058
152.7808,1.0607925213048,0.349702843328075,1.67624187526671,0.0557598192851641,2.18957909518221,2.18957909518428,1.5810537502804,1.23321882256328,1.46479035543376,-0.219534155860945,0.642989073426759,-0.219534155859789,-0.716707462503411,NaN,NaN,NaN,NaN,-1.19065124894677,-1.04132193665,0.591165721059874,-1.04132193664861,0.0248924562730909,0.328614044789867,NaN,0.643740110068969,-2.89544832596284,NaN,NaN,0.583574011579289,0.106541048147811,0.279229426436859,0.150495252236228,0.542964358738675,0.764890454264242,-2.3448078221644,-0.488803218304292,0.319532994083682,0.783029844826815,0.783029844830373,NaN,-1.20438002625408,NaN,NaN,-1.1808935902515,0.262776295071969,-1.09600134119574,-0.602400463219607,-0.602400463221253,1.97713229441235,-1.97713229441337,0.340089078045116
152.8832,1.01263575014485,0.35480293469036,1.6197643183016,0.105563698060351,2.19977708332673,2.19977708332881,1.59773356775656,1.2453309040851,1.47983688703152,-0.235325196761823,0.618307009169562,-0.235325196760667,-0.698886850950419,NaN,NaN,NaN,NaN,-1.20606912275948,-1.01709327297339,0.581939042309734,-1.01709327297203,0.00422893919529172,0.311495831888312,NaN,0.58545683223766,-2.92896010906987,NaN,NaN,0.572861016285263,0.144449596107817,0.329128251097138,0.113677120646823,0.552346984312006,0.72222096456797,-2.3244713820487,-0.512436883845468,0.27999686403595,0.793961156198391,0.793961156201962,NaN,-1.20022885337504,NaN,NaN,-1.16509028656325,0.270964402904119,-1.07360568512599,-0.591258131857725,-0.591258131859377,1.9868915836232,-1.98689158362422,0.284035820016779
152.9856,0.96422441429425,0.359349367279146,1.56244514983665,0.154511959723427,2.20949619243176,2.20949619243384,1.61237129531429,1.25651097082619,1.49329074657578,-0.250861047367166,0.592763526220601,-0.25086104736601,-0.680682906184758,NaN,NaN,NaN,NaN,-1.22135494951141,-0.992271687937245,0.571703834349652,-0.992271687935903,-0.0160032722816398,0.294472974161517,NaN,0.526436371039269,-2.96045204825219,NaN,NaN,0.561942201410264,0.179624977566424,0.378222859242736,0.0779094715356219,0.562207187985123,0.679154479407944,-2.30080350709808,-0.534842568924336,0.239643668037335,0.805055804371486,0.80505580437507,NaN,-1.19476826489666,NaN,NaN,-1.14761473270532,0.279374576406205,-1.04975065628099,-0.578995788748795,-0.57899578875045,1.99609630463095,-1.99609630463197,0.227927056216218
153.088,0.915624572856816,0.36329138992435,1.50432091818026,0.202501932924414,2.21871292851603,2.21871292851812,1.62495364173861,1.26675659521309,1.50514321569355,-0.266121372983473,0.566404956909608,-0.266121372982317,-0.662098992322588,NaN,NaN,NaN,NaN,-1.2364883878336,-0.966877774868446,0.560441265631537,-0.966877774867126,-0.0357730636637855,0.277582499260428,NaN,0.466774288425922,-2.98984949528586,NaN,NaN,0.55083394037892,0.212037233683066,0.426388019454268,0.0432615264126826,0.572489532592109,0.635774818132183,-2.27381848529871,-0.555962024052863,0.198543142788408,0.816292643244604,0.816292643248201,NaN,-1.18800228140022,NaN,NaN,-1.12848780634442,0.28798908330756,-1.0245020143205,-0.565609936632727,-0.565609936634386,2.00468934411127,-2.0046893441123,0.171836455439148
153.1904,0.86690002594404,0.366582199316984,1.44542899105812,0.249436323463704,2.22740137366772,2.22740137366981,1.63547503531306,1.27606616471055,1.51539037021836,-0.281088439975535,0.539279618567419,-0.28108843997438,-0.643138502297051,NaN,NaN,NaN,NaN,-1.25144882035778,-0.940932922153602,0.548135493599535,-0.940932922152303,-0.0550519915407943,0.260858107580835,NaN,0.406569659193896,-3.01708276873367,NaN,NaN,0.539550239940427,0.241667550848636,0.473501178352665,0.0097972427235174,0.58313456126817,0.59216580182085,-2.24354241771994,-0.575742441608243,0.15676862755444,0.827648446642517,0.82764844664613,NaN,-1.17993653579761,NaN,NaN,-1.10773581997763,0.296787307903892,-0.997930679125369,-0.551101676950523,-0.551101676952186,2.01261419514336,-2.0126141951444,0.115836000874756
153.2928,0.818112233247422,0.369179081187452,1.38580758409653,0.295223454778049,2.23553330964905,2.23553330965114,1.64393752987207,1.28443876658843,1.52403297415191,-0.295747079645061,0.511437656591196,-0.295747079643906,-0.623804982377849,NaN,NaN,NaN,NaN,-1.26621542467852,-0.914459381799829,0.534773879020158,-0.914459381798553,-0.0738144474841398,0.244329944958086,NaN,0.345924800874625,-3.04208747588314,NaN,NaN,0.528102826837464,0.268508230598526,0.519442951635226,-0.0224249293043739,0.59407905370501,0.548410765131904,-2.21001336103923,-0.594136899085679,0.114396833517095,0.839098055643925,0.839098055647553,NaN,-1.17057826119583,NaN,NaN,-1.08539045050011,0.305745735318956,-0.97011234844128,-0.535476869690557,-0.535476869692221,2.01981511913291,-2.01981511913395,0.0599958690980565
153.3952,0.769320290367285,0.371043512602214,1.32549582639603,0.33977743684787,2.24307835673757,2.24307835673967,1.6503506530355,1.29187409208428,1.53107634926589,-0.310084602750803,0.482930855903871,-0.310084602749648,-0.604102254390013,NaN,NaN,NaN,NaN,-1.28076723639612,-0.887480342742058,0.520347171398123,-0.887480342740805,-0.0920377794506674,0.228024444919625,NaN,0.284945012244474,-3.06480481372937,NaN,NaN,0.516501251793214,0.292562574312281,0.564097572596392,-0.0533522288159803,0.605256315171233,0.50459206045497,-2.17328138379908,-0.611104768550207,0.0715076147256988,0.850614531696369,0.850614531700011,NaN,-1.15993627274405,NaN,NaN,-1.06148862983394,0.314837953117788,-0.941127090907163,-0.518746220745156,-0.518746220746821,2.02623730078284,-2.02623730078388,0.00438435282868212
153.4976,0.720580969047672,0.372141221844547,1.26453386771123,0.383018266003523,2.2500041353345,2.2500041353366,1.65473120751003,1.29837236279235,1.53653022786513,-0.324090654483976,0.453812435865776,-0.324090654482822,-0.58403452125388,NaN,NaN,NaN,NaN,-1.2950831909171,-0.860020011239126,0.504849670641175,-0.860020011237896,-0.109702367360498,0.211964241454839,NaN,0.223738319109686,-3.08518184737755,NaN,NaN,0.504753014212708,0.31384470223228,0.60735331515162,-0.0829377224890767,0.61659649537927,0.460790557999733,-2.13340852753604,-0.626612085400365,0.0281837386874878,0.862169319811731,0.862169319815386,NaN,-1.1480209434136,NaN,NaN,-1.03607240085758,0.324034685801696,-0.911058927624518,-0.500925296640962,-0.500925296642624,2.03182699722732,-2.03182699722836,-0.0509321630412082
153.6,0.671948815639638,0.37244220965199,1.20296302354416,0.424871863966258,2.2562764613881,2.25627646139021,1.65710303557318,1.30393427251804,1.5404085914493,-0.337757017286501,0.424136846362497,-0.337757017285348,-0.563606442274115,NaN,NaN,NaN,NaN,-1.30914213455007,-0.832103687748309,0.488279380732585,-0.832103687747104,-0.126791655658301,0.196168140464414,NaN,0.162415219605159,-3.10317176169424,NaN,NaN,0.492863709342957,0.332379325913314,0.649102902154324,-0.111140413290779,0.628026930108401,0.41708515772535,-2.09046868053706,-0.640631867713557,-0.0154893491111041,0.87373241501012,0.873732415013784,NaN,-1.13484418091529,NaN,NaN,-1.0091887528424,0.333303872771861,-0.87999541372097,-0.48203448224728,-0.482034482248936,2.03653168115651,-2.03653168115756,-0.105889177857155
153.7024,0.623476294988339,0.371920738972652,1.14082594856467,0.465270059279506,2.26185958009844,2.26185958010055,1.65749674403501,1.30856093081078,1.54272948747902,-0.351077380442678,0.393959576383375,-0.351077380441526,-0.542823174945872,NaN,NaN,NaN,NaN,-1.32292280319632,-0.803757820284709,0.470638169663705,-0.803757820283532,-0.143292142995045,0.180651140312222,NaN,0.101088419071354,-3.11873407748066,NaN,NaN,0.480837195440602,0.34820147852911,0.689243888954665,-0.137925317343549,0.639472496912588,0.373552335012901,-2.04454737640501,-0.653144374845466,-0.0594237712426205,0.885272516177471,0.885272516181146,NaN,-1.12041941571996,NaN,NaN,-0.980889450107046,0.342610787953341,-0.848027223438415,-0.462098899949632,-0.46209889995128,2.04030017542681,-2.04030017542787,-0.160424024697472
153.8048,0.575213959970845,0.370555301106492,1.07816682056696,0.504150512801714,2.26671643234683,2.26671643234894,1.65594937584477,1.31225379439408,1.54351481007592,-0.36404709952646,0.363336975047022,-0.364047099525309,-0.521690385987264,NaN,NaN,NaN,NaN,-1.3364037762353,-0.775010019135679,0.45193193998839,-0.775010019134525,-0.159193324191169,0.165424499528482,NaN,0.0398725465144056,-3.13183482595614,NaN,NaN,0.46867577725346,0.361356187519345,0.727679006768679,-0.163263497982816,0.650855981367038,0.330265736005421,-1.99574152678234,-0.664137297273796,-0.103529476282349,0.896757150454956,0.896757150458641,NaN,-1.10476161049428,NaN,NaN,-0.951230862057248,0.351918190474067,-0.815247729288906,-0.441148301255527,-0.441148301257168,2.04308278232347,-2.04308278232452,-0.214475814787378
153.9072,0.527210624657787,0.368328563712288,1.01503151207377,0.54145659306178,2.27080894267107,2.27080894267319,1.65250401662206,1.31501458132882,1.54279003559964,-0.376662964444955,0.332326078540094,-0.376662964443804,-0.500214234976913,NaN,NaN,NaN,NaN,-1.34956341788469,-0.745889030134267,0.432170805569313,-0.745889030133138,-0.174487580631755,0.150495851575798,NaN,-0.0211161527938205,-3.14244667975361,NaN,NaN,0.456380402675659,0.371898063959386,0.764316458641884,-0.187132048588795,0.662098456751906,0.287295829177012,-1.94415908931409,-0.673605873109364,-0.147714509249911,0.908152759035776,0.908152759039469,NaN,-1.08788729810502,NaN,NaN,-0.920273797116071,0.361186498910228,-0.781752555281701,-0.419216930566561,-0.419216930568197,2.04483141602805,-2.0448314160291,-0.267985387393015
154.0096,0.479513527423929,0.365227300888222,0.951467732390367,0.577137204025702,2.27409831772343,2.27409831772555,1.647209335142,1.31684517246207,1.54058391460688,-0.388922981405502,0.300984440970565,-0.388922981404352,-0.478401332182891,NaN,NaN,NaN,NaN,-1.36237981243792,-0.716424665420699,0.411369269562229,-0.716424665419594,-0.189170021118419,0.135869364754873,NaN,-0.0817601522364517,-3.1505490399175,NaN,NaN,0.443950869255217,0.379890788515404,0.799070168539119,-0.209514020023473,0.673119683548,0.244709610260009,-1.88991866288464,-0.681552929824892,-0.191885296874975,0.919424746958406,0.919424746962101,NaN,-1.06981464781677,NaN,NaN,-0.888083338143915,0.370373990858722,-0.747639081353298,-0.396343354009174,-0.396343354010802,2.04549973968228,-2.04549973968334,-0.320895265484199
154.112,0.43216848011688,0.361242302495894,0.887525132512705,0.611146562961507,2.2765453480595,2.27654534806162,1.64011906587566,1.31774750831911,1.53692812853078,-0.40082616024053,0.269369973539598,-0.400826160239381,-0.456258663814805,NaN,NaN,NaN,NaN,-1.37483068800025,-0.686647685262847,0.389546404211808,-0.686647685261768,-0.203238277414402,0.121545946260183,NaN,-0.141941008772714,-3.15612808349062,NaN,NaN,0.431386039684204,0.385406488738623,0.831859994729274,-0.230398297235967,0.683838535903809,0.202570346128671,-1.83314900158662,-0.687988858405032,-0.235946952414,0.930537507750105,0.930537507753798,NaN,-1.0505635537794,NaN,NaN,-0.854728675054135,0.379437035433131,-0.713005884128038,-0.37257024755342,-0.372570247555042,2.04504330008958,-2.04504330009064,-0.37314961608708
154.2144,0.385220002493214,0.356368261417647,0.823255370658843,0.643443931628384,2.27811071308166,2.27811071308378,1.63129144545221,1.31772348780925,1.53185692076782,-0.412372294615182,0.237540790846212,-0.412372294614034,-0.433793466710161,NaN,NaN,NaN,NaN,-1.38689331737042,-0.656589627665766,0.36672603569061,-0.656589627664712,-0.216692252266191,0.107523493299351,NaN,-0.201539760431524,-3.15917678398646,NaN,NaN,0.418684070572755,0.38852502229418,0.86261192801805,-0.249779441024371,0.69417345780652,0.160937339109221,-1.77398844584781,-0.692931533525188,-0.279803606883294,0.941454431452195,0.941454431455886,NaN,-1.03015574076056,NaN,NaN,-0.820282932318648,0.388330364713498,-0.67795211732851,-0.347944143701433,-0.347944143703046,2.04341966106874,-2.04341966106981,-0.42469421649467
154.3168,0.338711442644814,0.350603638837116,0.758712139426863,0.673993310634488,2.27875529490319,2.27875529490532,1.62078861489157,1.31677487038644,1.52540670970762,-0.423561728684237,0.205555052507424,-0.423561728683089,-0.411013035967947,NaN,NaN,NaN,NaN,-1.39854438821573,-0.626282589200391,0.342936933062821,-0.626282589199364,-0.229533810644325,0.0937971954472823,NaN,-0.260437358656575,-3.15969491571654,NaN,NaN,0.40584265946482,0.389333202327606,0.891258287590666,-0.267657511945275,0.704042940936394,0.119865702788994,-1.71258427529609,-0.696406188774545,-0.323358773822251,0.952137893795263,0.95213789379895,NaN,-1.00861488401272,NaN,NaN,-0.784822991285027,0.397007383329457,-0.642576852735801,-0.322515140221626,-0.32251514022323,2.04058855080522,-2.04058855080629,-0.475476426056674
154.4192,0.292685084851136,0.343950506641313,0.693951155562007,0.702763108867848,2.27844050281493,2.27844050281706,1.60867599890496,1.31490317960192,1.5176156892475,-0.434395113954861,0.173470789636949,-0.434395113953713,-0.387924469481337,NaN,NaN,NaN,NaN,-1.40975984366269,-0.595758964055645,0.318212994475322,-0.595758964054639,-0.24176641347466,0.0803598846591675,NaN,-0.318515131062481,-3.15768904411737,NaN,NaN,0.392859305256971,0.387924014596985,0.917737908446686,-0.284037882309693,0.713366008794971,0.0794061526872585,-1.64909199304092,-0.698445248782103,-0.366515749435624,0.962549221895663,0.962549221899343,NaN,-0.985966738764097,NaN,NaN,-0.748429307169413,0.405420509342671,-0.606978411508387,-0.296336581498294,-0.29633658149989,2.03651203344861,-2.03651203344968,-0.525445160871323
154.5216,0.2471822414844,0.336414366239214,0.629030107383651,0.729725804735676,2.27712859773704,2.27712859773918,1.59502167394469,1.31210960747754,1.50852342322942,-0.444873169701628,0.141345716630038,-0.444873169700481,-0.364534375819923,NaN,NaN,NaN,NaN,-1.42051470486975,-0.565051157152411,0.292593420816454,-0.565051157151428,-0.253394715437776,0.0672024162082625,NaN,-0.375655257534307,-3.15317249992886,NaN,NaN,0.379731560634176,0.384395874654606,0.94199630988763,-0.29893103498162,0.722062696193463,0.0396048194434533,-1.58367455980958,-0.699088120820001,-0.40917803863432,0.972648644289768,0.972648644293441,NaN,-0.962239272897508,NaN,NaN,-0.711185719948946,0.413521536192362,-0.571253715517327,-0.269464731945725,-0.269464731947313,2.03115469524706,-2.03115469524814,-0.574550871063276
154.624,0.202243321664542,0.328003946998242,0.564008553577965,0.754857618164096,2.2747830017286,2.27478300173073,1.5798957355827,1.30839492264669,1.49817044119826,-0.454996462195405,0.109237036799119,-0.454996462194258,-0.340848575030172,NaN,NaN,NaN,NaN,-1.43078289333289,-0.534191297156281,0.266122866553122,-0.534191297155317,-0.264424160062131,0.0543140590748472,NaN,-0.431741238133146,-3.14616533694831,NaN,NaN,0.366457248046177,0.378851957913524,0.963985850784472,-0.312352354026693,0.730054524047914,0.000503090036867119,-1.51650160325377,-0.698380953283954,-0.451249788111479,0.982395242897525,0.982395242901187,NaN,-0.937462797062136,NaN,NaN,-0.673179259804762,0.42126200238853,-0.535497677578536,-0.241958462612016,-0.241958462613594,2.02448383033281,-2.02448383033389,-0.622745526582517
154.7264,0.157907874760336,0.318730991770099,0.498947777923387,0.778138203105875,2.27136858649883,2.27136858650097,1.56336967169676,1.30375938500022,1.48659784043505,-0.464765206983025,0.0772012544572384,-0.464765206981879,-0.31687180791777,NaN,NaN,NaN,NaN,-1.4405370679062,-0.503210972177769,0.23885155783254,-0.503210972176826,-0.274860594710756,0.0416828821818807,NaN,-0.486658342161208,-3.13669427303517,NaN,NaN,0.353034626954039,0.371399606360217,0.98366589084262,-0.324321919353004,0.737264975897923,-0.0378625212068266,-1.44774861850235,-0.696376367100422,-0.492636208498461,0.99174692215362,0.991746922157269,NaN,-0.911670089222469,NaN,NaN,-0.634499950433201,0.428593556280939,-0.499802633970189,-0.213878969823422,-0.21387896982499,2.0164696238384,-2.01646962383948,-0.669982623210322
154.8288,0.114214613018905,0.308610037151122,0.43391061254583,0.799550359463335,2.26685194229443,2.26685194229657,1.54551574424974,1.29820266780575,1.47384689630055,-0.474179086664257,0.0452940076242276,-0.474179086663112,-0.292607456660935,NaN,NaN,NaN,NaN,-1.44974848449807,-0.472140997904731,0.210835368914666,-0.472140997903811,-0.28470991126933,0.0292961321385824,NaN,-0.540294039538533,-3.12479260902706,NaN,NaN,0.339462529113642,0.362149777079133,1.0010029680908,-0.33486431060452,0.74361998121543,-0.0754604746498497,-1.3775961535518,-0.69313315929477,-0.533243975576823,1.00066040699082,1.00066040699446,NaN,-0.884896512708322,NaN,NaN,-0.595240613537878,0.435468311320158,-0.464257813472673,-0.185289543969222,-0.185289543970776,2.00708533946039,-2.00708533946148,-0.716217219981558
154.9312,0.0712014153395884,0.297658193577262,0.368961237037833,0.819079762002179,2.2612016268412,2.26120162684334,1.52640638356416,1.2917237903886,1.4599586845244,-0.48323708072907,0.0135699301281196,-0.483237080727926,-0.26805727618837,NaN,NaN,NaN,NaN,-1.45838688145028,-0.441011217314001,0.182135850085927,-0.441011217313102,-0.293977711455711,0.0171406013020992,NaN,-0.592538415625576,-3.11050011863183,NaN,NaN,0.325740493469457,0.351216475670821,1.01597098560053,-0.344008414254079,0.749048405417029,-0.112264286837703,-1.30622896615115,-0.688715977538201,-0.572981606270017,1.00909128063124,1.00909128063486,NaN,-0.85718012685117,NaN,NaN,-0.555496674467791,0.441839196801784,-0.428948836222092,-0.156255395269012,-0.156255395270555,1.99630751861963,-1.99630751862072,-0.76140600848917
155.0336,0.0289053131336154,0.28589492649456,0.304164955799648,0.836714705027332,2.25438839192306,2.2543883919252,1.50611360435391,1.2843210677174,1.44497372362172,-0.491937313773732,-0.0179174600636226,-0.491937313772588,-0.243221142056626,NaN,NaN,NaN,NaN,-1.46642038799381,-0.409850327552355,0.152820207959258,-0.409850327551475,-0.302668996713092,0.00520298444252312,NaN,-0.643284565571316,-3.09386291068382,NaN,NaN,0.311868920058113,0.338716146575609,1.02855139736991,-0.351787230464247,0.753482539190345,-0.148252595787751,-1.23383516096671,-0.6831949730723,-0.611759806286056,1.01699406783782,1.01699406784143,NaN,-0.82856178799769,NaN,NaN,-0.515365965926389,0.447660310471008,-0.393957240758696,-0.126843520773617,-0.126843520775146,1.98411619309965,-1.98411619310074,-0.805507399197038
155.136,-0.0126375349443485,0.273341833290328,0.239587957262022,0.852445858830984,2.2463853865315,2.24638538653364,1.48470845871375,1.27599208249307,1.42893164868609,-0.500276926554297,-0.0491158563944845,-0.500276926553157,-0.218096834372029,NaN,NaN,NaN,NaN,-1.47381544831709,-0.378685729912942,0.122961249036131,-0.378685729912079,-0.310787883334034,-0.00652977891471215,NaN,-0.692428962924815,-3.07493327283837,NaN,NaN,0.297849238754775,0.324767051556998,1.03873338524314,-0.358237685965811,0.756858568757303,-0.183409208819847,-1.16060533759797,-0.676645445130102,-0.649491787319008,1.02432235716286,1.02432235716646,NaN,-0.79908523534155,NaN,NaN,-0.474948526085835,0.452887271115176,-0.359360044485735,-0.0971225862651227,-0.0971225862666391,1.97049510376463,-1.97049510376572,-0.848481601948823
155.2384,-0.0533918699552689,0.26002240755091,0.175297059105155,0.86626603477609,2.2371683367766,2.23716833677874,1.46226054416466,1.26673368308056,1.41187092844568,-0.508251967747337,-0.079974247713485,-0.508251967746197,-0.192679883270857,NaN,NaN,NaN,NaN,-1.48053675892767,-0.34754339928336,0.0926372947005466,-0.347543399282513,-0.318337342041106,-0.0180701792919061,NaN,-0.739871799158759,-3.05376950104831,NaN,NaN,0.283684077888133,0.309488690040995,1.04651400856339,-0.363400454786539,0.759117002534475,-0.217723127955793,-1.08673177318006,-0.669147483943652,-0.686093555291259,1.03102894369376,1.03102894369734,NaN,-0.768797153193645,NaN,NaN,-0.434346389411289,0.45747756075863,-0.325229346142386,-0.0671628074437035,-0.0671628074452062,1.95543191232845,-1.95543191232955,-0.890290685380306
155.3408,-0.0933233559611675,0.245961789890871,0.111359445589988,0.878169961449562,2.22671570489429,2.22671570489643,1.43883757988523,1.25654200947567,1.39382863410214,-0.515857304954397,-0.110442988023384,-0.515857304953256,-0.166963490763516,NaN,NaN,NaN,NaN,-1.48654722825038,-0.316447773034135,0.0619320615849894,-0.316447773033306,-0.325318960365602,-0.0294298299996446,NaN,-0.785517294676629,-3.03043570932136,NaN,NaN,0.269377420090669,0.293001284822751,1.05189829856306,-0.367319773166585,0.760203039305495,-0.251188542673004,-1.01240764561598,-0.660785607221843,-0.721484173855861,1.03706597259242,1.03706597259598,NaN,-0.737747205330145,NaN,NaN,-0.393663372900006,0.461390844561427,-0.291631980070015,-0.0370358309183565,-0.0370358309198463,1.93891839789369,-1.9389183978948,-0.930898619730468
155.4432,-0.132398599707791,0.231186515559862,0.0478424064577282,0.88815407580903,2.2150088315385,2.21500883154064,1.41450505231331,1.24541254768448,1.37484026080185,-0.523086560100418,-0.140473853407845,-0.523086560099276,-0.140938533352784,NaN,NaN,NaN,NaN,-1.4918079728435,-0.285421669815152,0.0309344917064261,-0.285421669814345,-0.331732727291539,-0.0406191775930984,NaN,-0.829273984648046,-3.00500161114973,NaN,NaN,0.254934731801983,0.275425322487521,1.05489927444082,-0.370043228494305,0.760066877916168,-0.283804773751291,-0.937826302744695,-0.651648379965663,-0.755586006120122,1.04238507573371,1.04238507573725,NaN,-0.705988042685962,NaN,NaN,-0.353004861832484,0.464589258319185,-0.258629231629222,-0.00681461943375109,-0.00681461943522508,1.92095063659198,-1.92095063659309,-0.970271322232407
155.5456,-0.170585169944204,0.215724271509209,-0.0151869148610125,0.896216332808735,2.20203206286862,2.20203206287076,1.38932592233945,1.23334020998839,1.35493959613644,-0.529932075375466,-0.170020094382028,-0.529932075374323,-0.114593648491679,NaN,NaN,NaN,NaN,-1.49627836357903,-0.254486258688949,-0.000261483452578465,-0.254486258688159,-0.337576843035983,-0.0516472318567493,NaN,-0.871054979858801,-2.977542267091,NaN,NaN,0.240363053609629,0.256881131429058,1.05553787116147,-0.371621510924679,0.758663972101729,-0.31557615785194,-0.863180584428017,-0.641828012824517,-0.788324935496891,1.04693750951904,1.04693750952256,NaN,-0.673575282452016,NaN,NaN,-0.312477591355631,0.46703765787151,-0.226276620808846,0.0234266625924583,0.0234266625909972,1.90152916229004,-1.90152916229115,-1.00837672157022
155.648,-0.207851619523043,0.199603671086123,-0.077661760086258,0.90235604025589,2.18777286021372,2.18777286021586,1.36336038607955,1.22031943673675,1.33415862910594,-0.536384904935316,-0.199036488225938,-0.536384904934172,-0.0879153997438198,NaN,NaN,NaN,NaN,-1.49991612889285,-0.223661095625697,-0.0315572540628994,-0.223661095624927,-0.34284756035232,-0.0625213196067677,NaN,-0.910778199644425,-2.94813779884284,NaN,NaN,0.225671054350657,0.23748848755356,1.05384278710088,-0.372108132382692,0.755955233749081,-0.346511879651273,-0.788662188695997,-0.631419940187881,-0.819630567981646,1.05067431171932,1.05067431172282,NaN,-0.640567452271552,NaN,NaN,-0.272189411796483,0.46870383661532,-0.194623760289989,0.0536127713321273,0.0536127713306781,1.8806591052708,-1.88065910527192,-1.0451848479681
155.7504,-0.244167514503444,0.182854049583096,-0.139515984328808,0.906573724190596,2.17222188985441,2.17222188985655,1.33666568596051,1.20634431743699,1.3125274966621,-0.542434821642652,-0.22747939113115,-0.542434821641508,-0.060888500806205,NaN,NaN,NaN,NaN,-1.50267750992536,-0.192964225623869,-0.0628499160517462,-0.192964225623118,-0.347539063326733,-0.0732468659395678,NaN,-0.948366578254841,-2.91687307785763,NaN,NaN,0.210869064866897,0.217366244165009,1.04985027656889,-0.371559128253813,0.751907193659951,-0.37662576737669,-0.714461063802358,-0.620522381908044,-0.849436420545018,1.05354649250823,1.05354649251172,NaN,-0.607025898408164,NaN,NaN,-0.232249028686069,0.469558728066883,-0.16371429223698,0.0836675187404467,0.083667518739011,1.85835031140118,-1.85835031140231,-1.08066795011507
155.8528,-0.279503479464354,0.165505277720459,-0.200684288174242,0.908871019617468,2.15537309078416,2.1553730907863,1.30929597379004,1.19140873425893,1.29007447020146,-0.548070341178404,-0.255306795766303,-0.54807034117726,-0.0334960788918149,NaN,NaN,NaN,NaN,-1.5045174542419,-0.162412328367615,-0.0940327194377848,-0.162412328366885,-0.351643383940263,-0.0838272021517316,NaN,-0.983748249192111,-2.88383739911065,NaN,NaN,0.19596909674073,0.196631991384463,1.04360390796713,-0.37003275327851,0.746492128943578,-0.405936062687546,-0.640764822254959,-0.60923589530457,-0.87768009908866,1.05550525784314,1.05550525784661,NaN,-0.573014661421833,NaN,NaN,-0.192765715388395,0.469576606791269,-0.133585898601232,0.113513928436247,0.113513928434826,1.83461744931581,-1.83461744931694,-1.11480063502318
155.9552,-0.313831270958137,0.147587581789377,-0.261102479327291,0.909250575739851,2.13722371670533,2.13722371670746,1.28130223058423,1.17550653424319,1.266825987593,-0.553278779910775,-0.282478406377083,-0.553278779909631,-0.00571997303803168,NaN,NaN,NaN,NaN,-1.50538984016427,-0.132020878996058,-0.124995576457134,-0.132020878995349,-0.355150348089004,-0.0942633941038785,NaN,-1.01685670844478,-2.84912414218921,NaN,NaN,0.180984832744935,0.175401756259886,1.03515428394385,-0.367589170244606,0.739688154596697,-0.434465169824964,-0.567758181874057,-0.59766292358736,-0.904303467569853,1.05650224307088,1.05650224307432,NaN,-0.538600318210997,NaN,NaN,-0.153848995584363,0.468735289121709,-0.104270367486151,0.143074423440183,0.143074423438777,1.80948010754458,-1.80948010754572,-1.14756001890401
156.0576,-0.347123887613143,0.129131355544517,-0.320707788584518,0.907715970855973,2.11777434786926,2.11777434787139,1.25273224706252,1.15863173384334,1.24280673462512,-0.558046359157756,-0.308955740096733,-0.558046359156611,0.0224589270989678,NaN,NaN,NaN,NaN,-1.50524773212379,-0.101804303621774,-0.155625629477291,-0.101804303621085,-0.358047537768165,-0.104554083475678,NaN,-1.04763095852308,-2.81283041021501,NaN,NaN,0.165931574676784,0.153789748451312,1.02455870493524,-0.36429012189887,0.731479270058061,-0.46223938461228,-0.495622428288476,-0.585907338572595,-0.929252813181096,1.05648972968429,1.05648972968772,NaN,-0.503851785504611,NaN,NaN,-0.115608292404813,0.467016328379358,-0.0757936960795858,0.172271050290455,0.17227105028906,1.78296287247094,-1.78296287247208,-1.17892587701489
156.16,-0.379355716975335,0.11016695580706,-0.37943924776921,0.904271639162881,2.09702887124793,2.09702887125006,1.22363066174995,1.14077875235968,1.21803977255901,-0.562358353824248,-0.33470225351703,-0.562358353823104,0.0510602964993899,NaN,NaN,NaN,NaN,-1.5040436669047,-0.0717761224630066,-0.185807873036402,-0.0717761224623357,-0.360320260536867,-0.114695339297122,NaN,-1.07601564398246,-2.7750566334308,NaN,NaN,0.15082615218992,0.131908148597139,1.0118807650305,-0.360198579123846,0.721855356994439,-0.489288595374355,-0.424534886255071,-0.574073965743884,-0.952479016726957,1.05542083374473,1.05542083374813,NaN,-0.468840083780272,NaN,NaN,-0.0781525479091252,0.464405198257079,-0.0481762230893388,0.201025737272544,0.20102573727116,1.7550953757429,-1.75509537574406,-1.20888079320811
156.2624,-0.41050270602137,0.0907244856052712,-0.437238109428907,0.898922814667973,2.07499443093196,2.07499443093408,1.19403904540445,1.12194266562189,1.19254670140724,-0.566199271064389,-0.359683483087386,-0.566199271063247,0.0801039411992917,NaN,NaN,NaN,NaN,-1.50172996842842,-0.0419490886813088,-0.215425816421742,-0.041949088680654,-0.36195152727601,-0.124680523017361,NaN,-1.10196119150427,-2.73590612936113,NaN,NaN,0.13568681574098,0.109866941024501,0.997189881645767,-0.355378366926333,0.710812127977411,-0.515645943079587,-0.354668393895531,-0.562268079117005,-0.973937733601795,1.05324967535682,1.05324967536021,NaN,-0.433638064567471,NaN,NaN,-0.041589820980382,0.46089145736979,-0.0214327979714971,0.229260587069375,0.229260587068002,1.72591231207339,-1.72591231207454,-1.23741031968304
156.3648,-0.440542530819799,0.0708335746365623,-0.494048267954724,0.891675500531731,2.05168135033512,2.05168135033723,1.16399602060349,1.10211947424102,1.16634784996473,-0.569553039496143,-0.383867179830232,-0.569553039495002,0.109609316207233,NaN,NaN,NaN,NaN,-1.4982590927741,-0.0123353448757162,-0.244362171788665,-0.0123353448750782,-0.362922045646991,-0.134500171066318,NaN,-1.12542395900262,-2.69548461981157,NaN,NaN,0.120533141927141,0.0877738032581865,0.980560764667659,-0.349893776575159,0.698351021391629,-0.541347436060188,-0.286190782052451,-0.550594863330422,-0.99358958113464,1.04993154705065,1.04993154705401,NaN,-0.398320103618704,NaN,NaN,-0.00602686781359721,0.456468887897122,0.00442700407568661,0.256898208670878,0.256898208669517,1.69545344545297,-1.69545344545414,-1.26450315225651
156.4672,-0.46945474246928,0.0505231643140404,-0.549816646240872,0.88253647341805,2.02710302687825,2.02710302688036,1.13353741251031,1.08130638746642,1.13946249077986,-0.572403191531865,-0.407223419501973,-0.572403191530726,0.139595003599303,NaN,NaN,NaN,NaN,-1.4935840072117,0.0170533807279391,-0.272499554121327,0.0170533807285604,-0.363210236639951,-0.144141895091705,NaN,-1.14636639046875,-2.65389971378915,NaN,NaN,0.105385968072996,0.0657340642729518,0.962072833694522,-0.343809173971563,0.68447903908345,-0.566431527699958,-0.219264364248268,-0.539158851977244,-1.01140032364673,1.04542309292686,1.04542309293018,NaN,-0.362961762839787,NaN,NaN,0.0284312943937904,0.451135604855679,0.0293986224250585,0.283862091289029,0.283862091287683,1.66376362569654,-1.66376362569772,-1.29015131599546
156.5696,-0.497220882009187,0.0298213025841045,-0.604493533742971,0.871513327419575,2.00127580579565,2.00127580579775,1.10269642803754,1.05950212178956,1.11190907808233,-0.574733028805694,-0.429724683613424,-0.574733028804556,0.170078175046115,NaN,NaN,NaN,NaN,-1.48765859949232,0.0462055363781024,-0.29972118056939,0.0462055363787057,-0.36279227754079,-0.153590296329741,NaN,-1.16475717214992,-2.61126037372589,NaN,NaN,0.090267353317642,0.0438507232667933,0.941809602715217,-0.337188614158205,0.669208536389787,-0.590938675535281,-0.154045440882502,-0.528063358121278,-1.02734104968177,1.03968250196346,1.03968250196675,NaN,-0.327639430296681,NaN,NaN,0.0616818385415897,0.44489413964414,0.0534822183754675,0.31007701352887,0.310077013527537,1.63089282066546,-1.63089282066665,-1.31435034821152
156.672,-0.523824574838336,0.00875495821949531,-0.658032880258279,0.858614554443643,1.97421885149552,1.97421885149762,1.07150385131726,1.03670720239617,1.08370549634823,-0.57652577197447,-0.451345928610247,-0.576525771973334,0.201074078188902,NaN,NaN,NaN,NaN,-1.48043810304247,0.0751094915688383,-0.325911559060783,0.075109491569419,-0.361642169289684,-0.162826888433209,NaN,-1.18057138584623,-2.56767638523093,NaN,NaN,0.0752005477714313,0.0222244955239012,0.919858064829027,-0.330095472995587,0.652556988599895,-0.614910906108932,-0.0906838156878661,-0.517409914911409,-1.04138833877335,1.03266971771724,1.03266971772051,NaN,-0.292429957398786,NaN,NaN,0.0936245893840069,0.437751507180253,0.0766823650376379,0.335469469738358,0.335469469737037,1.5968961462435,-1.5968961462447,-1.33709945880213
156.7744,-0.549251622348663,-0.0126501326206912,-0.710392555983964,0.843849651215051,1.9459540400238,1.94595404002588,1.03998823663668,1.01292424949729,1.05486930056482,-0.577764706403952,-0.472064669566949,-0.577764706402818,0.232595585952232,NaN,NaN,NaN,NaN,-1.4718795200985,0.10375329936558,-0.350957158417882,0.103753299366138,-0.35973182424717,-0.171830024563899,NaN,-1.19379065365008,-2.52325784322462,NaN,NaN,0.0602099506231792,0.000953848582226738,0.896308108921677,-0.322592105076986,0.634546759767362,-0.638391404133845,-0.0293223228095345,-0.507297739894303,-1.05352441518866,1.02434666965147,1.0243466696547,NaN,-0.257410315668171,NaN,NaN,0.124162490603475,0.42971926507446,0.0990077304059543,0.359968090730035,0.359968090728727,1.56183386785074,-1.56183386785195,-1.35840164835731
156.8768,-0.573490100046184,-0.0343695814620898,-0.761534583939143,0.827229236780121,1.91650588730901,1.91650588731109,1.00817608672249,0.988158236739827,1.0254179354525,-0.578433335970475,-0.491861089774173,-0.578433335969342,0.264652827044525,NaN,NaN,NaN,NaN,-1.46194202892842,0.132124499811915,-0.37474705782597,0.132124499812449,-0.357031177643782,-0.18057483589228,NaN,-1.20440326716003,-2.478114655033,NaN,NaN,0.0453210523286886,-0.0198649899136172,0.87125197893677,-0.314739527685895,0.615204886941814,-0.661424124286301,0.0299036262722418,-0.497823225974021,-1.06373728643926,1.01467753179627,1.01467753179947,NaN,-0.222657285708518,NaN,NaN,0.153202070721377,0.420813566274771,0.120470752250865,0.383504042201488,0.383504042200189,1.52577136001054,-1.52577136001175,-1.3782637790236
156.9792,-0.596530454964359,-0.0563804286473236,-0.811425339743457,0.808765162700583,1.88590151450205,1.88590151450413,0.976092015713009,0.962416715660676,0.995368930531941,-0.578515546831489,-0.510718168278027,-0.578515546830359,0.297252890634774,NaN,NaN,NaN,NaN,-1.45058736799978,0.160209970137043,-0.397173586738133,0.160209970137554,-0.353508338980308,-0.189033205961602,NaN,-1.21240429406401,-2.43235605416076,NaN,NaN,0.0305603715500322,-0.0401380611416759,0.844783765992264,-0.306597123251966,0.594562878467911,-0.684053406948487,0.0868664620891943,-0.489079450968585,-1.07202086431982,1.00362901225902,1.00362901226219,NaN,-0.188247174368058,NaN,NaN,0.180653902970999,0.411055198207859,0.141087291512921,0.406011395774625,0.406011395773336,1.48877902805111,-1.48877902805232,-1.39669660935872
157.0816,-0.618365584071242,-0.0786612005012847,-0.860035704806068,0.788470606450851,1.85417064383346,1.85417064383552,0.943758899305572,0.935710000622733,0.964740069943651,-0.577995768615087,-0.528621816446022,-0.57799576861396,0.330399588373631,NaN,NaN,NaN,NaN,-1.43778019801384,0.187995817474291,-0.418132977866406,0.187995817474777,-0.349129803941506,-0.197173809804848,NaN,-1.21779565540383,-2.38609011877213,NaN,NaN,0.0159553995655508,-0.0597737585531369,0.816998929294778,-0.298222360217593,0.57265652160343,-0.706323584559666,0.141446847342132,-0.48115569335254,-1.07837506431354,0.991170674320385,0.991170674323524,NaN,-0.154255544512113,NaN,NaN,0.206433061001963,0.40046959514682,0.16087625137635,0.427427472559667,0.427427472558387,1.45093219957562,-1.45093219957685,-1.41371480563839
157.184,-0.638990878736731,-0.101191950711343,-0.907341161584488,0.766360153954228,1.8213456132926,1.82134561329466,0.911198012257002,0.90805130762127,0.93354953412767,-0.576859113687481,-0.545561026206703,-0.576859113686357,0.364093264922385,NaN,NaN,NaN,NaN,-1.42348845066566,0.215467309263313,-0.437526051495771,0.215467309263777,-0.343860735365294,-0.204962229404828,NaN,-1.22058616868478,-2.33942329228272,NaN,NaN,0.00153454930634176,-0.0786829941110835,0.787993862762152,-0.289670547981299,0.549525698249559,-0.728278587365084,0.193534066767036,-0.474136947667732,-1.08280587862108,0.977275287148129,0.977275287151232,NaN,-0.120756941799028,NaN,NaN,0.230459578479033,0.389086809993896,0.179859165711122,0.447693155218845,0.447693155217575,1.41231098350438,-1.41231098350562,-1.42933693092753
157.2864,-0.65840423720161,-0.123954286439529,-0.953321833866354,0.742449889250524,1.78746139353437,1.78746139353642,0.878429154352512,0.879456845647438,0.90181601340825,-0.575091485503019,-0.561528035826608,-0.5750914855019,0.398330659659452,NaN,NaN,NaN,NaN,-1.4076836746944,0.242608840976502,-0.455258929139344,0.242608840976945,-0.33766530233938,-0.212361132701796,NaN,-1.22079155733043,-2.2924599076238,NaN,NaN,-0.0126729111985778,-0.0967794650709392,0.757865529300106,-0.280994646329134,0.525214207116901,-0.749961572330245,0.243026442785345,-0.468103445971419,-1.08532542117556,0.961919199422488,0.961919199425551,NaN,-0.0878246120160736,NaN,NaN,0.252658917495837,0.37694143957978,0.198059780200389,0.466753165106042,0.46675316510478,1.37300008618545,-1.3730000861867,-1.44358540351221
157.3888,-0.676606060762772,-0.14693137477849,-0.997962487955985,0.716757505803598,1.75255559166464,1.75255559166668,0.845470769126765,0.849945868511112,0.869558799517563,-0.572679664891822,-0.57651850741067,-0.572679664890708,0.433104822479091,NaN,NaN,NaN,NaN,-1.39034138450911,0.269403940178164,-0.471243752854919,0.269403940178583,-0.330507054357409,-0.219330492630594,NaN,-1.21843443209192,-2.24530171910615,NaN,NaN,-0.0266369556584908,-0.113980004424166,0.726711167865749,-0.272245138731393,0.499769585602284,-0.771414592558612,0.289831776137309,-0.463130199101552,-1.08595194575367,0.945082719091376,0.945082719094396,NaN,-0.0555302098605605,NaN,NaN,0.272962440288418,0.364072505337637,0.215503655772284,0.484556310821658,0.4845563108204,1.3330885741412,-1.33308857414246,-1.45648641345015
157.4912,-0.693599244983993,-0.170107929517263,-1.04125250911771,0.689302436979198,1.71666843650529,1.71666843650732,0.812340060742451,0.81954069926184,0.836797863654131,-0.569611387334772,-0.590531699102429,-0.569611387333664,0.468405076612691,NaN,NaN,NaN,NaN,-1.37144140986796,0.295835296607322,-0.485399377168396,0.295835296607716,-0.322349310853078,-0.225827831428639,NaN,-1.2135442482868,-2.19804744771133,NaN,NaN,-0.0403269181028259,-0.130204968511257,0.694628060002158,-0.263469963573132,0.473242923516275,-0.792678308609276,0.333867790826376,-0.459286568364655,-1.08470983687422,0.926750474049563,0.926750474052529,NaN,-0.0239434991760643,NaN,NaN,0.291307869885959,0.350523286752584,0.232217813559103,0.50105571779265,0.501055717791399,1.29266957561065,-1.29266957561192,-1.46806978899553
157.5936,-0.709389166882389,-0.193470182525587,-1.08318585851439,0.660105994327852,1.67984274851229,1.67984274851431,0.779053114831031,0.788266738760864,0.803553929635258,-0.565875416186593,-0.603570617920851,-0.56587541618549,0.504217015154612,NaN,NaN,NaN,NaN,-1.35096824000152,0.321884803366389,-0.497652005140289,0.321884803366762,-0.313155559984516,-0.231808489744737,NaN,-1.20615723688689,-2.15079235331562,NaN,NaN,-0.053711615358162,-0.145378617853182,0.661713338190837,-0.254714489122719,0.445688666951875,-0.813791736575997,0.375062557946361,-0.456635875388451,-1.08162957128342,0.906911732380436,0.906911732383356,NaN,0.00686795621331449,NaN,NaN,0.307639720365636,0.336341094160042,0.248230424319689,0.516209038781323,0.51620903878008,1.25183991212952,-1.2518399121308,-1.47836881361432
157.696,-0.723983670662361,-0.217005839565749,-1.12376101373337,0.629191511059646,1.64212389553948,1.64212389554149,0.745625030471585,0.756152470543106,0.769848551754135,-0.561461615484304,-0.615642149608445,-0.561461615483207,0.540522523340551,NaN,NaN,NaN,NaN,-1.32891135402786,0.34753360238912,-0.507935751011661,0.347533602389469,-0.30288987029544,-0.237225924334729,NaN,-1.19631630530864,-2.10362785725307,NaN,NaN,-0.0667594670796923,-0.1594294696594,0.628063825022604,-0.246021519984991,0.417164415917866,-0.834792027674666,0.413354871117263,-0.455235058643452,-1.07674764983632,0.885560670797412,0.885560670800279,NaN,0.0368391056075135,NaN,NaN,0.321909676198209,0.321576966761789,0.263570533814115,0.529978638475244,0.529978638474004,1.21069965070212,-1.21069965070341,-1.48742000446105
157.7984,-0.737393061483883,-0.240704013739686,-1.16298089861278,0.596584497947352,1.60355972939967,1.60355972940167,0.712070070437116,0.723229474076516,0.735704206911331,-0.55636103228234,-0.626757167070725,-0.556361032281246,0.577299829450989,NaN,NaN,NaN,NaN,-1.30526553142384,0.372762138426566,-0.516193123021235,0.372762138426895,-0.291517317813557,-0.242032033071304,NaN,-1.18407090563893,-2.05664123781753,NaN,NaN,-0.0794386192266159,-0.172290619487764,0.593775898824121,-0.237431329902069,0.387730717554745,-0.855714270162033,0.448694547889482,-0.455134381349588,-1.07010650284874,0.862696584436486,0.862696584439301,NaN,0.0659077161497758,NaN,NaN,0.334076905310268,0.306285294541995,0.278267811595648,0.542331750121016,0.542331750119774,1.16935157429382,-1.16935157429513,-1.49526286620445
157.9008,-0.749630115744341,-0.264555129607281,-1.20085280663877,0.56231281741431,1.56420049733071,1.5642004973327,0.678401833684966,0.689532453138111,0.701144406343159,-0.550565998141243,-0.636930616712541,-0.550565998140154,0.614523592608858,NaN,NaN,NaN,NaN,-1.28003113784676,0.397550230261524,-0.522375428847137,0.397550230261832,-0.279004423800404,-0.246177500642675,NaN,-1.16947687006672,-2.00991540719149,NaN,NaN,-0.0917170797353346,-0.18390003999001,0.558945384089516,-0.228981720790758,0.357450853100306,-0.876591304164099,0.481042644195545,-0.456377189434026,-1.06175437306967,0.83832403380133,0.838324033804087,NaN,0.0940146575318899,NaN,NaN,0.344108300261359,0.290523379587285,0.292352312443228,0.553240608072745,0.553240608071503,1.12790057897071,-1.12790057897203,-1.5019396314049
158.0032,-0.760710106230297,-0.288550795982809,-1.237388313959,0.526406872285141,1.52409872758369,1.52409872758567,0.644633447588714,0.655099275371627,0.666193823730238,-0.54407025033587,-0.646181578171148,-0.544070250334786,0.652165032366818,NaN,NaN,NaN,NaN,-1.25321437854938,0.421877168193117,-0.526443110474552,0.421877168193404,-0.265319591505748,-0.249612156533722,NaN,-1.15259621567008,-1.96352876306219,NaN,NaN,-0.103562870058573,-0.194200867471615,0.523667462735772,-0.220708105955819,0.326390616649898,-0.897453550298911,0.510371585757241,-0.458999718423868,-1.05174517986285,0.81245293382226,0.812452933824957,NaN,0.121104159650102,NaN,NaN,0.351978650297769,0.274350965347195,0.305854242090406,0.562682559783682,0.562682559782439,1.08645301080211,-1.08645301080344,-1.50749499810102
158.1056,-0.770650826255653,-0.312683650372652,-1.27260316458282,0.488899794954105,1.48330909525158,1.48330909525355,0.610777768241738,0.61997100785412,0.630878426125708,-0.536869064146589,-0.654533292329046,-0.536869064145509,0.690192098705948,NaN,NaN,NaN,NaN,-1.22482750400362,0.445721849175551,-0.528366013422339,0.445721849175816,-0.250433527293356,-0.252285337922183,NaN,-1.13349692439414,-1.91755510270558,NaN,NaN,-0.11494418502962,-0.203141682342593,0.488036594722056,-0.212643607533372,0.294618085606353,-0.9183288625635,0.536665225058353,-0.463030953404525,-1.0401383656842,0.785098600611314,0.785098600613947,NaN,0.147124036741171,NaN,NaN,0.357670749828342,0.257829766936728,0.318803717974482,0.570640157653805,0.570640157652561,1.04511595776155,-1.0451159577629,-1.5119758766281
158.208,-0.779472589856475,-0.336947180967978,-1.3065171041359,0.449827619621938,1.44188827885102,1.44188827885298,0.576847572247373,0.584191930510633,0.595225589971584,-0.528959383072415,-0.662013153177024,-0.528959383071339,0.728569676780153,NaN,NaN,NaN,NaN,-1.19488894929244,0.469062959333096,-0.528123588472161,0.469062959333342,-0.234319634334688,-0.254146253460667,NaN,-1.11225270671178,-1.87206358936882,NaN,NaN,-0.12582954482695,-0.210676781114226,0.452146433383277,-0.204819153568583,0.262203385273798,-0.939242411825871,0.559918823650653,-0.468492547055441,-1.02699872134741,0.75628177241029,0.756281772412857,NaN,0.172025870131623,NaN,NaN,0.361175446941219,0.24102302635647,0.331230516370027,0.577101230508205,0.57710123050696,1.0039965172106,-1.00399651721197,-1.51543115435135
158.3104,-0.787198193855998,-0.361335533601939,-1.33915365105711,0.409229430849529,1.39989482002288,1.39989482002484,0.542855729851111,0.54780951766064,0.559264191987971,-0.520339933832311,-0.668652658485797,-0.520339933831239,0.767259817313834,NaN,NaN,NaN,NaN,-1.16342339890632,0.491879197389981,-0.525705018571507,0.491879197390208,-0.216954375379971,-0.255144348887144,NaN,-1.08894275758185,-1.82711876318203,NaN,NaN,-0.136187926535452,-0.216766430906109,0.416089727566796,-0.197263563322502,0.22921845376746,-0.960216591377574,0.58013895474128,-0.475398791481895,-1.01239618402903,0.726028613724376,0.72602861372687,NaN,0.195765145727749,NaN,NaN,0.362491633775332,0.223995096607236,0.343163803972659,0.582058937190452,0.582058937189204,0.963201064541313,-0.963201064542696,-1.51791147744881
158.4128,-0.793852843374152,-0.385843310364978,-1.37053981350015,0.367147495902287,1.35738899849888,1.35738899850083,0.508815362302586,0.510874389654325,0.523024677477203,-0.511011316704517,-0.674487313288105,-0.511011316703449,0.806221982339763,NaN,NaN,NaN,NaN,-1.13046178391017,0.514149513100373,-0.521109264617674,0.514149513100583,-0.198317608288982,-0.255229677931929,NaN,-1.06365151104955,-1.78278058998889,NaN,NaN,-0.145988876095716,-0.221377095512863,0.379958211218953,-0.190003615438922,0.195736815403455,-0.981270925931569,0.597343328354069,-0.483756628387926,-0.996405604576627,0.694370704385312,0.694370704387736,NaN,0.21830134897567,NaN,NaN,0.361626180134163,0.206811045339188,0.3546318597297,0.585511804851823,0.585511804850573,0.922834546250792,-0.922834546252186,-1.51946904083284
158.5152,-0.799464052133566,-0.410465363095735,-1.40070576938753,0.323627392060114,1.31443272791042,1.31443272791237,0.47473999478651,0.473440243352524,0.486539116507179,-0.50097606754103,-0.679556479867782,-0.500976067539967,0.845413300703106,NaN,NaN,NaN,NaN,-1.09604122610536,0.535853336374022,-0.514345027818507,0.535853336374217,-0.178392895933516,-0.2543532774061,NaN,-1.03646839539598,-1.73910454129099,NaN,NaN,-0.15520261361471,-0.224481624066089,0.34384248669699,-0.183064100341892,0.161833368233122,-1.00242196881662,0.611560549353692,-0.493565681054713,-0.979106486024765,0.661345011105545,0.661345011107898,NaN,0.239598021147592,NaN,NaN,0.358593810081789,0.189536273572159,0.365661796980632,0.587463747732414,0.587463747731161,0.882999811740384,-0.882999811741787,-1.52015737949348
158.6176,-0.804061529859922,-0.43519658203253,-1.4296845255241,0.27871813330187,1.27108946934253,1.27108946934446,0.440643715307403,0.435563770199856,0.449841257889148,-0.490238691804527,-0.683903170159817,-0.490238691803468,0.884788833652318,NaN,NaN,NaN,NaN,-1.06020494254419,0.556970793902644,-0.505430627398948,0.556970793902824,-0.157167783413567,-0.252467537020878,NaN,-1.00748758715799,-1.69614169686992,NaN,NaN,-0.163800147437168,-0.226059397320985,0.307831911028327,-0.176467863702909,0.127584187408318,-1.02368318122319,0.622829819826306,-0.504818298075344,-0.960582699026831,0.626993840040317,0.626993840042592,NaN,0.259622777800923,NaN,NaN,0.353416921193348,0.172236157405994,0.376279296238295,0.587924056225507,0.587924056224248,0.843796992010794,-0.843796992012206,-1.5200311628637
158.72,-0.80767706238613,-0.46003168027303,-1.45751156351043,0.23247229184851,1.22742416079399,1.22742416079591,0.406541344481386,0.397304565587465,0.412966585463274,-0.478805671255431,-0.687573781548394,-0.478805671254377,0.924301852231794,NaN,NaN,NaN,NaN,-1.02300211790677,0.577482922747713,-0.494393791916676,0.57748292274788,-0.134634032619242,-0.249526553820478,NaN,-0.976807762905036,-1.65393886119566,NaN,NaN,-0.171753402415549,-0.226096431198356,0.27201449055169,-0.170235846263185,0.0930663436449012,-1.04506479231059,0.631200594422215,-0.51749960396012,-0.940922179346964,0.591364774149637,0.591364774151836,NaN,0.278347289759756,NaN,NaN,0.346125350392857,0.15497572427005,0.386508354532934,0.58690735045085,0.586907350449585,0.805322934028427,-0.805322934029848,-1.51914599498884
158.8224,-0.810344379937813,-0.484964977243876,-1.48422446969863,0.184946104889901,1.18350316936871,1.18350316937062,0.372448617457658,0.35872502691272,0.37595237621879,-0.466685443431288,-0.690617779593815,-0.466685443430239,0.963904127599631,NaN,NaN,NaN,NaN,-0.984487745749712,0.597371882800936,-0.481271362556693,0.597371882801094,-0.110787812322195,-0.245486472921297,NaN,-0.944531850430831,-1.61253868543012,NaN,NaN,-0.179035354830712,-0.224585440253082,0.236476781415895,-0.164387118874683,0.0583577353107799,-1.06657363979082,0.636732193254337,-0.53158755419813,-0.920216608253402,0.554510600491613,0.554510600493737,NaN,0.295747230785046,NaN,NaN,0.336756093594059,0.137819368087392,0.396371052335941,0.584433502340192,0.58443350233892,0.76767069875179,-0.767670698753219,-1.5175582153832
158.9248,-0.812099004303758,-0.509990188015403,-1.50986254376026,0.136199557037924,1.13939427471484,1.13939427471674,0.338382374552361,0.319890232017657,0.338837754522817,-0.453888355656359,-0.693087329019399,-0.453888355655315,1.0035462317164,NaN,NaN,NaN,NaN,-0.944722435308274,0.616621159387031,-0.46610890696647,0.616621159387178,-0.0856298522923359,-0.24030582815092,NaN,-0.91076678108562,-1.5719797880772,NaN,NaN,-0.185620163544723,-0.221525864142308,0.201303787275457,-0.158938906412023,0.0235369324514388,-1.08821299429973,0.639493373667765,-0.547052996729921,-0.898561073272964,0.516489228852159,0.516489228854212,NaN,0.311802200781688,NaN,NaN,0.325352985843869,0.12083059751731,0.405887338736522,0.580527532802112,0.580527532800834,0.730929122739819,-0.730929122741259,-1.51532468931274
159.0272,-0.812978069265958,-0.535100228288074,-1.53446638790265,0.0862964299874732,1.09516668132502,1.09516668132691,0.304360747757649,0.280867785416068,0.301663729397595,-0.440426600954035,-0.69503687431733,-0.440426600952996,1.04317783694493,NaN,NaN,NaN,NaN,-0.903772176722963,0.635215749064576,-0.448960248871843,0.635215749064714,-0.0591655705121928,-0.233945891345228,NaN,-0.875623240210878,-1.53229687267006,NaN,NaN,-0.191483291802281,-0.216923859807912,0.16657883465412,-0.153906588951267,-0.0113169747785305,-1.10998238203608,0.63956185566282,-0.563859753435743,-0.876053707511714,0.477363600180495,0.477363600182471,NaN,0.326495633219448,NaN,NaN,0.311966347421608,0.104071805810999,0.415074836118774,0.575219484821645,0.575219484820362,0.695182431562959,-0.695182431564404,-1.51250257794981
159.1296,-0.813020114396316,-0.560287043972122,-1.55807748521432,0.0353043083474666,1.0508910415771,1.05089104157898,0.270403322835855,0.241727621081178,0.264473198130408,-0.426314153256384,-0.696522677184463,-0.426314153255349,1.08274799927004,NaN,NaN,NaN,NaN,-0.861708053672041,0.65314233370376,-0.429886933869308,0.653142333703889,-0.0314051713777406,-0.226371018261761,NaN,-0.839215406767451,-1.49352085008656,NaN,NaN,-0.196601615661188,-0.21079226302033,0.132383391509608,-0.149303664809561,-0.0461245435504327,-1.13187743077456,0.637023782066172,-0.581964749769946,-0.852795308155179,0.437201580164466,0.437201580166364,NaN,0.339814687745132,NaN,NaN,0.296652597928639,0.0876040505695068,0.423948664793926,0.568544266279289,0.568544266278,0.660509886549689,-0.660509886551138,-1.50914908537452
159.232,-0.812264856279633,-0.585541469763404,-1.58073777642074,-0.0167054709341861,1.00663946337948,1.00663946338134,0.236531258797199,0.202541758061623,0.227310904092139,-0.411566726330713,-0.697602322170071,-0.411566726329683,1.12220541992587,NaN,NaN,NaN,NaN,-0.81860589309396,0.670389459830834,-0.408957658467018,0.670389459830955,-0.00236370087768832,-0.21754896254626,NaN,-0.801660673646206,-1.45567897842005,NaN,NaN,-0.200953512864257,-0.203150526192866,0.0987967967819151,-0.145141666242283,-0.0808061877624998,-1.15388976087387,0.631973086735277,-0.601318221574555,-0.828888936208414,0.396075828790442,0.396075828792261,NaN,0.351750119316983,NaN,NaN,0.279473832690095,0.071486831335983,0.432521292819297,0.560541450674737,0.560541450673443,0.626985450359285,-0.626985450360737,-1.50532118671717
159.3344,-0.810752947684088,-0.610853116158506,-1.602489247911,-0.0696579333189335,0.962485480744039,0.962485480745898,0.202767356404902,0.163384012443997,0.190223345567718,-0.396201775395789,-0.698334199987021,-0.396201775394763,1.16149869410833,NaN,NaN,NaN,NaN,-0.774545850613639,0.686947739773293,-0.386247679387798,0.686947739773406,0.0279389533444706,-0.207451135350122,NaN,-0.76307934732688,-1.41879502849294,NaN,NaN,-0.204518925700427,-0.194024642483319,0.0658958980546506,-0.141430035250617,-0.115282443113122,-1.17600692776498,0.624510760071684,-0.621864009029832,-0.804439501381194,0.354063636423148,0.354063636424896,NaN,0.362296114302974,NaN,NaN,0.260497353195501,0.0557778532094634,0.440802425764176,0.55125502410119,0.551255024099885,0.5946774678083,-0.594677467809756,-1.50107534791681
159.4368,-0.808525744422149,-0.636210280548881,-1.62337355206694,-0.123474643676475,0.918503975585623,0.918503975587472,0.169136081190706,0.124329674725713,0.153258642846037,-0.380238543326072,-0.698776978070076,-0.380238543325052,1.20057655854049,NaN,NaN,NaN,NaN,-0.729611944895953,0.70281007057994,-0.361838210462486,0.702810070580044,0.0594781127999211,-0.196052813414932,NaN,-0.723594329272438,-1.38288947215008,NaN,NaN,-0.207279395447838,-0.183447059867421,0.0337546334971719,-0.138175983631892,-0.149474277531717,-1.19821241237223,0.61474403446227,-0.643539924575657,-0.779553337464522,0.311246723903318,0.311246723904995,NaN,0.371450095621849,NaN,NaN,0.239795156838437,0.0405327734123617,0.44879895085672,0.54073308068673,0.540733080685417,0.563648369630596,-0.563648369632053,-1.49646725164478
159.5392,-0.805625100003678,-0.661599877541699,-1.64343168092253,-0.1780739370274,0.874771047302593,0.874771047304432,0.135663558191155,0.0854551687171578,0.116466380734587,-0.363698135334487,-0.698989074738317,-0.363698135333473,1.23938814290491,NaN,NaN,NaN,NaN,-0.683891562151323,0.717971839433609,-0.335815816338376,0.717971839433702,0.0922243920772134,-0.183333319333085,NaN,-0.683330776820711,-1.34797968356892,NaN,NaN,-0.209218073172543,-0.171456571318311,0.00244361445071866,-0.135384366064356,-0.183303418765835,-1.22048565750495,0.602785535913833,-0.666278171967697,-0.754337771152765,0.267711014746811,0.267711014748423,NaN,0.379212512754492,NaN,NaN,0.217443411310877,0.0258049440933384,0.456514935017616,0.529027490171549,0.529027490170227,0.533954411281844,-0.533954411283302,-1.4915515450467
159.6416,-0.802093192753041,-0.68700738774698,-1.66270369838414,-0.233371197426878,0.831363833133056,0.831363833134884,0.1023775563927,0.0468377121799831,0.0798974459610109,-0.346603597508786,-0.699028156562776,-0.346603597507777,1.27788322300562,NaN,NaN,NaN,NaN,-0.637474943523829,0.732431077670509,-0.308271816753389,0.732431077670592,0.126143801261823,-0.169276196226012,NaN,-0.642415737397445,-1.31408014372976,NaN,NaN,-0.210319715045832,-0.158098155001089,-0.0279702489477457,-0.133057583851053,-0.21669267236731,-1.24280215269658,0.588752446967471,-0.690005797609726,-0.72890068329453,0.22354639407609,0.223546394077629,NaN,0.38558663517972,NaN,NaN,0.19352194345801,0.0116451771615074,0.463951660644004,0.516193566870724,0.516193566869394,0.505645453163024,-0.505645453164479,-1.48638162102144
159.744,-0.797972372555364,-0.712416828513906,-1.68122851794543,-0.289279183864731,0.788360287645614,0.788360287647433,0.0693074742329313,0.00855499386171827,0.0436038726052124,-0.328979977986748,-0.698950670708517,-0.328979977985745,1.316012467792,NaN,NaN,NaN,NaN,-0.590454656674501,0.746188544328903,-0.27930171267402,0.746188544328974,0.161197864011458,-0.153869382482709,NaN,-0.600977753058424,-1.28120264043544,NaN,NaN,-0.210570665417449,-0.143422741995862,-0.0574240650374505,-0.131195523271468,-0.249566218586422,-1.26513357034122,0.572765709061481,-0.714645163386586,-0.703350061183719,0.178846465241377,0.178846465242844,NaN,0.390578360271164,NaN,NaN,0.168113758562927,-0.00189844397091957,0.471107678901935,0.502289749920155,0.502289749918816,0.478764786483887,-0.478764786485341,-1.48100943460221
159.8464,-0.793305011608184,-0.737810751439929,-1.69904371053735,-0.345708398944461,0.745838931422835,0.745838931424642,0.0364843330348437,-0.0293151313455484,0.00763870028661112,-0.310854360461035,-0.698811413595197,-0.310854360460038,1.35372766482696,NaN,NaN,NaN,NaN,-0.542925056194621,0.759247742285473,-0.249004635198441,0.759247742285534,0.197343753294971,-0.137105379662637,NaN,-0.559146437281059,-1.24935645880757,NaN,NaN,-0.209958826606055,-0.127486894716905,-0.0858592205646819,-0.129795531037349,-0.281849891323396,-1.28744795338229,0.554949274252549,-0.740114436628936,-0.677793543372852,0.133708305577356,0.133708305578753,NaN,0.394196039651004,NaN,NaN,0.141304593020847,-0.0147806961808813,0.477978868288882,0.487377281561368,0.48737728156002,0.453349018646803,-0.453349018648254,-1.47548534389324
159.9488,-0.788133351901061,-0.763170271853651,-1.7161853381223,-0.402567493289101,0.703878577255345,0.703878577257142,0.00394078062530751,-0.0666949390547991,-0.0279441581010248,-0.292255871019643,-0.698663134472353,-0.292255871018651,1.39098190435204,NaN,NaN,NaN,NaN,-0.494981745805887,0.771614879471118,-0.217482805415738,0.771614879471171,0.234534442644392,-0.118981406004258,NaN,-0.517052027577638,-1.21854856080249,NaN,NaN,-0.208473617718748,-0.110352374855511,-0.113221583829671,-0.128852435843494,-0.313471452175711,-1.30970995083489,0.535429402743082,-0.76632809597014,-0.652337960975607,0.0882322175404765,0.0882322175418019,NaN,0.39645032420941,NaN,NaN,0.11318250065658,-0.026959300776928,0.484558499400655,0.471519864613466,0.471519864612109,0.429428035712256,-0.429428035713704,-1.46985795850941
160.0512,-0.782499348368639,-0.788475132330417,-1.73268781361694,-0.459763700609313,0.662558041606919,0.662558041608704,-0.0282888998895378,-0.103507135165531,-0.0630900471168354,-0.273215663438228,-0.698556173458852,-0.27321566343724,1.42772971213977,NaN,NaN,NaN,NaN,-0.446721051811423,0.783298787132901,-0.184840987182667,0.783298787132946,0.272718864823543,-0.099499534373409,NaN,-0.474824918845432,-1.18878375688745,NaN,NaN,-0.206105927532932,-0.0920855811398703,-0.139461650523348,-0.128358627558003,-0.344360874829583,-1.33188109272662,0.514333995978794,-0.793197451302807,-0.627088879621844,0.0425214715989961,0.0425214716002528,NaN,0.39735402160852,NaN,NaN,0.0838374705191348,-0.038394974873578,0.490837314865336,0.45478329098852,0.454783290987152,0.407025047599884,-0.407025047601326,-1.46417398079734
160.1536,-0.776444508030542,-0.813703792159417,-1.74858377998362,-0.517203294487788,0.621955849807768,0.621955849809542,-0.0601687857588822,-0.139675160204043,-0.0977437040925919,-0.253766883835132,-0.698538129357994,-0.253766883834149,1.46392714539347,NaN,NaN,NaN,NaN,-0.398239506741625,0.794310805361629,-0.151185917174355,0.794310805361665,0.311842068119747,-0.078666817583417,NaN,-0.432595186612995,-1.16006487643336,NaN,NaN,-0.202848061762429,-0.07275686473523,-0.164534628176534,-0.128304199370352,-0.374450642206417,-1.35392009312986,0.491791955318383,-0.820631173680698,-0.602150144580379,-0.00331796285664401,-0.0033179628554542,NaN,0.396921951297469,NaN,NaN,0.0533610650316578,-0.0490514590986155,0.496803632669964,0.43723504555329,0.437235045551912,0.386156706004536,-0.386156706005974,-1.45847803187987
160.256,-0.770009727090962,-0.838833525440256,-1.7639039947983,-0.574792047934194,0.582149940906521,0.582149940908283,-0.0916613248518771,-0.175123489300838,-0.13184940086317,-0.233944612129461,-0.698653547877636,-0.233944612128482,1.49953188390279,NaN,NaN,NaN,NaN,-0.349633338796566,0.804664646397056,-0.116625703022442,0.804664646397084,0.35184536549217,-0.0564954002324041,NaN,-0.390492113441447,-1.13239294337747,NaN,NaN,-0.198693678829425,-0.0524397662419154,-0.188400453820142,-0.128677145865424,-0.403676040192463,-1.37578317078299,0.467932561261168,-0.848535829352676,-0.577623431103965,-0.0491777043356933,-0.0491777043345711,NaN,0.395170778821255,NaN,NaN,0.0218460598575286,-0.0588955257470344,0.502443477937425,0.418943890269594,0.418943890268203,0.36683327482857,-0.366833274830003,-1.45281246077703
160.3584,-0.763235132102435,-0.86384051361096,-1.77867721477901,-0.6324356755062,0.543217372972087,0.543217372973838,-0.122727369235119,-0.209777918008034,-0.165351092448418,-0.213785781754059,-0.698943626545461,-0.213785781753087,1.53450334074957,NaN,NaN,NaN,NaN,-0.30099796980666,0.814376244740151,-0.0812691905689669,0.81437624474017,0.392666480544697,-0.0330026092853729,NaN,-0.34864373067205,-1.10576735964633,NaN,NaN,-0.193637710531876,-0.031210226191403,-0.211023749318569,-0.129463599416166,-0.431975429098226,-1.39742437983785,0.442884875426868,-0.876816411145543,-0.553607804893364,-0.0949472720402949,-0.0949472720392456,NaN,0.39211881813024,NaN,NaN,-0.0106139294226513,-0.0678969705650094,0.507740748611998,0.399979423784567,0.399979423783167,0.349058832795241,-0.34905883279667,-1.44721714151346
160.4608,-0.75615993297628,-0.88869993154936,-1.79293008937047,-0.690040249756499,0.505234027102084,0.505234027103822,-0.153326237230867,-0.243565831008259,-0.19819257431358,-0.193329084197847,-0.699445946161034,-0.193329084196881,1.56880279075762,NaN,NaN,NaN,NaN,-0.252427532150465,0.8234635978089,-0.0452253166012741,0.823463597808913,0.434239701662339,-0.00821101112794442,NaN,-0.307176380669603,-1.0801860914823,NaN,NaN,-0.187676274744666,-0.00914580327780646,-0.232373736123236,-0.130648082565421,-0.459290488293042,-1.41879594462929,0.416777173272168,-0.905376858795095,-0.530199299974723,-0.140514434364192,-0.140514434363212,NaN,0.387785803894425,NaN,NaN,-0.0439248341899831,-0.0760285884461087,0.512677420974998,0.380411610311558,0.380411610310147,0.332831498153267,-0.332831498154692,-1.44172926909837
160.5632,-0.748822289170561,-0.913386036278263,-1.80668707352381,-0.747512595866506,0.468274309816975,0.4682743098187,-0.183415806423827,-0.276416458488555,-0.230317651784653,-0.172614861988615,-0.700194247848252,-0.172614861987654,1.60239349671741,NaN,NaN,NaN,NaN,-0.204014414640064,0.831946595990024,-0.00860247841497212,0.831946595990032,0.476496058240297,0.0178515791773146,NaN,-0.266214295800804,-1.05564584799989,NaN,NaN,-0.180806593724427,0.0136750791724123,-0.252424141768972,-0.132213753320658,-0.485566441156216,-1.43984859213392,0.389736416505042,-0.934120559197873,-0.507490518465318,-0.18576560145811,-0.185765601457193,NaN,0.382192648778399,NaN,NaN,-0.077992517348514,-0.0832661296091503,0.51723379157201,0.360310291471964,0.360310291470543,0.318143675162015,-0.318143675163433,-1.43638316416288
160.6656,-0.74125918176752,-0.9378722661589,-1.81997035777659,-0.804760669443768,0.43241085449461,0.432410854496323,-0.212952638399385,-0.308261128875723,-0.261670326005687,-0.151684984231547,-0.701218271908554,-0.151684984230596,1.63524081443089,NaN,NaN,NaN,NaN,-0.15584884356435,0.839846838135875,0.0284920433537016,0.83984683813588,0.519363527308048,0.0451521463339052,NaN,-0.225879185246916,-1.03214224083799,NaN,NaN,-0.173026928141134,0.0371738445041236,-0.271153122822571,-0.134142625152076,-0.510752265021707,-1.46053187850896,0.361887772588954,-0.962950820386136,-0.485570249971775,-0.230586263592104,-0.230586263591247,NaN,0.375361209330412,NaN,NaN,-0.112723132375248,-0.0895882366796379,0.521388735133046,0.33974471975252,0.339744719751091,0.304982321194119,-0.304982321195527,-1.43121009058229
160.768,-0.73350628442502,-0.962131351181274,-1.83279980727987,-0.861693916171572,0.397714221449593,0.397714221451293,-0.241892132195529,-0.339033524399169,-0.292194997636314,-0.130582691889193,-0.702543664477203,-0.130582691888251,1.6673122694199,NaN,NaN,NaN,NaN,-0.108018504527057,0.847187426979877,0.0659525834919724,0.847187426979881,0.562767268063732,0.0736525798083042,NaN,-0.186289822626883,-1.00966991502617,NaN,NaN,-0.164336532751386,0.061272428304198,-0.288543207703734,-0.136415754398672,-0.534800880195116,-1.48079450866465,0.333354188743108,-0.991771315003685,-0.464523103737513,-0.274861466899185,-0.274861466898389,NaN,0.367314084759752,NaN,NaN,-0.148023440911888,-0.0949763731594795,0.525119950459099,0.318783152180201,0.318783152178761,0.293329225780559,-0.293329225781955,-1.42623809087766
160.8704,-0.725597834506375,-0.986135429287917,-1.84519290669525,-0.918223607343011,0.364252597163355,0.364252597165041,-0.270188701667726,-0.368669939932902,-0.321836685742105,-0.109352403790518,-0.704191952030376,-0.109352403789585,1.69857761074718,NaN,NaN,NaN,NaN,-0.0606082097478131,0.853992742726976,0.103675510764693,0.853992742726974,0.606629877395558,0.103309828389687,NaN,-0.147561634996333,-0.988222644089481,NaN,NaN,-0.154735637991521,0.0858939029694677,-0.304581247850082,-0.139013397022741,-0.557669306842941,-1.50058464424826,0.304256026420795,-1.02048648695136,-0.444429149520021,-0.318476313873575,-0.318476313872837,NaN,0.358074460883809,NaN,NaN,-0.183801090293949,-0.099414757021973,0.52840417781475,0.297492514008067,0.297492514006616,0.283161291066684,-0.283161291068065,-1.42149184861703
160.9728,-0.717566513472888,-1.00985616267746,-1.85716471685379,-0.974263146117701,0.332091494516473,0.332091494518144,-0.297795977353795,-0.397109542131951,-0.350541260862548,-0.0880394880277187,-0.70618058109251,-0.088039488026795,1.72900885480399,NaN,NaN,NaN,NaN,-0.0136996104296891,0.860288201925212,0.141559582638783,0.860288201925207,0.650871663731133,0.134076100169752,NaN,-0.109806301322631,-0.967793391198207,NaN,NaN,-0.144225458511714,0.110963061714703,-0.319258366913732,-0.141915139688332,-0.579318784192119,-1.51985019334666,0.27471075570491,-1.04900191628358,-0.425363571288464,-0.361316482668778,-0.3613164826681,NaN,0.347665992851196,NaN,NaN,-0.219964866473536,-0.102890305649755,0.531217394354826,0.275938116486755,0.275938116485295,0.27445081020211,-0.274450810203477,-1.41699258551645
161.0752,-0.709443345641832,-1.03326485178452,-1.86872785259942,-1.02972834547912,0.301293452947917,0.301293452949574,-0.324667038325548,-0.424294626809351,-0.378255694471872,-0.0666900123603474,-0.708523011667073,-0.0666900123594343,1.75858032920169,NaN,NaN,NaN,NaN,0.0326290511330742,0.866100011857336,0.1795062517286,0.866100011857327,0.695410938946356,0.165899104471615,NaN,-0.0731313699876911,-0.948374345476398,NaN,NaN,-0.132808227068483,0.136406953886385,-0.332569904803851,-0.145100010133683,-0.599714855044345,-1.53853908216184,0.244832702783691,-1.07722464570301,-0.407396342448468,-0.403268766037645,-0.403268766037028,NaN,0.336112712098122,NaN,NaN,-0.256424937706806,-0.10539259076968,0.533535009863271,0.254183414294838,0.254183414293368,0.267165745291804,-0.267165745293154,-1.41275799363849
161.1776,-0.701257614326647,-1.05633255244266,-1.87989248571694,-1.08453768836419,0.271917734118282,0.271917734119925,-0.350754675235429,-0.450170873840728,-0.404928325202348,-0.0453504806913893,-0.711228844222392,-0.0453504806904862,1.78726871411255,NaN,NaN,NaN,NaN,0.0783031557593585,0.871454925311231,0.217419927162133,0.871454925311218,0.74016432607885,0.198722328940745,NaN,-0.0376398986741615,-0.929956939346211,NaN,NaN,-0.120487253718645,0.162155365459128,-0.344515358735361,-0.148546570271548,-0.618827422928007,-1.55659951747507,0.214732842840125,-1.10506347900484,-0.390591929331558,-0.444221627982555,-0.44422162798199,NaN,0.323438950487751,NaN,NaN,-0.293093093635148,-0.106913800137479,0.535332081585762,0.232289802365499,0.232289802364018,0.261270005125504,-0.261270005126835,-1.40880219704243
161.28,-0.693036785308634,-1.07903020881298,-1.89066637193044,-1.13861258540641,0.244020008537886,0.244020008539515,-0.376011677097893,-0.474687598587585,-0.43050913709676,-0.0240675508013088,-0.714303962066744,-0.0240675508004177,1.81505306537009,NaN,NaN,NaN,NaN,0.123251891087943,0.876379997383097,0.255208188734677,0.87637999738308,0.785047080807491,0.232485343971559,NaN,-0.00343010997250359,-0.912531846261986,NaN,NaN,-0.10726701295097,0.188141246304933,-0.355098326601724,-0.152232993136678,-0.636630789825275,-1.57398025284687,0.184518633000237,-1.13242926395233,-0.375009025309371,-0.484065771586713,-0.484065771586206,NaN,0.309669284875071,NaN,NaN,-0.329882975773372,-0.107448703948531,0.53658355420685,0.210316455289435,0.210316455287944,0.256723723948521,-0.256723723949832,-1.40513573664522
161.3824,-0.684806431081364,-1.10132881336775,-1.90105490418934,-1.19187763951332,0.217652029132043,0.217652029133656,-0.400391130334993,-0.497797998653325,-0.454950042777592,-0.00288772574131842,-0.717750678680895,-0.00288772574043899,1.84191480190284,NaN,NaN,NaN,NaN,0.167408404490951,0.880902347509996,0.292781955848557,0.880902347509974,0.829973425635372,0.267124126566269,NaN,0.0294049493594099,-0.896088958014338,NaN,NaN,-0.0931532597037567,0.214301085563959,-0.364326455743105,-0.156137125518961,-0.653103680698503,-1.5906308729444,0.154293882531775,-1.15923517200955,-0.360700315003943,-0.522694713709303,-0.522694713708853,NaN,0.294828509828848,NaN,NaN,-0.36671029473468,-0.106994627992951,0.53726452398604,0.188320207640595,0.188320207639096,0.253483547323696,-0.253483547324986,-1.40176557563943
161.4848,-0.676590156187461,-1.12319959616482,-1.91106119474008,-1.24426091661807,0.192861290692462,0.192861290694059,-0.423846723658112,-0.519459396975941,-0.478205168302732,0.0181429834341597,-0.721567889287335,0.0181429834350269,1.86783764972378,NaN,NaN,NaN,NaN,0.21070992510245,0.885048928278915,0.330055615850169,0.88504892827889,0.874856895133309,0.302571397801799,NaN,0.0607777516034784,-0.880617343549288,NaN,NaN,-0.0781531679358975,0.240575231184477,-0.372211395890118,-0.160236540044174,-0.668229258523647,-1.6065021067164,0.12415865682183,-1.18539698482277,-0.347712269485943,-0.560005366327564,-0.560005366327171,NaN,0.278941643676076,NaN,NaN,-0.403493033384155,-0.10555143891417,0.537350523887876,0.166355472388978,0.166355472387469,0.251502932722465,-0.251502932723732,-1.39869512622615
161.5872,-0.668409523474538,-1.14461423709722,-1.92068617985567,-1.29569421661215,0.169690681864735,0.169690681866315,-0.446333063126937,-0.53963348528508,-0.500231144020204,0.0389794211931849,-0.725751237313433,0.0389794211940396,1.89280754608738,NaN,NaN,NaN,NaN,0.253097857830906,0.888846296895517,0.366947115006244,0.888846296895487,0.91961069165837,0.338756976112614,NaN,0.0906066273322713,-0.86610519208731,NaN,NaN,-0.0622754799225253,0.266908148824125,-0.378768755706182,-0.164508578301628,-0.681995131336648,-1.62154616818732,0.0942092041618722,-1.21083339155559,-0.336084978773229,-0.595898625378698,-0.595898625378365,NaN,0.262033963479413,NaN,NaN,-0.44015163995566,-0.103121545845171,0.536817823337285,0.144474194515841,0.144474194514325,0.250732469871614,-0.250732469872859,-1.39592430003474
161.6896,-0.660283979216612,-1.16554509061498,-1.92992873478795,-1.34611333503362,0.148178142793858,0.148178142795419,-0.467806006799741,-0.558286570438759,-0.520987407957421,0.0595776731855679,-0.730293306758781,0.0595776731864095,1.91681251241033,NaN,NaN,NaN,NaN,0.29451785071266,0.892320381682756,0.403378012668936,0.892320381682722,0.964148049673574,0.375608152913609,NaN,0.118816087468519,-0.852539743930005,NaN,NaN,-0.0455306564118599,0.293248618287988,-0.384018064041587,-0.16893038404676,-0.694393351294757,-1.63571710952578,0.0645378867422882,-1.23546629377864,-0.325852032142053,-0.630279967766632,-0.630279967766357,NaN,0.244131057854771,NaN,NaN,-0.476609216337347,-0.0997099214828153,0.53564373301644,0.122725833315502,0.122725833313977,0.251120220160435,-0.251120220161657,-1.39344958292904
161.792,-0.652230776017615,-1.18596541228179,-1.93878578761506,-1.395458304684,0.128356342856055,0.128356342857596,-0.48822302430989,-0.575389821124063,-0.540436523663961,0.0798954686266668,-0.735183837209057,0.0798954686274961,1.93984250163884,NaN,NaN,NaN,NaN,0.334919832241459,0.895496239174278,0.439273496229246,0.895496239174239,1.00838260013005,0.413050090417027,NaN,0.145337116596854,-0.839907213709322,NaN,NaN,-0.0279310209348672,0.319549867081966,-0.38798273675934,-0.173478925027525,-0.705420404791356,-1.64897116443231,0.0352331012857714,-1.25922110764544,-0.317040456410398,-0.663060054859635,-0.663060054859417,NaN,0.225258891717516,NaN,NaN,-0.512791698703312,-0.0953241435913071,0.533806903746471,0.101157365027094,0.10115736502556,0.252612070920052,-0.252612070921251,-1.39126412788876
161.8944,-0.644264893045609,-1.20584957973952,-1.94725242446364,-1.44367360846065,0.110252391689936,0.110252391691455,-0.50754358136524,-0.590919510599661,-0.5585445105486,0.0998925926785588,-0.740409946253626,0.0998925926793747,1.96188922036653,NaN,NaN,NaN,NaN,0.374258016524542,0.898397806508164,0.474562356828056,0.898397806508121,1.05222872216724,0.451006233477111,NaN,0.170107428256121,-0.828192713753849,NaN,NaN,-0.00949089001813636,0.345769638055267,-0.390690050139313,-0.178130999890267,-0.715077189959349,-1.66126706421325,0.00637918784429845,-1.28202705039535,-0.309670717839648,-0.694155333521142,-0.69415533352098,NaN,0.205443884047282,NaN,NaN,-0.548628016683676,-0.0899744481487465,0.531287608509377,0.0798133015879906,0.0798133015864502,0.255152104825692,-0.255152104826867,-1.3893578535885
161.9968,-0.636398955066215,-1.22517330383006,-1.95532198399782,-1.49070835682029,0.0938875935567439,0.0938875935582412,-0.525729542762929,-0.604857250282642,-0.575281180683883,0.119531300650373,-0.745956343165496,0.119531300651176,1.98294592540826,NaN,NaN,NaN,NaN,0.412490879895725,0.901047660731658,0.509176934646828,0.901047660731613,1.09560187105696,0.489398724704693,NaN,0.193071674813535,-0.817380189075446,NaN,NaN,0.00977332022658268,0.371870185645691,-0.392171117064188,-0.182863228600268,-0.723368974842971,-1.67256631952441,-0.021943665377756,-1.3038174021337,-0.30375678533748,-0.723488615899364,-0.723488615899258,NaN,0.184712997282993,NaN,NaN,-0.584050216920992,-0.0836737734526971,0.528067999633087,0.0587357269390947,0.0587357269375489,0.258682985255344,-0.258682985256492,-1.38771753984172
162.0992,-0.628643156727601,-1.24391382645501,-1.96298614618294,-1.53651642686417,0.0792772493278602,0.0792772493293357,-0.542745578138302,-0.617190204550426,-0.590620468671143,0.138776720620985,-0.751805526067118,0.138776720621774,2.00300719817166,NaN,NaN,NaN,NaN,0.449581113744476,0.903466794581913,0.543053049101746,0.903466794581867,1.13841887534027,0.528148812980244,NaN,0.214181611816426,-0.807452371748091,NaN,NaN,0.0298430163330859,0.397818199426865,-0.392460852508894,-0.187652034060017,-0.730305330591998,-1.6828334691758,-0.0496595098064843,-1.32452973872712,-0.299306244541436,-0.750989613856838,-0.750989613856786,NaN,0.163093834524524,NaN,NaN,-0.618993545060601,-0.0764377759261048,0.524132339890128,0.0379643522603861,0.0379643522588335,0.263146346630231,-0.263146346631352,-1.38632692016733
162.2016,-0.621005202237504,-1.26205010132491,-1.97023502462203,-1.58105656702371,0.066430506107651,0.0664305061091063,-0.558559551662991,-0.627911275517018,-0.604540738707297,0.157597220401827,-0.757937970527105,0.157597220402605,2.02206870283647,NaN,NaN,NaN,NaN,0.485495555431019,0.905674413154481,0.576129928425919,0.905674413154435,1.18059820116503,0.567177248455719,NaN,0.233396226634109,-0.79839074994991,NaN,NaN,0.0506973775033665,0.423584662251983,-0.391597914287959,-0.192473625858067,-0.735900037820317,-1.69203630041516,-0.0766967033826694,-1.3441061330084,-0.296320447811887,-0.77659540735209,-0.776595407352096,NaN,0.14061474926148,NaN,NaN,-0.653396483965827,-0.0682848158595092,0.519467211047976,0.017536586311063,0.0175365863095047,0.268483173057625,-0.268483173058721,-1.38516677510681
162.304,-0.613490269282744,-1.2795629516409,-1.97705726814916,-1.62429247453977,0.0553502552254398,0.0553502552268742,-0.573142883054911,-0.63701925053788,-0.617025058327959,0.175964704576351,-0.764332328419606,0.175964704577115,2.04012693780726,NaN,NaN,NaN,NaN,0.52020510018967,0.907687756519031,0.608350147547916,0.907687756518985,1.22206018632594,0.606404659983982,NaN,0.250681844012948,-0.790175541835082,NaN,NaN,0.0723133311232911,0.449144655363226,-0.389624615091858,-0.197303990214413,-0.740170966947408,-1.70014604684377,-0.102987948019941,-1.36249332512152,-0.294794683861176,-0.800250834879931,-0.800250834879987,NaN,0.117304979553334,NaN,NaN,-0.687200747245941,-0.0592359282912058,0.514061700507901,-0.00251238650072269,-0.00251238650228567,0.274634161153479,-0.274634161154548,-1.38421502638438
162.4064,-0.60610100237307,-1.29643519531951,-1.9834401694887,-1.66619284702676,0.0460330810354731,0.0460330810368851,-0.586470871173077,-0.64451890671579,-0.628061431230436,0.193854807461192,-0.770965650944922,0.193854807461944,2.05717899592982,NaN,NaN,NaN,NaN,0.553684600749321,0.909521954546142,0.639659576089648,0.909521954546095,1.26272724821106,0.645751913297239,NaN,0.266012213145561,-0.782785674827017,NaN,NaN,0.0946655527090017,0.474477126168405,-0.386586808612871,-0.202118886051549,-0.743139935794435,-1.70713757153168,-0.128470305160382,-1.37964287132625,-0.294718354112261,-0.821908803399644,-0.82190880339975,NaN,0.093194808742671,NaN,NaN,-0.720351236074661,-0.0493147950302804,0.507907561190563,-0.0221495285857635,-0.02214952858733,0.281540074213003,-0.281540074214048,-1.38344683082081
162.5088,-0.598837539069945,-1.31265172847619,-1.98936977669751,-1.70673140073584,0.0384692616613738,0.0384692616627652,-0.598522968005171,-0.650421063429286,-0.637642978121668,0.21124696418045,-0.77781363578867,0.21124696418119,2.07322234972502,NaN,NaN,NaN,NaN,0.585912760252014,0.911189913017842,0.670007333468236,0.911189913017794,1.30252406717288,0.685140449799336,NaN,0.279368568943358,-0.776198783420709,NaN,NaN,0.117726485380952,0.499564640959883,-0.382533752955066,-0.206893849513808,-0.74483255147347,-1.71298953904438,-0.153085209646956,-1.39551128345057,-0.296075152479774,-0.84153052241176,-0.841530522411911,NaN,0.0683157373400224,NaN,NaN,-0.752795977107182,-0.0385477211460998,0.500999339400722,-0.0413438773103184,-0.041343877311888,0.289142087900682,-0.289142087901703,-1.38283467779115
162.6112,-0.591697571097291,-1.32819956337816,-1.99483100638605,-1.74588684568499,0.0326428229405001,0.0326428229418717,-0.609282987600282,-0.654742572044224,-0.645768051827309,0.228124368533874,-0.784850886046599,0.228124368534602,2.08825467083305,NaN,NaN,NaN,NaN,0.616872019158475,0.912702222475692,0.699345748248819,0.912702222475642,1.34137774109443,0.724492602997283,NaN,0.290739654475296,-0.770391239725126,NaN,NaN,0.141466370671759,0.524393144995521,-0.377517954508986,-0.211604210087862,-0.7452780447336,-1.71768456933949,-0.176778496755382,-1.41006016038311,-0.298843254245322,-0.859085668123451,-0.859085668123647,NaN,0.0427006441955465,NaN,NaN,-0.784486057753811,-0.0269636058745392,0.493334466306005,-0.0600664738652313,-0.0600664738668027,0.297382117620818,-0.297382117621813,-1.38234849803328
162.7136,-0.58467643897164,-1.3430678236652,-1.99980775960276,-1.78364281128349,0.028531648112109,0.0285316481134619,-0.618739238400948,-0.657506234550185,-0.652440276303557,0.244473846032985,-0.792051163484049,0.2444738460337,2.10227368542394,NaN,NaN,NaN,NaN,0.646548432838767,0.914067083843942,0.727630321469472,0.914067083843891,1.37921790537607,0.763731886419395,NaN,0.300121693695762,-0.765338220638297,NaN,NaN,0.165853288268219,0.548951739121829,-0.371594994009602,-0.216225118699369,-0.744509099347327,-1.72120935597626,-0.19950043840697,-1.4232562961927,-0.302995522165503,-0.874552480381645,-0.874552480381886,NaN,0.0163839221565147,NaN,NaN,-0.815375565774551,-0.014593894285622,0.484913307922695,-0.0782902831663841,-0.0782902831679582,0.306203121876805,-0.306203121877774,-1.38195579025108
162.816,-0.57776725780449,-1.35724770565521,-2.00428304564316,-1.81998771971436,0.0261076395001341,0.0261076395014694,-0.626884576345017,-0.658740649373158,-0.657668507252634,0.260285676477752,-0.799387621244971,0.260285676478456,2.11527705906221,NaN,NaN,NaN,NaN,0.6749315300283,0.915290250668579,0.754819694778996,0.915290250668526,1.41597681528655,0.802783247274672,NaN,0.307518310260862,-0.761013800091983,NaN,NaN,0.19085320672119,0.573232470543857,-0.364823331363002,-0.220731588026701,-0.742561672760773,-1.72355473218699,-0.221205766346244,-1.43507174191333,-0.308499737147901,-0.88791779472426,-0.887917794724546,NaN,-0.010598411383352,NaN,NaN,-0.845421531926914,-0.00147250703194845,0.47573917385147,-0.0959901046418366,-0.0959901046434104,0.315549382799835,-0.31554938280078,-1.38162176834455
162.9184,-0.570961072421102,-1.37073242044864,-2.00823912518566,-1.85491460876346,0.0253369168420806,0.0253369168433952,-0.633716384561486,-0.65847999242515,-0.661466721330772,0.275553401560719,-0.806833003793579,0.275553401561412,2.1272622940353,NaN,NaN,NaN,NaN,0.702014135804994,0.916374986534387,0.780875623482612,0.916374986534331,1.45158938661699,0.84157327762888,NaN,0.312940398585525,-0.757391043058431,NaN,NaN,0.216430040962401,0.597230135599764,-0.357264081138285,-0.2250985499339,-0.739474805002264,-1.72471568330422,-0.241853656126257,-1.44548380777723,-0.315318858833143,-0.89917701602836,-0.89917701602869,NaN,-0.0382086133713004,NaN,NaN,-0.874583869375139,0.0123642375966761,0.465818296669796,-0.113142482441762,-0.113142482443334,0.325366764202754,-0.325366764203669,-1.38130952940502
163.0208,-0.564247033972269,-1.38351713268832,-2.01165767763472,-1.88842091398862,0.026180032564087,0.0261800325653808,-0.639236494249316,-0.656763752351581,-0.663853850898285,0.290273650034603,-0.814359806269545,0.290273650035283,2.13822662104819,NaN,NaN,NaN,NaN,0.727792149517109,0.917322031681787,0.805762954301379,0.91732203168173,1.48599319143516,0.880030373834355,NaN,0.316405962239531,-0.75444207808319,NaN,NaN,0.242545707903806,0.620942093486287,-0.348980751774851,-0.22930093658087,-0.735290416509743,-1.72469131834449,-0.261407663135252,-1.45447501175781,-0.323411317761944,-0.908334044004275,-0.90833404400465,NaN,-0.0664071071990561,NaN,NaN,-0.902825303678321,0.0268776916150759,0.45515979891568,-0.12972562210632,-0.129725622107891,0.335602949653833,-0.335602949654723,-1.38098024175097
163.1232,-0.557612581326353,-1.39559890559129,-2.01451998041006,-1.92050822659373,0.0285921899886953,0.028592189989966,-0.643451071656304,-0.653636446217757,-0.664853590478604,0.304445998440956,-0.821940400068291,0.304445998441626,2.14816687969653,NaN,NaN,NaN,NaN,0.752264287880617,0.918129574298006,0.82944961046999,0.918129574297949,1.51912841702602,0.918084847198755,NaN,0.317939934401997,-0.752138137877959,NaN,NaN,0.269160176623481,0.644368086230059,-0.340038951355803,-0.2333137838591,-0.730053096447168,-1.72348481454827,-0.279835627713962,-1.46203299295227,-0.332731338164523,-0.915401160075028,-0.915401160075445,NaN,-0.0951523698702533,NaN,NaN,-0.930111293975984,0.0420269302199367,0.443775657788114,-0.145719320156562,-0.145719320158132,0.346207670509071,-0.346207670509934,-1.3805933535235
163.2256,-0.551043611182635,-1.40697665292765,-2.01680708038892,-1.95118204023231,0.0325234585305655,0.0325234585318169,-0.646370498198193,-0.649147338369358,-0.664494200722417,0.318072865591621,-0.829547143980096,0.318072865592281,2.15707939674933,NaN,NaN,NaN,NaN,0.77543181778197,0.918793229833616,0.851906590011537,0.918793229833557,1.55093780695276,0.955669004688905,NaN,0.317573987202764,-0.75044957551263,NaN,NaN,0.296231513871026,0.667510060011141,-0.330506076100309,-0.237112345595395,-0.723809885043682,-1.72110334188837,-0.297109579620129,-1.46815040916931,-0.343229289388207,-0.920398881392319,-0.920398881392781,NaN,-0.124400835012259,NaN,NaN,-0.95640995660585,0.0577687935969793,0.431680667865098,-0.161104916594474,-0.161104916596041,0.357132932537683,-0.35713293253852,-1.3801068259755
163.328,-0.544524631114326,-1.41765109113267,-2.01849994376204,-1.98045149015914,0.0379189853746645,0.0379189853758934,-0.648009256450203,-0.643350168527421,-0.662808319919982,0.331159427301171,-0.837152495108322,0.331159427301821,2.16495987977204,NaN,NaN,NaN,NaN,0.797298300728681,0.919306040204003,0.873107980385134,0.919306040203942,1.58136660248282,0.992717220909587,NaN,0.315346329305161,-0.749345874200072,NaN,NaN,0.323715923735041,0.690371987667123,-0.320450999952201,-0.240672207435743,-0.716610056811622,-1.71755796897109,-0.313205666925627,-1.47282483138239,-0.35485206304189,-0.923355786671643,-0.923355786672144,NaN,-0.154106835058404,NaN,NaN,-0.981692009735649,0.0740579185755628,0.418892397156556,-0.175865278213538,-0.175865278215104,0.368333234840985,-0.368333234841795,-1.37947740054107
163.4304,-0.538038899272777,-1.42762468125462,-2.01957957941815,-2.00832908217412,0.0447192068461801,0.0447192068473846,-0.648385815794675,-0.636302877490044,-0.659832774232517,0.343713535330217,-0.844729123173517,0.343713535330856,2.17180334323418,NaN,NaN,NaN,NaN,0.817869357873993,0.919658508289211,0.89303098646698,0.91965850828915,1.61036249570748,1.02916601451907,NaN,0.311301487312413,-0.748795663093404,NaN,NaN,0.351567780867692,0.712959693093305,-0.309943770932541,-0.243969399490026,-0.70850491019741,-1.71286355054029,-0.32810411815602,-1.47605863927047,-0.367543473395695,-0.924308318858886,-0.924308318859429,NaN,-0.184222593283137,NaN,NaN,-1.00593075415942,0.0908467577239387,0.405431133669504,-0.189984813627694,-0.189984813629257,0.379765762316245,-0.379765762317028,-1.37866090891802
163.5328,-0.531568557872444,-1.43690155378046,-2.0200271384039,-2.03483041120381,0.052860066029398,0.0528600660305781,-0.647522505399072,-0.628067315635121,-0.655608372872208,0.355745625296406,-0.852250029400117,0.355745625297034,2.17760407493403,NaN,NaN,NaN,NaN,0.837152454297425,0.919838678480602,0.91165596750228,0.91983867848054,1.63787559922208,1.06495413377058,NaN,0.305490065960007,-0.748766736876623,NaN,NaN,0.379739662508213,0.735280670784587,-0.299055307848416,-0.246980512483961,-0.699547562485797,-1.70703860118862,-0.341789230488893,-1.47785891809747,-0.381244679674225,-0.923300565314328,-0.923300565314908,NaN,-0.214698261377836,NaN,NaN,-1.02910209302834,0.108085585995909,0.391319826939413,-0.203449518142439,-0.203449518143999,0.391390541256612,-0.391390541257365,-1.37761262585801
163.6352,-0.525094765965033,-1.44548741663423,-2.01982399674089,-2.05997387632367,0.0622732449924542,0.0622732449936091,-0.645445368414307,-0.618708929708491,-0.65017968268343,0.367268600772287,-0.859688669330595,0.367268600772906,2.18235564095575,NaN,NaN,NaN,NaN,0.855156701181022,0.919832265995986,0.928966482303434,0.919832265995922,1.66385843135132,1.10002264704039,NaN,0.297968483657132,-0.749226067746492,NaN,NaN,0.408182388657773,0.757343886810274,-0.287857089204877,-0.249682818385875,-0.689792741479747,-1.70010516336792,-0.354249371639671,-1.47823735748922,-0.395894626684171,-0.920384009690691,-0.920384009691309,NaN,-0.245481990986798,NaN,NaN,-1.05118458163087,0.125722500352248,0.376584034202338,-0.216247044910715,-0.216247044912272,0.403170566369768,-0.403170566370493,-1.37628765301851
163.7376,-0.518597835527563,-1.45338944998176,-2.01895183011721,-2.0837804026321,0.0728864184865679,0.0728864184876946,-0.642183996454874,-0.608296432322845,-0.643594783591207,0.378297681814368,-0.867019073296458,0.378297681814977,2.18605092504196,NaN,NaN,NaN,NaN,0.87189267973089,0.919622831474058,0.944949343290635,0.91962283147399,1.68826591013492,1.13431502434149,NaN,0.28879868180511,-0.750139801094594,NaN,NaN,0.436845077542448,0.779159553688711,-0.276420828011701,-0.252054393464575,-0.679296563555162,-1.69208867459647,-0.365476989804643,-1.47721015330163,-0.411430495216572,-0.915617246206787,-0.915617246207445,NaN,-0.276520028597078,NaN,NaN,-1.07215949265795,0.143703425743087,0.361251878362584,-0.228366792083062,-0.228366792084615,0.415071910617817,-0.415071910618514,-1.37464132043241
163.84,-0.512057377715312,-1.46061618851268,-2.01739268979452,-2.10627317370203,0.0846235318218255,0.0846235318229281,-0.637771339936459,-0.596901455682297,-0.635905003066781,0.388850201891092,-0.874215956415801,0.388850201891691,2.1886821994288,NaN,NaN,NaN,NaN,0.887372291372545,0.919191990510711,0.959594676770156,0.919191990510636,1.71105534663011,1.1677771942336,NaN,0.278047807133245,-0.751473238614966,NaN,NaN,0.465675217923218,0.800738886064527,-0.264818128055335,-0.254074244256366,-0.668116293418814,-1.68301783508031,-0.37546863532501,-1.47479791520994,-0.427788150205315,-0.909065647140876,-0.909065647141571,NaN,-0.307756828063969,NaN,NaN,-1.09201088304632,0.161972146481861,0.34535401769436,-0.239799989913776,-0.239799989915326,0.427063817879089,-0.427063817879757,-1.37262959647301
163.9424,-0.505452468590352,-1.46717738836839,-2.01512908892394,-2.12747736631487,0.097405102510366,0.0974051025114425,-0.63224348246965,-0.584598180441922,-0.627164618728459,0.398945335492191,-0.881254812748684,0.398945335492782,2.19024122369174,NaN,NaN,NaN,NaN,0.90160863500219,0.91851964412727,0.972895984708366,0.918519644127188,1.73218643216118,1.20035757200438,NaN,0.265787866742449,-0.753190827640006,NaN,NaN,0.494618755337708,0.822093850395767,-0.253120124804439,-0.255722436965601,-0.656310090102781,-1.67292447371073,-0.384225001364727,-1.47102558180318,-0.444902574833088,-0.900800978532835,-0.90080097853357,NaN,-0.339135181471981,NaN,NaN,-1.11072565501593,0.180470376642912,0.328923619245815,-0.25053977275571,-0.250539772757256,0.439118771126201,-0.439118771126844,-1.37020949757031
164.0448,-0.498761839201855,-1.47308387692357,-2.01214410379635,-2.14741987527764,0.111148546153649,0.111148546154698,-0.625639364699325,-0.571462924228705,-0.617430513695278,0.408603749982073,-0.888111990188027,0.408603749982656,2.19071936714161,NaN,NaN,NaN,NaN,0.914615909736846,0.917584220656179,0.984850205806396,0.917584220656088,1.75162122103712,1.23200706740553,NaN,0.252095355294166,-0.755256182651526,NaN,NaN,0.523620187285339,0.843236917568619,-0.241397125464513,-0.256980225222838,-0.643936749675773,-1.66184340080688,-0.391750990155617,-1.46592233720693,-0.462708282231457,-0.890900965204045,-0.890900965204829,NaN,-0.370596375509558,NaN,NaN,-1.12829361176082,0.19913787210547,0.311996322076629,-0.260581227268231,-0.260581227269771,0.45121253086091,-0.451212530861528,-1.36733948630051
164.1472,-0.491964085754687,-1.4783473878462,-2.00842148687237,-2.16612902288186,0.125768528484576,0.125768528485596,-0.618000446459665,-0.557573677467055,-0.60676177271739,0.417847194209198,-0.894764741346893,0.417847194209775,2.19010775018912,NaN,NaN,NaN,NaN,0.926409341379333,0.916362924987147,0.995457775229519,0.916362924987045,1.76932411137266,1.26267908135166,NaN,0.237050851848725,-0.757632158483982,NaN,NaN,0.552622664655119,0.864180822174952,-0.229718265973544,-0.257830167721555,-0.631055454412068,-1.64981222816577,-0.398055807050801,-1.45952151523227,-0.48113970151101,-0.879448806529068,-0.879448806529895,NaN,-0.402080383540675,NaN,NaN,-1.14470751020156,0.217912584659744,0.294610175336782,-0.269921415129127,-0.269921415130663,0.46332414399198,-0.463324143992572,-1.36397984673176
164.2496,-0.485037889812551,-1.48298038796493,-2.00394578491217,-2.1836342555637,0.141177341057428,0.14117734105842,-0.609370303746896,-0.543009583319638,-0.595219215633803,0.426698050100902,-0.901191242544537,0.426698050101471,2.18839739818494,NaN,NaN,NaN,NaN,0.937005131061095,0.914831994639043,1.00472267921168,0.91483199463893,1.78526182167738,1.29232949310669,NaN,0.220738582460854,-0.760280979816837,NaN,NaN,0.581568102494845,0.884938330491256,-0.218151195283969,-0.258256230840395,-0.617725534133039,-1.63687114325492,-0.403153072621353,-1.45186047636864,-0.500131539547061,-0.866532638192237,-0.866532638193113,NaN,-0.433526100376204,NaN,NaN,-1.15996310883322,0.236730864215915,0.276805539456679,-0.278559370409425,-0.278559370410957,0.475435924598261,-0.475435924598826,-1.36009303019433
164.352,-0.477962242216183,-1.48699590580004,-1.99870246338605,-2.19996583346204,0.157285288652792,0.15728528865376,-0.599794167699713,-0.527850368999335,-0.582864875564845,0.435178878304273,-0.907370570962392,0.435178878304836,2.18557939623654,NaN,NaN,NaN,NaN,0.946420422904505,0.912966967213074,1.01265249946996,0.912966967212949,1.79940335840612,1.32091663234306,NaN,0.203245948474044,-0.76316441652319,NaN,NaN,0.610397304164037,0.90552201802117,-0.206761786628564,-0.258243878407758,-0.60400624232456,-1.6230626366786,-0.407060928504838,-1.44298044575551,-0.519619122833562,-0.852244936308533,-0.852244936309455,NaN,-0.464871618900993,NaN,NaN,-1.17405920498883,0.255527713391764,0.258624946554112,-0.286496071078902,-0.286496071080428,0.487533403919307,-0.487533403919848,-1.35564397200459
164.4544,-0.470716671959468,-1.49040737387091,-1.99267805007617,-2.21515451911772,0.174001070985069,0.174001070986011,-0.589318424471272,-0.512175745427683,-0.569761440351729,0.443311992172546,-0.913282630134666,0.443311992173102,2.18164503231967,NaN,NaN,NaN,NaN,0.95467328366545,0.910742965546647,1.01925844527037,0.910742965546508,1.81171997498172,1.34840123109153,NaN,0.184663029345244,-0.766243984208685,NaN,NaN,0.639050099304737,0.925944055671819,-0.195613866491816,-0.25778015678094,-0.589956547109772,-1.60843118815472,-0.409802107720597,-1.43292630268967,-0.539538723454691,-0.836681874040181,-0.836681874041149,NaN,-0.496054539298129,NaN,NaN,-1.18699765639761,0.274237087968734,0.240112925747716,-0.2937343856643,-0.29373438566582,0.499605243702051,-0.49960524370257,-1.35060038645631
164.5568,-0.463281479626759,-1.49322849630872,-1.98586030814782,-2.22923127315401,0.191232145041642,0.191232145042558,-0.577990104152034,-0.496064800604261,-0.555971684871597,0.451119099043118,-0.918908016974852,0.451119099043666,2.17658592301761,NaN,NaN,NaN,NaN,0.96178268773296,0.908135002363218,1.02455537275292,0.908135002363065,1.82218513022366,1.37474635769518,NaN,0.165082074828195,-0.769481147277007,NaN,NaN,0.667465498165738,0.94621600428591,-0.184768950397229,-0.256853784525148,-0.57563493674984,-1.5930229192712,-0.411403948375177,-1.4217463183524,-0.559827870130358,-0.8199426502408,-0.819942650241811,NaN,-0.527012297121252,NaN,NaN,-1.19878338435076,0.292792231033094,0.221315802413234,-0.300278996840771,-0.300278996842284,0.511643107749286,-0.511643107749784,-1.34493304823425
164.6592,-0.455637966049435,-1.49547314916027,-1.97823843371671,-2.24222696577211,0.208885061929513,0.208885061930402,-0.565856389262896,-0.479595415729265,-0.541557924874915,0.458621043246275,-0.924227830541162,0.458621043246817,2.17039412256511,NaN,NaN,NaN,NaN,0.967768507958133,0.905118301051461,1.02856179213171,0.905118301051295,1.83077445419454,1.3999173400916,NaN,0.144596999867291,-0.772837509747388,NaN,NaN,0.695581868582294,0.966348619574569,-0.174285984447375,-0.255455249478429,-0.561099242226181,-1.57688522670535,-0.411898347479159,-1.40949185082969,-0.580425642734833,-0.802128806261258,-0.802128806262316,NaN,-0.557682498991648,NaN,NaN,-1.2094243589619,0.311126029360766,0.202281478050082,-0.306136303710134,-0.306136303711642,0.523641493159237,-0.523641493159711,-1.33861606427915
164.7616,-0.447768642801135,-1.49715531382333,-1.96980326130657,-2.25417210984405,0.226865776748957,0.226865776749821,-0.552964166411508,-0.462843728524979,-0.526581516939929,0.465837667453444,-0.929223431020238,0.465837667453977,2.16306221724624,NaN,NaN,NaN,NaN,0.97265151747887,0.901668625651851,1.03129986451932,0.90166862565167,1.83746572259859,1.42388168403312,NaN,0.12330289123203,-0.77627499159275,NaN,NaN,0.723337137490439,0.986351668942485,-0.164221102401567,-0.253576907042411,-0.546406480201932,-1.56006641378648,-0.411321670274414,-1.39621701835119,-0.601272948412124,-0.783343543899617,-0.783343543900721,NaN,-0.588003261280231,NaN,NaN,-1.21893157140584,0.329171376841947,0.183059197136588,-0.311314307310864,-0.311314307312367,0.535597535014768,-0.535597535015221,-1.33162713623152
164.864,-0.439657411642379,-1.49828903646939,-1.96054745412151,-2.26509661679323,0.245079931509996,0.245079931510836,-0.539359634166324,-0.445883658237817,-0.511102418585665,0.472787791922221,-0.93387616277481,0.472787791922748,2.15458341019403,NaN,NaN,NaN,NaN,0.976453404569047,0.897762611261796,1.03279538651849,0.897762611261602,1.84223883642714,1.44660898761675,NaN,0.101295531773529,-0.779755996235835,NaN,NaN,0.750669012539511,1.00623375799424,-0.154627406159101,-0.251213072326989,-0.531612715687127,-1.54261533503419,-0.409714637276647,-1.38197837229735,-0.622312778754838,-0.763691058646205,-0.763691058647346,NaN,-0.617913550822273,NaN,NaN,-1.22731900061196,0.346861525433753,0.163699308445163,-0.315822485443176,-0.315822485444672,0.547510802340414,-0.547510802340846,-1.32394781136851
164.9664,-0.431289700581993,-1.4988884027442,-1.95046565343161,-2.27502957505693,0.26343311096953,0.263433110970347,-0.525087974986285,-0.428786498460848,-0.495178815816948,0.479489305198298,-0.938167055307983,0.479489305198817,2.144951604504,NaN,NaN,NaN,NaN,0.979196798175634,0.893378088476228,1.03307775637453,0.893378088476019,1.84507580602981,1.46807085263414,NaN,0.0786709449071725,-0.783243573760336,NaN,NaN,0.777515218666924,1.02600216023064,-0.145554766318514,-0.248360105416325,-0.516772939394047,-1.52458105796904,-0.407122203868788,-1.36683458013411,-0.643490450130843,-0.743275897788927,-0.743275897790107,NaN,-0.647353526255583,NaN,NaN,-1.23460357939568,0.364130412072599,0.144253026154772,-0.319671660947469,-0.319671660948956,0.559383090156834,-0.559383090157245,-1.31556372022407
165.0688,-0.422652550542296,-1.49896751878686,-1.93955457104408,-2.28399905172577,0.281831071020928,0.28183107102172,-0.510193099059074,-0.41162058061672,-0.478866823889084,0.485959357601579,-0.942076511931486,0.485959357602091,2.13416148895728,NaN,NaN,NaN,NaN,0.980905301137874,0.888494398651523,1.03217991902048,0.888494398651298,1.84596074308113,1.48824079492389,NaN,0.0555249586975642,-0.786701577111381,NaN,NaN,0.803813746462644,1.04566264221738,-0.137049635102574,-0.245016492171012,-0.50194095382873,-1.50601253881951,-0.403593435533776,-1.35084611708693,-0.664753829532171,-0.722202344155702,-0.722202344156921,NaN,-0.676264876044139,NaN,NaN,-1.2408051594168,0.380912966084659,0.124772191777168,-0.322873868961441,-0.32287386896292,0.571218198874358,-0.571218198874747,-1.30646480183273
165.1712,-0.413734660689509,-1.49854049155283,-1.92781302855215,-2.29203191924219,0.300179941299749,0.30017994130052,-0.494717464611607,-0.394451009412262,-0.462220264502165,0.492214639150791,-0.945583994909728,0.492214639151295,2.12220862393114,NaN,NaN,NaN,NaN,0.98160352566234,0.883092693775289,1.03013829366533,0.883092693775048,1.84487986378373,1.50709415639608,NaN,0.0319527902740128,-0.790094802044069,NaN,NaN,0.829503111114077,1.06521928395643,-0.129154873989637,-0.241182918411925,-0.48716926797076,-1.48695831134585,-0.399181372048461,-1.33407496287398,-0.686053543062216,-0.700573824537909,-0.700573824539166,NaN,-0.704591144957208,NaN,NaN,-1.24594646943541,0.397145411464016,0.105309034291201,-0.32544223369788,-0.325442233699351,0.583021694477374,-0.583021694477742,-1.29664551472637
165.2736,-0.404526411678417,-1.49762140135557,-1.91524196121629,-2.29915371254522,0.318386406435279,0.318386406436026,-0.478701969904198,-0.377339467915759,-0.445290515616153,0.498271708226399,-0.948667721703956,0.498271708226897,2.10908952117757,NaN,NaN,NaN,NaN,0.981317119955401,0.877156208865862,1.02699268944115,0.877156208865603,1.84182150195519,1.52460801836232,NaN,0.00804865743478061,-0.793389103012991,NaN,NaN,0.854522620748515,1.08467430746061,-0.121909612086684,-0.236862331351066,-0.472509011393717,-1.46746619639878,-0.393942870320153,-1.31658430463662,-0.707343158771649,-0.678492345855773,-0.678492345857068,NaN,-0.732278039471434,NaN,NaN,-1.25005305899457,0.412765577598687,0.0859159269268618,-0.327390864210819,-0.327390864212281,0.594800653066758,-0.594800653067104,-1.28610501984052
165.376,-0.395019885156947,-1.49622426100819,-1.90184440455558,-2.30538852452781,0.336357869214233,0.336357869214957,-0.462185903336303,-0.360344086571152,-0.428126423531968,0.504147330066126,-0.95130439008835,0.504147330066616,2.09480171155099,NaN,NaN,NaN,NaN,0.980072775600527,0.870670494834813,1.02278621317013,0.870670494834535,1.83677612621682,1.54076110973927,NaN,-0.0160945725455815,-0.796551485780457,NaN,NaN,0.878812649642178,1.10402793200687,-0.115349152489384,-0.232059983052173,-0.458009881396588,-1.44758304730829,-0.387938421776116,-1.29843825585829,-0.728579335467341,-0.656057962637208,-0.656057962638539,NaN,-0.759273706563136,NaN,NaN,-1.25315322043662,0.427713223673079,0.0666451454369173,-0.328734769798328,-0.328734769799779,0.606563397048182,-0.606563397048511,-1.27484731424716
165.4784,-0.385208888614676,-1.49436295916728,-1.88762547295954,-2.31075894181269,0.354002595392758,0.354002595393461,-0.445206934207998,-0.343519369238367,-0.41077426410257,0.509858789921255,-0.953468943181619,0.509858789921738,2.07934379832413,NaN,NaN,NaN,NaN,0.977898214458036,0.863623606915174,1.01756516843815,0.863623606914876,1.82973635501444,1.5555337013323,NaN,-0.0403856914642517,-0.799550184174572,NaN,NaN,0.902314909796919,1.12327826655769,-0.109504931334809,-0.22678345216024,-0.443720123633636,-1.42735454630859,-0.381231948824253,-1.27970160511583,-0.749721932192151,-0.633368278809654,-0.633368278811023,NaN,-0.785528982240255,NaN,NaN,-1.25527788523226,0.441930369426767,0.0475486348130056,-0.329489787608007,-0.329489787609448,0.618319227329455,-0.618319227329768,-1.26288130328282
165.5808,-0.375088987316736,-1.49205118631761,-1.87259233107542,-2.31528601138772,0.371229841643693,0.371229841644372,-0.427801126814756,-0.326916166068691,-0.393277738529098,0.515424152920126,-0.955134379843886,0.515424152920602,2.0627154988771,NaN,NaN,NaN,NaN,0.97482216156856,0.856006254398598,1.01137894129413,0.856006254398282,1.82069696606991,1.56890748496617,NaN,-0.0647354192110422,-0.802354729046036,NaN,NaN,0.92497271624873,1.14242123706271,-0.104404521906141,-0.221042640213331,-0.429686531978993,-1.40682505264967,-0.373890587596365,-1.26043959848885,-0.770734076782344,-0.610517990930774,-0.610517990932185,NaN,-0.810997606437854,NaN,NaN,-1.25646049559619,0.455361616306872,0.028677784231201,-0.329672512081069,-0.329672512082501,0.630078153181093,-0.630078153181389,-1.25022081504111
165.6832,-0.364657542483355,-1.48930234040186,-1.85675415410042,-2.31898922401173,0.387949976417109,0.387949976417763,-0.410002963987245,-0.310581677578194,-0.375677988699446,0.520862446837447,-0.956271619703156,0.520862446837915,2.04491768400139,NaN,NaN,NaN,NaN,0.97087431225622,0.847811925419314,1.00427987305232,0.847811925418979,1.8096549006807,1.58086544832602,NaN,-0.0890566422461949,-0.804936017024997,NaN,NaN,0.946731242562305,1.16145053838386,-0.10007167451529,-0.214849740410841,-0.415954453544018,-1.38603748415198,-0.365984464453754,-1.24071774496269,-0.791582195313474,-0.587598479915811,-0.587598479917263,NaN,-0.835636408970709,NaN,NaN,-1.25673685828685,0.467954447437373,0.0100832033119677,-0.3293002181179,-0.329300218119322,0.641850620587458,-0.641850620587738,-1.23688457077225
165.7856,-0.353913752249555,-1.48612941122023,-1.84012207175314,-2.32188650735218,0.404074609648068,0.404074609648698,-0.391845370452642,-0.294559472606236,-0.358013618712476,0.526193755221054,-0.956849434710159,0.526193755221514,2.02595242697241,NaN,NaN,NaN,NaN,0.966085299240839,0.839036997742004,0.996323128199016,0.839036997741647,1.79660926461979,1.59139176125139,NaN,-0.113264629780197,-0.807266385765656,NaN,NaN,0.967537763161092,1.18035760095177,-0.0965263884400455,-0.208219180914154,-0.402567797223827,-1.36503321078006,-0.35758647285767,-1.22060163129609,-0.812236006462909,-0.56469744647813,-0.564697446479622,NaN,-0.859405482021429,NaN,NaN,-1.25614498922948,0.47965950868696,-0.00818550685368911,-0.328390777102004,-0.328390777103415,0.653647239586727,-0.653647239586991,-1.22289612099319
165.888,-0.342858688245456,-1.48254485168728,-1.82270909438233,-2.32399423300867,0.419516743442299,0.419516743442906,-0.373359730401826,-0.278889508671561,-0.340320714166574,0.53143923084241,-0.956834449742327,0.531439230842862,2.00582306608814,NaN,NaN,NaN,NaN,0.960486660381903,0.829680836782733,0.987566563887847,0.829680836782356,1.78156132490752,1.60047168390775,NaN,-0.137277231292173,-0.809319695813991,NaN,NaN,0.987341882665319,1.19913156827838,-0.0937850150281525,-0.201167548453023,-0.389569052647217,-1.34385194932425,-0.348772050061848,-1.20015673766383,-0.832668487315761,-0.541898575734326,-0.541898575735854,NaN,-0.882268353590974,NaN,NaN,-1.25472495209289,0.490430880948582,-0.0260799904816778,-0.326962573102388,-0.326962573103789,0.66547851214778,-0.665478512148028,-1.20828374744039
165.9904,-0.331495318875122,-1.47856045388906,-1.80453002664825,-2.32532724803765,0.434190942554209,0.434190942554789,-0.354575902372696,-0.263608155512858,-0.322632861351798,0.536621063660526,-0.956191196597888,0.536621063660968,1.98453427014123,NaN,NaN,NaN,NaN,0.954110804817304,0.819745879352883,0.978070600176624,0.819745879352491,1.76451450116677,1.60809149998067,NaN,-0.161015057155182,-0.811071410843664,NaN,NaN,1.00609575745775,1.21775928566142,-0.091860387475763,-0.193713498022858,-0.376999322083618,-1.32253165802298,-0.339618942073519,-1.1794482478479,-0.852855819525555,-0.51928122201896,-0.519281222020524,NaN,-0.904192163874642,NaN,NaN,-1.25251868688158,0.500226348619472,-0.043553379146012,-0.32503442931465,-0.325034429316038,0.677354563188096,-0.677354563188332,-1.19308032958938
