time,S1-D1,S1-D8,S1-D9,S1-D15,S2-D1,S2-D2,S2-D3,S2-D9,S3-D1,S3-D2,S3-D16,S4-D2,S4-D3,S4-D5,S5-D3,S5-D4,S5-D5,S6-D2,S6-D5,S6-D17,S7-D6,S7-D7,S8-D6,S8-D7,S8-D18,S9-D3,S9-D4,S9-D9,S9-D11,S9-D19,S10-D8,S10-D9,S10-D10,S10-D11,S11-D8,S11-D10,S11-D20,S12-D10,S12-D11,S12-D12,S13-D4,S13-D11,S13-D12,S14-D10,S14-D12,S14-D21,S15-D13,S15-D14,S16-D13,S16-D14,S16-D22
1116.9792,0.807371925935945,-1.44978803335555,-0.231986375041238,1.15172815977274,0.3014799858898,0.301479985888896,NaN,NaN,-1.52904608656668,0.806782952166601,0.212849022091069,0.806782952165216,-2.06604569441831,0.476562264693296,-1.68523482864927,-0.389188907564424,1.37885311464581,0.290764184919563,-2.09019391163207,1.20092537398029,-2.09019391163293,-0.622751092709344,-0.209142813940144,-0.553497669248146,-0.779605207749817,0.26395116620545,NaN,-0.849336615602711,0.849336615603543,-1.20004883537113,-2.43613217255157,0.628813181413306,NaN,NaN,-0.746384898581597,-1.08770045087038,-0.298245535810255,-1.09948580941726,-1.09948580941737,NaN,0.70430821492366,1.56483532726271,NaN,-0.798023983465383,-1.44324878730284,0.579901403105155,0.452948627903238,0.452948627902303,0.034804028534925,-0.0348040285348363,1.35988865844308
1117.0816,0.804343996748786,-1.42426049196637,-0.218600020576612,1.13661973167402,0.312487921488951,0.31248792148801,NaN,NaN,-1.54167472991908,0.798346213485738,0.240567276691503,0.79834621348435,-2.07171216877975,0.487179860696433,-1.68140006619228,-0.402847819751132,1.36181196078162,0.273979598446731,-2.1005470987575,1.16229461047596,-2.10054709875837,-0.65256366014657,-0.251243138613356,-0.596709640478479,-0.784272869391118,0.232560314886543,NaN,-0.850466962139065,0.850466962139883,-1.23438670748807,-2.40774448026825,0.57954468357358,NaN,NaN,-0.723114985839224,-1.01665429698226,-0.31074664002266,-1.13521939743745,-1.13521939743761,NaN,0.685724980459652,1.55186188718777,NaN,-0.821657994889737,-1.47132406373262,0.59219226115535,0.473871838552641,0.473871838551662,0.059978373506361,-0.059978373506292,1.38358498135612
1117.184,0.80075487684463,-1.39884694920241,-0.205751251939849,1.12206137541991,0.323535272024362,0.323535272023385,NaN,NaN,-1.55218478066015,0.789614883506778,0.267610896295904,0.789614883505378,-2.07663511785268,0.496967420834367,-1.67755697037797,-0.416925743777465,1.34369704397366,0.256452845771453,-2.11032031356427,1.123670040021,-2.11032031356515,-0.681001731567704,-0.291251817193224,-0.637850879535674,-0.789090586095472,0.200417869012798,NaN,-0.851513857761497,0.851513857762286,-1.26799016209814,-2.37673024111456,0.529644750321802,NaN,NaN,-0.700965775120743,-0.94634039220015,-0.324007045852588,-1.16907552357182,-1.169075523572,NaN,0.666418126899765,1.53754890391383,NaN,-0.845523013756387,-1.49889881368674,0.604136266675715,0.494586750971131,0.494586750970112,0.0849557293502322,-0.084955729350181,1.406057656264
1117.2864,0.796607022256087,-1.37359067567707,-0.193464984929444,1.10804000298467,0.334602079346427,0.334602079345414,NaN,NaN,-1.56061132481904,0.780603403854757,0.293947151009097,0.780603403853353,-2.08076367503355,0.505928977609538,-1.67364973032592,-0.431400594955445,1.32454962935194,0.238216721092344,-2.11945120764436,1.08514996339415,-2.11945120764527,-0.708075393910879,-0.329172891643132,-0.676930692509145,-0.794072852989954,0.167495062214307,NaN,-0.852474579936743,0.852474579937511,-1.30083600875524,-2.34307798707886,0.479143455555969,NaN,NaN,-0.680045234622995,-0.876878972667473,-0.337939287283873,-1.20104321190271,-1.20104321190295,NaN,0.646419330802563,1.52200558790701,NaN,-0.869659468497651,-1.52595777563891,0.615693854075169,0.515028371109134,0.515028371108065,0.109723344025201,-0.109723344025168,1.42728458686461
1117.3888,0.791908326214352,-1.34853516312783,-0.181761752710539,1.09453987416957,0.345663414269168,0.345663414268108,NaN,NaN,-1.56699254380417,0.77132742727647,0.31954412652467,0.771327427275062,-2.08405040318252,0.514072637654224,-1.66962235047582,-0.446249244332177,1.30441223327694,0.219305280549667,-2.12787882163483,1.04683255069999,-2.12787882163577,-0.733796963467468,-0.365017687868286,-0.713963771133761,-0.799231978171011,0.133766559562789,NaN,-0.853348163507798,0.853348163508536,-1.33290218862858,-2.30678463663855,0.428071111937591,NaN,NaN,-0.660455700000197,-0.808384364226989,-0.352454699248493,-1.23111866837881,-1.2311186683791,NaN,0.625758307682621,1.50534259525973,NaN,-0.894106444878691,-1.55248612680104,0.626827512932441,0.535133969378371,0.535133969377267,0.134269170984421,-0.1342691709844,1.44724671500861
1117.4912,0.786671612822952,-1.32372396894957,-0.170658029909814,1.08154288447912,0.356690038725616,0.356690038724495,NaN,NaN,-1.5713694714842,0.761803641860679,0.344370886781591,0.761803641859262,-2.08645168874384,0.521410619074058,-1.66541902071808,-0.461447251814369,1.2833287470898,0.199754083879482,-2.13554372989511,1.00881553085977,-2.13554372989609,-0.758180716767309,-0.398803939069913,-0.748969544035489,-0.804577882354725,0.0992107616701028,NaN,-0.854135409845844,0.854135409846542,-1.36416776229306,-2.26785570963267,0.37645833442919,NaN,NaN,-0.642292889225299,-0.740963955023748,-0.367463988895319,-1.25930497641114,-1.25930497641152,NaN,0.604462706615628,1.4876710704414,NaN,-0.918901297532212,-1.57846949055883,0.637501949223918,0.554843324229399,0.554843324228267,0.158581880317805,-0.158581880317792,1.46592801775299
1117.5936,0.780914105280679,-1.29920053995145,-0.160166564925964,1.06902886992025,0.367649070508818,0.367649070507634,NaN,NaN,-1.57378577866898,0.752049604816655,0.368397623754083,0.752049604815218,-2.08792807272714,0.527959266161735,-1.66098444234935,-0.476968632112173,1.26134453479956,0.179600401876929,-2.14238820238254,0.971195843121082,-2.14238820238356,-0.781242676583771,-0.430554956470717,-0.781971592000424,-0.810117956371704,0.063810043668514,NaN,-0.854838863715057,0.854838863715724,-1.39461287774582,-2.22630545991179,0.324336099775135,NaN,NaN,-0.625645068639011,-0.674717371955462,-0.382877788896446,-1.28561180059371,-1.28561180059422,NaN,0.58255800881035,1.46910170848416,NaN,-0.944079295927556,-1.60389400649572,0.647684214121106,0.574098975797618,0.574098975796458,0.182650860938459,-0.18265086093845,1.48331547293523
1117.696,0.774656888914418,-1.27500801788177,-0.150296705196537,1.05697592699679,0.378504620937557,0.378504620936321,NaN,NaN,-1.57428758583851,0.742083589521187,0.391595782823187,0.742083589519739,-2.08844451341506,0.533739041645493,-1.65626410443966,-0.492785676160735,1.23850649495661,0.158883369463521,-2.14835639652492,0.934069246461406,-2.14835639652597,-0.803000458757806,-0.460298890274307,-0.812997153662735,-0.815856986324536,0.0275509073530884,NaN,-0.855462756294637,0.855462756295267,-1.42421870773979,-2.18215692429204,0.27173579376792,NaN,NaN,-0.610592429824649,-0.609735933582844,-0.398607168128634,-1.3100551034898,-1.31005510349046,NaN,0.560067434828129,1.44974386236132,NaN,-0.969673310066442,-1.62874645796966,0.657343807613278,0.592846486422002,0.592846486420831,0.206466223245684,-0.206466223245679,1.49939901590035
1117.7984,0.767924387578384,-1.25118903115963,-0.141054702758966,1.04536074323979,0.389218386656161,0.38921838665486,NaN,NaN,-1.57292330189232,0.73192444467786,0.413938157321021,0.731924444676409,-2.08797058400438,0.538774494714632,-1.65120451549542,-0.508868842788653,1.21486308216684,0.137644071934935,-2.15339458150398,0.897529902684256,-2.15339458150506,-0.823473170126114,-0.488068097659113,-0.842076723427925,-0.821797143633575,-0.00957596244876317,NaN,-0.856012912429332,0.856012912429934,-1.45296735223918,-2.1354419029888,0.218689240804637,NaN,NaN,-0.597206700024559,-0.546102397220241,-0.414564079368078,-1.33265686565282,-1.33265686565361,NaN,0.537011865363342,1.42970471356816,NaN,-0.995713536259504,-1.65301443919053,0.666452761150687,0.611034701638668,0.611034701637476,0.230018813631303,-0.230018813631308,1.51417150635915
1117.9008,0.760743866194574,-1.22778547664868,-0.13244399187449,1.03415893132267,0.39975019195177,0.399750191950402,NaN,NaN,-1.56974348678944,0.721591462584805,0.435398955037314,0.721591462583347,-2.08648061782493,0.543094199527934,-1.64575340819011,-0.525186724389857,1.19046428851721,0.115925561817758,-2.15745139036946,0.861669955806913,-2.15745139037058,-0.84268134370421,-0.51389861144613,-0.869243728431784,-0.827938024276511,-0.0475757258271777,NaN,-0.856496622615961,0.856496622616545,-1.48084171330454,-2.08620088722435,0.165228715727119,NaN,NaN,-0.585550963951547,-0.483890954799747,-0.430661732388799,-1.35344479490511,-1.35344479490603,NaN,0.513409781130305,1.40908851864012,NaN,-1.02222726123948,-1.67668653341459,0.674985695163022,0.628616001316428,0.628616001315217,0.253300246545585,-0.253300246545592,1.52762870673583
1118.0032,0.753144966201966,-1.20483829457838,-0.124465435023094,1.02334536069407,0.410058487275607,0.410058487274192,NaN,NaN,-1.56480073889058,0.711104252610318,0.455953844819084,0.711104252608859,-2.08395382261295,0.546730661839746,-1.63985994132835,-0.541706080531153,1.16536158896093,0.093772812339028,-2.16047809545273,0.826579119167873,-2.16047809545389,-0.860646897690103,-0.537829693724593,-0.894534266758424,-0.834276715855071,-0.0864494761327842,NaN,-0.856922490930097,0.856922490930663,-1.50782535651685,-2.03448294109679,0.11138694216616,NaN,NaN,-0.575679651820063,-0.423167403120005,-0.446814889495473,-1.37245201849092,-1.37245201849199,NaN,0.489277229481747,1.3879959435219,NaN,-1.0492386583923,-1.69975247069505,0.682919847877987,0.645546529581025,0.6455465295798,0.276302948655539,-0.276302948655557,1.53976925866342
1118.1056,0.745159276808009,-1.18238724218816,-0.117117538337468,1.01289448324881,0.420100809658112,0.420100809656631,NaN,NaN,-1.55814960835003,0.700482616295514,0.475579988744359,0.700482616294058,-2.0803743852202,0.549720197142642,-1.63347491787664,-0.5583919283813,1.13960785661071,0.0712326178999553,-2.16242890548275,0.792344265853224,-2.16242890548394,-0.877393103366434,-0.559903460586653,-0.917986889051245,-0.840807871871979,-0.126194363240361,NaN,-0.857300277492038,0.857300277492593,-1.53390236940742,-1.98034553859112,0.0571970827776567,NaN,NaN,-0.567638646319891,-0.363989423320692,-0.462940087554151,-1.389716763818,-1.38971676381918,NaN,0.464627820758508,1.36652349257655,NaN,-1.07676860252768,-1.7222032397439,0.690235083393123,0.661786395223103,0.661786395221872,0.299020199685702,-0.299020199685722,1.55059464458219
1118.208,0.73681994329494,-1.16047067259678,-0.110396639485521,1.00278064988224,0.429834209872219,0.429834209870683,NaN,NaN,-1.5498465320283,0.689746423103934,0.494256059652376,0.68974642310248,-2.07573157237318,0.552102779570534,-1.62655102550287,-0.575207681208197,1.11325725334682,0.0483534500359978,-2.16326128167005,0.759049013582269,-2.16326128167125,-0.892944545473651,-0.580164568313269,-0.939642406759235,-0.847523777487959,-0.166803730868932,NaN,-0.857640742847207,0.857640742847738,-1.55905722008696,-1.92385435180298,0.00269272422133738,NaN,NaN,-0.561465467257951,-0.306406926631656,-0.478955796993101,-1.4052820377128,-1.40528203771408,NaN,0.439472747827909,1.34476302705132,NaN,-1.1048344904336,-1.74403114246821,0.696913894180873,0.677299838276058,0.677299838274819,0.321446154276756,-0.321446154276788,1.56010913229901
1118.3104,0.728161312347719,-1.1391253213793,-0.104297069575569,0.992978413099388,0.439215653197246,0.439215653195665,NaN,NaN,-1.53994977770916,0.678915488688201,0.511962240703617,0.678915488686757,-2.07001981416318,0.553921852782708,-1.61904309394458,-0.592115331452331,1.08636509915289,0.0251852727649756,-2.16293626351515,0.726773302442414,-2.16293626351636,-0.907327061526804,-0.598659951483985,-0.959543712399198,-0.854414398485169,-0.208267255868702,NaN,-0.85795548417405,0.857955484174561,-1.58327461705462,-1.86508298365907,-0.0520921436712701,NaN,NaN,-0.557189503896364,-0.25046243935382,-0.494782532780346,-1.41919530558722,-1.41919530558863,NaN,0.413820819347169,1.32280135870079,NaN,-1.13345006546859,-1.76522979486611,0.702941407015664,0.692055361791148,0.692055361789902,0.343575840481555,-0.343575840481596,1.5683197109787
1118.4128,0.719218611811871,-1.11838609974256,-0.0988112905480134,0.983462810501628,0.448202400035995,0.448202400034382,NaN,NaN,-1.52851938359301,0.668009457941004,0.528680205196238,0.66800945793957,-2.06323875467722,0.555224097401926,-1.61090835815219,-0.60907567532004,1.05898772203403,0.00177932027123144,-2.16141879037221,0.69559297199272,-2.1614187903734,-0.92056765445207,-0.615438600618902,-0.977735601364406,-0.861467412112722,-0.250571085329697,NaN,-0.858256752221704,0.858256752222188,-1.6065393741311,-1.80411264467326,-0.107123153543244,NaN,NaN,-0.554832276576023,-0.196191506410244,-0.51034293253271,-1.43150816104339,-1.4315081610449,NaN,0.387678504942822,1.30071990675119,NaN,-1.16262525263522,-1.78579408550482,0.708305389568341,0.70602583227495,0.706025832273694,0.365405143928844,-0.365405143928886,1.57523602718524
1118.5152,0.71002766034398,-1.09828589457867,-0.0939300119998089,0.974209625475265,0.456752368720201,0.456752368718566,NaN,NaN,-1.51561708386762,0.657047694036739,0.544393080367421,0.657047694035323,-2.05539326704868,0.556059159822531,-1.60210672004336,-0.6260485704346,1.03118229026109,-0.0218121563110348,-2.15867800686426,0.665579347135347,-2.15867800686545,-0.932694380766035,-0.63055136520014,-0.994264589494466,-0.868668223149872,-0.293697968467149,NaN,-0.858557249830658,0.858557249831114,-1.6288362876622,-1.74103178431831,-0.162365585313633,NaN,NaN,-0.554407713639212,-0.143623093945495,-0.525561813342398,-1.44227597469639,-1.44227597469796,NaN,0.361050000506775,1.27859441686647,NaN,-1.1923660100993,-1.80572010101942,0.712996246678812,0.719188554859329,0.719188554858068,0.386930790466866,-0.38693079046691,1.58087031812667
1118.6176,0.70062460288416,-1.07885537878095,-0.0896422929344657,0.965195623191605,0.464824480636094,0.464824480634436,NaN,NaN,-1.50130621736095,0.646049174188826,0.559085403879527,0.646049174187431,-2.04649344003038,0.556479349612878,-1.59260100958829,-0.64299321147277,1.00300663081729,-0.0455361606513796,-2.15468754465758,0.636798840003656,-2.15468754465876,-0.943736219161146,-0.644050768964249,-1.00917872304993,-0.875999971788068,-0.337627377839783,NaN,-0.858869920233445,0.858869920233876,-1.65015003482441,-1.67593568921649,-0.217784383691266,NaN,NaN,-0.555922430500685,-0.0927799745525793,-0.540366214925874,-1.45155751688076,-1.4515575168824,NaN,0.333937323865556,1.25649474730721,NaN,-1.22267419996856,-1.82500502370537,0.717006995141035,0.731525326178777,0.731525326177536,0.40815033137248,-0.408150331372525,1.58523732966739
1118.72,0.691045669055265,-1.06012283533856,-0.0859356330353293,0.956398761307844,0.472378988859918,0.472378988858229,NaN,NaN,-1.48565161811492,0.635032392347404,0.572743081373834,0.635032392346036,-2.03655454120509,0.556539306231752,-1.58235724981588,-0.659868406427429,0.974519041381396,-0.0693392260898752,-2.14942577464499,0.609312569510333,-2.14942577464615,-0.953722920255845,-0.655990826915273,-1.02252737613746,-0.883443540432409,-0.38233561486879,NaN,-0.859207732476877,0.859207732477273,-1.67046510283374,-1.60892605185856,-0.273344163881548,NaN,NaN,-0.559376001049197,-0.0436790874033397,-0.554685433992554,-1.4594145523481,-1.45941455234982,NaN,0.306340443593113,1.23448472354515,NaN,-1.2535474789837,-1.84364700588292,0.720333213055334,0.743022463838239,0.74302246383701,0.429062123576177,-0.42906212357622,1.58835420900375
1118.8224,0.681326952502298,-1.04211399649593,-0.0827960559149881,0.947798375038123,0.479377793102301,0.479377793100574,NaN,NaN,-1.4687194820909,0.624015268195797,0.585353349198243,0.624015268194455,-2.02559695331038,0.556295629545495,-1.57134492713688,-0.676632841301078,0.945778103770668,-0.0931676816386609,-2.14287602325537,0.58317599648724,-2.14287602325651,-0.962684829936237,-0.666426855059367,-1.03436102549185,-0.890977561606092,-0.427795897061061,NaN,-0.859583468592094,0.859583468592467,-1.6897657579781,-1.5401105076654,-0.329009200955463,NaN,NaN,-0.564761217116187,0.00366812486883875,-0.568451052229087,-1.4659114019271,-1.46591140192892,NaN,0.278257432856183,1.21262205236409,NaN,-1.28497920779642,-1.86164502953698,0.722972964590766,0.75367081194962,0.753670811948416,0.449665296131729,-0.44966529613177,1.59024036974794
1118.9248,0.671504210705249,-1.0248518981213,-0.080208184818653,0.939375335553321,0.485784742429116,0.485784742427361,NaN,NaN,-1.45057720020235,0.613015062589919,0.596904743013124,0.613015062588609,-2.01364607200672,0.555806469770201,-1.55953725899337,-0.693245329396839,0.916842502307061,-0.116967904951946,-2.13502674587499,0.558438576586709,-2.1350267458761,-0.97065267631182,-0.67541526587063,-1.04473099185095,-0.898578423028069,-0.473978427292411,NaN,-0.860009515761628,0.860009515761985,-1.70803605868006,-1.46960214110632,-0.38474339888795,NaN,NaN,-0.572064338892048,0.0492553956656061,-0.581596958407676,-1.47111446569124,-1.47111446569313,NaN,0.24968463413299,1.19095828072285,NaN,-1.31695837705932,-1.87899876274219,0.72492669879019,0.763465725693009,0.763465725691833,0.469959703770135,-0.46995970377018,1.59091733106393
1119.0272,0.661612685435329,-1.00835674999205,-0.0781553110812355,0.931112180384145,0.491565921687649,0.491565921685867,NaN,NaN,-1.43129315541576,0.6020483026594,0.607387071358082,0.602048302658125,-2.00073215103277,0.555131083382839,-1.54691143848015,-0.709665045074799,0.887770844231147,-0.140686563355917,-2.12587164865681,0.535143441236688,-2.12587164865791,-0.977657323631981,-0.683013349744305,-1.0536891504463,-0.906220266185796,-0.520850450892206,NaN,-0.860497666212673,0.860497666213021,-1.72525990870719,-1.39751896942039,-0.440510240578271,NaN,NaN,-0.581265344862582,0.0930813228636743,-0.594059367956902,-1.47509171308474,-1.47509171308671,NaN,0.220616826394199,1.16953879209799,NaN,-1.34946955086272,-1.89570842228108,0.726197122001624,0.772407039749515,0.772407039748368,0.489945875599745,-0.489945875599794,1.59040853182462
1119.1296,0.651686941716881,-0.992645822912258,-0.0766194576856202,0.922993215642022,0.496689911552697,0.496689911550886,NaN,NaN,-1.41093649828364,0.591130721728341,0.616791391419152,0.591130721727095,-1.98689008762306,0.554329376151347,-1.5334488294237,-0.725851740751203,0.858621475743614,-0.164270844713785,-2.11540975010402,0.513327117967807,-2.1154097501051,-0.983729516840331,-0.689279052943277,-1.0612876329837,-0.913874980122753,-0.568376311154365,NaN,-0.861058927835784,0.861058927836123,-1.74142114013677,-1.32398341866586,-0.496272727836286,NaN,NaN,-0.592338188096041,0.135149061206533,-0.605776850569896,-1.47791215942694,-1.47791215942902,NaN,0.191047400670086,1.14840284781185,NaN,-1.3824928292503,-1.91177464622826,0.726789053127104,0.780499023963976,0.780499023962861,0.509624963821596,-0.509624963821645,1.58873912041397
1119.232,0.64176072025199,-0.977733353167844,-0.0755814424296358,0.915004591390148,0.501128011188253,0.501128011186427,NaN,NaN,-1.38957692462085,0.580277216517645,0.625109982880023,0.580277216516426,-1.97215915518388,0.553461459959405,-1.51913509486054,-0.741765946630807,0.82945228922834,-0.187668679595578,-2.10364538088176,0.493019292427422,-2.10364538088281,-0.988899647353772,-0.694270767001626,-1.06757855074332,-0.921512196590193,-0.616517512176304,NaN,-0.861703351651893,0.86170335165223,-1.75650361649247,-1.24912180662503,-0.551993323356622,NaN,NaN,-0.605251058900867,0.175466017287189,-0.616690379769661,-1.47964535106723,-1.47964535106941,NaN,0.160968557836861,1.12758368555384,NaN,-1.41600382893495,-1.92719837612254,0.726709280139244,0.787750325764243,0.787750325763167,0.528998689015807,-0.528998689015857,1.58593572348313
1119.3344,0.631866799193228,-0.963630466064969,-0.0750209452100666,0.907134351577468,0.504854417787564,0.504854417785724,NaN,NaN,-1.36728447101339,0.569501818827058,0.632336318676045,0.569501818825873,-1.95658270155105,0.552587240825634,-1.5039602618965,-0.757369155680836,0.800320523518001,-0.210828955776728,-2.09058813171016,0.474242605997948,-2.09058813171118,-0.993197558807433,-0.698047141110746,-1.07261375818129,-0.929099297079085,-0.665232791934307,NaN,-0.862439885886828,0.862439885887158,-1.7704913525048,-1.17306383982507,-0.607633901674785,NaN,NaN,-0.619966651220819,0.214043545464919,-0.626743413308459,-1.48036087426035,-1.48036087426264,NaN,0.130371533503709,1.10710867397611,NaN,-1.4499736788821,-1.94198074856825,0.725966438608489,0.794173895318755,0.79417389531772,0.548069273125178,-0.548069273125229,1.58202620139664
1119.4368,0.622036865555235,-0.950345122802173,-0.074916581830089,0.89937245852644,0.507846364841102,0.507846364839257,NaN,NaN,-1.34412932581613,0.558817676463905,0.638465038849739,0.558817676462746,-1.94020782830905,0.551766038106904,-1.48791873882538,-0.772623995089572,0.771282564588071,-0.233701722906957,-2.07625276272961,0.457012486645044,-2.07625276273061,-0.996652393247676,-0.700666923076919,-1.07644466028827,-0.936601447277012,-0.714478205531027,NaN,-0.86327626291036,0.863276262910689,-1.78336865173615,-1.09594211962193,-0.663155707985633,NaN,NaN,-0.636442433648136,0.25089663810148,-0.635882004303445,-1.48012789613076,-1.48012789613317,NaN,0.0992468367859242,1.08699950344501,NaN,-1.48436902827358,-1.95612299895318,0.724570929102831,0.799786888780845,0.799786888779855,0.566839353037413,-0.566839353037477,1.5770394026401
1119.5392,0.612301398870755,-0.937882094664718,-0.0752459846486612,0.891710791486044,0.510084225908967,0.510084225907098,NaN,NaN,-1.32018164192506,0.548237040859604,0.643491937781601,0.548237040858462,-1.92308504987852,0.551056220820992,-1.47100929595705,-0.787494379690772,0.742393754718863,-0.256238380805687,-2.06065907829453,0.441337022048652,-2.06065907829549,-0.999292467229164,-0.702188829181543,-1.07912205635069,-0.943981672835773,-0.764207219335181,NaN,-0.864218915477859,0.864218915478185,-1.7951202645451,-1.01789164096802,-0.71851932161075,NaN,NaN,-0.654630928623798,0.286043602971797,-0.644054936353416,-1.47901474139626,-1.47901474139875,NaN,0.0675844803609552,1.06727238771627,NaN,-1.51915206787981,-1.96962638284027,0.722534877989627,0.804610545704303,0.804610545703347,0.585311877028738,-0.585311877028808,1.57100493153902
1119.6416,0.602689566849721,-0.926242964993438,-0.0759858905543755,0.884143120679986,0.511551590401776,0.51155159039991,NaN,NaN,-1.29551134144678,0.537771264034172,0.647413970206149,0.537771264033049,-1.90526791465903,0.550514844494291,-1.45323500706747,-0.801945640031446,0.713708214749631,-0.2783918442469,-2.04383175966281,0.427216888618003,-2.04383175966374,-1.00114517006252,-0.702671439411933,-1.08069601273983,-0.951200980434863,-0.81437081790467,NaN,-0.865272912458239,0.865272912458579,-1.80573156655193,-0.939049266844889,-0.773684626792729,NaN,NaN,-0.674480000802018,0.31950572916882,-0.651213875324946,-1.47708850345909,-1.47708850346167,NaN,0.0353741859471127,1.0479382629256,NaN,-1.55428057143101,-1.98249212272573,0.719872128425413,0.808670035244907,0.808670035243985,0.603489996272018,-0.603489996272104,1.56395293923291
1119.744,0.593229127456908,-0.915426156360989,-0.0771122393073003,0.876665060523296,0.512235313997708,0.512235313995846,NaN,NaN,-1.27018791348388,0.527430809260722,0.650229273202938,0.527430809259619,-1.8868125689402,0.550197280745302,-1.43460313877358,-0.815944620500051,0.68527868023412,-0.300116680626258,-2.02580014497037,0.414645342243688,-2.02580014497127,-1.00223688738449,-0.702173112838498,-1.08121576427184,-0.958218519112576,-0.864917625444967,NaN,-0.866441906597214,0.866441906597563,-1.81518875617757,-0.85955317283317,-0.828610797113885,NaN,NaN,-0.695933149699117,0.351306951914676,-0.657313534909901,-1.47441468631376,-1.47441468631643,NaN,0.0026055639656129,1.02900298640925,NaN,-1.58970796609027,-1.99472138519525,0.716598242452593,0.811994265906484,0.811994265905607,0.621376963906698,-0.6213769639068,1.55591393859479
1119.8464,0.583946328242859,-0.905426979684732,-0.0786002878310075,0.869274005668591,0.512125542682518,0.512125542680641,NaN,NaN,-1.24428021220434,0.517225274793847,0.651937197784026,0.517225274792768,-1.86777725738485,0.550156843664073,-1.41512497779249,-0.829459747978763,0.657156350770721,-0.321369221141525,-2.00659794976102,0.403608265576522,-2.00659794976188,-1.0025929577921,-0.700751916886262,-1.08072964640823,-0.964991774321901,-0.915794041719754,NaN,-0.867728094714286,0.867728094714662,-1.82347907445179,-0.779542268310013,-0.88325629445724,NaN,NaN,-0.71892979690558,0.381473528072589,-0.662311857504071,-1.47105687492525,-1.47105687492799,NaN,-0.0307317230874106,1.0104675462848,NaN,-1.62538343561009,-2.00631528414382,0.712730508312119,0.81461565897075,0.814615658969921,0.638976044939761,-0.638976044939881,1.54691863846673
1119.9488,0.574865795034801,-0.896237702959693,-0.0804247455738193,0.861969051305739,0.511215708924453,0.511215708922576,NaN,NaN,-1.21785626078428,0.507163424345754,0.652538344993471,0.507163424344688,-1.84822176699285,0.550444421671392,-1.39481559527988,-0.842461076822229,0.629390751932002,-0.342107649867629,-1.9862629278768,0.394084264781672,-1.98626292787764,-1.0022376628907,-0.698465562578607,-1.07928505442009,-0.971476788935595,-0.966944391204014,NaN,-0.869132194918809,0.869132194919209,-1.83059105384012,-0.699155604671215,-0.937578879738186,NaN,NaN,-0.743405560337818,0.410033728455521,-0.666170213943139,-1.46707643155516,-1.46707643155793,NaN,-0.064647803219704,0.992328289468208,NaN,-1.66125205378788,-2.01727490044215,0.708287960596881,0.816569888741934,0.816569888741156,0.656290432795408,-0.656290432795544,1.53699779633077
1120.0512,0.566010408115905,-0.887847638728073,-0.0825599319450047,0.854750896984871,0.509502501452495,0.509502501450621,NaN,NaN,-1.1909830645874,0.497253217738236,0.652034603811272,0.497253217737186,-1.82820682697789,0.551108119116917,-1.37369355712489,-0.854920320178143,0.602029608572973,-0.362292078383373,-1.96483648179662,0.386044816384041,-1.96483648179743,-1.00119424148859,-0.695371338641232,-1.07692841919573,-0.977628406669576,-1.01831108595376,NaN,-0.870653438593865,0.870653438594301,-1.83651479481815,-0.618531782849434,-0.991535638967228,NaN,NaN,-0.769292517801016,0.437017546097101,-0.668853625321317,-1.46253221331309,-1.46253221331593,NaN,-0.0991524378861769,0.974577166850846,NaN,-1.69725494677527,-2.02760131586471,0.703291418224961,0.81789559045186,0.817895590451145,0.673323168344738,-0.673323168344881,1.52618209529109
1120.1536,0.557401170813515,-0.880243250115543,-0.0849799516291795,0.847621733190038,0.506985813731709,0.506985813729819,NaN,NaN,-1.1637264384865,0.487501837619526,0.650429190876852,0.487501837618495,-1.80779348364256,0.55219290777388,-1.35178059962429,-0.866810878617889,0.575118726532723,-0.381884615014792,-1.94236324278483,0.379454470408396,-1.94236324278562,-0.999484916684112,-0.691526042776724,-1.07370519077794,-0.983400531333028,-1.06983480394196,NaN,-0.872289564662667,0.872289564663138,-1.84124225509796,-0.537808380082194,-1.04508303349633,NaN,NaN,-0.796519469853832,0.462456416560703,-0.670331006822821,-1.45748030552196,-1.45748030552488,NaN,-0.134254860916437,0.957201989629017,NaN,-1.73332948449092,-2.03729566989594,0.697763532884858,0.818634038629316,0.81863403862866,0.690077059403508,-0.690077059403658,1.51450205141597
1120.256,0.549057079267299,-0.873408275202622,-0.0876588803425109,0.840585111687699,0.503668677272706,0.503668677270807,NaN,NaN,-1.13615085352057,0.47791570966298,0.647726695090423,0.477915709661962,-1.78704247938181,0.553740290841232,-1.32910129802837,-0.878107873443356,0.548701879147219,-0.400849435433992,-1.9188906471335,0.374271114276288,-1.91889064713427,-0.99713092840931,-0.686985913024549,-1.06965982584086,-0.988746392769394,-1.12145468290874,NaN,-0.874036804571654,0.874036804572146,-1.84476752996798,-0.45712142244001,-1.09817697779921,NaN,NaN,-0.825012211261034,0.486382947857705,-0.670575426429612,-1.45197376551196,-1.45197376551497,NaN,-0.169963608508447,0.940186690670883,NaN,-1.76940949961138,-2.04635924914886,0.691728832552703,0.818828806226989,0.818828806226387,0.706554600505204,-0.706554600505358,1.50198795022656
1120.3584,0.540995002415197,-0.8673238686798,-0.0905709528618574,0.833645802922296,0.499557184266683,0.49955718426477,NaN,NaN,-1.10831930292451,0.468500515265025,0.643933130384732,0.468500515264014,-1.76601366753873,0.555787986489752,-1.30568275409073,-0.888788184981358,0.522820696727615,-0.419152855597101,-1.8944685293941,0.370446297842751,-1.89446852939484,-0.994152567503818,-0.681806560176632,-1.06483577680917,-0.99361881118404,-1.17310852702764,NaN,-0.875889859260513,0.875889859261026,-1.84708710680004,-0.376604922519508,-1.15077293896936,NaN,NaN,-0.854693813695168,0.508830661412511,-0.669564362706539,-1.44606237022794,-1.44606237023106,NaN,-0.206286340652006,0.923511583551589,NaN,-1.80542553157051,-2.05479361012837,0.685213748317969,0.818525416883481,0.818525416882935,0.722757896614877,-0.722757896615041,1.48866980243484
1120.4608,0.533229578820493,-0.861968757869201,-0.0936907460028901,0.826809645011239,0.494660402325076,0.494660402323154,NaN,NaN,-1.0802931830471,0.459261198043194,0.639055995903066,0.459261198042194,-1.74476548591643,0.558369639605802,-1.28155431813991,-0.898830490845169,0.497514559840305,-0.436763403090587,-1.869148742472,0.367925616820445,-1.86914874247271,-0.990569209286783,-0.676042897964679,-1.05927547945821,-0.997970454691206,-1.22473302146053,NaN,-0.877841880445834,0.877841880446354,-1.84820008640923,-0.296390483613934,-1.20282604917278,NaN,NaN,-0.885484914193686,0.52983374844504,-0.667279943038022,-1.43979236435984,-1.43979236436302,NaN,-0.243229661282186,0.907153610974531,NaN,-1.84130509300576,-2.06260072661906,0.678246626758455,0.817770995677612,0.817770995677119,0.738688595647244,-0.738688595647418,1.47457730354664
1120.5632,0.525773132692104,-0.857319408383708,-0.0969933516454323,0.820083388058259,0.488990283661196,0.488990283659281,NaN,NaN,-1.05213218587866,0.450201966860536,0.63310433822396,0.450201966859553,-1.72335449677047,0.561514568707955,-1.25674734735863,-0.908215299973473,0.4728204990738,-0.453651882786083,-1.84298480612599,0.36664914723867,-1.84298480612669,-0.986399345861836,-0.669749067956968,-1.05302033685379,-1.00175408774292,-1.27626394910619,NaN,-0.879884465477406,0.87988446547793,-1.84810837152577,-0.216606958108005,-1.2542912258292,NaN,NaN,-0.917304000374125,0.54942684515644,-0.663709152140439,-1.43320621593201,-1.43320621593529,NaN,-0.280798943830586,0.891086578250031,NaN,-1.87697295436163,-2.06978315183902,0.670857741078033,0.816613916984512,0.816613916984067,0.754347827232313,-0.754347827232487,1.45973978363287
1120.6656,0.518635606736894,-0.853350194193413,-0.100454538510738,0.813474535357536,0.482561570863065,0.482561570861153,NaN,NaN,-1.02389420250806,0.441326297501727,0.626088809262938,0.441326297500752,-1.70183498624715,0.565247548993789,-1.23129499218988,-0.916924983930781,0.448773103941681,-0.469791436770923,-1.81603158111712,0.366551918318218,-1.81603158111779,-0.981660617505659,-0.662978358788883,-1.04611069968634,-1.00492281020117,-1.32763640640185,NaN,-0.882007659432363,0.882007659432893,-1.84681682485778,-0.137380146117905,-1.30512330013324,NaN,NaN,-0.950067686986578,0.567644826771888,-0.658844012611038,-1.42634239182808,-1.42634239183142,NaN,-0.318998162147239,0.875281373526853,NaN,-1.91235144166822,-2.07634419160713,0.663079309351736,0.815103448478069,0.815103448477668,0.769736137045367,-0.769736137045544,1.44418614507944
1120.768,0.511824507423785,-0.850033567770034,-0.10405090366839,0.806991181542414,0.475391701039994,0.475391701038088,NaN,NaN,-0.995635237823785,0.432636933177355,0.618021716250391,0.432636933176394,-1.68025860986353,0.569588624570661,-1.20523200343632,-0.924943814378201,0.425404441089436,-0.485157604848163,-1.78834496707556,0.367564414979703,-1.78834496707622,-0.976369845463204,-0.65578312166454,-1.03858584566679,-1.00743028865715,-1.37878502042249,NaN,-0.88419994434554,0.88419994434607,-1.84433339627707,-0.058832523654788,-1.35527716145873,NaN,NaN,-0.98369098240214,0.584522619651912,-0.65268174259686,-1.4192351606505,-1.41923516065391,NaN,-0.357829721608734,0.859706178997168,NaN,-1.94736074691795,-2.08228808994884,0.654945517359631,0.813289391894909,0.813289391894556,0.784853409108208,-0.784853409108386,1.42794479963322
1120.8704,0.505344860715026,-0.847340228581415,-0.107760014313051,0.800641847324797,0.467500709605946,0.467500709604042,NaN,NaN,-0.967409338269475,0.424135883020459,0.608917064466659,0.424135883019515,-1.65867407862084,0.574552942782048,-1.17859456094765,-0.932258019504047,0.402743978683621,-0.499728396028246,-1.75998162796535,0.369613115098187,-1.75998162796599,-0.970543070810395,-0.648214688580951,-1.03048396467191,-1.00923098384531,-1.42964417330776,NaN,-0.886448198039149,0.886448198039683,-1.84066921539423,0.0189170084583377,-1.40470792956219,NaN,NaN,-1.0180875447467,0.600095032828639,-0.645224891318326,-1.41191442587487,-1.41191442587829,NaN,-0.397294285114163,0.844326676228695,NaN,-1.98191925619596,-2.08762022755872,0.64649254408345,0.81122171761962,0.811221717619307,0.799698780155847,-0.799698780156025,1.41104361542393
1120.9728,0.499199180035658,-0.845239292050526,-0.111560539655998,0.794435310924973,0.458911133096325,0.458911133094436,NaN,NaN,-0.939268534996199,0.41582441892203,0.598790596271054,0.415824418921099,-1.63712689357425,0.580150613384495,-1.15142012941309,-0.938855865160555,0.380818513621648,-0.513484376503203,-1.73099875189177,0.37262107025507,-1.73099875189239,-0.964195603789144,-0.640323303874756,-1.02184215830516,-1.01028037984112,-1.4801482379187,NaN,-0.888737624185407,0.888737624185946,-1.83583864853071,0.0957533611807005,-1.45337115997965,NaN,NaN,-1.05316992980843,0.614396610961759,-0.636481450425835,-1.40440559586145,-1.40440559586492,NaN,-0.437390593828896,0.829106246697038,NaN,-2.01594390074779,-2.09234732806873,0.637758594024176,0.808950186819421,0.808950186819146,0.814270558683393,-0.814270558683571,1.39350986900031
1121.0752,0.493387448604456,-0.843698463080481,-0.11543237372142,0.788380437909657,0.449647907456184,0.449647907454295,NaN,NaN,-0.911262801218253,0.407703073276065,0.587659828528223,0.407703073275149,-1.61565913741729,0.586386601780363,-1.12374734167203,-0.944727751257475,0.359652102098444,-0.526408767133101,-1.70145384611451,0.376508519363012,-1.70145384611511,-0.957342084182367,-0.632158076442091,-1.01269645810709,-1.01053521832195,-1.53023182130378,NaN,-0.891051672689783,0.891051672690331,-1.82985932568271,0.17156548125049,-1.50122307205396,NaN,NaN,-1.0888498359329,0.627461507731309,-0.626464940896754,-1.39672950049538,-1.39672950049881,NaN,-0.478115290064008,0.814006166800599,NaN,-2.0493505309504,-2.09647766214079,0.628783936364343,0.806523959075555,0.806523959075308,0.828566159347603,-0.828566159347771,1.37537018802394
1121.1776,0.487907115840344,-0.842684216280262,-0.119356750615115,0.782486013112624,0.439738256980676,0.439738256978805,NaN,NaN,-0.883440017418756,0.39977164107514,0.575544086012306,0.399771641074239,-1.59430931823259,0.593260660581876,-1.09561590068882,-0.949866304133031,0.339265998149377,-0.538487534769546,-1.67140455881913,0.381193500382178,-1.67140455881972,-0.94999654916717,-0.623766950878466,-1.00308185895963,-1.00995373320621,-1.57983000564892,NaN,-0.893371968240453,0.893371968241024,-1.82275214505966,0.246246560604049,-1.54822077674854,NaN,NaN,-1.12503834909764,0.639323375345838,-0.615194477606623,-1.38890235731165,-1.38890235731508,NaN,-0.519462752752488,0.798985796370196,NaN,-2.08205430768352,-2.10002123787104,0.619610940253919,0.803991194570691,0.803991194570465,0.842582051699527,-0.842582051699685,1.3566504794894
1121.28,0.482753105937421,-0.842161981650414,-0.123316353078052,0.776760578311611,0.4292115711229,0.429211571121038,NaN,NaN,-0.855845936156773,0.392029187456255,0.562464526614765,0.392029187455368,-1.57311225137968,0.600767297713606,-1.06706648743739,-0.954266449013037,0.3196786050235,-0.549709464065292,-1.6409085150725,0.38659242151727,-1.64090851507308,-0.942172504194948,-0.615196689241189,-0.993032360184313,-1.00849587351214,-1.62887857565407,NaN,-0.895678252191105,0.895678252191706,-1.81454125795744,0.31969422580486,-1.59432248045278,NaN,NaN,-1.16164618455987,0.650015265364146,-0.602694814072183,-1.38093577535958,-1.38093577536298,NaN,-0.561424951585302,0.784002760803215,NaN,-2.11397010156727,-2.10298996819554,0.610284090957004,0.801398671269697,0.801398671269493,0.856313711389061,-0.856313711389203,1.33737585453774
1121.3824,0.4779178372909,-0.842096333256345,-0.127295413879905,0.771212277128162,0.418099269951868,0.418099269950024,NaN,NaN,-0.828524141681851,0.38447405822812,0.548444157184477,0.384474058227257,-1.55209897138568,0.608895780123933,-1.03814066720115,-0.957925459012604,0.300905440765895,-0.560066206669091,-1.61002315915151,0.392620573587378,-1.61002315915207,-0.933882995112738,-0.606492854934816,-0.982581008632567,-1.00612350303373,-1.67731422743427,NaN,-0.897948336032796,0.897948336033416,-1.80525403088111,0.391810699474043,-1.63948765045163,NaN,NaN,-1.19858391735247,0.65956953792258,-0.588996367741451,-1.37283677733685,-1.37283677734024,NaN,-0.603991319371549,0.769013128070747,NaN,-2.14501288694784,-2.10539781090105,0.60084997436042,0.798791441446237,0.798791441446035,0.869755564535308,-0.869755564535434,1.31757056895061
1121.4848,0.473391253356749,-0.842451179543001,-0.131279808729402,0.765848706979016,0.406434660959582,0.406434660957762,NaN,NaN,-0.801516006894124,0.377103890601609,0.533507841385402,0.377103890600765,-1.53129667599797,0.617630172443148,-1.00888079710264,-0.960842989349421,0.282959115329806,-0.569552315102374,-1.5788056071322,0.399192593886334,-1.57880560713273,-0.92514068371588,-0.597699794204296,-0.971759942979261,-1.0028005751305,-1.72507476146475,NaN,-0.90015806440907,0.900158064409719,-1.79492098135571,0.462502929584469,-1.68367714446588,NaN,NaN,-1.23576219643654,0.668017779183228,-0.574135222198933,-1.36460783328536,-1.3646078332888,NaN,-0.647148639617088,0.753971583723722,NaN,-2.17509811553086,-2.10726088112121,0.591357224194154,0.796212543251704,0.796212543251517,0.882900926265249,-0.882900926265365,1.29725799321095
1121.5872,0.469160866416616,-0.843189955155501,-0.135257139393648,0.760676778275551,0.394252789243478,0.394252789241696,NaN,NaN,-0.77486065562173,0.36991562373597,0.517682300255681,0.369915623735149,-1.51072870753032,0.62694940459523,-0.97932994556774,-0.963021109868999,0.265849315399237,-0.578165272250089,-1.54731252322052,0.406222905662909,-1.54731252322101,-0.915957929726886,-0.588860616036649,-0.960600441774671,-0.998493290669168,-1.77209926382808,NaN,-0.902281285065764,0.902281285066444,-1.78357569027169,0.531682692412509,-1.72685332001779,NaN,NaN,-1.27309194238862,0.675390729252965,-0.558153100360921,-1.35624692271736,-1.35624692272082,NaN,-0.690880947297686,0.738831610334148,NaN,-2.20414205986594,-2.10859753727056,0.581856436544104,0.793702764067973,0.7937027640678,0.895741935643884,-0.895741935643984,1.27646061363694
1121.6896,0.465211814266015,-0.844275813781661,-0.139216806709929,0.755702581509028,0.381590281824995,0.381590281823248,NaN,NaN,-0.748594935639704,0.362905508576069,0.500996105999353,0.362905508575276,-1.49041457535798,0.636827360648005,-0.949531834684548,-0.964464343085606,0.249582795670714,-0.585905522126776,-1.51560003026617,0.413626145300296,-1.51560003026661,-0.906346876724036,-0.580017174435913,-0.949132975552216,-0.993170248264188,-1.81832827580818,NaN,-0.90428982512311,0.90428982512383,-1.77125470217186,0.599266678322892,-1.76898013494342,NaN,NaN,-1.31048453279221,0.681718222994402,-0.541097305973795,-1.34774764629643,-1.34774764629986,NaN,-0.735169441474525,0.723545679295198,NaN,-2.23206213025095,-2.1094284394829,0.572400062393282,0.791300436870789,0.791300436870644,0.908269483209562,-0.908269483209642,1.25520005872428
1121.792,0.461526928692237,-0.845671820653365,-0.143150073583191,0.750931262086106,0.368485186364408,0.368485186362695,NaN,NaN,-0.72275340017012,0.356069114183625,0.483479670714448,0.356069114182855,-1.47037002316237,0.647232988696631,-0.919530809334907,-0.965179704282507,0.234163378121911,-0.592776498818967,-1.4837236522049,0.4213175688737,-1.4837236522053,-0.896319533176287,-0.571210054781879,-0.937387257570048,-0.986802591300939,-1.86370394891173,NaN,-0.906153480223198,0.906153480223959,-1.75799742734161,0.665176561389213,-1.81002323216458,NaN,NaN,-1.34785198313421,0.687029143150769,-0.523020636235933,-1.3390993852847,-1.33909938528816,NaN,-0.779992408447139,0.708065458912108,NaN,-2.2587771787151,-2.10977657629043,0.563042282897596,0.789041252221888,0.789041252221759,0.920473129741411,-0.92047312974147,1.23349714681993
1121.8944,0.458086816253461,-0.847341143752013,-0.147050116949117,0.746366902898677,0.354976804167839,0.354976804166154,NaN,NaN,-0.697368292013349,0.349401330195825,0.465165229330548,0.34940133019508,-1.45060714153828,0.658130439691235,-0.889371826540743,-0.965176733758684,0.219591960733616,-0.598784645919427,-1.45173827820761,0.429213424509391,-1.45173827820798,-0.885887840994168,-0.562478561440273,-0.925392286292719,-0.979364152264869,-1.90817018427128,NaN,-0.907840028314436,0.907840028315242,-1.74384605137084,0.72933904821266,-1.8499499925969,NaN,NaN,-1.38510712997427,0.691351382425308,-0.503981268977038,-1.33028748816501,-1.33028748816848,NaN,-0.825325157365719,0.692342035031137,NaN,-2.28420780281021,-2.10966725508943,0.553838860340391,0.786958080299264,0.786958080299145,0.932341025669766,-0.932341025669809,1.21137195592811
1121.9968,0.454869953285871,-0.849247243301965,-0.150912066841765,0.742012417048693,0.341105516962906,0.34110551696125,NaN,NaN,-0.672469527222532,0.342896372025593,0.44608681055459,0.342896372024875,-1.43113451851593,0.669479243696888,-0.859100449681042,-0.964467511985928,0.205866535796082,-0.603939419801879,-1.41969813980025,0.437231284530886,-1.41969813980058,-0.875063731491928,-0.55386070406256,-0.913176378203711,-0.97083159136983,-1.95167275680298,NaN,-0.909315276478966,0.909315276479815,-1.72884544560253,0.791685909097974,-1.88872954981136,NaN,NaN,-1.42216381501361,0.694711812711829,-0.484042624114374,-1.32129347122634,-1.32129347122981,NaN,-0.871139975644637,0.676326135469848,NaN,-2.3082766557852,-2.10912805730932,0.544846956168782,0.78508080286073,0.785080802860623,0.94385984475635,-0.943859844756372,1.18884391515714
1122.0992,0.451852795021221,-0.851354057275926,-0.154733031245384,0.737869455030813,0.326912607645182,0.326912607643566,NaN,NaN,-0.648084678131412,0.336547798032314,0.426280188550587,0.336547798031616,-1.41195741262155,0.681234526698715,-0.828762828987718,-0.963066652455762,0.192982217915815,-0.60825327296017,-1.38765679385623,0.445290336175491,-1.38765679385649,-0.86385917434307,-0.545393184621927,-0.900767195999729,-0.961184522409392,-1.99415942279242,NaN,-0.910543138288007,0.910543138288906,-1.71304306639382,0.852154006017477,-1.92633277475392,NaN,NaN,-1.45893706265566,0.697136263835681,-0.463273198160843,-1.31209523538459,-1.31209523538805,NaN,-0.917406110972952,0.659968351894035,NaN,-2.3309087646028,-2.10818876339506,0.536124919227457,0.783436153364481,0.783436153364403,0.955014737773286,-0.95501473777329,1.16593190746838
1122.2016,0.449009896168171,-0.853626177837849,-0.158512105769542,0.733938329212665,0.312440077343822,0.312440077342246,NaN,NaN,-0.62423895552266,0.330348543277068,0.405782813420942,0.330348543276383,-1.39307793016779,0.693347264036665,-0.798405653106946,-0.960991271578149,0.180931282820359,-0.611741616503151,-1.35566710240942,0.453311630282917,-1.35566710240963,-0.852286226480892,-0.537111389117515,-0.888191779177415,-0.950405616859611,-2.03558001045926,NaN,-0.911485728686522,0.911485728687457,-1.69648883249037,0.910685331440156,-1.96273224526981,NaN,NaN,-1.49534324771344,0.698649515516176,-0.441746372676574,-1.30266730464105,-1.30266730464449,NaN,-0.964089778126783,0.643219360440172,NaN,-2.3520318538587,-2.10688125118196,0.527732055801815,0.782047565176678,0.782047565176602,0.965789301009518,-0.965789301009511,1.1426543656418
1122.304,0.446314040600325,-0.856029014119542,-0.162250367238912,0.730217955472676,0.297730462740939,0.297730462739406,NaN,NaN,-0.600955190392397,0.324290967967034,0.3846337247498,0.324290967966363,-1.37449519346634,0.705764559637756,-0.76807606792219,-0.958260941529115,0.169703217782591,-0.614422765678477,-1.32378120368784,0.461218293950667,-1.32378120368799,-0.840357086652273,-0.529049385848384,-0.875476582077851,-0.938480679665766,-2.07588649869457,NaN,-0.912103463535265,0.912103463536241,-1.67923497275201,0.967227061686104,-1.99790221543978,NaN,NaN,-1.53130025662877,0.699275303836492,-0.419540196377463,-1.29298108732386,-1.29298108732731,NaN,-1.01115418174449,0.626030147646343,NaN,-2.37157667067828,-2.10523937003365,0.519728388694746,0.78093503335563,0.780935033355566,0.976165550518525,-0.976165550518503,1.1190293522389
1122.4064,0.443736379036445,-0.858528940002244,-0.165950851296629,0.726705810640031,0.282826657522017,0.282826657520528,NaN,NaN,-0.578253818355531,0.318366914536119,0.362873455275361,0.318366914535465,-1.35620549877106,0.718429935970813,-0.73782157510974,-0.954897639101423,0.159284781800877,-0.616317878517634,-1.292050479623,0.468935725876388,-1.29205047962305,-0.828084158390618,-0.521239930767902,-0.862647521629334,-0.925398695530839,-2.11503309230503,NaN,-0.912355159259762,0.912355159260787,-1.66133584165122,1.02173162252481,-2.03181859942985,NaN,NaN,-1.56672764607976,0.699036342271343,-0.396737135579228,-1.28300516020189,-1.28300516020533,NaN,-1.05855954771759,0.608352246493831,NaN,-2.38947730185821,-2.10329879550891,0.512174405817311,0.780114995486127,0.780114995486087,0.986123900741651,-0.986123900741615,1.09507463219603
1122.5088,0.441246573922419,-0.861093427416195,-0.169618514997831,0.72339790515892,0.267771740843762,0.267771740842314,NaN,NaN,-0.556152869789137,0.312567767595498,0.340543930559542,0.312567767594853,-1.33820247317425,0.731283624346636,-0.707689929307143,-0.950925702599158,0.149660071452632,-0.61745089788611,-1.26052553001216,0.476391794605614,-1.26052553001211,-0.815480122093255,-0.513714480367735,-0.849730035511592,-0.911151849527058,-2.15297629764696,NaN,-0.912198131495716,0.912198131496783,-1.64284770676559,1.07415676773483,-2.06445898122485,NaN,NaN,-1.60154680028009,0.69795435952934,-0.373423785228338,-1.27270557679535,-1.27270557679877,NaN,-1.10626316220598,0.590137981761983,NaN,-2.40567147390669,-2.1010968694105,0.50513079786811,0.779600229657988,0.779600229657961,0.995643160468216,-0.995643160468163,1.07080774982744
1122.6112,0.438812950887114,-0.863691166361249,-0.173260185665005,0.720288771212941,0.252608813019105,0.252608813017705,NaN,NaN,-0.534667964688087,0.30688451546165,0.317688366295779,0.306884515461019,-1.32047724084413,0.744262859787654,-0.67772904070782,-0.946371794831002,0.140810590774468,-0.617848496228586,-1.22925615505845,0.483517040147959,-1.22925615505831,-0.802558016671102,-0.506503211166015,-0.83674915059335,-0.895735528691338,-2.18967499579221,NaN,-0.911588291668112,0.911588291669211,-1.62382851627183,1.12446567166862,-2.095802648766,NaN,NaN,-1.63568108710164,0.696050156388713,-0.349690537895739,-1.26204619626887,-1.26204619627229,NaN,-1.15421942348968,0.571340718773338,NaN,-2.42010083297757,-2.09867242536242,0.498658185335322,0.779399764427693,0.77939976442768,1.00470056624468,-1.00470056624462,1.04624610962011
1122.7136,0.43640265644302,-0.866292174418635,-0.176884498004457,0.717371466580509,0.237380834678165,0.237380834676805,NaN,NaN,-0.513812307949258,0.301307816797339,0.294351160122171,0.301307816796716,-1.30301860199596,0.757302196424362,-0.647986872065555,-0.941264855387173,0.13271532833302,-0.617540009694191,-1.19829133630099,0.490244859393013,-1.19829133630074,-0.78933132981216,-0.499635042222698,-0.823729559095795,-0.879148311283988,-2.22509050907321,NaN,-0.910480248520354,0.910480248521494,-1.60433765350562,1.17262702962572,-2.12583063494404,NaN,NaN,-1.6690560121357,0.693343678319153,-0.325631217841541,-1.25098901702435,-1.25098901702773,NaN,-1.2023799154583,0.551915106738021,NaN,-2.4327112069436,-2.09606559606383,0.492816833341101,0.779518804497083,0.779518804497083,1.01327186917233,-1.01327186917227,1.02140705201828
1122.816,0.433981822173331,-0.868867898369117,-0.180501820912353,0.714637594398111,0.222130464715812,0.222130464714494,NaN,NaN,-0.493596682308231,0.295828078450431,0.270577771660724,0.29582807844982,-1.28581321859373,0.770333857139579,-0.618511311491673,-0.935636025235429,0.125350845747277,-0.616557347767867,-1.16767920283931,0.496511659475146,-1.16767920283896,-0.775814094620885,-0.493137655934279,-0.810695698411231,-0.861391947298029,-2.25918666122837,NaN,-0.908827431057424,0.908827431058607,-1.5844356798365,1.21861515572958,-2.15452574648074,NaN,NaN,-1.70159936757963,0.689854097229144,-0.301342691720973,-1.23949449357339,-1.23949449357673,NaN,-1.25069350981532,0.531817309317446,NaN,-2.44345284798767,-2.09331759871696,0.48766634889948,0.779958688905229,0.779958688905238,1.02133148177955,-1.02133148177949,0.996307915250806
1122.9184,0.431515736651007,-0.871391307629241,-0.184124172755159,0.712077339219685,0.206899895474072,0.206899895472797,NaN,NaN,-0.474029440133902,0.29043555063212,0.246414584216799,0.290435550631519,-1.26884579747261,0.783288122744854,-0.589350006700883,-0.929518538219263,0.11869137976136,-0.61493487367297,-1.13746697594729,0.502256980296515,-1.13746697594683,-0.762020992931267,-0.487037515051943,-0.797671833718585,-0.84247133055771,-2.29192983457992,NaN,-0.90658224606147,0.906582246062688,-1.56418405972798,1.26241007280226,-2.18187257649502,NaN,NaN,-1.73324137011692,0.685599899305415,-0.276924461163708,-1.22752182789396,-1.22752182789728,NaN,-1.29910649885983,0.511005220082663,NaN,-2.45228064871933,-2.09047049796996,0.483265352829696,0.780716899737843,0.780716899737857,1.02885267911959,-1.02885267911953,0.970966073829286
1123.0208,0.428969026054189,-0.873836976696487,-0.187765122572603,0.709679520203696,0.191730686972517,0.191730686971289,NaN,NaN,-0.455116497644808,0.285120442469064,0.221908744993165,0.285120442468477,-1.25209926671743,0.796093762598866,-0.560550154701166,-0.922947582845965,0.112708958986956,-0.61270925750325,-1.10770089288321,0.507423593702196,-1.10770089288266,-0.747967467387176,-0.481359879822147,-0.784682146921265,-0.822394461649965,-2.32328902491395,NaN,-0.903696271139904,0.903696271141154,-1.54364486120192,1.30399759627184,-2.2078575101449,NaN,NaN,-1.76391478136506,0.680598981890475,-0.25247823274987,-1.2150292460832,-1.21502924608648,NaN,-1.34756275713634,0.48943866521927,NaN,-2.4591543277675,-2.08756694884103,0.47967112510019,0.78178712123785,0.781787121237866,1.03580783707848,-1.03580783707842,0.945398943720173
1123.1232,0.426305842137924,-0.876181152879114,-0.191439675997045,0.707431662266858,0.176663603535918,0.176663603534743,NaN,NaN,-0.436861334329981,0.279873056106389,0.197107986505381,0.279873056105818,-1.23555494528618,0.808678507242961,-0.532158246394524,-0.915960138558102,0.107373536458255,-0.609919304607848,-1.07842611211403,0.511957580946946,-1.07842611211338,-0.733669840832641,-0.476128833540898,-0.771750835185956,-0.801172399863983,-2.35323589027496,NaN,-0.900120476533366,0.900120476534662,-1.52288043171817,1.34336941748058,-2.23246873555842,NaN,NaN,-1.79355500884004,0.674868765222178,-0.228107459084074,-1.20197427695631,-1.20197427695957,NaN,-1.39600392817109,0.467079598661404,NaN,-2.46403858797805,-2.08464992530425,0.476939233784938,0.78315932667803,0.783159326678045,1.04216869278566,-1.04216869278559,0.919623945261721
1123.2256,0.423490054710982,-0.878401806611663,-0.195164146578233,0.705320084583776,0.161738456091621,0.161738456090502,NaN,NaN,-0.419264998315452,0.274683933476907,0.172060437163318,0.274683933476354,-1.21919270634706,0.820969558526298,-0.504219770680595,-0.908594789595458,0.102653137571188,-0.606605761625216,-1.04968660029093,0.515808386872645,-1.04968660029019,-0.719145437915566,-0.471367321819047,-0.758902218203569,-0.778819201159652,-2.38174479072485,NaN,-0.895805469711455,0.895805469712786,-1.50195305487687,1.38052318660652,-2.25569626758752,NaN,NaN,-1.82210019289122,0.668426323106068,-0.203916850508835,-1.1883140390849,-1.18831403908813,NaN,-1.44436963028425,0.443892295154897,NaN,-2.46690325304905,-2.08176244283887,0.475123159209268,0.784819868174906,0.784819868174921,1.0479066256589,-1.04790662565882,0.89365841941259
1123.328,0.420485446667092,-0.880478664774562,-0.198956014395851,0.703330003347364,0.146993952101168,0.146993952100098,NaN,NaN,-0.402326118580313,0.269544005787687,0.146814430788864,0.269544005787156,-1.20299113942231,0.832894125400494,-0.476778894021519,-0.900891522551535,0.0985140199983927,-0.6028111059314,-1.02152500518448,0.518928855276203,-1.02152500518365,-0.704412704190366,-0.467097200955088,-0.746160848408868,-0.755351840127248,-2.40879282076672,NaN,-0.890701760122295,0.89070176012366,-1.48092459526315,1.41546258496704,-2.27753198492834,NaN,NaN,-1.8494912900135,0.661288530887834,-0.180011861164877,-1.17400553173754,-1.17400553174074,NaN,-1.49259767484133,0.419843543178253,NaN,-2.46772338709202,-2.07894728240721,0.474273917151087,0.78675156268082,0.786751562680832,1.05299296270301,-1.05299296270294,0.867519504911955
1123.4304,0.417255910504166,-0.882393229520827,-0.202833774405867,0.701445644445789,0.132467553769148,0.132467553768131,NaN,NaN,-0.386040928313628,0.264444732329869,0.121418322017656,0.264444732329361,-1.18692772382504,0.844379970135587,-0.449878142118476,-0.892891517285322,0.0949208395659933,-0.598579327883572,-0.993982524806415,0.521275257452323,-0.993982524805497,-0.689491319180158,-0.463339282232833,-0.733551614765366,-0.730790114670531,-2.43435983765966,NaN,-0.884760044418754,0.884760044420148,-1.45985614269772,1.44819737012212,-2.29796967453099,NaN,NaN,-1.87567216172085,0.653472224555082,-0.156498153115922,-1.15900592294849,-1.15900592295171,NaN,-1.54062428974909,0.394902837868958,NaN,-2.46647940215835,-2.07624671806014,0.474439683226951,0.788933781803474,0.788933781803477,1.05739929924766,-1.05739929924759,0.841223995805753
1123.5328,0.413765644511711,-0.884128784601424,-0.206816777274377,0.699650362412954,0.118195344754179,0.118195344753195,NaN,NaN,-0.370403307221105,0.259378216365802,0.0959203111244357,0.259378216365313,-1.1709790301768,0.855355955188416,-0.423558109783987,-0.884636938848461,0.0918368154737477,-0.5939557140595,-0.96709878283304,0.522807325403536,-0.967098782832043,-0.674402300386688,-0.460113358653583,-0.721099830938312,-0.705156531508863,-2.45842848548846,NaN,-0.877931517039899,0.87793151704133,-1.4388076715045,1.47874337704507,-2.31700507155077,NaN,NaN,-1.90058967133834,0.644994366030105,-0.133481043739688,-1.14327283296337,-1.14327283296657,NaN,-1.58838433747349,0.369042579227717,NaN,-2.46315716076468,-2.07370224528092,0.475665426334328,0.791342552724016,0.791342552724015,1.061097815098,-1.06109781509795,0.814788196854167
1123.6352,0.409979347168583,-0.885670390729517,-0.210925064870548,0.697926762584985,0.104211907136563,0.104211907135624,NaN,NaN,-0.355404849389419,0.254337292567145,0.0703682829608149,0.254337292566668,-1.15512096517547,0.865752587810418,-0.397857217207289,-0.876170733438354,0.0892238917249152,-0.588986634935851,-0.940911717691825,0.523488295254297,-0.940911717690758,-0.659168095554024,-0.457438207356603,-0.708831302418591,-0.678476173346825,-2.48098421052766,NaN,-0.870168209550676,0.870168209552136,-1.41783772730577,1.50712246364091,-2.33463588239865,NaN,NaN,-1.92419378332283,0.635872212756643,-0.111064945306324,-1.12676461826635,-1.12676461826953,NaN,-1.63581151657909,0.342238283325985,NaN,-2.45774807857658,-2.07135430783216,0.47799256032346,0.793950670067679,0.793950670067663,1.06406157045111,-1.06406157045107,0.788227782442666
1123.7376,0.405862411664481,-0.887004871390156,-0.215179199704154,0.696256822774862,0.0905502143118055,0.0905502143109208,NaN,NaN,-0.341034955989293,0.249315589551782,0.0448096676224263,0.249315589551331,-1.13932906068919,0.875502554895434,-0.372811520527696,-0.867536427952761,0.0870428985015575,-0.583719335161395,-0.915457489379936,0.52328496178244,-0.915457489378801,-0.643812659365889,-0.455331568490358,-0.696772370267661,-0.650776554644157,-2.50201526184075,NaN,-0.861423347997929,0.861423347999404,-1.39700314380918,1.53336240156044,-2.35086178572723,NaN,NaN,-1.94643765763907,0.626123489383257,-0.0893528067295939,-1.1094406630905,-1.10944066309366,NaN,-1.68283854524742,0.31446880578953,NaN,-2.45024922755224,-2.0692420259052,0.481458615601199,0.796727812063201,0.796727812063167,1.06626477585401,-1.06626477585398,0.761557656974897
1123.84,0.401381124385487,-0.888120788813849,-0.219600084939586,0.694622010895263,0.077241547828225,0.0772415478273919,NaN,NaN,-0.327280944396804,0.24430757692035,0.0192913285168399,0.244307576919924,-1.1235787873009,0.884541230137283,-0.34845457262569,-0.858777929046571,0.0852537213880187,-0.578201720237359,-0.890770400923663,0.522167741328099,-0.890770400922476,-0.628361510074109,-0.453810104574765,-0.684949930373962,-0.622087475046398,-2.52151267317859,NaN,-0.851651706539054,0.851651706540546,-1.37635878516301,1.5574967275966,-2.36568441384979,NaN,NaN,-1.96727773625825,0.615766557250188,-0.06844556504991,-1.09126167839173,-1.09126167839486,NaN,-1.72939733618759,0.285716566763322,NaN,-2.44066343716778,-2.06740293121499,0.486096924610709,0.799640654720306,0.799640654720231,1.06768303571736,-1.06768303571736,0.734791815020826
1123.9424,0.396502867978943,-0.889008408473336,-0.224208773452526,0.693003397332172,0.0643154426308328,0.0643154426300437,NaN,NaN,-0.314128165462379,0.239308604769149,-0.00614052338025409,0.239308604768756,-1.10784586629611,0.892807136503685,-0.324817322904268,-0.849939315881651,0.0838154838395584,-0.572482133230117,-0.866882825931656,0.520110737281136,-0.866882825930424,-0.612841764225868,-0.452889343173119,-0.673391428380991,-0.592440875288082,-2.53947022649005,NaN,-0.840809943827321,0.840809943828829,-1.3559573099463,1.5795645730195,-2.37910731829695,NaN,NaN,-1.98667382335255,0.604820576610342,-0.0484416108170971,-1.07219000077458,-1.07219000077766,NaN,-1.77541917470158,0.255967764692123,NaN,-2.42899939256522,-2.06587271403766,0.491936314462675,0.802652984753835,0.802652984753721,1.06829356813733,-1.06829356813735,0.707943203754869
1124.0448,0.391196325203709,-0.889659652020957,-0.229026269032232,0.691381764460861,0.0517996574135705,0.0517996574128394,NaN,NaN,-0.301560129680225,0.234314937167459,-0.0314403968237403,0.234314937167091,-1.09210656872767,0.900242361905252,-0.301928046334836,-0.841064624289014,0.0826867429072885,-0.566609119882306,-0.843825136582114,0.517091801709862,-0.843825136580839,-0.597282151749618,-0.452583603329829,-0.662124832137898,-0.561870694209364,-2.55588440012198,NaN,-0.828856926355024,0.828856926356543,-1.33584895493541,1.59961047475261,-2.39113592129241,NaN,NaN,-2.00458916017845,0.593305658079679,-0.029436267204965,-1.05218988463108,-1.0521898846341,NaN,-1.82083490814179,0.225212570143403,NaN,-2.41527173091046,-2.06468498624225,0.49900080573941,0.805725815621532,0.805725815621378,1.06807540551671,-1.06807540551675,0.681023594383265
1124.1472,0.385431678319359,-0.890068041325438,-0.234073325747486,0.689737717919272,0.0397201601619199,0.0397201601612301,NaN,NaN,-0.289558651496734,0.229323775032236,-0.0565635787563898,0.229323775031888,-1.07633800777962,0.906792940273815,-0.279812297052176,-0.832197625024022,0.0818256948453683,-0.56063118542904,-0.82162563254963,0.513092587031965,-0.821625632548324,-0.581713015766653,-0.452905905553181,-0.651178584674983,-0.530412722363292,-2.57075430414781,NaN,-0.815754053607367,0.815754053608891,-1.31608133758828,1.61768415705199,-2.40177745323689,NaN,NaN,-2.02099049276852,0.581243002377929,-0.0115212785479174,-1.03122778627502,-1.03122778627799,NaN,-1.86557515105088,0.193445295632945,NaN,-2.39950113598418,-2.0638710626994,0.507309325571451,0.808817509753476,0.808817509753288,1.0670095771321,-1.06700957713217,0.654043469011279
1124.2496,0.379180799868337,-0.890228636958536,-0.239370251010619,0.688051803027669,0.0281011180565194,0.0281011180558729,NaN,NaN,-0.278104018588297,0.224333262564612,-0.0814661904077135,0.224333262564284,-1.06051843345387,0.912409210742583,-0.258492884220916,-0.823381600152922,0.0811903865275429,-0.554596547683118,-0.800310472466971,0.508098583492977,-0.800310472465655,-0.566166299486208,-0.453867865188276,-0.64058153930662,-0.49810444977712,-2.58408160539402,NaN,-0.801465599485927,0.801465599487454,-1.29669927689663,1.63384026954895,-2.41104087595092,NaN,NaN,-2.03584813164773,0.568655027433836,0.00521569600888669,-1.00927264062981,-1.00927264063274,NaN,-1.90957050679105,0.160664540699355,NaN,-2.38171442563273,-2.06345976211237,0.516875448099683,0.811883911167321,0.811883911167095,1.06507927165605,-1.06507927165614,0.627011925374859
1124.352,0.372417434137381,-0.890137972933327,-0.244936714055351,0.686304625765101,0.0169648868614412,0.0169648868608273,NaN,NaN,-0.267175181468152,0.21934247597051,-0.106105242582231,0.219342475970197,-1.0446275264721,0.917046155420667,-0.237989866540335,-0.814659119200977,0.080738929727073,-0.54855288876898,-0.77990360522181,0.502099144564304,-0.779903605220507,-0.550675515630032,-0.45547956750514,-0.630362872738153,-0.464984911147057,-2.59587044930452,NaN,-0.785959073672289,0.785959073673827,-1.27774463123832,1.64813807537249,-2.41893679482991,NaN,NaN,-2.04913600882408,0.555565479046077,0.0206915843658202,-0.986296126398134,-0.986296126401005,NaN,-1.95275180447456,0.126873311486108,NaN,-2.36194462378819,-2.0634772316162,0.527707167520282,0.814878493783443,0.814878493783172,1.06226998234445,-1.06226998234456,0.59993660014968
1124.4544,0.365117373197792,-0.889793988229821,-0.250791556920208,0.68447697430397,0.0063320026037178,0.00633200260312803,NaN,NaN,-0.256749951412126,0.214351398882652,-0.130438686520167,0.21435139888236,-1.02864667783081,0.920663705292881,-0.218320560992651,-0.80607181293439,0.0804297170705584,-0.542547104476264,-0.76042669495342,0.495087510469801,-0.760426694952133,-0.535275688095926,-0.457749421685474,-0.6205519673637,-0.431094537228979,-2.60612738857834,NaN,-0.769205590525124,0.769205590526671,-1.25925614971198,1.66064109014765,-2.42547736719276,NaN,NaN,-2.06083174248794,0.541999520187873,0.0348283963438811,-0.962272910874529,-0.962272910877345,NaN,-1.99505034943336,0.0920791131117551,NaN,-2.34023101208133,-2.06394680317328,0.539806694419806,0.81775252684182,0.8177525268415,1.05856964443986,-1.05856964443997,0.572823610790458
1124.5568,0.3572586328541,-0.889195956009646,-0.256952604068343,0.682549937139788,-0.00377881974376658,-0.00377881974434361,NaN,NaN,-0.246805199822983,0.209360889815461,-0.154425452330049,0.209360889815172,-1.01255924480936,0.92322700609769,-0.199499563803213,-0.79766014006886,0.0802216395689632,-0.536625047910617,-0.741899034787763,0.487060841677382,-0.741899034786504,-0.520003260035525,-0.460683993736625,-0.611178258611698,-0.396475022133602,-2.6148613226935,NaN,-0.751180226725878,0.751180226727432,-1.24126933387706,1.6714166729175,-2.4306762111778,NaN,NaN,-2.07091671976469,0.52798379673314,0.0475537074068597,-0.937180870026944,-0.937180870029703,NaN,-2.03639818397715,0.0562940162410698,NaN,-2.31661916031969,-2.06488888461641,0.553170263650626,0.820455254647568,0.820455254647204,1.05396877098834,-1.05396877098846,0.545677508490229
1124.6592,0.348821630381199,-0.888344411854168,-0.263436469912105,0.680505016702613,-0.0133506798427296,-0.0133506798433028,NaN,NaN,-0.237317063012494,0.204372643563842,-0.178025467948885,0.204372643563554,-0.996350786227307,0.924706646939537,-0.181538783975492,-0.789463142167161,0.0800743065946026,-0.530831263700072,-0.724337448401325,0.478020264339256,-0.724337448400102,-0.504895973351474,-0.464287822465932,-0.602271053064154,-0.361169209910951,-2.62208344305595,NaN,-0.731862358497559,0.731862358499118,-1.22381630949529,1.68053556797445,-2.43454831042408,NaN,NaN,-2.07937620262273,0.513546479679779,0.0588011252699943,-0.911001289579697,-0.911001289582458,NaN,-2.07672835289495,0.01953470443371,NaN,-2.29116093540677,-2.0663208775239,0.567787956104172,0.822934086862139,0.822934086861735,1.04846057941473,-1.04846057941487,0.518501227382981
1124.7616,0.339789361073665,-0.887241081350655,-0.270258366918937,0.67832423981829,-0.022368480671343,-0.0223684806719095,NaN,NaN,-0.228261160961327,0.199389145128546,-0.201199658938467,0.199389145128258,-0.980009284482557,0.925078858612167,-0.164447490785634,-0.781518184773889,0.0799482701206247,-0.525208710613234,-0.707756183001995,0.467970915970886,-0.707756183000814,-0.489992729392109,-0.468563222527011,-0.59385932641936,-0.325220994259473,-2.62780717520876,NaN,-0.711235980693713,0.711235980695268,-1.20692571043776,1.68807140056907,-2.43710990621364,NaN,NaN,-2.08619945497587,0.498717281961521,0.0685107325494764,-0.883719054957763,-0.883719054960541,NaN,-2.11597516815845,-0.0181774916455618,NaN,-2.26391448805196,-2.06825710979753,0.583643551407188,0.825134795574411,0.825134795573971,1.0420410918343,-1.04204109183444,0.49129602316029
1124.864,0.330147567720127,-0.885888805994237,-0.27743191854999,0.675990267164411,-0.0308189163610928,-0.030818916361656,NaN,NaN,-0.219612834430145,0.19441361336097,-0.223909937061953,0.19441361336068,-0.963525356872174,0.924325683274777,-0.148232376309824,-0.773860688933899,0.0798052536133361,-0.519798475390159,-0.692166800841178,0.456921976112589,-0.692166800840042,-0.475333437293137,-0.473510075570648,-0.585971506440037,-0.288675220853268,-2.63204811370688,NaN,-0.68929001351255,0.689290013514101,-1.19062257869762,1.69410013706124,-2.43837837604733,NaN,NaN,-2.09137988557245,0.483527444361213,0.0766295016948988,-0.855322830782724,-0.855322830785487,NaN,-2.15407447151098,-0.0568165740318443,NaN,-2.23494421819971,-2.07070877399028,0.600714429170027,0.827001717565064,0.827001717564601,1.0347091994975,-1.03470919949765,0.464061412977362
1124.9664,0.319884896593243,-0.884291466384136,-0.284968981723784,0.673486503902319,-0.0386904646361087,-0.0386904646366699,NaN,NaN,-0.211347398386702,0.189449932057111,-0.246119189043778,0.189449932056817,-0.946892451855467,0.922435114234022,-0.132897629667513,-0.766523864906356,0.0796083818450607,-0.514639487761656,-0.677578077446455,0.444886673553903,-0.677578077445373,-0.460958851982927,-0.479125611213833,-0.57863524321903,-0.251577584341596,-2.63482395043966,NaN,-0.666018604319828,0.666018604321356,-1.17492828412072,1.69869952074243,-2.43837210626556,NaN,NaN,-2.09491520120122,0.468009686413704,0.0831116846242069,-0.825805225170702,-0.82580522517346,NaN,-2.19096389855028,-0.0963518772567517,NaN,-2.2043207189325,-2.07368386478706,0.618971525267553,0.828477965083838,0.828477965083353,1.02646669772796,-1.02646669772813,0.43679513588172
1125.0688,0.308993034498018,-0.882453902596592,-0.292879483268715,0.670797212596569,-0.0459733896190232,-0.045973389619573,NaN,NaN,-0.203440405499546,0.184502568924896,-0.267791276330887,0.184502568924593,-0.930107021976241,0.919401207642157,-0.118445012844656,-0.75953846453403,0.0793224043843808,-0.509768251400655,-0.663995913369078,0.431882267177043,-0.663995913368041,-0.446910402267498,-0.485404186545013,-0.571877171600855,-0.213974516964525,-2.63615439875948,NaN,-0.641421430794566,0.641421430796076,-1.15986046496557,1.70194849092096,-2.43711036797044,NaN,NaN,-2.09680756296754,0.452198124319383,0.087919181173382,-0.7951629365854,-0.795162936588137,NaN,-2.22658314643203,-0.136748091593199,NaN,-2.17212069322862,-2.07718710827843,0.638379340988146,0.829505652458109,0.829505652457583,1.01731830405612,-1.0173183040563,0.409493143660472
1125.1712,0.297466823509864,-0.88038183150992,-0.301171273025067,0.667907625823949,-0.0526597554782634,-0.0526597554788106,NaN,NaN,-0.19586790815965,0.179576486607854,-0.288891051595171,0.179576486607557,-0.913168661930041,0.915224164306652,-0.104873927931383,-0.752932568226735,0.0789139053222138,-0.505218605273406,-0.651423264288678,0.417929998629803,-0.651423264287703,-0.433230008635164,-0.492337081283175,-0.565722674418632,-0.175913071899027,-2.63606111507881,NaN,-0.615503996134875,0.615503996136378,-1.1454329894319,1.70392659872456,-2.43461320245643,NaN,NaN,-2.09706373602889,0.436128160119524,0.0910218830831972,-0.76339688686886,-0.7633968868716,NaN,-2.26087423986625,-0.17796530900252,NaN,-2.13842683297304,-2.08121987666877,0.658896004409413,0.830026146554856,0.830026146554307,1.00727166614444,-1.00727166614462,0.382149621827893
1125.2736,0.285304353617581,-0.878081759728252,-0.309849992574502,0.664804051249763,-0.0587434418993382,-0.0587434418998875,NaN,NaN,-0.188606698422194,0.174677052805479,-0.30938438908494,0.174677052805178,-0.896080196343921,0.909910365161459,-0.0921814748946354,-0.746731416933283,0.0783514949882507,-0.501021524551353,-0.639860092650648,0.403055016664837,-0.639860092649735,-0.419959886438465,-0.499912327673464,-0.56019565338675,-0.137440811153689,-2.63456761916105,NaN,-0.588277883910207,0.588277883911686,-1.13165594013711,1.70471344760571,-2.43090131849316,NaN,NaN,-2.09569522479982,0.419836341972421,0.0923979814486849,-0.730512343246771,-0.730512343249515,NaN,-2.29378178718362,-0.219959093924559,NaN,-2.10332764863847,-2.08578008657638,0.680473385340577,0.829980345991159,0.82998034599059,0.996337359491771,-0.996337359491953,0.354757040370428
1125.376,0.272507036482337,-0.875560890793763,-0.318918956111078,0.66147396182071,-0.0642201485485912,-0.0642201485491445,NaN,NaN,-0.181634500108455,0.169809957058661,-0.329238221053491,0.169809957058357,-0.878847702129897,0.903472336439181,-0.080362506129106,-0.740957289097757,0.0776059831130341,-0.497204961305218,-0.629303340855264,0.387286273376369,-0.629303340854412,-0.407142325140917,-0.508114586983303,-0.555318307181459,-0.0986057079785674,-2.63169921505558,NaN,-0.559760933840648,0.559760933842105,-1.11853562385229,1.70438819057252,-2.42599600055816,NaN,NaN,-2.09271839069387,0.40336019316437,0.0920342258037357,-0.696519021535064,-0.696519021537828,NaN,-2.32525322491351,-0.262680587705374,NaN,-2.06691724206668,-2.09086208293197,0.703057257958929,0.829308989162377,0.829308989161784,0.98452887460569,-0.984528874605878,0.327306238932833
1125.4784,0.259079662113377,-0.872827026532671,-0.328379041860333,0.657906069614664,-0.0690873825410502,-0.0690873825416281,NaN,NaN,-0.174930096354973,0.164981139205554,-0.348420576940747,0.164981139205252,-0.861480458793499,0.89592863301742,-0.0694096814706592,-0.735629413483006,0.0766505329758378,-0.493793718659524,-0.619746921114334,0.370656389781514,-0.619746921113547,-0.39481943686362,-0.516925073665927,-0.551110912435914,-0.0594560639398624,-2.62748291502258,NaN,-0.529977320526963,0.529977320528388,-1.10607460683339,1.70302910127223,-2.41991902597288,NaN,NaN,-2.08815455257524,0.386738013810162,0.0899261304288985,-0.661431154358545,-0.661431154361336,NaN,-2.3552390563058,-0.306076654702081,NaN,-2.02929502078341,-2.09645650985953,0.726587496427225,0.827952987998014,0.827952987997397,0.97186259614327,-0.971862596143468,0.299786552034324
1125.5808,0.245030435599035,-0.86988846242728,-0.338228596358266,0.654090387651452,-0.0733444323571484,-0.073344432357756,NaN,NaN,-0.168473394939349,0.16019673016194,-0.366900630166095,0.160196730161633,-0.843990830513906,0.887303645513241,-0.0593135225224073,-0.730763909313102,0.0754607932297649,-0.490809353666556,-0.611181715056642,0.35320148723764,-0.611181715055906,-0.383032878434658,-0.526321522527979,-0.547591608220819,-0.0200404298971474,-2.62194736643499,NaN,-0.49895754506177,0.498957545063177,-1.09427177535743,1.700713218421,-2.41269259036639,NaN,NaN,-2.08203006693307,0.370008667446474,0.0860781284447581,-0.625267514371468,-0.625267514374241,NaN,-2.3836930884684,-0.35009006982259,NaN,-1.99056535383462,-2.10255016689379,0.750998291305473,0.825853782263978,0.825853782263346,0.958357777455443,-0.958357777455654,0.272185975439438
1125.6832,0.230370988534162,-0.8667538767022,-0.348463355851218,0.650018284467186,-0.0769923359870609,-0.0769923359876916,NaN,NaN,-0.162245445606034,0.155463001780113,-0.384648761188061,0.155463001779801,-0.826394088362827,0.877627340867662,-0.0500624660225697,-0.726373752585974,0.0740150039694727,-0.48827010949607,-0.603595580294729,0.334960981463822,-0.603595580294041,-0.371823559321192,-0.536278195396997,-0.544776191022841,0.0195924822866253,-2.61512277822584,NaN,-0.466738359213737,0.466738359215128,-1.08312242085265,1.69751605653207,-2.4043392428275,NaN,NaN,-2.07437637954234,0.353211364308797,0.0805036745305194,-0.588051395387937,-0.588051395390765,NaN,-2.41057266995911,-0.394659744538695,NaN,-1.95083716615831,-2.10912584896535,0.776218389534485,0.822953709039172,0.82295370903852,0.944036510667793,-0.944036510668016,0.244491373031293
1125.7856,0.215116361210043,-0.863432214241223,-0.359076388782762,0.645682533423268,-0.0800338514658319,-0.0800338514664875,NaN,NaN,-0.156228420221171,0.150786319458329,-0.401636644113286,0.150786319458012,-0.808708182177964,0.866934941385763,-0.0416429214993648,-0.722468771361707,0.0722940775911825,-0.486190878717741,-0.596973366824883,0.315977333250416,-0.596973366824244,-0.36123134485031,-0.546765926067802,-0.542677926299353,0.0593939049961772,-2.60704084306336,NaN,-0.433362634384085,0.433362634385452,-1.07261834814382,1.69351137385023,-2.39488183166377,NaN,NaN,-2.06523004170977,0.336385444454167,0.0732252972018432,-0.549810555959084,-0.549810555961941,NaN,-2.43583893149473,-0.439720995516451,NaN,-1.91022346902818,-2.1161621728765,0.802171376155625,0.819196387494285,0.819196387493626,0.928923687625285,-0.928923687625529,0.216688727713785
1125.888,0.19928495510201,-0.859932568116563,-0.370058061487127,0.641077356068025,-0.082473436380111,-0.0824734363807902,NaN,NaN,-0.150405559806015,0.146173090376682,-0.41783735948617,0.146173090376363,-0.790953474290046,0.85526654756428,-0.0340393408766347,-0.719055670486756,0.0702816573615881,-0.484583196802039,-0.591296946621838,0.296295752366837,-0.591296946621223,-0.351294756912899,-0.557752202422315,-0.541307377600064,0.0993151361544471,-2.59773465509113,NaN,-0.398879183166925,0.398879183168287,-1.0627480048986,1.68877098128417,-2.3843434592401,NaN,NaN,-2.05463269277988,0.319570157565417,0.0642746021794023,-0.510577123415931,-0.510577123418851,NaN,-2.45945703056929,-0.485205862055186,NaN,-1.86884083398451,-2.12363339923753,0.828776015356828,0.814527124170508,0.81452712416984,0.913046946843437,-0.913046946843697,0.188763438766651
1125.9904,0.182898459760725,-0.856264062542224,-0.381396026050193,0.636198457300965,-0.0843172394414795,-0.0843172394421739,NaN,NaN,-0.144761096514414,0.141629704643726,-0.433225528540666,0.141629704643409,-0.773152452302793,0.842666723483071,-0.0272343006076377,-0.716138080844789,0.0679641542947847,-0.483455262086172,-0.58654525626647,0.275963865048604,-0.586545256265876,-0.342050675251342,-0.569201284254849,-0.540672254704397,0.139307666289533,-2.58723862815881,NaN,-0.363342549263246,0.363342549264592,-1.05349662863219,1.68336456642998,-2.37274744164378,NaN,NaN,-2.04263101854696,0.302804437606275,0.0536922268673766,-0.470387461692259,-0.470387461695222,NaN,-2.48139639202702,-0.531043465052824,NaN,-1.82680883383136,-2.13150926741918,0.855946646454262,0.808893336436582,0.808893336435901,0.896436606728895,-0.896436606729177,0.160700654174201
1126.0928,0.16598176191486,-0.8524357425209,-0.393075227129686,0.631043049876967,-0.085573103265548,-0.0855731032662658,NaN,NaN,-0.139280168242442,0.137162473013333,-0.447777456786866,0.137162473013025,-0.755329442974918,0.829184078447105,-0.0212085883449321,-0.713716623080106,0.0653307607274892,-0.482811975687926,-0.582694351502305,0.255031367411216,-0.582694351501736,-0.333534050263892,-0.581074354573913,-0.540777287418045,0.179323294698247,-2.57558842090477,NaN,-0.326812789107536,0.326812789108855,-1.0448464057844,1.67735950676778,-2.36011726628194,NaN,NaN,-2.02927669551103,0.286126674731545,0.0415277439747634,-0.429282021469218,-0.429282021472228,NaN,-2.50163093048426,-0.577160385548053,NaN,-1.78424948323549,-2.13975486790779,0.883593606186749,0.80224497642486,0.80224497642416,0.879125590236329,-0.879125590236631,0.132485614017764
1126.1952,0.14856284398495,-0.848456476109068,-0.405077925439962,0.625609867225978,-0.086250574469387,-0.0862505744701276,NaN,NaN,-0.133948742926839,0.132777565803313,-0.461471272022234,0.132777565803011,-0.737510347551395,0.814870873298066,-0.015941289191811,-0.711788974477877,0.0623734410459214,-0.482654993098615,-0.579717475170632,0.233549683999779,-0.579717475170105,-0.32577764045257,-0.593329699078002,-0.541624131637318,0.219314220137009,-2.56282086997559,NaN,-0.289355262129187,0.289355262130475,-1.0367766404627,1.67082066250647,-2.34647653950254,NaN,NaN,-2.01462632345055,0.269574488994088,0.0278395135774713,-0.38730519357467,-0.387305193577708,NaN,-2.52013924499271,-0.623481043068434,NaN,-1.74128670075238,-2.14833057144146,0.911623648842069,0.794534933173396,0.794534933172684,0.861149345926693,-0.861149345927014,0.104103984351482
1126.2976,0.130672675508936,-0.844334873653146,-0.41738373770287,0.619899165341769,-0.0863609153516381,-0.0863609153523953,NaN,NaN,-0.128753557447926,0.128480953858497,-0.474287045409485,0.1284809538582,-0.719722408662117,0.799782659378093,-0.011409874658658,-0.7103499303404,0.0590869034160991,-0.482982779680254,-0.577585140435523,0.211571639265368,-0.57758514043505,-0.318811779331413,-0.605922904750204,-0.54321130640295,0.259233101211849,-2.54897392670214,NaN,-0.251040432163938,0.251040432165197,-1.02926393495405,1.66381015770008,-2.33184891766613,NaN,NaN,-1.99874134117427,0.253184509464331,0.0126944852365685,-0.34450517314347,-0.344505173146541,NaN,-2.53690478617754,-0.669928068276348,NaN,-1.69804579269527,-2.1571920202586,0.939940358118619,0.785719400850611,0.785719400849888,0.842545763151599,-0.842545763151939,0.075542171426295
1126.4,0.112345098636683,-0.84007922624452,-0.429969693502976,0.613912714576835,-0.0859171109799509,-0.0859171109807276,NaN,NaN,-0.12368206434941,0.124278351040956,-0.486206891296061,0.124278351040663,-0.701994006136816,0.783977946512005,-0.00759029490653057,-0.70939145393906,0.0554685568464158,-0.483790664053261,-0.576265226959869,0.189151143491439,-0.576265226959433,-0.31266416465778,-0.618807068280759,-0.545534152008757,0.299033090293513,-2.53408659355154,NaN,-0.211943672850375,0.211943672851605,-1.02228238195129,1.65638716062841,-2.31625801732857,NaN,NaN,-1.98168792069485,0.236992158431505,-0.0038320497611287,-0.300933829263547,-0.300933829266651,NaN,-2.55191600379033,-0.716422676367444,NaN,-1.65465294815979,-2.16629017933661,0.968444562173208,0.775758212690687,0.775758212689949,0.823355069844736,-0.823355069845087,0.0467876121468696
1126.5024,0.0936167073021196,-0.835697463614931,-0.442810309510519,0.60765378127579,-0.0849338668434439,-0.0849338668442241,NaN,NaN,-0.118722376016736,0.120175159284697,-0.497215048379937,0.120175159284411,-0.684354470919215,0.767517896894017,-0.00445706601680306,-0.708902712276445,0.0515184554963819,-0.485070886609827,-0.575723082590026,0.166342895404791,-0.575723082589641,-0.307359655813164,-0.63193300817383,-0.548584795846985,0.338667848449003,-2.51819886237823,NaN,-0.172145066341955,0.172145066343153,-1.0158037636709,1.64860766623701,-2.29972730401231,NaN,NaN,-1.96353684100016,0.221031437289384,-0.0216567593035097,-0.256646567152131,-0.256646567155258,NaN,-2.56516648404568,-0.762885050988418,NaN,-1.61123473619289,-2.17557144769909,0.997034762622809,0.764615145717349,0.764615145716617,0.803619701115531,-0.803619701115896,0.0178290410255239
1126.6048,0.074526716156508,-0.831197128439158,-0.455877682438563,0.601127100124369,-0.0834275958407136,-0.0834275958414977,NaN,NaN,-0.113863202672101,0.116176416338889,-0.507297949951836,0.116176416338619,-0.666833909069432,0.750466045143137,-0.00198334383411042,-0.708870100780407,0.0472392288222911,-0.486812645963993,-0.575921622353684,0.14320210393825,-0.575921622353342,-0.302920068271132,-0.645249477619164,-0.55235211657272,0.378091551993466,-2.50135165822902,NaN,-0.131729187664496,0.131729187665667,-1.00979775498154,1.64052427648965,-2.28227996466619,NaN,NaN,-1.94436334292709,0.205334715225217,-0.0406886264636578,-0.211702164966661,-0.211702164969836,NaN,-2.57665507666938,-0.809234740035224,NaN,-1.56791759947719,-2.18497783130438,1.02560757906717,0.752258200915481,0.752258200914739,0.783384137469294,-0.783384137469664,-0.0113432622648866
1126.7072,0.055116812560009,-0.826585361592674,-0.469141602910137,0.594338840349404,-0.0814163982185675,-0.0814163982193657,NaN,NaN,-0.10909379303676,0.112286743357155,-0.516444292241195,0.112286743356886,-0.649463039822745,0.732888049718051,-0.000140983735755591,-0.709277264827486,0.0426359940329247,-0.489002150433758,-0.576821420806089,0.119784227195327,-0.576821420805789,-0.299363965206393,-0.65870337816576,-0.55682170664522,0.417258903384437,-2.48358678789722,NaN,-0.0907848772559725,0.090784877257106,-1.00423213326173,1.63218596901281,-2.26393877104006,NaN,NaN,-1.92424695819604,0.189932531631094,-0.0608293570812233,-0.166162571238428,-0.166162571241608,NaN,-2.58638599631963,-0.855391048872218,NaN,-1.52482734326068,-2.19444717568808,1.05405820429571,0.738659858825542,0.738659858824792,0.762694721319243,-0.762694721319618,-0.0407372442877197
1126.8096,0.0354309870673076,-0.821868895019118,-0.482569691946051,0.58729656851987,-0.0789200404588354,-0.0789200404596525,NaN,NaN,-0.10440389233008,0.108510288550527,-0.524645104182482,0.108510288550275,-0.632273060831396,0.714851482818587,0.00109940668830006,-0.71010512514315,0.0377162484628325,-0.491622680575438,-0.578380800174779,0.0961447227979442,-0.578380800174513,-0.296706455959185,-0.672239977978891,-0.561975842150454,0.456125152858682,-2.46494688699214,NaN,-0.049405010235045,0.0494050102361454,-0.999072998961366,1.62363784131576,-2.24472593626337,NaN,NaN,-1.90327129899074,0.174853425920603,-0.0819738326971406,-0.120092663085939,-0.120092663089174,NaN,-2.59436887751531,-0.901273409141759,NaN,-1.48208862584682,-2.20391345297136,1.08228086566466,0.723797305888039,0.723797305887296,0.74159946040263,-0.741599460403014,-0.0703588776247688
1126.912,0.0155153436951188,-0.817054053350751,-0.496127559714788,0.580009207240788,-0.0759599364143925,-0.0759599364152232,NaN,NaN,-0.0997837261945804,0.104850664433761,-0.53189381166559,0.104850664433522,-0.615295551222379,0.696425654963262,0.00176840768325201,-0.711331910824013,0.0324897432647759,-0.494654664867299,-0.580555923018984,0.0723388079846972,-0.580555923018769,-0.294959013590074,-0.685803141090033,-0.567793471977666,0.494646124796256,-2.44547535865801,NaN,-0.00768626013188274,0.00768626013296074,-0.994285007809889,1.61492082677034,-2.22466296343916,NaN,NaN,-1.88152379826971,0.160123799217777,-0.104010604180726,-0.0735599795233872,-0.0735599795265902,NaN,-2.60061877146678,-0.946801710492549,NaN,-1.43982446092111,-2.21330709801368,1.11016929312982,0.707652626014449,0.707652626013705,0.720147820753168,-0.720147820753553,-0.100212002112914
1127.0144,-0.00458210398777479,-0.812146765927227,-0.509778982547505,0.57248698682551,-0.0725591278280407,-0.072559127828881,NaN,NaN,-0.0952240085133913,0.101310879637417,-0.538186285250545,0.101310879637196,-0.598562407971855,0.677681449009276,0.00189770179776191,-0.712933202377618,0.0269683431872068,-0.498075768287425,-0.583300899651071,0.048421237133983,-0.583300899650918,-0.294129321283167,-0.699335571694762,-0.574250235428052,0.532778239471628,-2.42521630116291,NaN,0.0342711663371994,-0.0342711663361473,-0.989831611335779,1.60607140229966,-2.20377049342649,NaN,NaN,-1.85909540043722,0.145767802427816,-0.126822420568603,-0.0266344481538105,-0.0266344481570425,NaN,-2.60515608662061,-0.991896597357255,NaN,-1.39815573780102,-2.22255539024978,1.13761719517567,0.6902129540278,0.690212954027064,0.69839050774833,-0.69839050774872,-0.130298212982551
1127.1168,-0.0248116446041878,-0.807152586983219,-0.523486091555037,0.564741388494456,-0.0687422563075822,-0.0687422563084254,NaN,NaN,-0.0907159635676651,0.0978932715193366,-0.543520867725433,0.0978932715191323,-0.582105792302928,0.658691124778277,0.00151995137759583,-0.714881986294143,0.0211658779096883,-0.501860992610203,-0.586567913864009,0.0244461078686131,-0.586567913863896,-0.294221152598245,-0.712779070500665,-0.581318510263591,0.570478532004653,-2.40421442572688,NaN,0.0763638578236195,-0.0763638578225879,-0.985675298469586,1.59712132904504,-2.18206817171855,NaN,NaN,-1.83608020728474,0.131807245337529,-0.150286782889226,0.0206118842950794,0.0206118842918426,NaN,-2.60800648281157,-1.03647974034886,NaN,-1.35720075802975,-2.23158287621738,1.16451873631018,0.671470590092466,0.67147059009174,0.67637923302758,-0.676379233027973,-0.160616792060624
1127.2192,-0.0451220856308764,-0.802076719698259,-0.53720956774039,0.55678508067141,-0.0645355187373912,-0.064535518738246,NaN,NaN,-0.0862513515836271,0.0945994477830714,-0.547898387890011,0.0945994477828791,-0.565958058641075,0.639528063549259,0.000668639322216025,-0.717148720808129,0.0150979888108188,-0.50598278657902,-0.590307363080668,0.000466700344678682,-0.590307363080601,-0.29523428456504,-0.726074794792108,-0.58896748613657,0.607704682111228,-2.38251496691263,NaN,0.11848561542321,-0.118485615422187,-0.981777829987115,1.58809746717994,-2.15957455485411,NaN,NaN,-1.81257508259258,0.118261527191529,-0.174276510598962,0.0681051197471376,0.0681051197439091,NaN,-2.60920073087067,-1.08047409213702,NaN,-1.31707478043317,-2.24031182351021,1.19076900522782,0.651423074611801,0.651423074611093,0.65416646683831,-0.654166466838705,-0.191164675376376
1127.3216,-0.0654609758885727,-0.796924041749984,-0.550908842892906,0.548631851622836,-0.0599666023501649,-0.0599666023510333,NaN,NaN,-0.0818224912559558,0.0914302407907566,-0.551322169799522,0.091430240790581,-0.550151653982045,0.620266442798122,-0.000622123183141391,-0.719701412399199,0.00878197375828955,-0.510411164564899,-0.594468010892887,-0.0234646568591964,-0.594468010892851,-0.297164437735447,-0.739163514655587,-0.597163255263261,0.644415069046759,-2.36016358569363,NaN,0.160527966614827,-0.16052796661382,-0.978100459933645,1.57902168951719,-2.13630706482869,NaN,NaN,-1.78867921372841,0.105147591271392,-0.198660312145304,0.115769784660475,0.115769784657233,NaN,-2.6087745465706,-1.12380413681744,NaN,-1.27788956186141,-2.24866269398132,1.2162644719504,0.63007322121487,0.630073221214169,0.631805177713348,-0.631805177713738,-0.221936451416364
1127.424,-0.0857748367632509,-0.79169913245063,-0.564542308727787,0.540296540763787,-0.0550646002818441,-0.0550646002827168,NaN,NaN,-0.0774222793250432,0.0883856726206547,-0.553798043305726,0.0883856726204935,-0.534718991749998,0.600980846959143,-0.00231782089407386,-0.722505704917739,0.002236633101625,-0.51511383374619,-0.598997156605754,-0.0472967078536816,-0.598997156605764,-0.300003236452079,-0.751985862106841,-0.605868913831713,0.680568859823705,-2.33720626208533,NaN,0.202380776728665,-0.202380776727672,-0.974604141055498,1.56991090225124,-2.11228198912398,NaN,NaN,-1.76449362415185,0.0924799033597227,-0.223303358878275,0.163529122302375,0.163529122299108,NaN,-2.60676840057799,-1.16639613907905,NaN,-1.23975287919594,-2.25655462565318,1.24090344705053,0.607429103455365,0.60742910345468,0.609348557887995,-0.609348557888376,-0.252924384344316
1127.5264,-0.106009404996643,-0.786406302208305,-0.578067537092421,0.531794968519334,-0.0498599112423121,-0.0498599112431927,NaN,NaN,-0.0730442102886794,0.0854649281604884,-0.555334357510672,0.085464928160346,-0.519692305903722,0.581745825900565,-0.00438378597585709,-0.725524984161791,-0.00451787971259859,-0.520056330417428,-0.60384082539151,-0.0709793887269048,-0.603840825391552,-0.303738185015611,-0.764482573229046,-0.615044671118457,0.716126131630003,-2.31368917349048,NaN,0.243932956701843,-0.243932956700876,-0.97124971337322,1.5607771687917,-2.08751452031147,NaN,NaN,-1.74012063264892,0.0802704512542667,-0.248067868710141,0.21130540322605,0.211305403222769,NaN,-2.60322729915277,-1.20817839235443,NaN,-1.20276802673952,-2.26390591949703,1.26458655879772,0.583503990578505,0.583503990577834,0.58684972422046,-0.586849724220827,-0.284118457100086
1127.6288,-0.126109887935851,-0.781049624048346,-0.59144151181447,0.523143863718591,-0.0443841284830394,-0.0443841284839348,NaN,NaN,-0.0686823971171856,0.082666336535526,-0.555941996015092,0.0826663365354021,-0.505103484207199,0.562635419695401,-0.00678545872558324,-0.728720497486117,-0.0114602018302679,-0.525202164685434,-0.608943972398519,-0.0944639492643724,-0.608943972398596,-0.308352657613015,-0.77659472395606,-0.62464796511824,0.751048021516177,-2.28965855821916,NaN,0.285073251528359,-0.285073251527407,-0.96799807722742,1.55162791904432,-2.06201882765521,NaN,NaN,-1.71566326624782,0.0685287630446978,-0.272813707430412,0.259020251221433,0.259020251218187,NaN,-2.59820052955937,-1.24908145800167,NaN,-1.16703330205744,-2.27063453245014,1.28721724983454,0.558316230446422,0.558316230445777,0.564361385197138,-0.564361385197492,-0.315506433605666
1127.7312,-0.146021229076067,-0.775632964977759,-0.604620869009663,0.514360789433439,-0.0386699236692763,-0.0386699236701789,NaN,NaN,-0.0643315900018354,0.0799873641225265,-0.555634391267185,0.079987364122424,-0.49098387661794,0.543722679462857,-0.00948862635443263,-0.732051482529958,-0.0185679012326476,-0.530512970256728,-0.614250684598172,-0.117703077158041,-0.614250684598286,-0.313825900494703,-0.788263958554612,-0.634633583114592,0.785296890153969,-2.26516056833654,NaN,0.325691066320992,-0.325691066320066,-0.96481035317607,1.54246621273971,-2.0358081501248,NaN,NaN,-1.69122464649226,0.0572619454175496,-0.29739901059684,0.306594981240486,0.306594981237269,NaN,-2.59174136864892,-1.28903838492524,NaN,-1.13264150818506,-2.2766585748455,1.308702276522,0.531889084972171,0.531889084971556,0.541935481190819,-0.541935481191171,-0.347073944845202
1127.8336,-0.165688379860532,-0.770160014192288,-0.617562140624735,0.50546407061531,-0.0327509302463751,-0.0327509302472948,NaN,NaN,-0.059987189070836,0.0774246230571275,-0.554427535097805,0.0774246230570462,-0.477364077999739,0.525079217610587,-0.0124596087425401,-0.735475297131624,-0.025817617527625,-0.535948655298761,-0.61970436446291,-0.140651020266624,-0.619704364463042,-0.32013304458279,-0.799432708353046,-0.64495378461616,0.818836487049218,-2.24024111977037,NaN,0.365677272299596,-0.365677272298693,-0.96164802980999,1.53329102034736,-2.00889489990777,NaN,NaN,-1.66690737208509,0.0464747465758666,-0.321680822015805,0.353950946487904,0.353950946484751,NaN,-2.58390675723232,-1.32798490039722,NaN,-1.09967949558291,-2.28189680372596,1.32895218732304,0.504250535690275,0.504250535689693,0.519622822748168,-0.519622822748515,-0.378804602691277
1127.936,-0.185056574504415,-0.764634307058937,-0.630221997862488,0.496472726962481,-0.0266616287593711,-0.0266616287603092,NaN,NaN,-0.0556452492757174,0.0749738960191953,-0.552339983836508,0.0749738960191325,-0.464273690472537,0.506774808052343,-0.0156653779251921,-0.738947546870648,-0.0331852074414099,-0.54146755354545,-0.625247889739607,-0.163263694917365,-0.625247889739767,-0.327245125724701,-0.810044398249485,-0.655558423385012,0.851632109401263,-2.21494575109355,NaN,0.40492494964206,-0.404924949641187,-0.958473100563383,1.52409749306218,-1.98129077105916,NaN,NaN,-1.6428129148802,0.0361696478188281,-0.345515740609794,0.401009892603831,0.401009892600775,NaN,-2.57475694490765,-1.36585956813449,NaN,-1.0682277477589,-2.28626910310764,1.34788176451412,0.475433087241025,0.475433087240485,0.497472754019309,-0.497472754019646,-0.410680136994737
1128.0384,-0.204071605964131,-0.759059246635726,-0.642557494024836,0.487406411702375,-0.0204372336377901,-0.0204372336387384,NaN,NaN,-0.0513024786463931,0.0726301725723563,-0.549392855889044,0.0726301725723109,-0.451741078210163,0.488877040147139,-0.0190736210411103,-0.742422211375183,-0.0406458983611771,-0.547026577841615,-0.63082375358862,-0.185498767783199,-0.630823753588818,-0.335129109808251,-0.820043640278232,-0.666395066193976,0.883650748477501,-2.1893195023482,NaN,0.443330049466921,-0.443330049466088,-0.955248195275685,1.51487720536118,-1.95300685132494,NaN,NaN,-1.61904103908819,0.0263469834862449,-0.368760568102695,0.447694314977125,0.447694314974126,NaN,-2.56435511153987,-1.40260391724665,NaN,-1.03836000277886,-2.28969694830255,1.3654104252532,0.445473590674423,0.445473590673916,0.475532856437053,-0.475532856437382,-0.442680547148466
1128.1408,-0.222680100988449,-0.753438125615047,-0.654526306856368,0.478285353612325,-0.0141135783768766,-0.0141135783778412,NaN,NaN,-0.0469562318325167,0.0703876894137887,-0.54560981574716,0.070387689413758,-0.439793131767803,0.471451023898028,-0.0226527664912638,-0.745851769709634,-0.0481744507496443,-0.552581376689886,-0.636374190658043,-0.207315711834228,-0.636374190658257,-0.343747922402743,-0.829376416660394,-0.677409109337237,0.914861217990972,-2.16340681671967,NaN,0.480791971746606,-0.480791971745798,-0.951936716307744,1.50561836288686,-1.92405373105539,NaN,NaN,-1.59568924847068,0.0170050848940967,-0.391272953913035,0.493927810193739,0.493927810190774,NaN,-2.55276697278165,-1.43816254981546,NaN,-1.01014291022888,-2.29210385670849,1.38146258517885,0.414413084485917,0.414413084485449,0.453848693290148,-0.453848693290471,-0.474784264809191
1128.2432,-0.240829792737719,-0.74777415066102,-0.666086980357578,0.469130298699924,-0.00772699634358127,-0.00772699634456693,NaN,NaN,-0.0426044985165361,0.0682399699331364,-0.541017038601049,0.0682399699331193,-0.42845505155936,0.454559142411027,-0.0263719868036738,-0.749187322659057,-0.0557453262525744,-0.558086490929315,-0.64184129018244,-0.228675850797267,-0.641841290182695,-0.353060485428244,-0.83799025662359,-0.688543896912368,0.945234264649203,-2.13725145678233,NaN,0.517214063800639,-0.517214063799877,-0.948502985540605,1.49630598076327,-1.89444160289744,NaN,NaN,-1.57285226096031,0.00814044320751285,-0.412912037332777,0.539635413584028,0.539635413581096,NaN,-2.54006037734054,-1.47248323382002,NaN,-0.98363573296555,-2.29341582801368,1.3959679889485,0.382296631433978,0.382296631433573,0.432463586695899,-0.432463586696212,-0.506968329724055
1128.3456,-0.258469792239738,-0.742070469153221,-0.67719916713004,0.459962450052728,-0.00131419761569927,-0.00131419761671841,NaN,NaN,-0.0382458834210026,0.0661798650070257,-0.535643157897625,0.0661798650070163,-0.417750144681858,0.438260842124295,-0.0302011808744042,-0.752378710464198,-0.0633328554217059,-0.563495507006116,-0.64716709407327,-0.249542407961145,-0.647167094073559,-0.363021764583812,-0.845834409203167,-0.699740844689465,0.974742667992332,-2.11089642387132,NaN,0.552504050905968,-0.55250405090525,-0.944912400809551,1.48692205014665,-1.86418035435368,NaN,NaN,-1.55062150506472,-0.000252111734446997,-0.433539088492842,0.584743925829112,0.584743925826238,NaN,-2.52630490292059,-1.5055169850323,NaN,-0.95889009806341,-2.29356177306721,1.40886200583977,0.349173136837469,0.349173136837111,0.411418418346129,-0.411418418346437,-0.53920857939824
1128.448,-0.275550861233909,-0.736330197218935,-0.687823872678554,0.450803406791475,0.00508785495921206,0.00508785495816293,NaN,NaN,-0.0338795751840622,0.0641996000370352,-0.529519203732115,0.0641996000370401,-0.407699623768362,0.422612450451883,-0.0341109333875677,-0.755374628000834,-0.070911399650929,-0.56876120603216,-0.652293679416491,-0.269880564815883,-0.65229367941682,-0.373582831520304,-0.852860011101683,-0.710939571931666,1.00336133846118,-2.08438387452591,NaN,0.586574407545419,-0.586574407544749,-0.941131594794625,1.47744570775958,-1.83327965844402,NaN,NaN,-1.52908463185426,-0.0081792180443892,-0.453018148398502,0.62918223844408,0.629182238441279,NaN,-2.51157145475801,-1.53721813847636,NaN,-0.935949790400046,-2.2924739274328,1.42008588296849,0.315095157046259,0.31509515704594,0.390751453996831,-0.390751453997133,-0.571479849382411
1128.5504,-0.292025686393913,-0.730556448996019,-0.697923701626036,0.441675103747982,0.0114420666760936,0.0114420666750172,NaN,NaN,-0.0295053060492241,0.0622908297140695,-0.522678535764363,0.0622908297140762,-0.398322406683008,0.407667022339879,-0.0380724488374881,-0.758122742549267,-0.0784555059319132,-0.573835711731633,-0.657163229190385,-0.289657523014753,-0.657163229190744,-0.384690944113338,-0.859020248792579,-0.722078043138386,1.03106742038965,-2.05775503668641,NaN,0.619342664674296,-0.619342664673681,-0.93712858598678,1.46785340396015,-1.80174906228652,NaN,NaN,-1.50832504218697,-0.015648775884261,-0.471216665805195,0.672881660763414,0.672881660760658,NaN,-2.49593186528886,-1.56754440805984,NaN,-0.914850583508777,-2.29008824882529,1.42958695699195,0.280118713556941,0.28011871355667,0.370498199047021,-0.370498199047316,-0.603756177809006
1128.6528,-0.307849151646977,-0.724752368285333,-0.707463103834672,0.432599752806668,0.0177113258445589,0.0177113258434607,NaN,NaN,-0.0251233085861384,0.0604446966622135,-0.515156767516824,0.0604446966622283,-0.389634927732718,0.393474229974956,-0.0420574581621149,-0.760569819357151,-0.085940056543208,-0.578670641864262,-0.661718098122741,-0.308842560974332,-0.661718098123134,-0.396289647065582,-0.864270516531542,-0.733092722169083,1.05784040245301,-2.03105013335074,NaN,0.650731642228593,-0.650731642228019,-0.932872910550376,1.45811905102595,-1.7695980710002,NaN,NaN,-1.48842143467393,-0.0226697319175674,-0.488006127064705,0.715776240123938,0.715776240121219,NaN,-2.47945848843777,-1.59645693249643,NaN,-0.895620114387648,-2.28634480390344,1.43731883853613,0.24430311603322,0.244303116033001,0.35069129153566,-0.350691291535956,-0.636011008496316
1128.7552,-0.322978604334706,-0.718921162923388,-0.716408617101743,0.423599785279942,0.0238586113471469,0.0238586113460306,NaN,NaN,-0.0207342749573687,0.058651888269715,-0.506991676024702,0.0586518882697335,-0.381650974255643,0.380080305832043,-0.0460381029444509,-0.762661857811929,-0.0933404148499858,-0.583217265621894,-0.665900881338788,-0.327407085158337,-0.665900881339209,-0.408318895307955,-0.868568573649252,-0.743918742267879,1.08366223144904,-2.0043083169947,NaN,0.680669606665587,-0.680669606665058,-0.928335730918314,1.44821414015773,-1.73683622651482,NaN,NaN,-1.46944737859575,-0.0292518575040856,-0.503262674593998,0.757803064582757,0.757803064580098,NaN,-2.46222378170078,-1.62392030634118,NaN,-0.878277815331857,-2.2811881511831,1.44324158142021,0.207710785284668,0.207710785284519,0.331360433195222,-0.331360433195519,-0.66821739128074
1128.8576,-0.337374111952863,-0.713066141135374,-0.724729103256729,0.414697792735349,0.0298470939328733,0.0298470939317268,NaN,NaN,-0.0163393191742851,0.0569026892180049,-0.498223092784757,0.056902689218033,-0.374381557034348,0.367528031151524,-0.0499868130271599,-0.764344237974391,-0.100632564133049,-0.587426665550176,-0.669654491984498,-0.345324683589688,-0.669654491984973,-0.420715203031872,-0.871874703108645,-0.754490095043749,1.10851741908659,-1.97756760981149,NaN,0.709090369820975,-0.709090369820487,-0.923489929627291,1.43810783526196,-1.70347318114583,NaN,NaN,-1.45147091253173,-0.0354055258549926,-0.516867709590015,0.798902543621244,0.798902543618612,NaN,-2.44429987772368,-1.64990259792298,NaN,-0.862834910685035,-2.27456772366561,1.44732182912165,0.170407063824319,0.170407063824226,0.312532351360092,-0.312532351360383,-0.700348181059587
1128.96,-0.350998707634403,-0.707190749746641,-0.732395976057548,0.405916463499867,0.0356402339123515,0.0356402339111793,NaN,NaN,-0.011939938544491,0.0551870337741317,-0.488892778003206,0.0551870337741724,-0.367834811055028,0.35585675034218,-0.0538761916891673,-0.765561873059136,-0.107793234741169,-0.591249898901414,-0.67292224788569,-0.362571186745315,-0.672922247886221,-0.433411818766504,-0.874151868399185,-0.76473983717687,1.13239313197618,-1.95086484360473,NaN,0.735933351883078,-0.735933351882624,-0.918310202471237,1.42776706424598,-1.66951876399493,NaN,NaN,-1.43455417323381,-0.041141495363228,-0.528708475024869,0.839018667924722,0.839018667922137,NaN,-2.42575816156965,-1.67437536172558,NaN,-0.849294476390732,-2.2664382103969,1.4495329130328,0.132460008267034,0.132460008266987,0.29423077883298,-0.294230778833271,-0.73237623600561
1129.0624,-0.363818623275988,-0.701298614775983,-0.739383420297702,0.397278514597653,0.0412018778391674,0.0412018778379757,NaN,NaN,-0.00753797240009797,0.0534945653336501,-0.479044285015766,0.0534945653337081,-0.362015911970344,0.345102397477114,-0.057678905937528,-0.766259360658322,-0.114800019737145,-0.594638153343808,-0.67564795869609,-0.379124732841587,-0.675647958696671,-0.446338924562016,-0.875365861630673,-0.774600309749037,1.1552792615509,-1.92423560023162,NaN,0.761143622588699,-0.761143622588277,-0.912773157098332,1.41715662610556,-1.6349830384917,NaN,NaN,-1.41875306752712,-0.0464707066663584,-0.538678616967432,0.878099247403562,0.878099247400991,NaN,-2.40666887768413,-1.69731365727344,NaN,-0.837651551322044,-2.25675992985587,1.44985488231513,0.0939401691530679,0.0939401691530806,0.276476443795053,-0.276476443795351,-0.764274613316584
1129.1648,-0.375803508882307,-0.695393582988505,-0.745668600052962,0.388806621232205,0.0464963562599868,0.0464963562587775,NaN,NaN,-0.0031355634306276,0.0518147066116295,-0.4687228206148,0.051814706611693,-0.356926993009645,0.335297532594018,-0.061367568352613,-0.766381129832442,-0.121631485813819,-0.597542897767886,-0.677776003195025,-0.394965830107747,-0.677776003195665,-0.45942386147756,-0.875485437516213,-0.784003369001562,1.17716847482785,-1.89771416101977,NaN,0.784671922100168,-0.784671922099767,-0.906857410059957,1.40623932446682,-1.59987635357496,NaN,NaN,-1.40411700075298,-0.051404100611868,-0.546678726544417,0.916096120841712,0.91609612083921,NaN,-2.38710078248639,-1.71869608440237,NaN,-0.827893287255831,-2.2454991824978,1.44827447200696,0.0549203641554472,0.0549203641555151,0.259287073552041,-0.259287073552346,-0.796016759927051
1129.2672,-0.386926635981266,-0.689479759185624,-0.751231851029029,0.380523345393589,0.0514885849090762,0.0514885849078464,NaN,NaN,0.00126486789085146,0.0501367371468483,-0.457975102778004,0.0501367371469253,-0.352567057673534,0.326471388466223,-0.0649146051009069,-0.765871591806871,-0.128267286319451,-0.599916036538261,-0.679251395753018,-0.410077413688566,-0.679251395753693,-0.472591392187173,-0.874482435386149,-0.792880637355371,1.19805624607498,-1.87133347343197,NaN,0.806474662465701,-0.80647466246531,-0.900543667538089,1.39497613446861,-1.56420939501637,NaN,NaN,-1.39068866358314,-0.0559524631377415,-0.552616867686409,0.952965329012602,0.952965329010171,NaN,-2.36712084078913,-1.73850483661278,NaN,-0.81999912994284,-2.23262856972609,1.44478503764593,0.0154754382370311,0.0154754382371591,0.242677422724121,-0.242677422724424,-0.827576694441026
1129.3696,-0.397165083467262,-0.683561532488048,-0.756056851442826,0.372451063489122,0.0561441711757871,0.0561441711745276,NaN,NaN,0.00566062788328515,0.0484498725165743,-0.446849216434941,0.0484498725166676,-0.348931895212407,0.318649924549997,-0.0682921202833915,-0.764675308346927,-0.134688276890844,-0.601710077447526,-0.680019851928799,-0.424444903032163,-0.680019851929506,-0.485764011238116,-0.872331896661339,-0.801163786082904,1.21794086890596,-1.84512513524141,NaN,0.826513919285487,-0.826513919285105,-0.89381477761559,1.38332640700872,-1.52799324248896,NaN,NaN,-1.37850386434561,-0.060126298294756,-0.556409092610626,0.988667247851434,0.988667247849035,NaN,-2.34679395181479,-1.75672576636659,NaN,-0.813941027417753,-2.21812726963656,1.43938648120657,-0.024318000620146,-0.0243180006199571,0.226659334077938,-0.226659334078249,-0.858929175315797
1129.472,-0.406499905986895,-0.677643587556995,-0.760130769006383,0.3646118928257,0.0604295257703813,0.0604295257690926,NaN,NaN,0.0100487328057284,0.0467433425241881,-0.435394471676255,0.0467433425243027,-0.346014008049359,0.311855883230832,-0.0714717704413952,-0.762737187154484,-0.140876629205446,-0.602878318194034,-0.680027864195853,-0.438056263888276,-0.680027864196596,-0.498862298943116,-0.869012180615098,-0.80878484823693,1.23682344992142,-1.81911938970549,NaN,0.844757425078722,-0.844757425078352,-0.886655754713396,1.37124811017819,-1.49123943536069,NaN,NaN,-1.36759138990023,-0.0639357226754782,-0.557979939951523,1.02316668491247,1.02316668491009,NaN,-2.32618269134846,-1.77334845330628,NaN,-0.809683660978179,-2.20198126188869,1.43208517244926,-0.0643818706539482,-0.0643818706537042,0.211241829100864,-0.211241829101181,-0.890049853396964
1129.5744,-0.414916285327432,-0.671730901641345,-0.76344438494896,0.357027617323865,0.0643119779063421,0.064311977905035,NaN,NaN,0.0144258758710477,0.0450064684812839,-0.423661269922902,0.0450064684814178,-0.343802556446437,0.306108847350061,-0.0744246555769961,-0.760002703567551,-0.146815938154551,-0.603375048932447,-0.679222792483469,-0.450902069822651,-0.679222792484225,-0.511805300878492,-0.864505071494336,-0.815676545357313,1.25470788526742,-1.79334512537861,NaN,0.861178565591511,-0.861178565591152,-0.879053790371833,1.35869810324972,-1.45396004704348,NaN,NaN,-1.35797288738283,-0.0673903706703228,-0.557262905317098,1.05643294457613,1.05643294457374,NaN,-2.30534706623411,-1.78836626885966,NaN,-0.807184697329475,-2.18418349700802,1.42289385257341,-0.104636920106434,-0.104636920106131,0.196431212869901,-0.196431212870222,-0.920915413781026
1129.6768,-0.422403663256275,-0.665828732865595,-0.765992197160908,0.349719611656817,0.0677598913795086,0.0677598913781647,NaN,NaN,0.0187883852181152,0.043228738943796,-0.411700977608071,0.043228738943944,-0.342283325643512,0.301425301807992,-0.0771212295097683,-0.756418140922273,-0.152491318701911,-0.603155763899056,-0.677552969666445,-0.462975557192188,-0.677552969667205,-0.524510915528917,-0.858795868213935,-0.821772610915703,1.27160081926507,-1.76782987665317,NaN,0.875756369817098,-0.875756369816751,-0.870998268119134,1.34563243622449,-1.4161677607755,NaN,NaN,-1.34966277225125,-0.0704993053674378,-0.554200873034993,1.08843986402268,1.0884398640203,NaN,-2.284344287601,-1.80177643649714,NaN,-0.806395065243807,-2.16473401033361,1.41183150545088,-0.145003035726469,-0.145003035726108,0.1822311743698,-0.182231174370119,-0.951503715057228
1129.7792,-0.428955851830783,-0.659942606147675,-0.767772503130121,0.342708760733691,0.070742779533573,0.0707427795322014,NaN,NaN,0.0231321788814747,0.0413998819323343,-0.399565800656769,0.0413998819325004,-0.34143872076296,0.297818697959817,-0.0795312361619815,-0.751930842091261,-0.157889488411642,-0.602177375108714,-0.67496782185721,-0.47427267612494,-0.674967821857982,-0.536896284131875,-0.851873455872152,-0.827008105861062,1.28751158282229,-1.74259982091818,NaN,0.888475489157701,-0.888475489157361,-0.86248079244685,1.3320066747304,-1.37787593666325,NaN,NaN,-1.34266817314764,-0.0732709392557273,-0.548746500733884,1.11916581682865,1.11916581682631,NaN,-2.26322857338541,-1.81358009143049,NaN,-0.807259259837145,-2.1436399841171,1.39892318983481,-0.185399555420584,-0.185399555420169,0.168642872299873,-0.168642872300187,-0.98179392955899
1129.8816,-0.434571115959656,-0.654078299673419,-0.768787460155732,0.336015370762201,0.0732314195539675,0.0732314195525786,NaN,NaN,0.0274527199971218,0.0395099338026196,-0.387308652198234,0.0395099338028045,-0.341247787951989,0.2952995103123,-0.0816236797359208,-0.746489470361909,-0.162998831812754,-0.600398425230761,-0.671418005066432,-0.484792146037841,-0.671418005067214,-0.548878188153794,-0.843730365328158,-0.831319733394686,1.30245211169666,-1.71767976596271,NaN,0.899326176186339,-0.899326176186005,-0.853495228778846,1.3177762642763,-1.33909866818144,NaN,NaN,-1.3369889171959,-0.0757129728657633,-0.540862553491893,1.14859367789752,1.14859367789523,NaN,-2.24205098639423,-1.82378234249928,NaN,-0.809715675215036,-2.12091576077728,1.38419982859926,-0.225745592695746,-0.225745592695282,0.155665012779719,-0.155665012780026,-1.01176668194146
1129.984,-0.439252224300613,-0.648241831173764,-0.769043119114246,0.329659070347019,0.0751979668016313,0.0751979668002194,NaN,NaN,0.0317449733916924,0.0375493081087259,-0.374983008676855,0.0375493081089328,-0.341686252959296,0.293875273065898,-0.0833668310708934,-0.740044281553804,-0.167809444790671,-0.597779300254008,-0.666855560425674,-0.494535522736925,-0.666855560426463,-0.560373464168002,-0.834362826362911,-0.834646162825187,1.3164368487801,-1.69309312062624,NaN,0.9083042769055,-0.908304276905167,-0.844037741104326,1.30289695323131,-1.29985083566956,NaN,NaN,-1.33261754979331,-0.0778323560406295,-0.530522187526327,1.17671074507023,1.17671074506799,NaN,-2.22085930602722,-1.83239233395242,NaN,-0.813696964033687,-2.09658280660887,1.36769794724528,-0.265960376723981,-0.265960376723458,0.143293935292256,-0.14329393529255,-1.04140418177855
1130.0864,-0.443006468318679,-0.642439442825702,-0.76854943089749,0.323658704172212,0.0766160661298846,0.0766160661284642,NaN,NaN,0.0360033645248656,0.035508867423638,-0.362642753509824,0.0355088674238676,-0.342726569316335,0.293550594439044,-0.084728264027805,-0.732547406939608,-0.172313160722328,-0.594282442337733,-0.661234087965146,-0.503507277793898,-0.661234087965931,-0.571299442889206,-0.823770815552941,-0.836928367913742,1.32948263603347,-1.66886184720648,NaN,0.91541123564372,-0.915411235643386,-0.834106810677691,1.28732528074666,-1.26014816466571,NaN,NaN,-1.32953938239604,-0.0796352710347797,-0.517709182805242,1.20350861906847,1.20350861906627,NaN,-2.19969792722972,-1.83942330187371,NaN,-0.819130417653802,-2.07066962107463,1.34945935829219,-0.305963597415455,-0.305963597414874,0.131523717675105,-0.131523717675388,-1.07069034685382
1130.1888,-0.44584565195731,-0.636677584807694,-0.767320227580405,0.318032225907022,0.0774609548015658,0.07746095480014,NaN,NaN,0.0402217418837869,0.0333799983089651,-0.350342010614398,0.0333799983092146,-0.344337973679242,0.29432716050136,-0.085674908743578,-0.723953142297038,-0.176503564329764,-0.589872561975907,-0.654508935376914,-0.511714881966605,-0.654508935377691,-0.581574412165643,-0.81195809749081,-0.838109978855958,1.34160860204313,-1.64500640458703,NaN,0.920654094945442,-0.920654094945105,-0.823703218762287,1.27101911339591,-1.22000729410277,NaN,NaN,-1.32773256731799,-0.0811271324222623,-0.502418120942208,1.22898305002575,1.22898305002358,NaN,-2.17860778147031,-1.84489262120599,NaN,-0.82593835544027,-2.04321158611621,1.32953080298028,-0.345675735067916,-0.345675735067287,0.120346302787031,-0.120346302787301,-1.09961091080885
1130.2912,-0.447786053939063,-0.630962897386519,-0.765373179918463,0.3127966000166,0.0777095548259509,0.0777095548245285,NaN,NaN,0.0443933443057995,0.0311546874757539,-0.338134969764013,0.0311546874760333,-0.346486547592472,0.296203746098569,-0.0861731050277414,-0.714218236178181,-0.180376002048158,-0.584516848164699,-0.64663739583237,-0.519168877661252,-0.646637395833139,-0.59111809569549,-0.798932258505619,-0.838137641581891,1.35283605629626,-1.62154569673904,NaN,0.924045468134778,-0.924045468134424,-0.812829977351838,1.2539381992786,-1.17944585841124,NaN,NaN,-1.32716820062022,-0.0823125951383775,-0.48465449905201,1.25313376083104,1.25313376082891,NaN,-2.15762627782108,-1.84882183960126,NaN,-0.834038513327585,-2.01425075377842,1.3079635751625,-0.385018360707811,-0.385018360707131,0.109751649076463,-0.109751649076727,-1.12815350151536
1130.3936,-0.448848364208888,-0.625302189310288,-0.762729731046559,0.307967723273309,0.0773405574203365,0.0773405574189326,NaN,NaN,0.0485107766602496,0.0288255939236609,-0.326075702823492,0.0288255939239616,-0.34913528539552,0.29917624750701,-0.0861886423197212,-0.703302170343401,-0.183927596284259,-0.57818517457845,-0.637578909602974,-0.525882928044587,-0.637578909603716,-0.599852132368704,-0.78470473459777,-0.836961374488739,1.36318840933324,-1.59849703551496,NaN,0.925603469629898,-0.925603469629537,-0.801492200543791,1.23604470996792,-1.13848258366654,NaN,NaN,-1.32781045298453,-0.0831955601358848,-0.464434762191081,1.27596425333764,1.27596425333552,NaN,-2.13678726282258,-1.85123669043503,NaN,-0.843344432344583,-1.9838355761135,1.28481316147597,-0.423914416140877,-0.423914416140158,0.0997279051738471,-0.0997279051741062,-1.15630767207313
1130.496,-0.449057597323574,-0.619702408656717,-0.759415006310808,0.303560373863492,0.0763345032287312,0.0763345032273418,NaN,NaN,0.0525659996267328,0.0263861077178422,-0.314217969459439,0.0263861077181628,-0.352244173524924,0.303237744250163,-0.0856867848408114,-0.691167427517644,-0.187157265401713,-0.570850299052973,-0.627295268540887,-0.5318738416154,-0.627295268541609,-0.607700539093343,-0.769290836969214,-0.8345349121313,1.37269113562043,-1.57587611597624,NaN,0.925351601078302,-0.92535160107793,-0.789696926831345,1.21730375580714,-1.09713739178773,NaN,NaN,-1.32961672891769,-0.0837791699521993,-0.441786234442543,1.29748159887193,1.29748159886987,NaN,-2.11612099637206,-1.85216707528914,NaN,-0.853765861291948,-1.95202058608298,1.26013893272071,-0.462288507660832,-0.462288507660066,0.0902615991962443,-0.090261599196494,-1.18406487245361
1130.5984,-0.448442985614914,-0.614170604167276,-0.755457700357347,0.299588188362925,0.0746738580962755,0.0746738580949014,NaN,NaN,0.0565503391232547,0.0238303874974484,-0.302615014524645,0.0238303874977876,-0.355770293642583,0.308378589059845,-0.0846322956083878,-0.677779745288536,-0.190065745516434,-0.562488053917555,-0.615750827511096,-0.537161579505401,-0.615750827511787,-0.6145901459895,-0.752709774963492,-0.830816027837618,1.38137177577759,-1.55369699801379,NaN,0.923318600438061,-0.92331860043768,-0.77745291639414,1.19768387473592,-1.0554315049717,NaN,NaN,-1.33253785687756,-0.0840657936272521,-0.416746939705333,1.31769621633926,1.31769621633724,NaN,-2.09565414203773,-1.85164701216924,NaN,-0.865209192495956,-1.91886604017135,1.23400389989101,-0.500067248639083,-0.500067248638273,0.0813378262057436,-0.0813378262059817,-1.21141836611865
1130.7008,-0.447037851903995,-0.608713879612501,-0.750889942878625,0.296063659001515,0.0723430800831484,0.0723430800817898,NaN,NaN,0.0604545176098874,0.0211533767980227,-0.291319362329475,0.021153376798375,-0.359667962611055,0.314586520186883,-0.0829894779258502,-0.663108357055489,-0.192655608519027,-0.55307752552207,-0.602912727175719,-0.541769250619202,-0.602912727176386,-0.620451002594232,-0.734984669459994,-0.825766830658246,1.3892599531735,-1.53197209120157,NaN,0.919538259213576,-0.919538259213189,-0.764770445383592,1.17715749618099,-1.01338754356729,NaN,NaN,-1.33651831340193,-0.0840570073067838,-0.389365321626407,1.33662164632176,1.33662164631978,NaN,-2.0754097735287,-1.84971455445066,NaN,-0.87757793672893,-1.88443752981822,1.20647451479054,-0.537179653862021,-0.537179653861179,0.072940420809682,-0.0729404208099179,-1.23836310950921
1130.8032,-0.444879459561972,-0.603339346068754,-0.745747144224767,0.292998141206563,0.0693286742740949,0.0693286742727551,NaN,NaN,0.0642687054050049,0.0183508053522975,-0.280382613101102,0.0183508053526611,-0.363888914424455,0.321846790177645,-0.0807222449288124,-0.647126221407921,-0.194931272758422,-0.542601222472902,-0.588751126924916,-0.545723092745451,-0.588751126925549,-0.625216757178996,-0.716142547474426,-0.819354033331979,1.39638737867566,-1.51071214363472,NaN,0.914049208250621,-0.914049208250225,-0.751661108154864,1.15570137446096,-0.971029610640078,NaN,NaN,-1.34149648114689,-0.0837535788223611,-0.359699884301467,1.35427433073982,1.35427433073788,NaN,-2.05540739961427,-1.84641168749628,NaN,-0.890773220255763,-1.84880556072942,1.17762048393504,-0.573557548783144,-0.573557548782265,0.0650521129914577,-0.0650521129916914,-1.26489561073004
1130.9056,-0.442008840358281,-0.598054075056579,-0.740067823084634,0.29040186391302,0.0656192365122187,0.0656192365109068,NaN,NaN,0.0679825876850465,0.0154191809413376,-0.2698552466635,0.0154191809417122,-0.368382518239559,0.330142305040433,-0.0777942167040309,-0.629810242496435,-0.196899004142877,-0.531045233482992,-0.573239440503109,-0.549052436335108,-0.573239440503707,-0.628825007454589,-0.696214311935971,-0.811549186895901,1.40278783119786,-1.48992623642183,NaN,0.906894676567657,-0.906894676567252,-0.738137633484927,1.13329698307388,-0.928383357504734,NaN,NaN,-1.34740493766353,-0.0831554624202358,-0.327818778194703,1.37067340515019,1.37067340514832,NaN,-2.03566300673129,-1.84178420474684,NaN,-0.904694274366413,-1.81204509585938,1.1475145792395,-0.609135945248064,-0.609135945247166,0.0576546740022833,-0.0576546740025194,-1.29101377227468
1131.008,-0.438470604024255,-0.592865052717896,-0.733893419612486,0.288283938143524,0.0612054894523718,0.0612054894510844,NaN,NaN,0.0715854424158542,0.0123557743859568,-0.259786437348653,0.012355774386342,-0.373096020088024,0.339453768055098,-0.0741688374686939,-0.611141484861534,-0.198566905187812,-0.518399376292035,-0.556354565042535,-0.551789651107494,-0.55635456504308,-0.63121761855606,-0.675234684164783,-0.802328877717633,1.40849711082679,-1.46962178597876,NaN,0.898122234899413,-0.898122234899002,-0.724213720880094,1.10993086096244,-0.885476027217729,NaN,NaN,-1.35417077268479,-0.0822618073959423,-0.293799352889755,1.38584050766299,1.3858405076612,NaN,-2.01618911499418,-1.83588155988844,NaN,-0.919238895309857,-1.77423506490991,1.11623243867798,-0.643853354968114,-0.643853354967186,0.0507290615084413,-0.0507290615086785,-1.31671671596481
1131.1104,-0.434312732498153,-0.587779134166346,-0.727268095926994,0.286652361181538,0.0560803134573466,0.0560803134560852,NaN,NaN,0.075066226112939,0.00915859966053416,-0.250223881034038,0.00915859966093173,-0.377974796519735,0.349759824726377,-0.0698095039422921,-0.591105383997264,-0.199944890770782,-0.504657338057149,-0.538077096136911,-0.553970075053874,-0.538077096137403,-0.632341007043371,-0.653242119997546,-0.791674886540938,1.41355296232868,-1.44980455666145,NaN,0.88778353454589,-0.88778353454546,-0.709903899027955,1.08559490089438,-0.842336475203705,NaN,NaN,-1.36171593480786,-0.0810709817150967,-0.257727689661821,1.39979960385651,1.39979960385476,NaN,-1.99699484216956,-1.82875669049102,NaN,-0.934303869452398,-1.73545785169176,1.083852344852,-0.677652036296853,-0.677652036295901,0.0442555726562336,-0.0442555726564746,-1.34200459336016
1131.2128,-0.429586357925371,-0.582802996574796,-0.720238522317781,0.285514015223708,0.0502387741051378,0.0502387741038917,NaN,NaN,0.0784136677037711,0.00582639279367591,-0.241213633630774,0.00582639279408211,-0.38296261303341,0.361037206283569,-0.0646796999470552,-0.569691948730477,-0.201044651694975,-0.489816804869703,-0.518391523156107,-0.555631921172908,-0.518391523156549,-0.632146393719299,-0.63027870540257,-0.779574314587407,1.4179949678248,-1.43047868391287,NaN,0.875934044506326,-0.875934044505886,-0.695223402538168,1.06028657450443,-0.798995166706098,NaN,NaN,-1.36995761067698,-0.079580608153176,-0.219698114774929,1.41257682190403,1.41257682190227,NaN,-1.97808597271838,-1.82046581042105,NaN,-0.949785370344103,-1.69579876979448,1.05045497059431,-0.710478178698082,-0.710478178697115,0.0382140092119972,-0.03821400921224,-1.36687839675219
1131.3152,-0.424345521954289,-0.577943089363115,-0.712853646094942,0.284874661026069,0.043678147340548,0.0436781473393283,NaN,NaN,0.0816163734042845,0.00235859387506181,-0.23279996221273,0.002358593875461,-0.388001885230078,0.373260870689362,-0.0587431360621378,-0.546895947287995,-0.201879607403927,-0.473879575146564,-0.497286399776183,-0.556816159800041,-0.497286399776571,-0.630590029256272,-0.60639003901223,-0.766019683432865,1.42186441056748,-1.41164670414882,NaN,0.862632784373551,-0.862632784373108,-0.680188060839608,1.03400909850315,-0.755484150611561,NaN,NaN,-1.37880863922077,-0.0777876096219122,-0.17981268833738,1.42420029456239,1.42420029456066,NaN,-1.95946503324135,-1.81106817240375,NaN,-0.965579335175254,-1.65534553004774,1.01612309545179,-0.742282027269421,-0.742282027268436,0.0325838472373405,-0.0325838472375865,-1.39133978950052
