time,S1-D1,S1-D8,S1-D9,S1-D15,S2-D1,S2-D2,S2-D3,S2-D9,S3-D1,S3-D2,S3-D16,S4-D2,S4-D3,S4-D5,S5-D3,S5-D4,S5-D5,S6-D2,S6-D5,S6-D17,S7-D6,S7-D7,S8-D6,S8-D7,S8-D18,S9-D3,S9-D4,S9-D9,S9-D11,S9-D19,S10-D8,S10-D9,S10-D10,S10-D11,S11-D8,S11-D10,S11-D20,S12-D10,S12-D11,S12-D12,S13-D4,S13-D11,S13-D12,S14-D10,S14-D12,S14-D21,S15-D13,S15-D14,S16-D13,S16-D14,S16-D22
363.1104,-0.278741033748931,1.04649868756024,0.903653247059134,1.57486381586289,1.09204951409337,1.09204951409476,NaN,-0.31066919227639,-0.156023197258327,-0.34571409336577,-1.78606119840933,-0.345714093368294,1.26686918209098,NaN,NaN,-1.08813858026513,NaN,-0.833973776159323,NaN,-0.21465736555659,NaN,0.0320989454433567,NaN,NaN,NaN,1.68914764640052,NaN,0.617488969827432,-0.617488969826791,-1.30453635834702,0.422727972610831,-0.557416873273111,-0.309196078568191,2.45476785088991,2.06926838540056,2.72611863181998,0.616381690528483,0.144601351912544,0.14460135191307,-1.87971332700039,0.177623531045034,-1.71628617865593,-1.12203505858198,-0.865758940438918,-1.56129328883746,0.725373052397108,-0.452701197399621,-0.452701197398037,NaN,0.953942065579841,-1.3883597316196
363.2128,-0.280880390409187,1.02543010532367,0.872621447123936,1.57905793735725,1.08699912415606,1.08699912415746,NaN,-0.295144217095172,-0.14898930600673,-0.333410929416455,-1.80781852279848,-0.333410929418989,1.25490442037245,NaN,NaN,-1.09587363530407,NaN,-0.82261023866667,NaN,-0.246567714739533,NaN,0.0630000577242137,NaN,NaN,NaN,1.68280565222124,NaN,0.605679590388251,-0.605679590387625,-1.29700210220117,0.456966009436729,-0.579659506492679,-0.294601632173032,2.4923310637854,2.08403851678108,2.759339406822,0.618130058912604,0.187791705094736,0.187791705095254,-1.89360169915557,0.24326924788455,-1.70379667690116,-1.10874922692057,-0.842626049577694,-1.53537504071449,0.723455695324851,-0.41875724309046,-0.418757243088878,NaN,0.966958721685487,-1.42453834980255
363.3152,-0.283058192139019,1.00458239585947,0.841814138358497,1.58187442131267,1.08205330163556,1.08205330163697,NaN,-0.279841596111606,-0.142149418581157,-0.321059396392069,-1.82944236066611,-0.321059396394604,1.24239314661326,NaN,NaN,-1.10312301848511,NaN,-0.811065333448542,NaN,-0.278489943004537,NaN,0.0938712684635579,NaN,NaN,NaN,1.67461646854762,NaN,0.593984605986919,-0.593984605986302,-1.28960405962749,0.491470537283791,-0.601706859081263,-0.279256042546171,2.52908610534278,2.09689150245612,2.79104124533287,0.619241096279523,0.229472175854455,0.229472175854965,-1.90605116513415,0.308155254742689,-1.69023740934898,-1.09365260558832,-0.818756588951031,-1.50731821835544,0.719599726668891,-0.384543011128507,-0.384543011126924,NaN,0.97884171193596,-1.4608836906976
363.4176,-0.285291819502319,0.984027850117915,0.811296849151509,1.58327089751866,1.07724986236013,1.07724986236156,NaN,-0.264717468435883,-0.135470960606684,-0.308694444452707,-1.85086970641207,-0.308694444455255,1.22933539515179,NaN,NaN,-1.10987875554487,NaN,-0.799380062403187,NaN,-0.310341348685579,NaN,0.124658678067021,NaN,NaN,NaN,1.66463538565988,NaN,0.5824676277538,-0.582467627753195,-1.28234580162794,0.526207059135112,-0.623541521854665,-0.26318267025414,2.56498358775492,2.10779245503284,2.82117269146653,0.619750377853767,0.269598972976433,0.269598972976936,-1.91708670041251,0.372187134144944,-1.67566904420081,-1.07683749544101,-0.79418141127981,-1.47722797001193,0.713807329628348,-0.350151121366399,-0.350151121364819,NaN,0.989576607226607,-1.49732898101366
363.52,-0.28759735847561,0.963835886682106,0.781133504696655,1.58320653606087,1.07262884499731,1.07262884499875,NaN,-0.249728861514358,-0.12892159582539,-0.29635215450091,-1.87203756316052,-0.296352154503447,1.21573136746492,NaN,NaN,-1.11613369760023,NaN,-0.787592690593435,NaN,-0.342040678252898,NaN,0.155309060076934,NaN,NaN,NaN,1.65292268314917,NaN,0.571192131063937,-0.571192131063343,-1.27522710375941,0.56114057570552,-0.645145801313345,-0.246405162614136,2.59997589445576,2.11671272602467,2.84968664266308,0.61969398780929,0.308135036313834,0.30813503631433,-1.92673465057846,0.435273768722242,-1.66015226013859,-1.05840020715763,-0.768933240032742,-1.44521431787734,0.706090540894598,-0.315677322054276,-0.315677322052698,NaN,0.999152244864179,-1.53380047457415
363.6224,-0.28998957044391,0.944072918177259,0.751386302396489,1.58164217780909,1.06823225275465,1.0682322527561,NaN,-0.234834049672298,-0.122469463018806,-0.284069580428658,-1.89288330086577,-0.28406958043118,1.20158152793245,NaN,NaN,-1.12188165848867,NaN,-0.775738674859355,NaN,-0.373508416813319,NaN,0.185770137325503,NaN,NaN,NaN,1.63954340843562,NaN,0.560220932205681,-0.5602209322051,-1.26824400452815,0.596235569291418,-0.666501781876901,-0.22894758643553,2.63401731435505,2.12363003125197,2.87654050491952,0.619108138532196,0.345050082987925,0.345050082988415,-1.93502252980087,0.497327485610453,-1.64374749836885,-1.03844024240255,-0.743046528690857,-1.41139130198425,0.696471119570018,-0.281220005936739,-0.281220005935162,NaN,1.0075607217416,-1.57021791375163
363.7248,-0.292481881283117,0.92480223910938,0.722115583609889,1.57854046522383,1.06410375924217,1.06410375924363,NaN,-0.219992901973352,-0.116083405623775,-0.271884601489088,-1.91334500499667,-0.271884601491591,1.18688667990768,NaN,NaN,-1.12711756594108,NaN,-0.763850644254697,NaN,-0.40466706830624,NaN,0.215990852529577,NaN,NaN,NaN,1.62456711163434,NaN,0.549615709215823,-0.54961570921525,-1.26138889598313,0.631455974751801,-0.687591383629132,-0.210834572945492,2.66706412843825,2.12852852280591,2.90169628844138,0.618028819468798,0.380320601029352,0.380320601029834,-1.94197882307419,0.558264169940531,-1.62651473034647,-1.0170594743922,-0.71655734922898,-1.37587614039314,0.684980323394385,-0.246879700129298,-0.246879700127725,NaN,1.01479733327936,-1.60649506266431
363.8272,-0.295086388920947,0.906083933667886,0.693379700838277,1.57386597499521,1.06028838410649,1.06028838410797,NaN,-0.205167222435878,-0.109733193489023,-0.259835782257202,-1.93336179915898,-0.259835782259681,1.17164801555762,NaN,NaN,-1.13183762393315,NaN,-0.751958427624246,NaN,-0.435441427753623,NaN,0.245921629614456,NaN,NaN,NaN,1.60806755819586,NaN,0.539436572816123,-0.539436572815559,-1.2546506461554,0.666765125190797,-0.708396399351529,-0.192091466097712,2.6990746405418,2.13139881155494,2.9251206400923,0.616491487281409,0.413929787395516,0.413929787395991,-1.94763281905678,0.618003377090292,-1.60851325504785,-0.994361348319434,-0.689503313713276,-1.33878842727792,0.67165862053832,-0.212758536014545,-0.212758536012972,NaN,1.02086047108901,-1.64254028725614
363.9296,-0.297813883409841,0.887974801372063,0.665234887467622,1.56758535278867,1.05683214276895,1.05683214277044,NaN,-0.190321072644314,-0.103389732999585,-0.247962225885857,-1.95287414138716,-0.247962225888312,1.15586714215579,NaN,NaN,-1.13603948166008,NaN,-0.740089120335273,NaN,-0.46575884998012,NaN,0.275514623772797,NaN,NaN,NaN,1.59012243193695,NaN,0.529741672237473,-0.529741672236921,-1.24801475129758,0.702125678781526,-0.728898510466115,-0.172744463623207,2.73000915679938,2.13223794546679,2.94678481837994,0.614530803670739,0.445867431475488,0.445867431475955,-1.95201449278767,0.676468464520388,-1.58980153596772,-0.970450123824432,-0.661923510071303,-1.30024937897847,0.656555351412856,-0.178959690127469,-0.178959690125897,NaN,1.02575150045128,-1.67825717345791
364.032,-0.300673871204014,0.870528296147741,0.637735138068997,1.55966744924675,1.05378167215409,1.05378167215559,NaN,-0.175421061817905,-0.0970252604994244,-0.236303404669157,-1.97182410399933,-0.2363034046716,1.1395460924354,NaN,NaN,-1.13972239767903,NaN,-0.728267178592305,NaN,-0.495549517880182,NaN,0.304723962089166,NaN,NaN,NaN,1.57081302757952,NaN,0.520586815222114,-0.520586815221577,-1.24146351347529,0.737499545027082,-0.749079292873908,-0.152820741467673,2.75982993358939,2.13104934911119,2.96666462729323,0.612180425751873,0.476129745027374,0.476129745027832,-1.955154439375,0.733586746473795,-1.57043707759524,-0.945430170834391,-0.633858421581345,-1.26038112116699,0.639728341735607,-0.145586789096859,-0.145586789095288,NaN,1.02947464154019,-1.71354518784732
364.1344,-0.303674596504688,0.85379447209567,0.610932102286083,1.55008345528981,1.05118383134873,1.05118383135024,NaN,-0.16043659381274,-0.090613515264929,-0.224898961739358,-1.99015564770543,-0.224898961741779,1.1226873221809,NaN,NaN,-1.14288738165178,NaN,-0.716514528851145,NaN,-0.524746710046977,NaN,0.333505980448819,NaN,NaN,NaN,1.55022391983265,NaN,0.512025086391298,-0.512025086390772,-1.2349762362894,0.772847827159897,-0.768920224662229,-0.132348556440153,2.78850112234145,2.12784272889737,2.98474033075334,0.609472850129225,0.504719138398861,0.504719138399313,-1.95708384474897,0.789289659109705,-1.55047633301981,-0.919405314636749,-0.605349804796156,-1.21930599862833,0.621243460203404,-0.112743283371692,-0.112743283370122,NaN,1.03203687048192,-1.74830038649036
364.2368,-0.306823056637595,0.837819930282962,0.584874989942534,1.53880703369649,1.0490852739107,1.04908527391223,NaN,-0.145340070853494,-0.0841298926107371,-0.213788489364787,-2.0078148980964,-0.213788489367201,1.10529368823547,NaN,NaN,-1.1455373011837,NaN,-0.704850686186998,NaN,-0.553287065899391,NaN,0.361819462834796,NaN,NaN,NaN,1.52844259253847,NaN,0.504106452385575,-0.50410645238506,-1.22852943024406,0.808130786388976,-0.788402701040543,-0.111357327495603,2.81598873253142,2.12263394948189,3.00099656505848,0.606439304339576,0.531643942664768,0.531643942665212,-1.95783448580308,0.843512924088475,-1.52997464006283,-0.892478221342434,-0.576440516494789,-1.1771458938585,0.601174110251374,-0.0805317944203925,-0.0805317944188255,NaN,1.03344784279176,-1.78241617622841
364.3392,-0.310125013041997,0.822647765163133,0.559610482933929,1.5258144439359,1.04753198837181,1.04753198837334,NaN,-0.130107063026609,-0.0775515816686129,-0.203011296692719,-2.02475042744313,-0.203011296695106,1.08736839394598,NaN,NaN,-1.1476769563242,NaN,-0.693292887264928,NaN,-0.581110846505012,NaN,0.389625885171298,NaN,NaN,NaN,1.50555902104422,NaN,0.496877350384951,-0.496877350384445,-1.22209702280763,0.843307820167769,-0.807508052369043,-0.08987770063047,2.8422606119278,2.11544488720822,3.01542225162595,0.603109679216671,0.556918076174096,0.556918076174532,-1.95743877086803,0.896196710402281,-1.50898619641286,-0.864749825353746,-0.547174301297821,-1.13402156272193,0.579600646099146,-0.0490534334048452,-0.0490534334032811,NaN,1.03371983214658,-1.81578413342845
364.4416,-0.313585002510232,0.808317511500886,0.535182647363263,1.51108465925978,1.04656880749403,1.04656880749557,NaN,-0.114716455358537,-0.0708576942193942,-0.192606181556089,-2.04091353674163,-0.192606181558464,1.0689148966327,NaN,NaN,-1.14931313283664,NaN,-0.681856246817886,NaN,-0.608162189406524,NaN,0.416889659702525,NaN,NaN,NaN,1.48166522007103,NaN,0.490380269341827,-0.490380269341333,-1.21565057453328,0.878337440157474,-0.826217557854978,-0.0679416067532101,2.86728642401348,2.10630326501538,3.02801049847693,0.599512499140509,0.580560657830739,0.580560657831167,-1.95592983344656,0.947285797989946,-1.48756408466216,-0.836318810293339,-0.517595568818281,-1.09005201466532,0.556609713641791,-0.0184070947721567,-0.0184070947705976,NaN,1.03286767598988,-1.8482948760988
364.544,-0.317206354571518,0.794865091186834,0.511632835355425,1.49459947996735,1.04623889697326,1.04623889697481,NaN,-0.0991505817273948,-0.0640293911111857,-0.182611217173559,-2.05625852509893,-0.18261121717592,1.04993678971723,NaN,NaN,-1.15045463991151,NaN,-0.670553935585021,NaN,-0.634389354553023,NaN,0.443578368869884,NaN,NaN,NaN,1.45685478764031,NaN,0.484653339421408,-0.484653339420927,-1.20915950718692,0.913177237229256,-0.844512452227676,-0.0455823275004573,2.89103760065313,2.0952424724,3.03875847720731,0.595674922477611,0.602595582784529,0.602595582784948,-1.95334167534153,0.996729740813865,-1.46576034447873,-0.807281154553658,-0.487749193663536,-1.04535396726797,0.532293536009819,0.0113112574408893,0.0113112574424432,NaN,1.03090872397269,-1.87983896304546
364.6464,-0.320991219782031,0.782322758016228,0.488999566149949,1.47634365182931,1.04658324412119,1.04658324412275,NaN,-0.0833953492727282,-0.0570500091959352,-0.173063558389322,-2.07074292782232,-0.173063558391666,1.03043768471728,NaN,NaN,-1.1511123325463,NaN,-0.659397368773775,NaN,-0.659744957114144,NaN,0.469662971964811,NaN,NaN,NaN,1.43122248053331,NaN,0.479729943597249,-0.479729943596777,-1.20259135129651,0.947783822983646,-0.862373924445549,-0.0228345836745147,2.91348725468859,2.08230137298484,3.04766726621008,0.591622760242528,0.623051087154506,0.623051087154915,-1.94970934239802,1.04448302465963,-1.44362607782729,-0.777729749326856,-0.457680364414201,-1.00004139763898,0.506749178079262,0.0400092862143342,0.040009286215882,NaN,1.02786278629033,-1.9103077788784
364.7488,-0.324940610938076,0.770719040671196,0.467318383443884,1.45630499573866,1.0476401618402,1.04764016184177,NaN,-0.0674403499562539,-0.0499051846038833,-0.163999267142471,-2.08432770519685,-0.163999267144797,1.01042111623851,NaN,NaN,-1.15129912433669,NaN,-0.648396399994953,NaN,-0.684186184911077,NaN,0.495117969347141,NaN,NaN,NaN,1.40486384243176,NaN,0.47563836309842,-0.475638363097963,-1.19591201860872,0.982112740314243,-0.87978310315172,0.000265351254091093,2.93461004201176,2.06752409921248,3.05474165273097,0.587380508577164,0.641959322537272,0.641959322537673,-1.94506911604197,1.09050521784045,-1.42121157197341,-0.747754094987004,-0.427434494111921,-0.954225203447491,0.480077821756228,0.0675989411876126,0.0675989411891531,NaN,1.02375207286503,-1.93959437302543
364.8512,-0.329054458202591,0.760078688756951,0.446621693672886,1.43447454394263,1.04944480479708,1.04944480479865,NaN,-0.0512789526009412,-0.0425829643520736,-0.155453154571491,-2.09697737513267,-0.15545315457379,0.989890483349744,NaN,NaN,-1.1510300016774,NaN,-0.637559524957899,NaN,-0.707675000598065,NaN,0.519921518761848,NaN,NaN,NaN,1.37787488286825,NaN,0.472401464713271,-0.472401464712825,-1.18908609995114,1.01611834502952,-0.896721023972669,0.0236795241909476,2.95438196864282,2.05095983154343,3.05998988936862,0.582971399280809,0.659355945476266,0.659355945476656,-1.93945870781255,1.13476111306617,-1.39856642878864,-0.717440076364294,-0.397057189619544,-0.908012972575777,0.452384068388078,0.0939970673520273,0.0939970673535594,NaN,1.01860111168282,-1.96759424356465
364.9536,-0.333331680419843,0.75042263009972,0.42693859217105,1.41084667703673,1.05202869260477,1.05202869260635,NaN,-0.0349083706868219,-0.0350739009693683,-0.147458635988302,-2.10866009864465,-0.147458635990578,0.968849034857833,NaN,NaN,-1.15032203992428,NaN,-0.626894095476712,NaN,-0.730178323984556,NaN,0.544055507729585,NaN,NaN,NaN,1.35035178915323,NaN,0.47003643081785,-0.470036430817418,-1.18207718286009,1.04975367159735,-0.913168582730124,0.0473681752220006,2.97278014700301,2.03266256177205,3.06342340770163,0.578417466046893,0.675279722276244,0.675279722276626,-1.932917444255,1.17722085226785,-1.37573969156645,-0.686869806793711,-0.366594265113202,-0.861508843316865,0.423775268715627,0.119125950639742,0.119125950641262,NaN,1.01243664210761,-1.99420606839365
365.056,-0.337770274094347,0.741767946210356,0.408294683772174,1.38541927139347,1.0554192606304,1.05541926063199,NaN,-0.0183297011370756,-0.0273711282717173,-0.140047590918094,-2.11934773900195,-0.140047590920352,0.94729990431039,NaN,NaN,-1.1491944039472,NaN,-0.616406529655963,NaN,-0.751668181448738,NaN,0.567505590431901,NaN,NaN,NaN,1.32239064754787,NaN,0.468554525900167,-0.468554525899746,-1.17484817808414,1.0829703011016,-0.92910648807497,0.0712896148479738,2.98978251481229,2.0126908453081,3.06505650070232,0.573739608056709,0.689772155924941,0.689772155925314,-1.92548642490823,1.21786001774392,-1.35277995945406,-0.656121520044056,-0.336091774842379,-0.814813420999542,0.394360873045429,0.142913790287663,0.142913790289173,NaN,1.00528749168494,-2.01933237916129
365.1584,-0.342367416851896,0.734127865660544,0.390711902793114,1.35819387757237,1.05963947843695,1.05963947843854,NaN,-0.00154792786737745,-0.019470418995947,-0.133250216782874,-2.12901591932879,-0.133250216785103,0.925246192899722,NaN,NaN,-1.14766831253371,NaN,-0.606102495678047,NaN,-0.772121809193075,NaN,0.590261199426988,NaN,NaN,NaN,1.29408715582927,NaN,0.467960888306844,-0.467960888306435,-1.16736164367522,1.11571824705057,-0.944515228001139,0.095400104878145,3.0053675404209,1.99110754996372,3.06490599407787,0.568957628525622,0.702877141165566,0.702877141165931,-1.91720863569543,1.25665967398363,-1.32973547881335,-0.625269485990843,-0.305596035342466,-0.768023710998866,0.364251798033627,0.165295093351705,0.165295093353201,NaN,0.997184454859064,-2.04288016258424
365.2608,-0.347119578321515,0.727511765769454,0.37420833156764,1.32917594023718,1.0647075614348,1.06470756143639,NaN,0.0154281089704773,-0.0113702308091693,-0.127094870191124,-2.13764409321827,-0.127094870193326,0.902691083211215,NaN,NaN,-1.14576696269294,NaN,-0.595987055053009,NaN,-0.791521706869366,NaN,0.612315539750397,NaN,NaN,NaN,1.26553633264418,NaN,0.468254336915933,-0.468254336915534,-1.15958010278448,1.14794586414549,-0.959375053969869,0.119653744448375,3.01951394502766,1.96797960437508,3.06299092902345,0.564090240437874,0.714640645339728,0.714640645340087,-1.90812901659992,1.29360636196476,-1.30665420974587,-0.594383935314188,-0.275153618890541,-0.721233043698105,0.333559818187751,0.186210993981426,0.186210993982911,NaN,0.988160189311693,-2.06476137491819
365.3632,-0.352022631406203,0.721925169986451,0.35879801272092,1.29837505049683,1.07063676909489,1.07063676909649,NaN,0.0325857656585201,-0.00307175152974445,-0.121607900986626,-2.14521562295339,-0.121607900988801,0.879637958882371,NaN,NaN,-1.14351542736647,NaN,-0.586064767192538,NaN,-0.809855648407971,NaN,0.633665563731321,NaN,NaN,NaN,1.23683225217946,NaN,0.469427194857665,-0.469427194857272,-1.1514663605057,1.17959977283064,-0.973665973371588,0.144002366079952,3.03220046630658,1.94337774103546,3.05933227070043,0.559155050693143,0.725110410213811,0.725110410214163,-1.89829450618652,1.32869206631431,-1.28358388123778,-0.563530995680897,-0.244811323261354,-0.674530996646708,0.302396995905197,0.205609507239786,0.205609507241259,NaN,0.978249130004365,-2.08489336905176
365.4656,-0.357071958883698,0.717369735306816,0.34449075617556,1.26580520879184,1.0774352595678,1.07743525956941,NaN,0.0499086550965388,0.00542104992232779,-0.116813490604176,-2.15171784874923,-0.116813490606325,0.856090515171497,NaN,NaN,-1.14094054415739,NaN,-0.576339766557835,NaN,-0.82711666035108,NaN,0.65431191679591,NaN,NaN,NaN,1.20806782909224,NaN,0.471465147290129,-0.471465147289741,-1.14298382764619,1.21062479005802,-0.987367739179152,0.168395446234804,3.04340567182256,1.91737622606264,3.05395264423372,0.55416854299847,0.734335674409915,0.73433567441026,-1.88775409069756,1.36191417437574,-1.26057205381737,-0.532772653016109,-0.214616137492784,-0.628003338159906,0.270875154305974,0.223445731673901,0.223445731675365,NaN,0.967487409874047,-2.10319925146823
365.568,-0.362262552545044,0.713843233598028,0.331291950573242,1.23148507684863,1.0851059683959,1.08510596839752,NaN,0.0673767086344374,0.0141013689476643,-0.112733505124075,-2.1571421347553,-0.112733505126198,0.832052862914412,NaN,NaN,-1.13807080784698,NaN,-0.566815827791891,NaN,-0.843302974751051,NaN,0.674258845225347,NaN,NaN,NaN,1.17933465652051,NaN,0.474347150994941,-0.47434715099456,-1.13409685515547,1.24096386349593,-1.00045983306874,0.192780032515085,3.05310781517204,1.89005257213297,3.04687609158346,0.549146076147819,0.74236692145592,0.742366921456258,-1.87655886972982,1.39327543052528,-1.23766619982375,-0.502166750107422,-0.184615221692733,-0.581732014348547,0.239105382758867,0.239682013502788,0.239682013504241,NaN,0.955912780522292,-2.11960819706953
365.6704,-0.367589104698858,0.711339535129397,0.319202390216689,1.19543820836575,1.09364649610119,1.09364649610282,NaN,0.0849662442507566,0.0229595140394695,-0.109387367425853,-2.16148388409185,-0.109387367427953,0.807529637692145,NaN,NaN,-1.13493627233513,NaN,-0.557496435850601,NaN,-0.85841795923177,NaN,0.6935140649585,NaN,NaN,NaN,1.15072288443325,NaN,0.47804539901728,-0.478045399016903,-1.12477107657741,1.27055801486773,-1.0129214461264,0.21710068919758,3.06128472104138,1.86148723715051,3.03812784110147,0.544101902850542,0.749255660257445,0.749255660257775,-1.86476213147937,1.42278387706487,-1.21491379801723,-0.471767025157897,-0.154855906944479,-0.535795185549446,0.207197559103034,0.254288078983724,0.254288078985169,NaN,0.943564534614884,-2.13405574601704
365.7728,-0.373046093805375,0.709848601638992,0.308218124178405,1.15769325825313,1.10304900761979,1.10304900762143,NaN,0.102650050941885,0.0319828652954915,-0.106791946206593,-2.16474252296831,-0.106791946208669,0.782526124376819,NaN,NaN,-1.13156845788497,NaN,-0.548384869110365,NaN,-0.872470026596833,NaN,0.712088598600077,NaN,NaN,NaN,1.12232112127068,NaN,0.482525329296399,-0.482525329296023,-1.11497375062136,1.29934630542189,-1.02473146662352,0.241299464849504,3.0679136902574,1.83176331638032,3.02773408752961,0.539049204028071,0.755054238203265,0.755054238203589,-1.85241941918519,1.45045276946407,-1.19236242986412,-0.441623181172335,-0.125385706849827,-0.490267298648783,0.175259876571308,0.267241134509947,0.26724113451138,NaN,0.93048343053484,-2.14648409260966
365.8752,-0.378627866133292,0.709356492822283,0.29833032950865,1.11828417170353,1.1133001524868,1.11330015248845,NaN,0.120397497296557,0.0411558467302822,-0.104961458017625,-2.16692146149494,-0.104961458019666,0.757048399762261,NaN,NaN,-1.1280002527585,NaN,-0.539484287689597,NaN,-0.885472528553467,NaN,0.729996590490224,NaN,NaN,NaN,1.09421634284569,NaN,0.487745665139896,-0.487745665139521,-1.10467409533428,1.32726583633751,-1.0358684826353,0.265315888426072,3.07297142581491,1.80096623721293,3.0157217877257,0.534000130843065,0.759815678134155,0.759815678134472,-1.83958857101572,1.47630045704741,-1.17005986411123,-0.411780972655445,-0.09625232297829,-0.445219172273193,0.143398372778138,0.27852593216877,0.278525932170193,NaN,0.916711614396891,-2.15684236254516
365.9776,-0.384328714209731,0.709845386037265,0.289525206998827,1.07725035292185,1.1243810153295,1.12438101533117,NaN,0.138174666646321,0.0504599148223149,-0.10390738234195,-2.16802804122934,-0.103907382343957,0.731103486326681,NaN,NaN,-1.12426580264315,NaN,-0.53079781333301,NaN,-0.897443636994821,NaN,0.747255107818657,NaN,NaN,NaN,1.06649379838573,NaN,0.49365848209585,-0.49365848209547,-1.09384360967044,1.35425178507781,-1.04631079697688,0.289086999789231,3.07643398514636,1.76918346117308,3.00211847805208,0.528965849136196,0.763593530068251,0.763593530068561,-1.8263297279567,1.50035022860692,-1.14805412468347,-0.382282304128244,-0.0675036269934005,-0.400718079710471,0.111716466326661,0.288134803641858,0.28813480364327,NaN,0.902292537860382,-2.16508686585196
366.08,-0.390142951087188,0.711293604749978,0.281783895277263,1.03463681332156,1.13626710728605,1.13626710728773,NaN,0.155944514891539,0.059873562724615,-0.103638392874331,-2.16807347672615,-0.103638392876306,0.704699503262164,NaN,NaN,-1.12040039034381,NaN,-0.522328592240103,NaN,-0.908406212823365,NaN,0.763883931759534,NaN,NaN,NaN,1.03923691309164,NaN,0.50020929930353,-0.500209299303148,-1.08245638055011,1.38023746848146,-1.05603644560481,0.312547415686904,3.07827676564146,1.73650419263897,2.98695211797057,0.523956581377591,0.766441734645055,0.766441734645359,-1.81270531467785,1.52263012864976,-1.12639354439968,-0.3531653419687,-0.0391876101106998,-0.356827825593798,0.0803145095408117,0.296067668206543,0.296067668207949,NaN,0.887270878203012,-2.17118130712853
366.1824,-0.396064978487342,0.713675650343538,0.275082399435842,0.990494297510648,1.14892840584498,1.14892840584667,NaN,0.173667042451682,0.0693723354989518,-0.104160307935022,-2.16707279384195,-0.104160307936969,0.677845802028298,NaN,NaN,-1.11644031049357,NaN,-0.514079836800837,NaN,-0.91838766185749,NaN,0.779905337125697,NaN,NaN,NaN,1.01252719298878,NaN,0.507337195451405,-0.507337195451022,-1.0704893685027,1.40515442693941,-1.06502321651204,0.335629427571758,3.07847453661964,1.7030190942713,2.97025096890966,0.518981639548901,0.768414499372373,0.768414499372672,-1.79877999599969,1.54317274907211,-1.10512680512234,-0.324464634954427,-0.0113523008275745,-0.31360881251764,0.0492893647251868,0.302332013607246,0.302332013608639,NaN,0.871692462948457,-2.17509693614805
366.2848,-0.402089348386319,0.716962238834458,0.269391536922851,0.944879381599132,1.16232944266106,1.16232944266276,NaN,0.191299471158038,0.0789288513303035,-0.105476062085305,-2.16504476267448,-0.105476062087224,0.650553080375679,NaN,NaN,-1.11242274100864,NaN,-0.506054843878833,NaN,-0.927419780191401,NaN,0.795343852631183,NaN,NaN,NaN,0.98644413857767,NaN,0.514974953617555,-0.514974953617172,-1.05792265928536,1.42893253100267,-1.07324867236029,0.358263127731546,3.07700153051254,1.66882001240912,2.95204351880184,0.514049446519084,0.769566190387448,0.769566190387742,-1.78462060925747,1.56201499983146,-1.08430296322578,-0.296211234665981,0.0159543379246997,-0.271118095650646,0.0187340088234755,0.306942841402211,0.306942841403596,NaN,0.855604187190045,-2.17681263433143
366.3872,-0.408210818433238,0.721120352250785,0.264676912779699,0.897854534109678,1.17642943025218,1.17642943025389,NaN,0.208796422361493,0.0885128298833145,-0.107585698852942,-2.16201181987384,-0.107585698854829,0.622833475173792,NaN,NaN,-1.10838561209074,NaN,-0.498256990570689,NaN,-0.935538592149029,NaN,0.81022599193823,NaN,NaN,NaN,0.961065173472643,NaN,0.523049241074264,-0.523049241073881,-1.04473967350426,1.45150011053518,-1.0806901767728,0.380376564041624,3.07383158825492,1.63399971371004,2.9323584494988,0.509167554170459,0.769951243349239,0.769951243349527,-1.77029607775695,1.57919786557533,-1.0639714625955,-0.268432820202085,0.0426845158649972,-0.229409438985416,-0.0112628311695753,0.309922569669681,0.309922569671053,NaN,0.839053909700838,-2.17631494940909
366.4896,-0.414424399064598,0.72611331347551,0.260898939247908,0.849488127816953,1.19118241408954,1.19118241409126,NaN,0.226110103305126,0.098091139395079,-0.110486380905069,-2.15799997420621,-0.11048638090692,0.594700638230182,NaN,NaN,-1.10436747651366,NaN,-0.490689715359459,NaN,-0.94278418123066,NaN,0.824579954195339,NaN,NaN,NaN,0.936465593834788,NaN,0.531480827627829,-0.531480827627449,-1.03092733946122,1.4727841037527,-1.0873249188126,0.40189592869104,3.06893833337294,1.59865162587678,2.91122462594745,0.50434267171502,0.769624095707687,0.769624095707967,-1.75587730668259,1.59476615543227,-1.04418213363216,-0.241153847466858,0.0687907159560963,-0.18853339858637,-0.0406170124313238,0.311300887422332,0.311300887423695,NaN,0.822090326566969,-2.17359810067103
366.592,-0.420725389296141,0.731900886807302,0.258012907684226,0.799854393568691,1.20653744081849,1.20653744082022,NaN,0.243190516512001,0.107627880118563,-0.114172413767425,-2.15303868841951,-0.114172413769239,0.566169799918439,NaN,NaN,-1.1004073887376,NaN,-0.48335649907923,NaN,-0.949200514142036,NaN,0.838435303823951,NaN,NaN,NaN,0.912718539579504,NaN,0.540184841772251,-0.540184841771875,-1.01647624097652,1.49271022549487,-1.09312993022224,0.422745789256759,3.0622953460444,1.56286957031029,2.88867108128714,0.499580710610035,0.768639138908205,0.768639138908476,-1.74143705139874,1.6087682473762,-1.02498516815127,-0.214395742018119,0.0942257891772524,-0.148537450420167,-0.0692492829230545,0.311114553765067,0.311114553766416,NaN,0.804762828774075,-2.16866397513752
366.6944,-0.427109401236309,0.738439403703134,0.255969112012262,0.749033313656483,1.22243874589708,1.22243874589882,NaN,0.259985705944292,0.117084516820658,-0.118635280628513,-2.1471607363704,-0.118635280630304,0.537257823721321,NaN,NaN,-1.09654479723391,NaN,-0.476260853837998,NaN,-0.954835260050267,NaN,0.851822642138783,NaN,NaN,NaN,0.889894976663985,NaN,0.549071058602613,-0.549071058602241,-1.00138074522715,1.51120315914638,-1.09808209660664,0.442849366927885,3.05387632371129,1.52674748124165,2.86472698591388,0.494886839570764,0.767050684767434,0.767050684767696,-1.72704974447718,1.62125582210228,-1.00643105917534,-0.188177137943123,0.118943054546148,-0.109466158716266,-0.0970855645516835,0.309407138457404,0.309407138458735,NaN,0.787121350787472,-2.16152212204596
366.7968,-0.433572375878985,0.745681914489912,0.254713020500978,0.69711045838416,1.2388259770763,1.23882597707805,NaN,0.276442048837548,0.126420061595719,-0.123863683958399,-2.14040205179394,-0.123863683960148,0.507983252773231,NaN,NaN,-1.09281944106857,NaN,-0.469406306803811,NaN,-0.959739603635344,NaN,0.86477328276933,NaN,NaN,NaN,0.868063666653497,NaN,0.558044211290571,-0.558044211290207,-0.985639107199551,1.52818678567761,-1.10215817650146,0.462128858638056,3.04365523796601,1.49037911678593,2.83942160992392,0.490265532674105,0.764912935289898,0.764912935290152,-1.71279126484985,1.63228357344476,-0.988570494921237,-0.16251414299648,0.142896423732664,-0.0713613549941846,-0.124057219202635,0.306228704762578,0.306228704763898,NaN,0.769216222170558,-2.1521897364991
366.8992,-0.440110593488398,0.753578367250703,0.254185491955397,0.644176769174112,1.25563447153754,1.25563447153932,NaN,0.292504593527452,0.135591297385891,-0.129843588974175,-2.13280159362771,-0.129843588975899,0.478366346102084,NaN,NaN,-1.08927123241176,NaN,-0.462796351784366,NaN,-0.963968044814223,NaN,0.877318941135885,NaN,NaN,NaN,0.847291101312249,NaN,0.567004325807989,-0.567004325807634,-0.969253546209945,1.54358446980499,-1.1053348499492,0.48050579669776,3.03160651556523,1.45385776956939,2.81278430191085,0.485720591998317,0.762279942408709,0.762279942408954,-1.69873862804154,1.64190887891743,-0.971454193413272,-0.137420594528163,0.166040567488103,-0.0342622842520588,-0.150101302590889,0.301635434355222,0.301635434356528,NaN,0.751098035208958,-2.14069161141673
367.0016,-0.446720681284273,0.762075810732433,0.254323027720056,0.590328284903971,1.27279559338321,1.272795593385,NaN,0.308117428770018,0.144553026001903,-0.136558269279846,-2.12440123427246,-0.136558269281529,0.448429095365846,NaN,NaN,-1.08594011372933,NaN,-0.456434351381691,NaN,-0.967578181094175,NaN,0.88949143783066,NaN,NaN,NaN,0.82764140459982,NaN,0.57584709068218,-0.575847090681836,-0.952230292248348,1.55731941333603,-1.10758880667779,0.497901444063446,3.01770527327477,1.41727597829655,2.78484450520027,0.481255136047106,0.759205549441244,0.759205549441481,-1.68496959070191,1.65019142941152,-0.955132671657855,-0.11290827691231,0.188331124374433,0.00179430968124717,-0.175160800372454,0.295689197519797,0.295689197521088,NaN,0.732817526909964,-2.12706003503526
367.104,-0.453399618480595,0.771118612617156,0.255058048110751,0.535665803531729,1.29023712871065,1.29023712871245,NaN,0.323224060344687,0.153258325417561,-0.143988362762027,-2.11524565102823,-0.143988362763679,0.418195205947918,NaN,NaN,-1.08286589260334,NaN,-0.450323392590959,NaN,-0.970630475830449,NaN,0.901322402453415,NaN,NaN,NaN,0.809176231121765,NaN,0.584464275541299,-0.584464275540965,-0.934579602506392,1.56931506471046,-1.10889686293885,0.514237227142092,3.00192762175966,1.38072523593353,2.75563181979522,0.476871559652919,0.755743316100472,0.755743316100702,-1.67156219222717,1.65719283903319,-0.939655962821861,-0.088987096955799,0.209724935478226,0.0367741535504569,-0.199184833626962,0.288457081590157,0.288457081591433,NaN,0.714425459038494,-2.11133462148417
367.2064,-0.460144736630078,0.780648686847892,0.256319188435488,0.480294472391459,1.30788373506464,1.30788373506645,NaN,0.3377677776493,0.161658809105055,-0.152111949107899,-2.105382195215,-0.152111949109522,0.38769002806205,NaN,NaN,-1.08008806489113,NaN,-0.444466109762407,NaN,-0.973188016813936,NaN,0.912842962191869,NaN,NaN,NaN,0.791954690747146,NaN,0.592744202471863,-0.592744202471536,-0.916315751141407,1.57949556280309,-1.10923608832207,0.529435204455009,2.98425103385581,1.34429569005921,2.7251761045933,0.472571479599434,0.751946433113011,0.751946433113235,-1.65859426988903,1.66297625620052,-0.925073307749425,-0.0656652364095569,0.230180284566716,0.0706454388867259,-0.222128830329878,0.280010892133216,0.28001089213448,NaN,0.695972482668047,-2.09356208007047
367.3088,-0.466953712956519,0.790605731963288,0.258031620993596,0.424323303835319,1.32565744619612,1.32565744619794,NaN,0.351692010625149,0.169704890386444,-0.160904654113693,-2.09486072570166,-0.160904654115279,0.356940437102003,NaN,NaN,-1.07764563668553,NaN,-0.438864488180282,NaN,-0.975316268127174,NaN,0.92408340767613,NaN,NaN,NaN,0.776033306541066,NaN,0.600572264059125,-0.60057226405881,-0.897456995032138,1.58778619836923,-1.10858393120988,0.543418565009764,2.96465475620653,1.30807583443273,2.6935076049652,0.468355677242499,0.747867629475994,0.747867629476211,-1.64614297100148,1.66760598130318,-0.911432841096878,-0.0429493051654603,0.249657129610431,0.103378810591157,-0.243954672612236,0.270426633730866,0.270426633732114,NaN,0.677508983684511,-2.07379594212315
367.4112,-0.473824553499441,0.800927484719289,0.260117413894869,0.367864613649899,1.34347823637557,1.3434782363774,NaN,0.364940689183863,0.177346061640315,-0.170339774106179,-2.0837334031707,-0.170339774107737,0.325974677551811,NaN,NaN,-1.0755769513864,NaN,-0.433519657834007,NaN,-0.977082818283804,NaN,0.935072838231858,NaN,NaN,NaN,0.76146599298583,NaN,0.607831479496882,-0.607831479496579,-0.87802551565484,1.59411388694323,-1.10691833979219,0.556112152113891,2.94312023509145,1.27215219373525,2.66065708664675,0.464224039654363,0.743559070980643,0.743559070980856,-1.6342842664295,1.67114708945935,-0.898781276748339,-0.020844510247344,0.268117321835245,0.134947333377279,-0.264630830316333,0.259783974302565,0.259783974303797,NaN,0.659084907620148,-2.05209626461207
367.5136,-0.480755561426896,0.81154998628923,0.26249593085746,0.311033374607062,1.36126464593384,1.36126464593568,NaN,0.37745861170646,0.184531196161387,-0.180388407082159,-2.07205443793155,-0.180388407083692,0.294822188769425,NaN,NaN,-1.07391952564234,NaN,-0.428431690361874,NaN,-0.978557122828226,NaN,0.945838794675846,NaN,NaN,NaN,0.748304039323892,NaN,0.61440308423339,-0.614403084233099,-0.858047335894425,1.59840765215718,-1.10421787898189,0.567443010439168,2.91963153083281,1.23660900509126,2.62665596016795,0.460175495009938,0.739072247157716,0.739072247157924,-1.62309246290129,1.67366506116583,-0.887163589006297,0.000645155132441534,0.285524814124864,0.165326433080734,-0.284132486632068,0.248165702075972,0.24816570207719,NaN,0.640749562863029,-2.02852932163532
367.616,-0.48774528662732,0.822407851383432,0.265084265824528,0.253946474636655,1.37893446175412,1.37893446175597,NaN,0.389191814155668,0.191208871936889,-0.191019579661353,-2.05987977901946,-0.191019579662869,0.263513424622169,NaN,NaN,-1.07270989909143,NaN,-0.423599420870986,NaN,-0.979810230092771,NaN,0.956406889894392,NaN,NaN,NaN,0.736596093065637,NaN,0.620167152327426,-0.620167152327147,-0.837552210085986,1.60059911642801,-1.10046184415864,0.577340949999666,2.89417570651046,1.20152790107225,2.59153638838556,0.456207938957191,0.734457847818558,0.734457847818763,-1.61263971488155,1.67522542698481,-0.876622687873489,0.021516707199646,0.301845859202309,0.194493817577373,-0.302441659913213,0.235657188888518,0.235657188889719,NaN,0.622551408397803,-2.00316728564946
367.7184,-0.494792457066964,0.833434532876721,0.267797701923889,0.196721890973614,1.39640544142643,1.39640544142828,NaN,0.400087926520127,0.197327711513488,-0.2022003668603,-2.04726674985434,-0.202200366861808,0.232079671495275,NaN,NaN,-1.07198350471909,NaN,-0.419020314766384,NaN,-0.980914474758742,NaN,0.966800450111369,NaN,NaN,NaN,0.726388145584274,NaN,0.625003248641997,-0.625003248641728,-0.816573486778568,1.60062299270517,-1.09563037336534,0.585739114451773,2.86674318665889,1.16698759761996,2.55533137587647,0.452318150612703,0.729765637348038,0.729765637348242,-1.60299553931253,1.67589342888708,-0.867199090542291,0.0417679629892334,0.317049197143545,0.222429387519976,-0.319547322928023,0.222345872887962,0.222345872889151,NaN,0.604537838098725,-1.97608789256542
367.8208,-0.501895897027704,0.844562581840004,0.270550186162926,0.139477835973739,1.41359606972877,1.41359606973063,NaN,0.410096511869284,0.202836733405027,-0.213896009224652,-2.03427366969136,-0.213896009226162,0.200552865700783,NaN,NaN,-1.07177456697283,NaN,-0.414690383027315,NaN,-0.981943127182494,NaN,0.977040188155502,NaN,NaN,NaN,0.717723518852478,NaN,0.628791102692708,-0.628791102692451,-0.795147947256051,1.59841757169756,-1.08970456189036,0.592574538256263,2.83732808797215,1.13306358785445,2.51807484206839,0.448501697381302,0.725044340046773,0.725044340046977,-1.59422633557173,1.67573369322279,-0.858930593290869,0.0613973404853376,0.331106235751654,0.249115151254754,-0.335445513794673,0.208320770780144,0.208320770781315,NaN,0.586754973623303,-1.94737407856895
367.9232,-0.509054437646938,0.855723905122007,0.273254813678135,0.082331951559414,1.43042633370556,1.43042633370743,NaN,0.419169391784715,0.207685713157583,-0.226070033452236,-2.02095950470373,-0.226070033453754,0.168965411313196,NaN,NaN,-1.07211602976915,NaN,-0.410604134021733,NaN,-0.982969992971624,NaN,0.987143937123957,NaN,NaN,NaN,0.710642847309439,NaN,0.631411291951735,-0.631411291951491,-0.773315622268367,1.59392520101368,-1.08266658251359,0.597788681499894,2.80592853107575,1.09982784393944,2.47980168542073,0.444752830759554,0.720341550947903,0.720341550948109,-1.586394911388,1.67480990797889,-0.851851947362799,0.0804036778622116,0.343991232091124,0.274535158483507,-0.350139424888518,0.193672027250189,0.193672027251346,NaN,0.569247473403013,-1.91711357428575
368.0256,-0.516266824765988,0.86685002249814,0.275824315878142,0.0254006008440177,1.4468184939711,1.44681849397297,NaN,0.427260962313902,0.211825551362381,-0.238684380673598,-2.00738355618057,-0.238684380675122,0.13734999918935,NaN,NaN,-1.07303950511519,NaN,-0.406754547305028,NaN,-0.984068966775457,NaN,0.997126463011666,NaN,NaN,NaN,0.705184046968262,NaN,0.632745919734187,-0.632745919733956,-0.751119583270591,1.58709275177184,-1.07449980975836,0.601327938356953,2.77254694787901,1.06734853467711,2.44054785247993,0.441064382011018,0.71570367852644,0.715703678526649,-1.57956001744333,1.67318450400186,-0.845994541546924,0.0987860778826701,0.355681482736333,0.298675462760892,-0.363639451345268,0.178490504779252,0.178490504780394,NaN,0.552058354598998,-1.88539844982197
368.128,-0.523531633735997,0.877872331346358,0.278171546882669,-0.0312017406568312,1.4626978194634,1.46269781946527,NaN,0.434328499520899,0.215208640884723,-0.251699546769628,-1.99360516356801,-0.251699546771157,0.105739426193652,NaN,NaN,-1.07457522418827,NaN,-0.403133058994587,NaN,-0.985313554107811,NaN,1.00699934914845,NaN,NaN,NaN,0.701382262604922,NaN,0.632679272961785,-0.632679272961567,-0.72860570127594,1.57787206438131,-1.06518894467261,0.603144112338782,2.7371903922888,1.03568977203297,2.40035042378945,0.437427671665182,0.711175908840662,0.711175908840873,-1.57377590261009,1.67091834861329,-0.841386099512774,0.11654377996079,0.366157520975275,0.321524114184395,-0.37596318288175,0.162867409605249,0.162867409606376,NaN,0.535228814815224,-1.8523246227752
368.2304,-0.530847203516608,0.888722392328224,0.280209965410065,-0.0873630168065919,1.47799324962522,1.47799324962709,NaN,0.440332449544691,0.217789223178478,-0.265074736982305,-1.97968340676336,-0.265074736983838,0.0741664165058075,NaN,NaN,-1.07675197203228,NaN,-0.399729554752057,NaN,-0.986776379332668,NaN,1.0167709250571,NaN,NaN,NaN,0.699269782087192,NaN,0.631098452114399,-0.631098452114198,-0.70582237047712,1.56622036176877,-1.05472013926423,0.603194841665668,2.69987084286396,1.00491140178508,2.35924771645214,0.433832443682725,0.706802171851417,0.70680217185163,-1.56909191030685,1.6680704627771,-0.838050406995284,0.133676058136063,0.375403309919099,0.343071174243923,-0.387135332208263,0.146893944937211,0.146893944938325,NaN,0.51879804129196,-1.81799135750029
368.3328,-0.538211593624514,0.899332241926235,0.281854113855209,-0.142974068616401,1.49263795771922,1.4926379577211,NaN,0.445236698295651,0.219523729071483,-0.278768027540713,-1.96567681394581,-0.278768027542249,0.042663456564045,NaN,NaN,-1.07959699203676,NaN,-0.39653237547609,NaN,-0.988528696085318,NaN,1.02644621243887,NaN,NaN,NaN,0.698875905634398,NaN,0.627893975419342,-0.627893975419155,-0.682820200783328,1.55210062265531,-1.04308112295971,0.601443959194479,2.66060547125808,0.975068851426307,2.31727939198807,0.430266825872435,0.702625099392935,0.702625099393149,-1.56555213113033,1.66469776997522,-0.83600708003746,0.150182138108527,0.383406423488643,0.363308741716307,-0.397187603185883,0.130660982493113,0.130660982494212,NaN,0.502803004511448,-1.78250078369781
368.4352,-0.545622553347737,0.909634719628564,0.283020096160731,-0.19792907139485,1.50656980628993,1.50656980629181,NaN,0.449008818199681,0.220371107064045,-0.292736517062781,-1.95164309044396,-0.292736517064318,0.0112626621965438,NaN,NaN,-1.08313585705294,NaN,-0.393528347928779,NaN,-0.990639911042925,NaN,1.03602687555182,NaN,NaN,NaN,0.700226758732901,NaN,0.62296036294919,-0.622960362949017,-0.659651686742619,1.53548191983432,-1.03026133711542,0.597861784144566,2.61941685103149,0.946213041760115,2.27448655527101,0.426717309601206,0.698685975986297,0.698685975986511,-1.56319511153974,1.66085488022384,-0.835271372735725,0.166061124316467,0.390158217116366,0.382230982130594,-0.406158502773877,0.11425874132579,0.114258741326876,NaN,0.487278244694916,-1.74595744574856
368.5376,-0.553077485210675,0.919563784491822,0.283626051352858,-0.252125935531467,1.51973169949593,1.5197316994978,NaN,0.451620291234839,0.220293145955748,-0.306936450063354,-1.93763887776963,-0.306936450064896,-0.0200043073649834,NaN,NaN,-1.08739231764361,NaN,-0.390702852280257,NaN,-0.993177123951158,NaN,1.04551118120527,NaN,NaN,NaN,0.703345044048654,NaN,0.616196705664445,-0.616196705664286,-0.636370856892516,1.51633973262356,-1.01625208135704,0.592425353310607,2.57633309092176,0.918390355321319,2.23091183016456,0.423168736178047,0.695024686120172,0.695024686120387,-1.56205360725339,1.65659390733241,-0.835854014456969,0.181311931020794,0.395653991471645,0.399834157000365,-0.414093096422238,0.0977764613038567,0.0977764613049345,NaN,0.472255673375892,-1.70846787088596
368.64,-0.560573387986489,0.929054799855445,0.283592619402901,-0.305466669950447,1.53207184329966,1.53207184330153,NaN,0.453046709726285,0.219254798894151,-0.321323306034206,-1.92371954249798,-0.32132330603575,-0.0511062853995884,NaN,NaN,-1.0923881448514,NaN,-0.388039930531447,NaN,-0.996204680427426,NaN,1.0548939884549,NaN,NaN,NaN,0.708249738052316,NaN,0.607507224397235,-0.607507224397091,-0.613032902105564,1.49465623001798,-1.00104666248216,0.585118602410969,2.53138788823757,0.891642640868194,2.18659939844563,0.419604276205196,0.691679658134618,0.691679658134835,-1.56215436686248,1.6519643127252,-0.837761065370271,0.195933216658423,0.3998931468485,0.41611665076296,-0.421042705560901,0.0813020663292304,0.0813020663302996,NaN,0.457764420178929,-1.67014012648622
368.7424,-0.568106777208334,0.938044784876237,0.282843401070381,-0.357857706283982,1.54354392523909,1.54354392524095,NaN,0.453267957455747,0.217224511245196,-0.335851861893293,-1.90993898684683,-0.335851861894845,-0.0820125901714956,NaN,NaN,-1.09814297974351,NaN,-0.385522429281197,NaN,-0.999783734654351,NaN,1.06416678824655,NaN,NaN,NaN,0.714955743739926,NaN,0.596801819599814,-0.596801819599685,-0.589693779634219,1.4704205106725,-0.984640528399927,0.575932506394532,2.48462051286176,0.866007234441356,2.14159499940834,0.416005395113387,0.688687799303775,0.688687799303992,-1.5635179333811,1.64701277128028,-0.840993780404056,0.209923325728302,0.402879325126217,0.431078997678246,-0.427064543714975,0.0649218237415113,0.0649218237425743,NaN,0.443830742507807,-1.63108333630171
368.8448,-0.575673596386629,0.946472651915888,0.281305414683183,-0.409210184086771,1.5541072217394,1.55410722174127,NaN,0.452268370305624,0.214174544564656,-0.350476241051255,-1.89634946552867,-0.350476241052813,-0.112692981566905,NaN,NaN,-1.10467418909115,NaN,-0.383132165538558,NaN,-1.00397182157353,NaN,1.07331779495779,NaN,NaN,NaN,0.723473508235575,NaN,0.583996605508125,-0.583996605508011,-0.566409789288351,1.44362879624386,-0.967031381518605,0.564865182996417,2.43607574673412,0.841516996963549,2.09594590721374,0.41235181062957,0.686084409911251,0.686084409911471,-1.56615845975762,1.64178306425107,-0.845548475871122,0.223280248378708,0.404620540245641,0.444723918853939,-0.43222128160713,0.0487200099599791,0.0487200099610397,NaN,0.430477985200397,-1.59140714482892
368.9472,-0.583269138641611,0.954279453650126,0.278909548349507,-0.459440199699797,1.56372663661119,1.56372663661306,NaN,0.45003687064795,0.210081280992133,-0.365149957123708,-1.88300139485766,-0.365149957125274,-0.143117585436708,NaN,NaN,-1.11199671661547,NaN,-0.380850106860506,NaN,-1.00882243691928,NaN,1.08233207528184,NaN,NaN,NaN,0.733808609715733,NaN,0.56901442213789,-0.569014422137791,-0.543237117897571,1.41428459243702,-0.94821928418122,0.551921959980527,2.38580380588022,0.818200385448644,2.04970091315351,0.408621456642274,0.683903062994568,0.683903062994789,-1.57008354622231,1.63631600874218,-0.851416402536758,0.236001611681953,0.405129298175938,0.45705638319576,-0.436580533890238,0.0327785889436803,0.0327785889447397,NaN,0.417726555233947,-1.55122114444807
369.0496,-0.590887994552488,0.961408654596291,0.275591000602835,-0.508469019707433,1.57237267756088,1.57237267756275,NaN,0.446567068013577,0.20492549200805,-0.379825954348944,-1.86994315311574,-0.37982595435052,-0.1732567921172,NaN,NaN,-1.12012292181552,NaN,-0.3786565597883,NaN,-1.01438462568546,NaN,1.09119169941105,NaN,NaN,NaN,0.745961321348304,NaN,0.551785323131501,-0.55178532313142,-0.520231353621453,1.38239883498501,-0.928206772769522,0.537115404020062,2.3338602583339,0.796081571474702,2.00291032885915,0.404790464778246,0.682175447320791,0.682175447321014,-1.57529411486301,1.63064942606331,-0.858583638843568,0.24808471193703,0.404422702208462,0.468083698720091,-0.440214273650722,0.0171769064569685,0.0171769064580233,NaN,0.405593884857859,-1.51063429177607
369.152,-0.598524037523082,0.967806433811458,0.271289699572113,-0.556223255027457,1.58002138791394,1.58002138791581,NaN,0.441857319671085,0.198692559255802,-0.394456647383367,-1.85722088196021,-0.394456647384953,-0.203081146641959,NaN,NaN,-1.12906240820581,NaN,-0.376531358266753,NaN,-1.0207025888819,NaN,1.0998759063801,NaN,NaN,NaN,0.759926170502782,NaN,0.532247037654484,-0.532247037654418,-0.497446984090427,1.34799002878894,-0.906998991312386,0.52046530521911,2.28030593659375,0.775180603757124,1.95562600793213,0.400833165025153,0.680931183159156,0.680931183159382,-1.58178433552279,1.62481814245562,-0.867031020227923,0.259526588714719,0.402522534835689,0.477815629862176,-0.443198189077929,0.00199140183753263,0.00199140183858061,NaN,0.394094381344423,-1.46975433327292
369.2544,-0.606170455391912,0.973422023628335,0.265950692570271,-0.602634989774378,1.58665425514849,1.58665425515036,NaN,0.435910746073838,0.191372639123832,-0.408993967307948,-1.84487829782679,-0.408993967309547,-0.232561256300813,NaN,NaN,-1.13882184610229,NaN,-0.374454040151174,NaN,-1.02781532409707,NaN,1.10836128217494,NaN,NaN,NaN,0.775691517675141,NaN,0.510345401068162,-0.510345401068112,-0.474936901848588,1.31108438207823,-0.884603851094364,0.501998608918342,2.22520684251984,0.755513598447924,1.90790137632417,0.396722103121577,0.680197618842029,0.680197618842257,-1.58954160941432,1.6188540124472,-0.876734114415364,0.270324138763939,0.39945530780085,0.486264534145374,-0.445610993602613,-0.0127046620486536,-0.0127046620476131,NaN,0.383239375481095,-1.42868724857441
369.3568,-0.613819829624812,0.978208082763447,0.259524501711683,-0.6476418630369,1.59225810950482,1.59225810950669,NaN,0.4287351969987,0.182960766485666,-0.423389421967954,-1.83295651627862,-0.423389421969567,-0.261667740920554,NaN,NaN,-1.14940479209775,NaN,-0.372404001274221,NaN,-1.03575631136625,NaN,1.11662195470077,NaN,NaN,NaN,0.793239174590893,NaN,0.486034746628193,-0.486034746628158,-0.452751937969687,1.27171593509243,-0.86103221839893,0.481749290317503,2.16863404895369,0.737092936642084,1.85979146409121,0.392428076526075,0.679999607456692,0.67999960745692,-1.59854660802583,1.61278595581412,-0.887663243921356,0.280474269673708,0.39525227752082,0.493445516497722,-0.447533696911469,-0.0268414507481868,-0.0268414507471553,NaN,0.373037079612358,-1.3875367120816
369.4592,-0.62146425156776,0.982121088228792,0.251967442675327,-0.691187106533684,1.59682501483553,1.59682501483739,NaN,0.420343166036686,0.173456898354619,-0.437594176488628,-1.82149388820238,-0.43759417649025,-0.29037124348144,NaN,NaN,-1.16081150647433,NaN,-0.370360623446994,NaN,-1.04455324758356,NaN,1.1246298112228,NaN,NaN,NaN,0.812544071905213,NaN,0.45927824959289,-0.459278249592871,-0.430940432683367,1.22992667795587,-0.836298124240713,0.459758174288012,2.11066360170907,0.719927451272959,1.81135293206669,0.387920194316208,0.680359263629574,0.680359263629803,-1.60877335961369,1.60664000352283,-0.899783550246786,0.289974090618212,0.38994943046545,0.499376601330616,-0.449048845618215,-0.0403527898359556,-0.0403527898349371,NaN,0.363492559984155,-1.34640356877603
369.5616,-0.629095457582638,0.985121722505935,0.243241906008832,-0.733219542135894,1.60035214940908,1.60035214941095,NaN,0.41075165571885,0.162865904946144,-0.451559158216894,-1.81052584379696,-0.451559158218529,-0.318642504888583,NaN,NaN,-1.17303877119892,NaN,-0.368303380226078,NaN,-1.05422782692603,NaN,1.13235474050197,NaN,NaN,NaN,0.833573983070634,NaN,0.430048215223626,-0.430048215223624,-0.409547841548204,1.18576664327518,-0.810418979921415,0.436072705914814,2.05137641982479,0.704022595822468,1.7626440881974,0.383165968177665,0.681295711329146,0.681295711329375,-1.62018937759114,1.60043935530741,-0.91305509332384,0.298821128699617,0.383587445590284,0.504078915604524,-0.450239747713885,-0.0531763709617537,-0.0531763709607432,NaN,0.354607720163701,-1.30538532341079
369.664,-0.636704966702792,0.987175237726958,0.233316604259611,-0.773693542010271,1.60284167491699,1.60284167491885,NaN,0.399981998667425,0.151197516367939,-0.465235190897136,-1.80008473741607,-0.46523519089878,-0.34645249255274,NaN,NaN,-1.18607971525553,NaN,-0.36621193008535,NaN,-1.0647955646913,NaN,1.13976489594985,NaN,NaN,NaN,0.856289314753157,NaN,0.398326303063484,-0.398326303063495,-0.3886163758373,1.13929395231926,-0.783415778118519,0.410746674103239,1.99085818803656,0.689380603245706,1.71372489361603,0.378131444656344,0.682824841941174,0.682824841941406,-1.63275583468636,1.59420445613344,-0.9274329870547,0.30701354967611,0.376211633471243,0.507576862604309,-0.4511897007152,-0.0652539290106484,-0.0652539290096505,NaN,0.346381283187698,-1.26457565422361
369.7664,-0.644284214868365,0.988251790445537,0.222166786400289,-0.812568953842948,1.60430059277068,1.60430059277254,NaN,0.38805963643947,0.138466224770796,-0.478573162549188,-1.79019968747282,-0.478573162550851,-0.373772564611709,NaN,NaN,-1.19992366185949,NaN,-0.364066212719589,NaN,-1.07626566432207,NaN,1.1468269714234,NaN,NaN,NaN,0.880642982068202,NaN,0.364103681760226,-0.364103681760253,-0.368184682838999,1.0905747963879,-0.755313265809296,0.383839883435668,1.92919922939817,0.676000655916574,1.66465696062404,0.372781390570186,0.684959098698467,0.684959098698699,-1.64642779763329,1.5879530969903,-0.942867582839557,0.314550357869462,0.367871838155227,0.509898254502193,-0.451981244546611,-0.0765313920675774,-0.0765313920665908,NaN,0.338808757849197,-1.22406397227813
369.8688,-0.651824693262412,0.988326750996655,0.209774412307401,-0.849810995137512,1.60474058551932,1.60474058552117,NaN,0.375013853121849,0.124691133621021,-0.491524229142005,-1.78089641272646,-0.491524229143688,-0.400574651782243,NaN,NaN,-1.21455601303979,NaN,-0.361846566172918,NaN,-1.08864092644737,NaN,1.15350648084045,NaN,NaN,NaN,0.906580389266811,NaN,0.327381109371205,-0.327381109371247,-0.348287574591169,1.03968334298369,-0.726140085995435,0.355417763426786,1.86649433796099,0.663879090568786,1.61550354084368,0.367079539064722,0.687707292764243,0.687707292764475,-1.66115454218582,1.58170053996022,-0.959304719915916,0.321431555218046,0.358622280627077,0.511074372576841,-0.452695458163626,-0.0869590071362724,-0.0869590071353047,NaN,0.331882383106879,-1.18393504940408
369.9712,-0.659318102863523,0.987380993111266,0.196128274617445,-0.885390121898556,1.60417783967093,1.60417783967278,NaN,0.360877465670184,0.1098957485976,-0.504040054068284,-1.77219707265285,-0.504040054069984,-0.426831444557717,NaN,NaN,-1.22995817542079,NaN,-0.359533874386286,NaN,-1.10191769653452,NaN,1.1597680370257,NaN,NaN,NaN,0.93403952539695,NaN,0.28816893284287,-0.288168932842928,-0.328955810781106,0.986701562572349,-0.695928889815976,0.325550905894628,1.80284255327287,0.653009655489755,1.56632949969188,0.360988892714114,0.691074449579806,0.69107444958004,-1.67687996239753,1.57545966204542,-0.976686057913733,0.327658250368366,0.348521330280782,0.511139938617494,-0.453411320051671,-0.0964914422095363,-0.096491442208587,NaN,0.325591057153322,-1.1442687348878
370.0736,-0.66675652552993,0.985401158584833,0.181224060652775,-0.919281875023995,1.60263284977283,1.60263284977468,NaN,0.345686487293412,0.0941077204129313,-0.516073081288414,-1.76412011857924,-0.516073081290132,-0.452516577798402,NaN,NaN,-1.24610751981238,NaN,-0.357109743958201,NaN,-1.11608584823983,NaN,1.16557563017133,NaN,NaN,NaN,0.962951164374342,NaN,0.246487005059097,-0.246487005059168,-0.310215939808998,0.931718976698205,-0.664716417245468,0.294314534756628,1.7383468718178,0.643383818115706,1.51720127289531,0.354472067976446,0.695061689329327,0.695061689329561,-1.69354306765509,1.56924110717066,-0.994949489580384,0.333232718854364,0.337631206860647,0.510132999928528,-0.454205152814348,-0.105087865559555,-0.10508786555863,NaN,0.319920267291396,-1.10513977242394
370.176,-0.674132594677872,0.982379878656129,0.165064358539537,-0.95146670393514,1.60013021112824,1.60013021113009,NaN,0.329479791925053,0.077358567844213,-0.527576835767341,-1.75668015828943,-0.527576835769072,-0.477604804123442,NaN,NaN,-1.2629773662423,NaN,-0.354556705479417,NaN,-1.13112879953721,NaN,1.17089290684784,NaN,NaN,NaN,0.993239142693341,NaN,0.202364531096117,-0.2023645310962,-0.292090200315155,0.874832333080307,-0.632543538590389,0.261787930448973,1.67311390176385,0.634991097074967,1.4681867963689,0.347491660569674,0.699666154292548,0.699666154292784,-1.71107853487779,1.56305343307025,-1.01402960791652,0.338158422291017,0.326017629599564,0.508094745085512,-0.455150161920746,-0.112712005962873,-0.112712005961971,NaN,0.314852040468571,-1.0666177120542
370.2784,-0.68143964328259,0.978315933143922,0.147658619681623,-0.981929766564199,1.59669841124134,1.59669841124318,NaN,0.312298806089847,0.0596834140365069,-0.538506241178902,-1.74988783681584,-0.538506241180641,-0.502072149955324,NaN,NaN,-1.28053699008812,NaN,-0.351858435503478,NaN,-1.14702355664457,NaN,1.17568344764486,NaN,NaN,NaN,1.02482068494842,NaN,0.155839863998079,-0.15583986399817,-0.274596480580272,0.816145214060642,-0.599455245961066,0.228053837577534,1.60725346858204,0.627819381234787,1.41935539582352,0.340010617782063,0.704880992895678,0.704880992895915,-1.72941727278738,1.55690324414933,-1.03385819026661,0.342439998159729,0.313749437626201,0.505069275285919,-0.456316060951376,-0.119332197139235,-0.119332197138361,NaN,0.310364928575476,-1.02876689481609
370.3808,-0.688671815090568,0.973214339745249,0.129023091054101,-1.01066070830891,1.59236962562621,1.59236962562805,NaN,0.294187241963744,0.0411207581918016,-0.54881794667979,-1.74374973771958,-0.548817946681542,-0.525896057440534,NaN,NaN,-1.29875164727201,NaN,-0.348999991597502,NaN,-1.16374078117407,NaN,1.17991104066385,NaN,NaN,NaN,1.05760675856082,NaN,0.106960264383136,-0.106960264383239,-0.257748329585987,0.755767579962975,-0.565500584788124,0.19319787540319,1.54087817572524,0.621855203794555,1.37077762291041,0.33199261686469,0.710695396849509,0.710695396849748,-1.74848696675206,1.55079531243969,-1.05436466861237,0.346083231771739,0.300898203677152,0.501103354971577,-0.457768760162761,-0.124921406549534,-0.124921406548688,NaN,0.306434028588394,-0.991646480752247
370.4832,-0.695824135805493,0.967086376113847,0.109180726095297,-1.03765342587721,1.58717951761971,1.58717951762156,NaN,0.275190871073562,0.0217122865962626,-0.558470662356102,-1.73826830731104,-0.558470662357866,-0.549055522844848,NaN,NaN,-1.31758261642994,NaN,-0.345968044193024,NaN,-1.1812448803003,NaN,1.18353995058107,NaN,NaN,NaN,1.09150245996568,NaN,0.0557816217415748,-0.0557816217416865,-0.241555015457092,0.693815243657436,-0.530732518571791,0.157307957204997,1.4741029257887,0.617083953331755,1.32252503252769,0.323402459473123,0.717094679648155,0.717094679648395,-1.76821259336132,1.54473269885341,-1.07547657099316,0.349095019307266,0.287537851021344,0.496246155858689,-0.459570088280781,-0.129457248179738,-0.129457248178923,NaN,0.303031026236428,-0.955310494608713
370.5856,-0.702892547799665,0.959949539741231,0.0881610748671598,-1.06290582303856,1.58116703773169,1.58116703773353,NaN,0.255357325986398,0.00150271000795437,-0.567425510388332,-1.73344180067339,-0.567425510390109,-0.571531240290597,NaN,NaN,-1.3369872579904,NaN,-0.34275108477253,NaN,-1.19949412440227,NaN,1.18653518497827,NaN,NaN,NaN,1.12640745123483,NaN,0.00236812085425501,-0.00236812085437723,-0.226021631374183,0.630409272566193,-0.495207723827905,0.120473717938308,1.40704441428643,0.613490021788837,1.2746699096152,0.314206494132177,0.724060387713039,0.72406038771328,-1.78851691252901,1.53871688883927,-1.0971199359424,0.351483325546813,0.273744266904753,0.490548993937326,-0.461777523490378,-0.132921982321646,-0.132921982320865,NaN,0.300124251396568,-0.919807874784395
370.688,-0.709873913008447,0.951827448395411,0.0660001493634325,-1.08641956488474,1.57437421553594,1.57437421553778,NaN,0.234735913011011,-0.0194603908388232,-0.575646397794449,-1.72926424761016,-0.575646397796233,-0.593305749197575,NaN,NaN,-1.35691909569155,NaN,-0.339339599810209,NaN,-1.21844079578749,NaN,1.18886275748113,NaN,NaN,NaN,1.16221646360447,NaN,-0.053208162443655,0.0532081624435264,-0.211149250397832,0.565675320143412,-0.458986316206451,0.0827859516515902,1.33982060840093,0.611056905368144,1.22728496195203,0.304373072906952,0.731570441807483,0.731570441807725,-1.80932095490082,1.53274794957725,-1.11921971403629,0.353257130311417,0.259594894858691,0.484065043592195,-0.464443927316401,-0.13530251050466,-0.13530251050391,NaN,0.297678739985907,-0.885182526584349
370.7904,-0.716765986000579,0.942749680739884,0.0427402601724157,-1.10819983581153,1.56684593684962,1.56684593685146,NaN,0.213377426446183,-0.0411267207470951,-0.583100407909077,-1.72572543870146,-0.583100407910878,-0.614363572403978,NaN,NaN,-1.37732792769083,NaN,-0.335726216226006,NaN,-1.23803136551267,NaN,1.1904899431735,NaN,NaN,NaN,1.19881986934537,NaN,-0.110867737677997,0.110867737677863,-0.196935128131523,0.499742895792359,-0.422131514056399,0.0443360617019029,1.27255020987953,0.609767276447261,1.18044298749639,0.293873039420783,0.739599309154851,0.739599309155093,-1.83054451834793,1.52682470547651,-1.14170017091354,0.354426350221197,0.245168289055217,0.4768490064711,-0.467617293014429,-0.136590373933322,-0.136590373932601,NaN,0.295656303932219,-0.851473392089701
370.8928,-0.723567360378014,0.932751558367332,0.0184298208809787,-1.12825510382926,1.55862970305295,1.55862970305478,NaN,0.191333966074497,-0.0634434260626298,-0.589758200063938,-1.72281093318972,-0.589758200065751,-0.634691333276258,NaN,NaN,-1.39815996756487,NaN,-0.331905829980732,NaN,-1.25820669223347,NaN,1.19138552094587,NaN,NaN,NaN,1.23610431073999,NaN,-0.1705242372589,0.170524237258759,-0.183372947583834,0.432744587178311,-0.384709252493438,0.00521552281696647,1.20535209191988,0.609603034906556,1.13421651351217,0.282680233834584,0.748118203916054,0.748118203916295,-1.85210667394995,1.52094492138294,-1.16448529629367,0.355001730349918,0.23054362688543,0.468956727763527,-0.471340527126051,-0.136781753317878,-0.136781753317191,NaN,0.294015614557877,-0.818714548704493
370.9952,-0.730277398956306,0.921873880841391,-0.00687688196546696,-1.1465968904912,1.54977537699309,1.54977537699492,NaN,0.16865876386755,-0.0863552490550082,-0.595594402825788,-1.72050209061368,-0.595594402827616,-0.654277854860495,NaN,NaN,-1.41935800807871,NaN,-0.327875722604525,NaN,-1.27890224042028,NaN,1.1915199997473,NaN,NaN,NaN,1.27395336349232,NaN,-0.232084995279758,0.232084995279605,-0.170453094921549,0.364815255286998,-0.34678776694216,-0.0344846462750428,1.13834471091611,0.610545337820014,1.08867740755342,0.270771990310892,0.757095306611594,0.757095306611834,-1.87392626902947,1.51510548247484,-1.18749921149014,0.354994720359794,0.21580019538873,0.4604447827069,-0.475651275448476,-0.135877456644771,-0.13587745664411,NaN,0.292712303941726,-0.786935339914181
371.0976,-0.736896162481307,0.910162635200312,-0.0331199497980642,-1.16323954369516,1.54033492539801,1.54033492539984,NaN,0.145406023131165,-0.109804679345855,-0.60058798407532,-1.71877612756363,-0.600587984077161,-0.673114253837269,NaN,NaN,-1.44086160126679,NaN,-0.32363566226799,NaN,-1.30004831857373,NaN,1.19086582701608,NaN,NaN,NaN,1.31224820390088,NaN,-0.295451637286811,0.295451637286649,-0.158162950535863,0.296091228237623,-0.30843716613728,-0.0746743939049604,1.07164550930774,0.612574603018129,1.04389646920158,0.258129604399761,0.766495989160183,0.766495989160424,-1.89592241011248,1.50930256639153,-1.21066656089124,0.354417360151087,0.201016878899592,0.451370072799632,-0.480581788718392,-0.133882882258521,-0.133882882257889,NaN,0.291699084816995,-0.756160533717076
371.2,-0.743424347729732,0.897668699382744,-0.0602341564329867,-1.17820001240392,1.530362164692,1.53036216469383,NaN,0.121630769324963,-0.133732102172849,-0.60472258262807,-1.71760619841011,-0.604722582629911,-0.691194033899413,NaN,NaN,-1.46260725398991,NaN,-0.319187983303907,NaN,-1.32157033999553,NaN,1.18939757672312,NaN,NaN,NaN,1.35086825510729,NaN,-0.360520648497138,0.360520648496966,-0.146487180147111,0.226709516429294,-0.269729009589982,-0.115265121171474,1.00537032648566,0.615670487858394,0.999943014869303,0.244738761439087,0.776283034997914,0.776283034998156,-1.91801491466316,1.50353181099468,-1.2339128754846,0.353282191917543,0.186271670205321,0.441789460566734,-0.486158814063294,-0.130807953000443,-0.13080795299984,NaN,0.29092588463295,-0.726410501257073
371.3024,-0.74986323943626,0.884447549074745,-0.0881492509187403,-1.19149762735399,1.51991250705577,1.51991250705761,NaN,0.0973887083048854,-0.158075947671,-0.607986790573801,-1.71696149476681,-0.607986790575649,-0.708513166853697,NaN,NaN,-1.48452864165332,NaN,-0.314537638581569,NaN,-1.34338911138099,NaN,1.1870921141182,NaN,NaN,NaN,1.38969180545901,NaN,-0.427183902839859,0.427183902839679,-0.135408015533082,0.156807062335041,-0.230735898411393,-0.156170137043615,0.939632832310748,0.619811856506045,0.95688447235469,0.230589927938671,0.786416848111026,0.786416848111266,-1.94012472984922,1.49778848435266,-1.25716490418983,0.351602201319845,0.171641214164229,0.431759450607565,-0.492403501615392,-0.126667023668677,-0.126667023668098,NaN,0.290339985285236,-0.697701409491684
371.4048,-0.756214676960805,0.870558969368006,-0.116790278522187,-1.20315389431346,1.50904269848254,1.50904269848437,NaN,0.0727360841855211,-0.182772849743287,-0.610374378712312,-1.71680735888223,-0.610374378714171,-0.72507014281062,NaN,NaN,-1.50655684286317,NaN,-0.309692219261255,NaN,-1.36542115618832,NaN,1.18392873714587,NaN,NaN,NaN,1.42859660814271,NaN,-0.495329153726465,0.495329153726277,-0.124905520603856,0.0865200346457844,-0.191531086267789,-0.197305079537068,0.874544004223601,0.624976753697741,0.914786008588669,0.215678707979208,0.796855650563414,0.796855650563654,-1.96217432214709,1.49206766112155,-1.2803509149856,0.349390781095799,0.157200383600335,0.421335910496694,-0.499331322748888,-0.121478768973847,-0.121478768973292,NaN,0.289886162913112,-0.670045426366667
371.5072,-0.762481035002083,0.856066768475519,-0.146077922296701,-1.21319230373613,1.4978105454491,1.49781054545094,NaN,0.047729529873967,-0.207757821980851,-0.611884456584451,-1.71710541537803,-0.611884456586323,-0.74086597701331,NaN,NaN,-1.52862059128184,NaN,-0.304661935519566,NaN,-1.38757907637301,NaN,1.17988929951679,NaN,NaN,NaN,1.46746047153294,NaN,-0.564840492617123,0.564840492616928,-0.114957841640155,0.0159831809623049,-0.152188119169291,-0.238588296008935,0.810211673784538,0.631142396865958,0.873710214291142,0.200006159317595,0.807555672911185,0.807555672911423,-1.98408804145211,1.48636440133349,-1.30340097087395,0.346661707840669,0.143021886402275,0.410573822149798,-0.506952002776965,-0.115266062443682,-0.115266062443147,NaN,0.289506836263303,-0.643450941417398
371.6096,-0.768665215237018,0.841038487914183,-0.175928867357671,-1.22163815773613,1.48627463165371,1.48627463165555,NaN,0.0224259109586145,-0.232964452572731,-0.612521557009391,-1.71781373518025,-0.612521557011275,-0.755904171775301,NaN,NaN,-1.5506465291521,NaN,-0.299459552884485,NaN,-1.40977194695446,NaN,1.17495832260008,NaN,NaN,NaN,1.50616183367912,NaN,-0.635598777394963,0.635598777394765,-0.10554144120383,-0.054670745053284,-0.112780512484232,-0.279941172423014,0.746740160792408,0.638285190393303,0.833716859893462,0.183579055257093,0.818471337384328,0.818471337384565,-2.00579245596447,1.48067391742036,-1.32624718268346,0.343429127404132,0.129175907215698,0.399527061300523,-0.51526947705767,-0.108055853516028,-0.108055853515507,NaN,0.289142243557615,-0.617922802308254
371.712,-0.774770641727365,0.825545100328638,-0.206256187522554,-1.22851841413035,1.47449402702069,1.47449402702252,NaN,-0.00311782841185277,-0.258325113952036,-0.612295641138132,-1.71888704410975,-0.612295641140027,-0.770190643045452,NaN,NaN,-1.5725594479554,NaN,-0.294100287857135,NaN,-1.43190573080211,NaN,1.16912309999155,NaN,NaN,NaN,1.54458030154951,NaN,-0.707482036560029,0.707482036559823,-0.0966313194367188,-0.125311479810581,-0.0733814648066849,-0.32128840744307,0.684229991927185,0.646380757642558,0.794862718440064,0.166410078537228,0.829555428704383,0.829555428704617,-2.02721664753526,1.47499171341343,-1.34882393519468,0.339707548622686,0.115729789353462,0.388248208066864,-0.524281883262605,-0.099879040257958,-0.0998790402574534,NaN,0.288730660942512,-0.593462563688358
371.8144,-0.780801249129021,0.809660682464572,-0.23696975245159,-1.23386154554407,1.46252799287773,1.46252799287957,NaN,-0.0288448065849709,-0.283771178552055,-0.611222032664409,-1.72027698059182,-0.611222032666311,-0.783733628584305,NaN,NaN,-1.59428252181627,NaN,-0.28860168011198,NaN,-1.45388370393582,NaN,1.16237379349798,NaN,NaN,NaN,1.58259714032345,NaN,-0.780365867790374,0.780365867790163,-0.088201232208708,-0.195811687822798,-0.0340635971726421,-0.36255824030665,0.622777676875692,0.655403978016284,0.757201430491802,0.148517945627984,0.840759256549851,0.840759256550084,-2.04829246273205,1.46931368924383,-1.37106808485209,0.335511839499621,0.102747758792643,0.376788384113181,-0.533981603175446,-0.0907703272707612,-0.0907703272702677,NaN,0.288208661462806,-0.570068748284927
371.9168,-0.786761453732993,0.793462049462855,-0.267976656815235,-1.23769741217738,1.45043568609497,1.4504356860968,NaN,-0.0546983259404679,-0.309233234459194,-0.609321295241947,-1.72193240165525,-0.609321295243868,-0.79654359007226,NaN,NaN,-1.6157375555415,NaN,-0.282983462175683,NaN,-1.47560689064805,NaN,1.15470351676373,NaN,NaN,NaN,1.62009571585949,NaN,-0.854123850501863,0.85412385050165,-0.0802239135631775,-0.266047365689426,0.00510129608377032,-0.403682646048783,0.562475508545471,0.66532901595863,0.720783381518642,0.12992746867073,0.852032827218757,0.852032827218986,-2.06895472635467,1.46363621357765,-1.39291913411347,0.330857212496607,0.0902906864199883,0.365197101573001,-0.544355363442474,-0.0807680598112444,-0.0807680598107557,NaN,0.287511411247287,-0.547737124469563
372.0192,-0.792656104439055,0.77702834114519,-0.299181678858298,-1.24005715171184,1.43827585725613,1.43827585725796,NaN,-0.080621978351397,-0.334641305206807,-0.606619061751577,-1.72379973285548,-0.606619061753504,-0.808633106660419,NaN,NaN,-1.63684526648094,NaN,-0.277267437556894,NaN,-1.49697451438698,NaN,1.14610840260134,NaN,NaN,NaN,1.65696191092477,NaN,-0.928627976980551,0.928627976980334,-0.0726713019875644,-0.335898225162575,0.0440424934039015,-0.444597503607697,0.503411370199612,0.676129342421728,0.68565558025588,0.110669559127482,0.863325041951581,0.863325041951805,-2.08914143026225,1.45795617402105,-1.41431939119834,0.325759188262643,0.0784158813222328,0.353522109475226,-0.555384396950209,-0.0699140319163947,-0.0699140319159165,NaN,0.28657300401207,-0.526461001544729
372.1216,-0.798490417369462,0.76044055885983,-0.330487776369426,-1.24097309278681,1.42610653324808,1.4261065332499,NaN,-0.106559745444169,-0.359925087860099,-0.60314581700259,-1.72582335427876,-0.603145817004536,-0.820016747225738,NaN,NaN,-1.65752560859561,NaN,-0.271477365382067,NaN,-1.51788447389477,NaN,1.13658764999257,NaN,NaN,NaN,1.69308453915203,NaN,-1.00374909668202,1.0037490966818,-0.065514765612866,-0.405248060640093,0.0826905947508626,-0.485242735158791,0.445668553208487,0.687777767918083,0.65186155017653,0.0907811719768517,0.874583928041164,0.874583928041383,-2.10879391231808,1.45227101416572,-1.43521412559648,0.320233535300077,0.0671769087754704,0.341809231646795,-0.567044661841706,-0.0582532691410001,-0.0582532691405309,NaN,0.285326830237362,-0.506231539234995
372.224,-0.804269900220763,0.743781057794951,-0.361796623753785,-1.24047869576854,1.41398467983421,1.41398467983602,NaN,-0.132456105452005,-0.385014225315919,-0.598936630152206,-1.72794601580636,-0.598936630154171,-0.830710911709531,NaN,NaN,-1.67769813865831,NaN,-0.265638839739124,NaN,-1.53823385665467,NaN,1.12614354643379,NaN,NaN,NaN,1.72835577211743,NaN,-1.07935737220425,1.07935737220403,-0.0587253194816591,-0.473985105691694,0.120977778753395,-0.525562413911588,0.389325599977172,0.700246510164166,0.619441255644546,0.0703051887505358,0.885756900749374,0.885756900749588,-2.12785704017076,1.44657876436996,-1.4555517306224,0.314296189734538,0.0566234304618886,0.330102198609223,-0.579307113543209,-0.0458337851896944,-0.0458337851892335,NaN,0.283705969262339,-0.487038065343363
372.3264,-0.810000274234785,0.727133004540332,-0.393009190502613,-1.23860852023931,1.40196584827255,1.40196584827435,NaN,-0.158256157826846,-0.409838622929644,-0.594030829006864,-1.73010927988704,-0.594030829008853,-0.840733644735496,NaN,NaN,-1.69728241756917,NaN,-0.259779144850967,NaN,-1.55791950109613,NaN,1.11478146318512,NaN,NaN,NaN,1.762671587254,NaN,-1.15532274645115,1.15532274645093,-0.0522738233211397,-0.542002377201603,0.158838069965313,-0.56550483520031,0.334456189021613,0.713507301053912,0.588431076786794,0.0492902402960366,0.896791051776784,0.896791051776991,-2.14627940923025,1.44087806918839,-1.47528390076622,0.307963165683959,0.0468010682517624,0.318442484173019,-0.59213801790789,-0.0327063128202833,-0.0327063128198287,NaN,0.281643597317644,-0.468868392634884
372.4288,-0.815687401060448,0.710579811696988,-0.424026357709491,-1.23539821644982,1.39010381393303,1.39010381393482,NaN,-0.183905774502573,-0.434328809750052,-0.588471607738753,-1.73225399277942,-0.588471607740767,-0.850104435106957,NaN,NaN,-1.71619843483002,NaN,-0.253927065941204,NaN,-1.57683861428581,NaN,1.10250982577055,NaN,NaN,NaN,1.79593223659812,NaN,-1.23151541194257,1.23151541194235,-0.0461311458761299,-0.609197995977422,0.196207612316055,-0.605022540370858,0.281129077476621,0.727531518647448,0.558863836380665,0.027790472211741,0.907633458271238,0.907633458271436,-2.16401355523636,1.43516820973653,-1.49436582488975,0.301250467724011,0.0377512964778782,0.306869160453016,-0.605499287522581,-0.0189240129991207,-0.0189240129986703,NaN,0.279073415212754,-0.451709124791898
372.5312,-0.821337213120356,0.694204555413764,-0.454749562667135,-1.23088453793324,1.37845021255505,1.37845021255682,NaN,-0.209351778199859,-0.458416335226222,-0.582305562929531,-1.73432078458693,-0.582305562931568,-0.858844011931712,NaN,NaN,-1.73436704552832,NaN,-0.24811264634908,NaN,-1.59488944431152,NaN,1.0893400650772,NaN,NaN,NaN,1.82804272417888,NaN,-1.30780627039721,1.30780627039698,-0.040268288962393,-0.675475472752504,0.233024945852941,-0.644072281313407,0.229408109079728,0.742290331557173,0.530768877936594,0.00586525312856183,0.918231507466034,0.918231507466224,-2.18101617516671,1.42944911280379,-1.51275639252986,0.294174006144459,0.0295113698427052,0.295418776081018,-0.619348835269022,-0.00454216701974945,-0.0045421670193025,NaN,0.275930099329478,-0.435545946738037
372.6336,-0.826955635179059,0.678089372602208,-0.485081455404197,-1.22510537290554,1.36705417548784,1.36705417548961,NaN,-0.234542138514909,-0.48203418626015,-0.575582160205077,-1.73625059646685,-0.575582160207141,-0.866974137869833,NaN,NaN,-1.75171041450711,NaN,-0.242366901078003,NaN,-1.61197199570725,NaN,1.07528655171065,NaN,NaN,NaN,1.85891327399304,NaN,-1.38406737904732,1.38406737904708,-0.0346564766816553,-0.740743957558774,0.269231288813758,-0.682614918975803,0.179352282930949,0.757754852507758,0.504172190127239,-0.0164211761623125,0.928533236066088,0.928533236066268,-2.19724834552941,1.42372133314462,-1.53041840821137,0.286749504104086,0.0221142906163121,0.284125249417966,-0.633640958736619,0.0103821450172788,0.0103821450177256,NaN,0.272149773267838,-0.420363902262352
372.736,-0.832548484783024,0.662314837144607,-0.514926547632395,-1.21809979016143,1.35596196595312,1.35596196595488,NaN,-0.259426173680832,-0.505117205143641,-0.568353148105234,-1.73798522499854,-0.568353148107322,-0.874517397898531,NaN,NaN,-1.76815246382958,NaN,-0.236721511238035,NaN,-1.6279887624874,NaN,1.06036651192001,NaN,NaN,NaN,1.88845977786831,NaN,-1.46017238444754,1.4601723844473,-0.029267223337558,-0.804918457097073,0.304770827095228,-0.720615259457624,0.131015864080148,0.773896291766167,0.479096559873664,-0.0390001067886066,0.938487683243399,0.938487683243569,-2.21267572196705,1.41798599947062,-1.54731880220707,0.278992387456735,0.0155888087581598,0.273019764360136,-0.648326768532971,0.0257903746216126,0.0257903746220555,NaN,0.267670494673444,-0.406147661752571
372.8384,-0.838121353980055,0.646959332604424,-0.544191835247903,-1.20990809042778,1.345216625103,1.34521662510475,NaN,-0.283954749435601,-0.527602487574657,-0.560671954258555,-1.7394678576479,-0.560671954260657,-0.881496988690415,NaN,NaN,-1.78361931629225,NaN,-0.231208523620221,NaN,-1.64284544157723,NaN,1.04459992479943,NaN,NaN,NaN,1.91660422287969,NaN,-1.53599693612631,1.53599693612605,-0.0240723942011119,-0.86792002449131,0.339591005690607,-0.758041843877164,0.0844485069574002,0.790686087213027,0.455561722505428,-0.0617988010215708,0.948045250662619,0.948045250662782,-2.22726870400747,1.41224472826285,-1.56342882077653,0.270917659268582,0.00995943660610449,0.26213066006146,-0.663354654101753,0.0416228367881953,0.0416228367886397,NaN,0.262432749466302,-0.392881775285075
372.9408,-0.843679493031843,0.632098455784096,-0.572787383887729,-1.2005718523032,1.33485763974148,1.33485763974322,NaN,-0.308080471762504,-0.549429747658127,-0.552593106015094,-1.74064356347543,-0.552593106017212,-0.88793651712574,NaN,NaN,-1.79803972451178,NaN,-0.225860068669498,NaN,-1.65645158794598,NaN,1.02800940703115,NaN,NaN,NaN,1.94327510103981,NaN,-1.61141906259901,1.61141906259875,-0.019044268127319,-0.929675919453356,0.373642805462196,-0.79486671773864,0.0396953651969033,0.808095989285316,0.43358447988577,-0.0847409449605124,0.957158056613508,0.957158056613662,-2.24100255821901,1.40649951904897,-1.57872418413989,0.262539771529411,0.00524645480565886,0.251483312946908,-0.678670766078074,0.0578190356874523,0.0578190356878929,NaN,0.25637994369461,-0.380550900042441
373.0432,-0.849227721476984,0.617804483196664,-0.600626877706302,-1.1901339680638,1.32492063556408,1.32492063556581,NaN,-0.33175787231852,-0.570541648947377,-0.544171702648059,-1.74145971073006,-0.544171702650175,-0.893859812897834,NaN,NaN,-1.81134547374592,NaN,-0.220708098551761,NaN,-1.66872118712298,NaN,1.01062009263568,NaN,NaN,NaN,1.96840779836817,NaN,-1.68631949432954,1.68631949432927,-0.0141556045054185,-0.990119729055303,0.406880983902302,-0.831065201540511,-0.00320282183485699,0.826098096933149,0.413178777908906,-0.107747097672138,0.965780267180389,0.965780267180537,-2.25385750296116,1.40075264296685,-1.59318521059282,0.253872510532542,0.00146589688596654,0.241100019342931,-0.694219493252855,0.0743179780260757,0.0743179780265129,NaN,0.24945888367638,-0.369139991346581
373.1456,-0.85477037871385,0.604145914354344,-0.627628133390535,-1.17863867205811,1.31543709221174,1.31543709221346,NaN,-0.354943582870975,-0.590884105518519,-0.535462940493542,-1.74186630322526,-0.535462940495655,-0.89929075483482,NaN,NaN,-1.82347174896022,NaN,-0.215784142282136,NaN,-1.67957314517224,NaN,0.992459507267478,NaN,NaN,NaN,1.99194495175376,NaN,-1.76058193119779,1.7605819311975,-0.00937971396286182,-1.04919143779954,0.439264267085387,-0.866615667235833,-0.0442096567949146,0.844664856973554,0.394355755784033,-0.130735125697273,0.973868389082276,0.973868389082417,-2.26581875707679,1.39500653207756,-1.60679690607172,0.244928907727916,-0.00137047911864936,0.230999894741313,-0.709943915759507,0.0910584686163567,0.0910584686167946,NaN,0.241620232037637,-0.358634452750142
373.248,-0.860311308002238,0.591187086487621,-0.653713576335045,-1.16613156266188,1.30643408454414,1.30643408454585,NaN,-0.377596493107971,-0.610406554369374,-0.526521676764039,-1.74181624875379,-0.52652167676615,-0.904253105624297,NaN,NaN,-1.8343574650306,NaN,-0.211119075899852,NaN,-1.68893171537749,NaN,0.973557431342965,NaN,NaN,NaN,2.01383675929659,NaN,-1.83409326376999,1.8340932637697,-0.00469053315359791,-1.10683744031988,0.470755492148242,-0.901499311355228,-0.0832930096883728,0.86376904230342,0.377123786358855,-0.153620618802696,0.981381518558261,0.981381518558396,-2.27687654609674,1.38926367547193,-1.61954901069657,0.235721178420195,-0.00325521114598051,0.221198803972515,-0.725786219374837,0.107979382743643,0.107979382744077,NaN,0.232818923656921,-0.349020246500161
373.3504,-0.865853855334156,0.578987841977394,-0.678810672672268,-1.15265961090812,1.29793406913117,1.29793406913287,NaN,-0.399677887322276,-0.62906219593878,-0.517402018920645,-1.741265582788,-0.517402018922746,-0.908770345650132,NaN,NaN,-1.84394556767889,NaN,-0.206742907966812,NaN,-1.69672688495517,NaN,0.953945750642735,NaN,NaN,NaN,2.03404123475288,NaN,-1.90674375826429,1.90674375826398,-6.27063047657012e-05,-1.16301049509089,0.501321704674573,-0.935699914702737,-0.12042492799921,0.883383716999325,0.36148852028284,-0.176317294742233,0.98828155525198,0.988281555252109,-2.28702605215166,1.38352652370281,-1.63143598857656,0.226260683249267,-0.00418512804436313,0.211709327672394,-0.741688063768759,0.125019911024186,0.125019911024621,NaN,0.223014535920598,-0.340283964469296
373.4528,-0.871400860624247,0.567603224796441,-0.702852310732294,-1.13827114556346,1.28995473691776,1.28995473691944,NaN,-0.421151557057084,-0.646808195719457,-0.508156936237242,-1.74017366200184,-0.50815693623933,-0.912865497409805,NaN,NaN,-1.85218331249186,NaN,-0.202684581881067,NaN,-1.70289473531546,NaN,0.933658299133608,NaN,NaN,NaN,2.0525244039391,NaN,-1.97842720847368,1.97842720847336,0.00452832288934381,-1.21766962338416,0.530934218190263,-0.969203582725794,-0.155581524658819,0.903482187337899,0.347452938309568,-0.198737413043505,0.99453339981406,0.994533399814186,-2.29626729223955,1.3777973950706,-1.64245694882647,0.216557904815667,-0.00416130849144204,0.202540763860742,-0.757590908024147,0.142119775455102,0.142119775455532,NaN,0.212171627478638,-0.332412851004418
373.5552,-0.876954624779384,0.557083189506392,-0.725777126167409,-1.12301580761415,1.28250894176884,1.28250894177052,NaN,-0.441983887521286,-0.663605839226961,-0.498837898961955,-1.73850332143638,-0.498837898964025,-0.916560938345123,NaN,NaN,-1.85902252227834,NaN,-0.198971794757679,NaN,-1.70737777282259,NaN,0.912730701233211,NaN,NaN,NaN,2.06926044767645,NaN,-2.04904105614894,2.04904105614861,0.00910620968195429,-1.27077996395466,0.559568647479952,-1.0019984625478,-0.18874283510121,0.924037933369863,0.335017415048775,-0.220792218003543,1.00010515124176,1.00010515124188,-2.30460491560366,1.37207837544802,-1.65261549226343,0.206622433764846,-0.00318899738819348,0.193699163003328,-0.773436299399967,0.159219420146294,0.159219420146723,NaN,0.200260063706403,-0.325394760538925
373.6576,-0.882516850948548,0.547472324183373,-0.747529766135722,-1.10694447304218,1.27560470054922,1.27560470055088,NaN,-0.462143916297075,-0.679420636695401,-0.489494554700789,-1.73622097419214,-0.489494554702845,-0.919878206847864,NaN,NaN,-1.86441981924178,NaN,-0.195630828291135,NaN,-1.71012521572162,NaN,0.891200219618701,NaN,NaN,NaN,2.08423180012147,NaN,-2.11848648664529,2.11848648664495,0.0136936058532599,-1.32231259488488,0.587204925629313,-1.03407443724197,-0.219892630568252,0.94502451687157,0.324179800882951,-0.242392415693984,1.0049683093468,1.00496830934692,-2.31204792397593,1.36637121079794,-1.6619194876826,0.196462963165856,-0.00127747965123079,0.185187395499838,-0.78916612778491,0.1762601864853,0.176260186485729,NaN,0.187255327725764,-0.319218036821441
373.76,-0.888088575042652,0.538809606947684,-0.768061091868233,-1.09010914836162,1.26924525104435,1.26924525104599,NaN,-0.481603365378006,-0.694222381928324,-0.480174451757392,-1.73329663494364,-0.480174451759435,-0.922837809056762,NaN,NaN,-1.86833682999646,NaN,-0.192686384677551,NaN,-1.71109322554006,NaN,0.869105608695582,NaN,NaN,NaN,2.0974292092419,NaN,-2.18666851025444,2.18666851025409,0.0183120684464695,-1.3722443289378,0.613827303217978,-1.06542280991943,-0.249018181265254,0.966415469637527,0.314935528436002,-0.263448670714566,1.00909797657106,1.00909797657117,-2.31860933320262,1.36067719904598,-1.67038079269655,0.186087294603679,0.00156007960512948,0.177005249646475,-0.804722847342629,0.193184486802854,0.193184486803282,NaN,0.173138793539879,-0.313871320236575
373.8624,-0.893670110078597,0.531128222193838,-0.787328326243673,-1.07256284552306,1.26342915440939,1.26342915441102,NaN,-0.50033665156717,-0.707985177878123,-0.470922813664636,-1.72970386499653,-0.470922813666651,-0.925459032340322,NaN,NaN,-1.87074036400802,NaN,-0.190161424209246,NaN,-1.7102450822272,NaN,0.846486968090402,NaN,NaN,NaN,2.1088517567511,NaN,-2.25349603688823,2.25349603688787,0.0229819853195892,-1.42055748236296,0.639424317426899,-1.09603599872082,-0.276109976028691,0.988184179255969,0.307277747638757,-0.283872100127867,1.01247304368376,1.01247304368386,-2.32430580341981,1.35499708782034,-1.67801494240077,0.175502361842495,0.00530681772213044,0.169149559400398,-0.820049666125771,0.209935985861441,0.20993598586187,NaN,0.15789793200003,-0.309343307732055
373.9648,-0.899261022383001,0.524455452293676,-0.805295155666657,-1.05435944128276,1.25815043642795,1.25815043642957,NaN,-0.51832088117571,-0.720687442052735,-0.461782358408356,-1.72541965697035,-0.461782358410347,-0.92775976756652,NaN,NaN,-1.87160256721638,NaN,-0.188077007813774,NaN,-1.70755131152173,NaN,0.823385592507363,NaN,NaN,NaN,2.11850682384654,NaN,-2.31888194531565,2.31888194531528,0.0277225138466219,-1.46723961434771,0.663988720444321,-1.12590725672898,-0.301161412646789,1.01030379560912,0.301197491367475,-0.30357474903426,1.01507634121261,1.01507634121271,-2.32915726059552,1.3493309800683,-1.6848408267553,0.164714275174796,0.00994237670698361,0.161614363002665,-0.835090702757073,0.226459786569219,0.226459786569651,NaN,0.141526433682709,-0.305622492054258
374.0672,-0.904860139306129,0.518812642665107,-0.82193178841992,-1.035553524499,1.25339876678306,1.25339876678466,NaN,-0.535535831890656,-0.732311896703869,-0.452793148488186,-1.72042428936833,-0.45279314849014,-0.929756339534966,NaN,NaN,-1.87090105076118,NaN,-0.186452150286373,NaN,-1.70298977675873,NaN,0.799843820522151,NaN,NaN,NaN,2.12640998648531,NaN,-2.38274314146108,2.3827431414607,0.032551524999874,-1.51228323745598,0.687517367777645,-1.1550304162824,-0.324168475799769,1.03274717178911,0.296683866888588,-0.322470046299996,1.01689474766107,1.01689474766116,-2.33318651835302,1.34367824680673,-1.69088036544245,0.153728382717943,0.015443126861865,0.154391089995659,-0.849791113281881,0.242702606795538,0.242702606795977,NaN,0.124024256392566,-0.302696900320186
374.1696,-0.910465574154584,0.514215225314325,-0.837214965247764,-1.01620023517391,1.24915967273706,1.24915967273865,NaN,-0.551963923127885,-0.742845542214298,-0.443992460628618,-1.71470117629156,-0.443992460630535,-0.931463344534219,NaN,NaN,-1.86861899125775,NaN,-0.185303685959363,NaN,-1.69654574496374,NaN,0.775904887843039,NaN,NaN,NaN,2.13258483262271,NaN,-2.44500059694859,2.44500059694819,0.0374855498637039,-1.55568550590193,0.710011077083659,-1.18339964994106,-0.345129419861207,1.05548683699484,0.293724260046036,-0.340473246771286,1.01791925859881,1.01791925859889,-2.33641889820202,1.33803744617372,-1.69615817874657,0.142549341259664,0.021782410428405,0.147468768823938,-0.864097197516133,0.258612934331353,0.258612934331804,NaN,0.105397621408928,-0.300553845521304
374.272,-0.916074752345767,0.510672781036013,-0.851127921526274,-0.996355099777319,1.24541477874375,1.24541477874533,NaN,-0.567590176351172,-0.752279611647106,-0.435414671718995,-1.70823672187974,-0.435414671720874,-0.932893494996126,NaN,NaN,-1.86474519737035,NaN,-0.184646144038177,NaN,-1.68821193018508,NaN,0.751612790211414,NaN,NaN,NaN,2.13706270472267,NaN,-2.5055793618222,2.50557936182177,0.0425397346471873,-1.59744789202451,0.731474470549325,-1.21100924162439,-0.364044467174211,1.07849499136961,0.292304539854521,-0.357501864770379,1.01814502539821,1.01814502539828,-2.33888184499124,1.33240625024671,-1.70070125085543,0.131181190147388,0.0289308011177987,0.140834246479862,-0.877956492366849,0.274141153115692,0.274141153116151,NaN,0.0856589808455847,-0.299179697138255
374.3744,-0.921684428881609,0.508189123374602,-0.863660306663013,-0.9760738655577,1.24214206483695,1.24214206483852,NaN,-0.582402162522637,-0.760609503715068,-0.427091161753464,-1.70102017761492,-0.427091161755307,-0.934057472751545,NaN,NaN,-1.85927413693324,NaN,-0.184491632036572,NaN,-1.67798850891056,NaN,0.727012160619602,NaN,NaN,NaN,2.13988237271051,NaN,-2.56440855232471,2.56440855232427,0.0477278115526583,-1.63757585406308,0.751915805352691,-1.23785336488921,-0.380915522463976,1.10174351837449,0.292409260829499,-0.373476099894387,1.01757136620533,1.0175713662054,-2.34060453982954,1.32678138549209,-1.70453858542327,0.11962742054707,0.036856378963406,0.134472412606477,-0.891317852070732,0.289239640085073,0.289239640085541,NaN,0.0648269671092237,-0.298559670361623
374.4768,-0.927290696850088,0.506762400455242,-0.874808065320457,-0.955412334184968,1.23931614005066,1.23931614005222,NaN,-0.596389928421058,-0.767834689904299,-0.41905023337979,-1.6930434968779,-0.419050233381596,-0.934963793248693,NaN,NaN,-1.85220591929158,NaN,-0.184849732652661,NaN,-1.66588309561328,NaN,0.702148163749985,NaN,NaN,NaN,2.1410896355054,NaN,-2.62142132034122,2.62142132034076,0.0530620843741567,-1.67607848419404,0.771346782617006,-1.26392586782108,-0.395745900883883,1.12520402167978,0.294021868283368,-0.388319251454476,1.01620173972054,1.0162017397206,-2.34161752007698,1.3211585939899,-1.7077008597223,0.107891031243767,0.0455250211141628,0.128366420060125,-0.904131513510071,0.303862835436265,0.303862835436754,NaN,0.0429263239964355,-0.298677635233859
374.5792,-0.932888995327689,0.506385225543068,-0.884573280165343,-0.934426196797835,1.23690852336519,1.23690852336675,NaN,-0.609545896344381,-0.77395859433297,-0.411317046542138,-1.6843011816493,-0.411317046543901,-0.935618681475264,NaN,NaN,-1.84354623142002,NaN,-0.185727426676836,NaN,-1.65191066386645,NaN,0.677066405779374,NaN,NaN,NaN,2.14073684462519,NaN,-2.67655481136539,2.6765548113649,0.058553422852266,-1.71296812290081,0.789782321061874,-1.28922006681863,-0.40854007386588,1.14884789947317,0.297124910209593,-0.401958111282407,1.01404366351826,1.01404366351831,-2.3419523192441,1.31553261818606,-1.71022008850241,0.0959745692865896,0.0549007033852666,0.122497897336154,-0.916349150942053,0.317967291751896,0.3179672917524,NaN,0.0199878098807053,-0.299515956102661
374.6816,-0.938474125909866,0.507044847981858,-0.892963976226725,-0.913170874430824,1.23488792185891,1.23488792186046,NaN,-0.621864737350664,-0.778988448275971,-0.403913568689594,-1.67479012228266,-0.403913568691322,-0.936025956535161,NaN,NaN,-1.8333062313481,NaN,-0.187129056127886,NaN,-1.63609340213585,NaN,0.651812853502027,NaN,NaN,NaN,2.13888234574533,NaN,-2.72975011540059,2.72975011540008,0.0642112652359473,-1.74825993922543,0.80724029130305,-1.31372855557672,-0.419303446585697,1.17264646761779,0.301700252020103,-0.414323324815858,1.01110856345607,1.01110856345612,-2.3416411363539,1.30989720936718,-1.71212930655989,0.0838801626496693,0.0649458056486872,0.116847155654072,-0.927923930358772,0.331511710817514,0.331511710818039,NaN,-0.00395193759455636,-0.301055376579813
374.784,-0.944040279606786,0.508723364090249,-0.899993890290686,-0.891701364294068,1.23322050350973,1.23322050351126,NaN,-0.633343217050725,-0.782935118341496,-0.396858542974627,-1.66450943845469,-0.396858542976308,-0.936186916995225,NaN,NaN,-1.82150240336507,NaN,-0.189056337489838,NaN,-1.61846049982877,NaN,0.626433756505817,NaN,NaN,NaN,2.13558983734743,NaN,-2.78095221602863,2.78095221602809,0.0700436342618504,-1.7819714910151,0.823741218857241,-1.33744303720923,-0.428042185232319,1.19657114190878,0.307729286798744,-0.425349718215335,1.00741155526202,1.00741155526206,-2.34071653940306,1.30424516265551,-1.71346227332532,0.0716095500534695,0.0756214208708529,0.111393395459365,-0.938810574071053,0.344456976794902,0.344456976795447,NaN,-0.0288505802738707,-0.303274960849074
374.8864,-0.949581068487741,0.511397959578884,-0.905682207035565,-0.870072089480208,1.23187016764202,1.23187016764356,NaN,-0.643980011126584,-0.785812903119839,-0.390167477419689,-1.65346032734787,-0.39016747742133,-0.936100215075568,NaN,NaN,-1.80815637920391,NaN,-0.191508430432083,NaN,-1.59904786335862,NaN,0.600975567916655,NaN,NaN,NaN,2.13092764905884,NaN,-2.83010994510942,2.83010994510886,0.076057171023202,-1.81412228373542,0.83930796993615,-1.36035418393367,-0.434763109480902,1.22059368917583,0.315193135397663,-0.434976592464982,1.00297116603789,1.00297116603792,-2.33921120454974,1.29856838185847,-1.71425319971224,0.0591641050648528,0.0868876704407866,0.106114911139874,-0.9489654426219,0.356766188962569,0.356766188963141,NaN,-0.0546603045358338,-0.306152093622029
374.9888,-0.955089554586246,0.515041176164096,-0.910053259060522,-0.848336752311574,1.23079881150726,1.23079881150878,NaN,-0.653775491686762,-0.787639294947699,-0.383852658092599,-1.64164591839103,-0.383852658094195,-0.935761711541468,NaN,NaN,-1.79329473297586,NaN,-0.19448206432972,NaN,-1.57789776644752,NaN,0.575484860711443,NaN,NaN,NaN,2.12496794816338,NaN,-2.87717594919553,2.87717594919494,0.0822571889287822,-1.84473334114901,0.853965432630747,-1.38245152313085,-0.439473656872149,1.24468654769862,0.324072832008486,-0.443147986280174,0.997809002132707,0.997809002132726,-2.33715768879373,1.29285797390853,-1.71453649520723,0.0465448485894882,0.0987040238380522,0.100989287260732,-0.958346636534015,0.368404692474665,0.368404692475262,NaN,-0.0813280949591483,-0.309662532520646
375.0912,-0.960558268084015,0.519621194176772,-0.913136188286629,-0.826548193053456,1.22996659080271,1.22996659080422,NaN,-0.662731489318887,-0.788434707174534,-0.377923188231071,-1.62907113479127,-0.377923188232626,-0.935164318345326,NaN,NaN,-1.77694876113948,NaN,-0.197971719262906,NaN,-1.55505844719365,NaN,0.550008238853751,NaN,NaN,NaN,2.11778588668956,NaN,-2.92210667057253,2.92210667057192,0.088647748552438,-1.87382679097422,0.867740199032962,-1.40372334500902,-0.442181913821253,1.26882319940598,0.334349490017946,-0.449812918646072,0.991949375693118,0.991949375693127,-2.33458822733558,1.28710437148773,-1.71434652737852,0.0337524442744651,0.111029619949766,0.0959935795775825,-0.966914116462473,0.379340107516184,0.379340107516814,NaN,-0.108796051040324,-0.313780500166208
375.1936,-0.965979206542413,0.525102117780995,-0.914964572559683,-0.80475825350002,1.22933217759454,1.22933217759605,NaN,-0.670851037013555,-0.788222170253242,-0.372385054982855,-1.61574256597039,-0.372385054984382,-0.934297851101204,NaN,NaN,-1.75915425574459,NaN,-0.201969850858552,NaN,-1.53058366937839,NaN,0.524592246844091,NaN,NaN,NaN,2.10945870490364,NaN,-2.96486234267895,2.96486234267832,0.0952317504764318,-1.90142546216285,0.880660248227065,-1.42415662677859,-0.442896697471912,1.29297856361151,0.346004443777858,-0.454925627986662,0.985418910545241,0.98541891054524,-2.33153454276864,1.28129748335951,-1.71371738178576,0.0207871731429834,0.123823590607171,0.0911044776763171,-0.974629837986976,0.389542362540903,0.38954236254156,NaN,-0.137001732625847,-0.318478800816698
375.296,-0.971343813203161,0.531444252755308,-0.915576027286513,-0.783017644954197,1.22885301820855,1.22885301821005,NaN,-0.678138105236056,-0.787027007474962,-0.367241226008139,-1.60166835240144,-0.367241226009637,-0.933148913954313,NaN,NaN,-1.73995127138349,NaN,-0.206467142546017,NaN,-1.50453226218696,NaN,0.499283285681793,NaN,NaN,NaN,2.10006481715145,NaN,-3.00540699287348,3.00540699287282,0.102011038656988,-1.92755249203049,0.892754630255334,-1.44373697041722,-0.441627665918152,1.31712938242169,0.35901936670822,-0.458445811827328,0.97824614428332,0.978246144283309,-2.32802765767595,1.27542686506371,-1.71268261715737,0.00764889195454975,0.137045382123053,0.0862984510580354,-0.981457895935067,0.398983735637016,0.398983735637703,NaN,-0.165878523355931,-0.323728949067401
375.3984,-0.976642942711698,0.538604380751834,-0.915011790833306,-0.761375822636429,1.22848558770654,1.22848558770804,NaN,-0.684597338650001,-0.784876508626195,-0.362491774758413,-1.58685808124222,-0.36249177475988,-0.931700825390377,NaN,NaN,-1.71938388301559,NaN,-0.211452766873666,NaN,-1.47696764863427,NaN,0.474127542618625,NaN,NaN,NaN,2.08968291526198,NaN,-3.04370843786923,3.04370843786854,0.108986506348081,-1.95223094614886,0.904053153881039,-1.46244855365138,-0.438385434372574,1.34125457573397,0.373376370026191,-0.460338847702222,0.970461134198677,0.970461134198657,-2.3240977105901,1.26948188996223,-1.71127502362565,-0.00566301005328757,0.150655059613527,0.081551883760856,-0.987364672308005,0.407638899431471,0.40763889943219,NaN,-0.195356011514614,-0.329501305528722
375.5008,-0.981866825747848,0.54653604164193,-0.91331629756349,-0.739880868493594,1.22818563757138,1.22818563757287,NaN,-0.690233800159239,-0.781799615598531,-0.358134027838995,-1.57132269416408,-0.358134027840428,-0.929933578490423,NaN,NaN,-1.69749993605105,NaN,-0.216914642121353,NaN,-1.44795737265324,NaN,0.449170935646096,NaN,NaN,NaN,2.07839111860575,NaN,-3.07973825901464,3.07973825901393,0.116158199710136,-1.97548345769241,0.914586083474012,-1.48027409531466,-0.433181684624715,1.36533555282745,0.389058084256594,-0.460575967550736,0.96209507408152,0.962095074081491,-2.31977377984313,1.263451899162,-1.70952639672186,-0.0191496421609162,0.164613576631586,0.0768412005750279,-0.992318982788813,0.415484961974918,0.415484961975661,NaN,-0.225360387690631,-0.335765221985002
375.6032,-0.987005038890357,0.555189829092614,-0.910536742282905,-0.718579381653123,1.22790843837723,1.22790843837871,NaN,-0.695052723370696,-0.777826621870588,-0.354162725430201,-1.55507441145249,-0.354162725431595,-0.92782382620255,NaN,NaN,-1.67435079103786,NaN,-0.222839675905707,NaN,-1.41757263324535,NaN,0.424459068734779,NaN,NaN,NaN,2.0662661833823,NaN,-3.11347175413069,3.11347175412996,0.123525414978849,-1.99733189450654,0.924383850636977,-1.49719483817922,-0.426029268067472,1.3893564764371,0.406047721266899,-0.459134371832071,0.953179932653855,0.953179932653817,-2.31508372207783,1.25732632206895,-1.7074673367907,-0.032812628836532,0.17888300328963,0.0721429828684373,-0.996292219577666,0.422501502258591,0.422501502259362,NaN,-0.255814851649579,-0.342489199311565
375.7056,-0.992046480820401,0.564513696379481,-0.906722641829455,-0.697516374566547,1.22760902093077,1.22760902093224,NaN,-0.699059275146904,-0.772988881230244,-0.350570184877343,-1.53812667224185,-0.350570184878691,-0.925344890020639,NaN,NaN,-1.64999105753532,NaN,-0.229213987696434,NaN,-1.38588782857353,NaN,0.400037195344091,NaN,NaN,NaN,2.05338277164491,NaN,-3.14488786682192,3.14488786682116,0.131086783229111,-2.01779705879956,0.933476781899428,-1.51319055456515,-0.416942309326671,1.41330448016845,0.424329112426755,-0.455997288664092,0.943748119915772,0.943748119915722,-2.31005403403452,1.25109477126864,-1.70512708056175,-0.0466541175446763,0.193426719276846,0.0674340725463738,-0.999258488976173,0.428670605601826,0.428670605602622,NaN,-0.286640023578121,-0.349641055317371
375.808,-0.996979354883617,0.574453269095325,-0.901925398198321,-0.676735174391199,1.22724241563977,1.22724241564124,NaN,-0.702258332442938,-0.767318523689799,-0.347346460185464,-1.52049408275983,-0.347346460186758,-0.922466799755297,NaN,NaN,-1.6244783050788,NaN,-0.236023102468965,NaN,-1.35298010535184,NaN,0.375950193051678,NaN,NaN,NaN,2.03981277490911,NaN,-3.17396909031826,3.17396909031748,0.138840338469502,-2.03689841816028,0.941894838857503,-1.52823957898199,-0.405936315752841,1.43716983626729,0.443886717779582,-0.451153987089487,0.933832176320672,0.933832176320611,-2.30470974389724,1.24474711610929,-1.70253336913602,-0.0606767766143911,0.208209584393347,0.0626916724481535,-1.00119473733573,0.433976907210895,0.433976907211719,NaN,-0.317754365330538,-0.357188093743374
375.9104,-1.00179115944631,0.584952162427812,-0.896197868616278,-0.656277330288775,1.22676388665643,1.22676388665789,NaN,-0.704654278712522,-0.760848181119141,-0.344479500529836,-1.5021923595656,-0.344479500531083,-0.919156378554673,NaN,NaN,-1.5978727407502,NaN,-0.243252113071128,NaN,-1.31892890265372,NaN,0.352242558040933,NaN,NaN,NaN,2.02562468580878,NaN,-3.20070133818609,3.20070133818529,0.146783569989969,-2.05465386513595,0.949667368429424,-1.54231886754817,-0.393028291687013,1.46094606221727,0.464705601177322,-0.444599744560341,0.923464476676874,0.9234644766768,-2.29907433269134,1.23827353612743,-1.69971235240859,-0.0748837709149071,0.22319809802242,0.0578934613642733,-1.00208085382176,0.438407653839611,0.438407653840457,NaN,-0.349074619752498,-0.365097263481281
376.0128,-1.00646868758787,0.595952296546985,-0.88959395354688,-0.636182527851099,1.22612915587032,1.22612915587177,NaN,-0.706250824940638,-0.75361072584308,-0.341955321091162,-1.48323825608325,-0.341955321092358,-0.915377386131806,NaN,NaN,-1.57023685092986,NaN,-0.250885816079019,NaN,-1.28381547899564,NaN,0.328958429180759,NaN,NaN,NaN,2.01088301787252,NaN,-3.22507377483286,3.22507377483205,0.154913464333263,-2.0710795080547,0.956822868959057,-1.55540407842927,-0.378236852923814,1.48462995271765,0.486771367759541,-0.43633576642619,0.912676952491404,0.912676952491316,-2.29316968123219,1.23166455733107,-1.69668852447262,-0.0892787020769184,0.238360553119913,0.0530177394431684,-1.00189974080752,0.441952791845532,0.441952791846404,NaN,-0.380516270688915,-0.373335296357812
376.1152,-1.01099803607229,0.607394200264794,-0.882168215367033,-0.616488515238821,1.22529460720833,1.22529460720977,NaN,-0.707050860691907,-0.745639025446568,-0.339758195540214,-1.46364946679241,-0.339758195541361,-0.911090722578253,NaN,NaN,-1.54163501635881,NaN,-0.258908829266524,NaN,-1.24772242269028,NaN,0.306141641396771,NaN,NaN,NaN,1.99564778555965,NaN,-3.2470786076823,3.24707860768147,0.163226544853896,-2.08618950124892,0.963388786671208,-1.56746966084273,-0.361582337037522,1.50822153301534,0.510070064728638,-0.426369066566042,0.901500847692383,0.901500847692282,-2.28701603531712,1.2249110779963,-1.6934846804578,-0.103865510514902,0.253667182259784,0.0480436051651555,-1.00063735079599,0.444605081226837,0.444605081227734,NaN,-0.411994019672445,-0.381868812047938
376.2176,-1.01536462328254,0.619217296632973,-0.873975535454891,-0.597231049475695,1.22421745721302,1.22421745721446,NaN,-0.707056340992675,-0.736965719424811,-0.337870864932898,-1.44344450970418,-0.337870864933999,-0.906254687002354,NaN,NaN,-1.51213311929128,NaN,-0.267305697346319,NaN,-1.21073316156015,NaN,0.283835793113893,NaN,NaN,NaN,1.97997406188238,NaN,-3.26671085692423,3.26671085692339,0.171718915593079,-2.09999592210671,0.969391358309488,-1.57848893674852,-0.343086903276648,1.53172394241618,0.534588054181089,-0.414712327815713,0.889966518500555,0.88996651850044,-2.28063198271556,1.2180043900675,-1.69012188629751,-0.118648349444963,0.269090288396059,0.0429511500017077,-0.998282694954115,0.446360222377384,0.446360222378304,NaN,-0.443422266407962,-0.390664383744213
376.32,-1.0195532167333,0.631360170246584,-0.865070811012083,-0.578443868675018,1.22285588299351,1.22285588299494,NaN,-0.706268213540393,-0.727623024163222,-0.336274752341628,-1.42264258977193,-0.33627475234268,-0.900825286949432,NaN,NaN,-1.48179816254424,NaN,-0.276060990856171,NaN,-1.17293149194741,NaN,0.262084305664033,NaN,NaN,NaN,1.96391162341128,NaN,-3.28396812717998,3.28396812717914,0.180386310283827,-2.11250869558592,0.974855504595328,-1.58843416818242,-0.32277461375669,1.55514326153416,0.560311870491167,-0.401383754640215,0.87810327509022,0.878103275090093,-2.27403444009811,1.21093619823731,-1.68661945884602,-0.133631448018991,0.284604352220132,0.0377216498727468,-0.994827829922561,0.447216974138893,0.447216974139837,NaN,-0.474715574994676,-0.39968856909456
376.4224,-1.02354797179546,0.64376081998532,-0.855508689456547,-0.560158687364269,1.2211691125821,1.22116911258352,NaN,-0.704686388271856,-0.717642570313068,-0.334950180314098,-1.40126344617443,-0.334950180315103,-0.894756594735075,NaN,NaN,-1.45069791389554,NaN,-0.285159402044022,NaN,-1.13440113764625,NaN,0.240930456558815,NaN,NaN,NaN,1.94750468213808,NaN,-3.29885039933152,3.29885039933067,0.189224140871782,-2.12373555694008,0.979804760805975,-1.5972766196008,-0.300671492555455,1.57848829354809,0.587228069742785,-0.386406918621362,0.865939255076862,0.865939255076722,-2.26723865114599,1.20369863358865,-1.68299495874499,-0.14881897820502,0.300186105684923,0.0323377335407368,-0.990267829215975,0.447177245330129,0.447177245331091,NaN,-0.505789112735813,-0.408907920711369
376.5248,-1.02733248544132,0.656356903527687,-0.845343338429874,-0.542405206030302,1.21911749276856,1.21911749276997,NaN,-0.702309748850037,-0.707055274585437,-0.333876593991693,-1.37932719003145,-0.333876593992651,-0.888001139406426,NaN,NaN,-1.41890058293419,NaN,-0.294585839163321,NaN,-1.09522534056661,NaN,0.220417379528059,NaN,NaN,NaN,1.93079170244946,NaN,-3.31135984500841,3.31135984500755,0.198227538047069,-2.1336820367757,0.984261220087442,-1.60498663281195,-0.276805567270996,1.60177030752589,0.615323072130778,-0.369810594912647,0.853501321785064,0.853501321784914,-2.26025819604669,1.19628425552021,-1.67926419869128,-0.164214930309119,0.315814559058055,0.0267835160182273,-0.98460074680519,0.446246155671176,0.446246155672154,NaN,-0.536559054729555,-0.418288992524887
376.6272,-1.03088986956168,0.669085980484007,-0.834628250025883,-0.525211127583456,1.21666254645743,1.21666254645883,NaN,-0.699136204192703,-0.695891247329741,-0.333032789886408,-1.35685414166805,-0.333032789887327,-0.880510320857341,NaN,NaN,-1.3864745345336,NaN,-0.304325518504821,NaN,-1.05548648105332,NaN,0.200588034919408,NaN,NaN,NaN,1.91380530658298,NaN,-3.32150065693333,3.32150065693247,0.207391380986507,-2.14235145713842,0.988245471234059,-1.61153372858382,-0.251206901434763,1.62500275225052,0.644582995809441,-0.351628590312353,0.840814985545003,0.840814985544841,-2.25310501253462,1.18868603771811,-1.67544126891469,-0.179822993177647,0.331470973690773,0.0210446962301692,-0.977827581967149,0.444432072896721,0.444432072897711,NaN,-0.566942950583634,-0.427798354339134
376.7296,-1.03420284378787,0.681885757485078,-0.823416074775916,-0.508602179912052,1.21376702003547,1.21376702003686,NaN,-0.695162778186258,-0.684179734799417,-0.332397144879632,-1.33386467144171,-0.332397144880502,-0.872234841173101,NaN,NaN,-1.35348804082857,NaN,-0.314364053369,NaN,-1.01526572569201,NaN,0.181485153385035,NaN,NaN,NaN,1.89657227179146,NaN,-3.32927889203893,3.32927889203808,0.216710320552926,-2.14974494147209,0.991776529518546,-1.61688674178828,-0.223907627696335,1.64820094736328,0.674993478805979,-0.331899562162289,0.827904342637633,0.827904342637459,-2.24578943272015,1.18089733966855,-1.67153858331233,-0.195646435845043,0.347138782779121,0.0151086233055637,-0.969952249429178,0.441746631394271,0.441746631395279,NaN,-0.596860055907775,-0.437402621438669
376.832,-1.03725384172782,0.694694334274749,-0.811758476543569,-0.492602149631588,1.2103949115511,1.21039491155249,NaN,-0.690385735122564,-0.671949090106426,-0.331947836856686,-1.31037904010431,-0.331947836857514,-0.863125155404097,NaN,NaN,-1.32000906993969,NaN,-0.324687539390401,NaN,-0.974642703756167,NaN,0.163151146548563,NaN,NaN,NaN,1.87911361566302,NaN,-3.33470233072395,3.33470233072309,0.22617880154663,-2.15586145290945,0.994871773413174,-1.62101399027918,-0.194941992334535,1.67138175716717,0.706539484437445,-0.310666825171574,0.814792017698274,0.814792017698089,-2.23832024330516,1.17291187129382,-1.66756695049121,-0.21168799505313,0.362803471442585,0.00896433384329792,-0.960981549077467,0.438204733332811,0.43820473333383,NaN,-0.62623163674189,-0.447068499937616
376.9344,-1.04002512335411,0.707450448667341,-0.799705999090858,-0.477232934078607,1.20651146791698,1.20651146791836,NaN,-0.684800738071793,-0.659226765137913,-0.331663050057481,-1.28641723229992,-0.331663050058263,-0.853131941332297,NaN,NaN,-1.28610510895467,NaN,-0.335282636019429,NaN,-0.933695217058874,NaN,0.145627975751593,NaN,NaN,NaN,1.86144476177228,NaN,-3.33778035654736,3.33778035654649,0.235791085517871,-2.1606978768219,0.997546903987978,-1.62388347315099,-0.164346416627896,1.69456325590413,0.739205090863528,-0.287978145547743,0.801499095035493,0.801499095035297,-2.23070477370425,1.16472366124512,-1.66353566989134,-0.227949776095136,0.378452431785346,0.00260256213578401,-0.95092512699029,0.433824536352245,0.433824536353282,NaN,-0.654981249910168,-0.456762843381255
377.0368,-1.04249888944604,0.720093717994124,-0.787307940627109,-0.462514616655326,1.2020831425106,1.20208314251198,NaN,-0.678403041475268,-0.646039321182885,-0.331521165387708,-1.261998778991,-0.331521165388438,-0.842206583270961,NaN,NaN,-1.25184302063675,NaN,-0.346136644725043,NaN,-0.892498987120552,NaN,0.128956976566123,NaN,NaN,NaN,1.84357577826234,NaN,-3.33852385922524,3.33852385922438,0.245541275029111,-2.16424915752741,0.999815939048316,-1.62546309285175,-0.132159570518148,1.71776439476241,0.772973273067845,-0.263885525291482,0.788045032370925,0.788045032370718,-2.22294900877892,1.15632703631477,-1.65945264694135,-0.244433168243858,0.39407480514535,-0.00398427080043138,-0.939795423476509,0.428627434895885,0.428627434896933,NaN,-0.683034993697788,-0.466452712579484
377.1392,-1.04465739893001,0.732564874160116,-0.774612241495558,-0.448465567002239,1.19707750968543,1.1970775096868,NaN,-0.671187724889543,-0.632412463071344,-0.331500944043226,-1.23714256353799,-0.331500944043915,-0.830301670217312,NaN,NaN,-1.21728893009895,NaN,-0.357237585035766,NaN,-0.851127435662588,NaN,0.113178642570324,NaN,NaN,NaN,1.82551168262013,NaN,-3.33694516444213,3.33694516444126,0.255423342777986,-2.16650848899999,1.00169124502886,-1.6257208956869,-0.0984224441451441,1.74100467180937,0.807825687771882,-0.238444977799239,0.774447556250505,0.774447556250287,-2.21505771815747,1.14771661395337,-1.65532451884378,-0.261138767684319,0.409661315446617,-0.0108020804284202,-0.927607602729724,0.422638036269786,0.422638036270841,NaN,-0.710321725501495,-0.476105427902144
377.2416,-1.04648309395365,0.744805991840342,-0.761665393621024,-0.435102564101449,1.19146313732506,1.19146313732644,NaN,-0.66314997376621,-0.618371102359965,-0.331581715100635,-1.21186660149464,-0.331581715101289,-0.817371518280328,NaN,NaN,-1.18250813388152,NaN,-0.368574271864328,NaN,-0.809651487609678,NaN,0.0983323688480265,NaN,NaN,NaN,1.80725280762245,NaN,-3.33305799681854,3.33305799681768,0.2654311656757,-2.1674675486938,1.00318359972285,-1.62462532581062,-0.0631783969858113,1.76430379769253,0.843742471600051,-0.211716290529854,0.760722539222087,0.760722539221859,-2.20703459536867,1.13888730758687,-1.6511567846757,-0.278066300258095,0.425204092677524,-0.0178551474126183,-0.914379456229653,0.415884124276804,0.415884124277869,NaN,-0.736773251969966,-0.485688605743773
377.344,-1.04795873733593,0.756760713549493,-0.74851237453672,-0.42244093772102,1.18520942348215,1.18520942348352,NaN,-0.654285403409444,-0.603939449927043,-0.331743573420212,-1.18618778654207,-0.331743573420832,-0.803372724320975,NaN,NaN,-1.14756503003519,NaN,-0.380136399784968,NaN,-0.768139390290097,NaN,0.0844561486155591,NaN,NaN,NaN,1.78879522510072,NaN,-3.32687748360053,3.32687748359969,0.275558558666438,-2.16711675968332,1.00430227278706,-1.62214549235985,-0.0264731699850178,1.78768135457548,0.880702061255997,-0.183762768594772,0.746883861372376,0.746883861372139,-2.19888240252217,1.12983434347729,-1.64695393624253,-0.295214543029131,0.440696484473009,-0.0251461520879774,-0.900131277595423,0.40839660433494,0.408396604336014,NaN,-0.762324499608573,-0.495170180982599
377.4464,-1.04906756595527,0.768374477132966,-0.735196604651802,-0.410494720171552,1.17828641135261,1.17828641135399,NaN,-0.64459040977384,-0.589141133239325,-0.33196758903157,-1.1601216098332,-0.331967589032151,-0.788264742015963,NaN,NaN,-1.11252307471552,NaN,-0.391914632995338,NaN,-0.726656552338001,NaN,0.0715862222143021,NaN,NaN,NaN,1.77013121853432,NaN,-3.31842020183628,3.31842020183544,0.28579930632126,-2.16544557106491,1.00505511114964,-1.61825145641813,0.0116451355814326,1.81115645402716,0.918681036017169,-0.154650956550336,0.732943267297827,0.73294326729758,-2.19060311774619,1.12055328545496,-1.64271958847152,-0.312581246854635,0.456132852803569,-0.0326762184719933,-0.884885715100004,0.400209433437653,0.400209433438732,NaN,-0.786913672901842,-0.504518425706873
377.5488,-1.04979346514618,0.779594750210617,-0.721759930246574,-0.399276797160295,1.17066460469949,1.17066460470086,NaN,-0.634062523687612,-0.573999331721109,-0.332236026417558,-1.13368187476514,-0.332236026418102,-0.772010460046574,NaN,NaN,-1.07744476432732,NaN,-0.403900685031917,NaN,-0.685265409721874,NaN,0.0597566954749256,NaN,NaN,NaN,1.75124978501662,NaN,-3.30770426318087,3.30770426318004,0.296147197092152,-2.16244275269156,1.00544862091992,-1.61291454625688,0.051126093477477,1.83474740096562,0.957653973047701,-0.124450340364494,0.718910236626831,0.718910236626575,-2.18219808505461,1.11104006307565,-1.6384566107733,-0.330163058842404,0.471508354043528,-0.0404449677575709,-0.868667611259197,0.391359544267382,0.391359544268463,NaN,-0.810482412569385,-0.513701974176231
377.6512,-1.05012116752375,0.790371272731211,-0.708242636348593,-0.388799048821741,1.16231480237992,1.16231480238129,NaN,-0.622700748466651,-0.558536923804603,-0.332532568481875,-1.10688042931917,-0.332532568482396,-0.754576762862044,NaN,NaN,-1.04239162820528,NaN,-0.41608736685105,NaN,-0.644025324209655,NaN,0.048999151464783,NaN,NaN,NaN,1.73213714452795,NaN,-3.29474942419536,3.29474942419453,0.306596064078062,-2.15809670222534,1.0054880430231,-1.6061077025349,0.0919169831924571,1.85847136879544,0.997593305122619,-0.0932330338715375,0.704791882157104,0.704791882156841,-2.17366816871477,1.10129100154412,-1.63416726198821,-0.347955442338001,0.48681870613476,-0.0484505769127093,-0.851503836301968,0.381886767878719,0.381886767879798,NaN,-0.832975972643933,-0.522689859536226
377.7536,-1.05003647089962,0.800656302462098,-0.694683487402311,-0.379072480240717,1.15320795609303,1.15320795609439,NaN,-0.610505871143739,-0.542776639172919,-0.332842532979775,-1.07972693020121,-0.332842532980272,-0.735935058804471,NaN,NaN,-1.00742421047388,NaN,-0.428468592093125,NaN,-0.602992517791994,NaN,0.0393422717169037,NaN,NaN,NaN,1.71277724093239,NaN,-3.27957720885245,3.27957720885163,0.317139828474757,-2.15239575903897,1.00517742307717,-1.59780584408177,0.133962806852325,1.88234408953119,1.03846917642856,-0.0610734550657661,0.690592880271156,0.690592880270885,-2.1650139122346,1.09130285427385,-1.62985332868949,-0.365952596251698,0.502059952558469,-0.0566898384967756,-0.833423116509567,0.371833748820484,0.371833748821565,NaN,-0.854343427066901,-0.531451563542621
377.856,-1.04952645860944,0.81040484980996,-0.681119785853194,-0.370107347376104,1.14331504453488,1.14331504453623,NaN,-0.597480744703321,-0.52674120800498,-0.333153063203305,-1.05222865223244,-0.333153063203802,-0.716061760453644,NaN,NaN,-0.97260202650468,NaN,-0.441039342317639,NaN,-0.562220048813357,NaN,0.0308114750387123,NaN,NaN,NaN,1.69315222230963,NaN,-3.26221103413297,3.26221103413215,0.327772537052421,-2.14532851566586,1.00451967729395,-1.58798623676045,0.177206289805583,1.90637956058041,1.08024929553092,-0.0280480009211214,0.676315434450098,0.67631543444982,-2.15623569476634,1.081072836804,-1.62551626050142,-0.384147381088247,0.517228235925927,-0.0651582212709848,-0.814455855783138,0.36124584071536,0.36124584071644,NaN,-0.874537894802401,-0.539957076913323
377.9584,-1.04857969702204,0.81957488104772,-0.667587434155467,-0.361913282079667,1.13260696058541,1.13260696058675,NaN,-0.58363053824529,-0.510453495584367,-0.333453275911908,-1.02439036154725,-0.333453275912399,-0.694938702306737,NaN,NaN,-0.937983494353337,NaN,-0.453795605216519,NaN,-0.521757836826963,NaN,0.0234285778849764,NaN,NaN,NaN,1.67324288522348,NaN,-3.24267633425722,3.2426763342564,0.33848838715469,-2.13688412258692,1.00351666108122,-1.5766288473242,0.221587858727657,1.93058976592345,1.12289878014236,0.00576526474775067,0.661959274561801,0.661959274561515,-2.14733386977678,1.07059865383515,-1.62115729126219,-0.402531263108372,0.532319593554726,-0.0738499352848015,-0.794633956559869,0.350170972969857,0.350170972970943,NaN,-0.893516753979476,-0.548176966609267
378.0608,-1.04718638385656,0.828127467755867,-0.654120985471292,-0.354499408473726,1.12105442459052,1.12105442459186,NaN,-0.5689629489312,-0.493936608150304,-0.333734357891114,-0.996214269537723,-0.33373435789161,-0.672553487987712,NaN,NaN,-0.903625858308676,NaN,-0.466734305837224,NaN,-0.48165273451098,NaN,0.0172114815983896,NaN,NaN,NaN,1.65302907176853,NaN,-3.22100067581132,3.22100067581051,0.349281738071175,-2.12705259185679,1.0021692531401,-1.56371666865851,0.267045586086051,1.95498440299383,1.16637998165801,0.0402868915169994,0.647521700379913,0.64752170037962,-2.13830886763722,1.05987850514435,-1.6167775341731,-0.42109428775262,0.547329783134809,-0.0827580072965878,-0.773990658735888,0.338659486677955,0.338659486679046,NaN,-0.91124181172717,-0.556082443985274
378.1632,-1.0453384320471,0.836026869735326,-0.640753674409409,-0.347874432044766,1.1086279505341,1.10862795053543,NaN,-0.553488370174469,-0.477213959021024,-0.33398961305527,-0.967700067293941,-0.333989613055777,-0.648899770655555,NaN,NaN,-0.869585130996027,NaN,-0.479853249344789,NaN,-0.441948628058986,NaN,0.0121739009052157,NaN,NaN,NaN,1.63249002620145,NaN,-3.19721384931043,3.19721384930962,0.360147111480647,-2.11582510393702,1.00047746409525,-1.54923600753996,0.313515099572865,1.97957060076679,1.21065228121366,0.0754362758943786,0.632997683428809,0.632997683428509,-2.12916124873632,1.04891105931523,-1.61237804253529,-0.439825086274704,0.562254139067247,-0.0918743699275701,-0.752560415654441,0.326763945525776,0.326763945526873,NaN,-0.927679405720611,-0.563645419680839
378.2656,-1.04302949674242,0.843240558801192,-0.627517430704191,-0.342046686564239,1.09529788189682,1.09529788189815,NaN,-0.537220017348655,-0.460309296074175,-0.334214471257448,-0.93884501252334,-0.33421447125796,-0.623977477464894,NaN,NaN,-0.835916072974284,NaN,-0.493151080935003,NaN,-0.402686538486961,NaN,0.00832514526340638,NaN,NaN,NaN,1.6116047342742,NaN,-3.17134792802514,3.17134792802433,0.37107918611056,-2.10319431363978,0.998440567194883,-1.53317673282277,0.36092947445911,2.00435262176349,1.25567186592917,0.11113185074829,0.618380032331814,0.618380032331509,-2.11989171044366,1.03769539633621,-1.60795983882379,-0.458710908729998,0.577087450756592,-0.101189963092498,-0.730378810702361,0.314538933363968,0.314538933365075,NaN,-0.942800434453028,-0.570838530402529
378.368,-1.04025497610685,0.849739211607642,-0.614442889903646,-0.337024142135801,1.08103448401573,1.08103448401705,NaN,-0.520174023317379,-0.443246708305575,-0.334406476092576,-0.909644025585781,-0.334406476093102,-0.597792987688411,NaN,NaN,-0.802672210262969,NaN,-0.50662725459526,NaN,-0.363904707646831,NaN,0.00566993662024276,NaN,NaN,NaN,1.59035226764985,NaN,-3.14343730176662,3.14343730176582,0.382072794323538,-2.08915465234292,0.996057242709566,-1.51553249413763,0.409219131230185,2.029331561717,1.30139150760257,0.147291252996184,0.603659603334682,0.60365960333437,-2.11050107279976,1.02623093224158,-1.60352393057677,-0.477737668386089,0.591823845533435,-0.110694843568507,-0.707482501777774,0.302040852277831,0.302040852278942,NaN,-0.956580338992857,-0.577635142362874
378.4704,-1.03701202308077,0.855496704507193,-0.601559419556823,-0.332814392722879,1.06580806015678,1.06580806015809,NaN,-0.502369522869386,-0.426050637480824,-0.334565268377967,-0.880089765389895,-0.334565268378506,-0.570359270742354,NaN,NaN,-0.769905876253403,NaN,-0.520281996543394,NaN,-0.325638673547527,NaN,0.0042082291263624,NaN,NaN,NaN,1.56871214416445,NaN,-3.11351870284598,3.11351870284517,0.393122927183664,-2.07370262978602,0.993325727203957,-1.49630093150776,0.458311748195667,2.05450507061067,1.34776036243327,0.183831493783763,0.588825525441852,0.588825525441533,-2.10099027237218,1.01451734558882,-1.59907133332434,-0.496889980317009,0.606456657534909,-0.120378297160386,-0.683909173593109,0.289327731088707,0.289327731089829,NaN,-0.968999069192598,-0.584009355022766
378.5728,-1.03329958971861,0.860490127161706,-0.588895174897656,-0.329424640635084,1.0495890660544,1.0495890660557,NaN,-0.483828740035248,-0.408745912884138,-0.334692573509353,-0.850172683856316,-0.334692573509894,-0.541695990993347,NaN,NaN,-0.737668260326037,NaN,-0.534116250673208,NaN,-0.287921348231544,NaN,0.00393501924524239,NaN,NaN,NaN,1.54666470417353,NaN,-3.0816312332014,3.08163123320059,0.404224745800764,-2.05683713518341,0.990243957644317,-1.47548389284308,0.508132190051787,2.07986710504086,1.39472379745025,0.220669139087701,0.573865420933921,0.573865420933596,-2.091360375201,1.00255452416801,-1.59460310373708,-0.516151181059888,0.620978274753114,-0.130228945538774,-0.65969747783382,0.276459044351586,0.276459044352715,NaN,-0.980041053274204,-0.589936021151534
378.6752,-1.02911850101769,0.864699808999266,-0.576477186618179,-0.326861684535148,1.03234821723579,1.03234821723708,NaN,-0.464577078371031,-0.391357809845564,-0.334792189415132,-0.819881072315497,-0.334792189415672,-0.511829585965926,NaN,NaN,-0.706009446155758,NaN,-0.548131600081573,NaN,-0.250783104994233,NaN,0.00484016503858915,NaN,NaN,NaN,1.52419149318851,NaN,-3.04781638795949,3.04781638795868,0.415373587242596,-2.03855973099638,0.986809703604249,-1.45308766064889,0.558602452154973,2.10540770660761,1.44222324081611,0.257720494641066,0.558765617973265,0.558765617972934,-2.08161260004796,0.99034253953571,-1.59012037167692,-0.535503326081175,0.635379973465456,-0.14023483935746,-0.634886947987835,0.263495530783179,0.263495530784315,NaN,-0.989695169890022,-0.595390778144787
