time,S1-D1,S1-D8,S1-D9,S1-D15,S2-D1,S2-D2,S2-D3,S2-D9,S3-D1,S3-D2,S3-D16,S4-D2,S4-D3,S4-D5,S5-D3,S5-D4,S5-D5,S6-D2,S6-D5,S6-D17,S7-D6,S7-D7,S8-D6,S8-D7,S8-D18,S9-D3,S9-D4,S9-D9,S9-D11,S9-D19,S10-D8,S10-D9,S10-D10,S10-D11,S11-D8,S11-D10,S11-D20,S12-D10,S12-D11,S12-D12,S13-D4,S13-D11,S13-D12,S14-D10,S14-D12,S14-D21,S15-D13,S15-D14,S16-D13,S16-D14,S16-D22
1319.0144,-1.37222633263068,0.949627649898221,-0.565660280313954,-0.211822898208577,0.507776004225878,0.507776004228161,0.0771456150778988,1.6698279077724,0.449325360733978,0.949891400472685,-0.424639766955788,0.94989140047234,0.331480332553702,-0.227587213106493,0.13038039509282,NaN,-0.641257360223662,0.369029767558908,0.969008909884711,-0.231160783779886,0.969008909883951,-0.185842865957176,-0.453620083880269,-0.39311266073211,0.509105289827969,-1.08054009909412,NaN,-0.11678188126034,0.116781881260126,1.15892117787235,1.04834512522412,-0.456511963187652,0.749594318972712,1.17711339667481,-1.13253114899798,0.599090611170861,0.383803181859682,-0.874674093070949,-0.874674093068626,0.765266724163542,NaN,0.734675763068672,0.803639913763674,-0.669328190915266,0.599482229615968,0.34627832080633,0.00978886808317774,0.00978886808417363,1.07400182471838,-1.07400182471817,-0.200265969779444
1319.1168,-1.36924248362061,0.947587665839375,-0.564412769377089,-0.223435879091052,0.520494671544884,0.520494671547144,0.0938705668118982,1.67761592629188,0.465715212317884,0.952029935136505,-0.435614803399299,0.952029935136162,0.28861097893373,-0.227847514866495,0.091559341615195,NaN,-0.620797463093301,0.360388446465329,0.921522280909524,-0.242779779792893,0.921522280908757,-0.204066131996976,-0.463055492311268,-0.411372106181351,0.490514992273635,-1.08020735733781,NaN,-0.106349420372813,0.106349420372565,1.14554174791032,1.06044309726787,-0.461514478253804,0.758365857915757,1.18626533941279,-1.12548404216131,0.610860422697679,0.366441052277493,-0.882782408683263,-0.882782408680955,0.78292062026557,NaN,0.762390035428219,0.815847014234075,-0.651686699200233,0.621160438611708,0.335921442604286,0.0340672111540396,0.0340672111550179,1.05410608216544,-1.05410608216523,-0.201752570643797
1319.2192,-1.36595537919563,0.944291291819584,-0.563774791699528,-0.235435152953415,0.531477932259178,0.53147793226141,0.107168409271346,1.68143590404791,0.478204023653268,0.95350343133876,-0.446349634430044,0.953503431338427,0.24465249384545,-0.226416823070497,0.0530074460254083,NaN,-0.601209931017037,0.350436945199413,0.873256627402076,-0.254436584619743,0.873256627401302,-0.222447151358829,-0.472325385170148,-0.429646514262496,0.471327685819285,-1.07939838513243,NaN,-0.097026124549738,0.0970261245494623,1.13096332894997,1.07174802936464,-0.465787470638596,0.76674558246765,1.19351309592013,-1.11733104469616,0.62133531330032,0.347752863447632,-0.889537102567321,-0.889537102565044,0.801363096445458,NaN,0.791011004431621,0.827914329998999,-0.634002253373307,0.642701158815814,0.324975454825367,0.0578551827252467,0.0578551827262081,1.03335286289164,-1.03335286289143,-0.203213039020424
1319.3216,-1.36235230586198,0.939726065401393,-0.563743678406212,-0.247827899858429,0.540717766298881,0.540717766301096,0.11702393103136,1.68129922881339,0.486781112992244,0.954349330290813,-0.456824275623423,0.954349330290492,0.199701747806877,-0.223292777978353,0.014813741144586,NaN,-0.582517127654103,0.339223067622674,0.824285827771708,-0.266123621184784,0.824285827770925,-0.240985489123044,-0.481405871529658,-0.447921748840339,0.451539480902631,-1.07807848145246,NaN,-0.0888514280113682,0.0888514280110692,1.1151595943693,1.08223899521326,-0.469273546390997,0.774740551276123,1.19884524331463,-1.10804673344368,0.630515944410998,0.32775405693796,-0.894968702149129,-0.894968702146874,0.820564231845104,NaN,0.820507338791546,0.839815155223298,-0.616266976172387,0.664077974235603,0.31345783589924,0.0811128077666915,0.0811128077676427,1.01173430575289,-1.01173430575268,-0.204652506597456
1319.424,-1.3584218451659,0.933882836181426,-0.564315598835365,-0.260619364828924,0.548210070930043,0.548210070932238,0.123436852629504,1.67723065755273,0.491451898933513,0.954604674250096,-0.467018860792149,0.954604674249787,0.153858018043415,-0.218476364768945,-0.0229330452629482,NaN,-0.564739177148327,0.326798353662598,0.774686532581808,-0.277831358781123,0.774686532581018,-0.25967863877678,-0.490272520952101,-0.466181906686646,0.431147252390992,-1.07621423694456,NaN,-0.0818629233577644,0.0818629233574471,1.09810609677155,1.09189675651005,-0.471917737741083,0.782358258616083,1.20225524803695,-1.0976090371286,0.638406072547586,0.306463091543522,-0.899110080156932,-0.89911008015471,0.840491374242537,NaN,0.850844103432593,0.851522708779377,-0.598472969711321,0.685264393686757,0.301387000796984,0.103799666650744,0.103799666651682,0.989245279443961,-0.989245279443757,-0.206075658006448
1319.5264,-1.35415394645534,0.926755859853476,-0.565485559853323,-0.273812778734018,0.553954688321572,0.553954688323748,0.126421746910197,1.66926819750093,0.492237803645855,0.954305969941186,-0.476913676160486,0.95430596994089,0.107222710264065,-0.211972001242494,-0.0601448060493695,NaN,-0.547893833301343,0.313217907276191,0.724537898788804,-0.289548294990209,0.724537898788004,-0.278521925969759,-0.498900463846907,-0.484409307991246,0.410148726523752,-1.07377367737584,NaN,-0.0760962022399239,0.0760962022395839,1.07978039744669,1.10070392730443,-0.473667732713511,0.789606679823556,1.20374154057735,-1.08599930977407,0.645012586664621,0.28390149529649,-0.901996417000785,-0.901996416998582,0.861109285208208,NaN,0.881982903096045,0.863010305225953,-0.58061241362753,0.706233998344395,0.288782234490437,0.125874956573921,0.125874956574847,0.965883468402462,-0.965883468402261,-0.207486778121432
1319.6288,-1.34953998433824,0.918342885030217,-0.567247396510357,-0.287409289387573,0.557955450285912,0.55795545028807,0.126007907940557,1.65746293860375,0.489176100045825,0.9534890828694,-0.486489187367817,0.953489082869119,0.0598991058027796,-0.203787631081751,-0.096734351498145,NaN,-0.531996353359841,0.298540228522125,0.673921334806828,-0.301260960221473,0.67392133480602,-0.297508421853118,-0.507264498092119,-0.502584497229038,0.388542572156493,-1.0707264128272,NaN,-0.0715846583079326,0.0715846583075746,1.06016221121873,1.10864512453752,-0.474474118260653,0.796494297939314,1.20330757443107,-1.07320241697802,0.650345524899584,0.260093912337186,-0.903665141410927,-0.903665141408748,0.882380283653336,NaN,0.913882027897961,0.87425151773546,-0.562677669349442,0.726960577489755,0.275663649412661,0.14729754131594,0.147297541316854,0.941649459978553,-0.941649459978362,-0.208889795744266
1319.7312,-1.34457281009197,0.90864523372284,-0.569593761716206,-0.301407904000389,0.560220240761291,0.560220240763426,0.122239174075813,1.64187884285309,0.482319709067849,0.952189148905383,-0.495726073768888,0.952189148905123,0.0119921293969036,-0.193934826662887,-0.132615694605548,NaN,-0.517059358626561,0.282827048581048,0.622920256611501,-0.31295394703777,0.622920256610683,-0.316628876012508,-0.515339198177188,-0.520686259246592,0.366328492598459,-1.06704377940525,NaN,-0.0683592369762899,0.06835923697592,1.03923355396482,1.11570709728937,-0.474290625001961,0.803030110167206,1.20096187251309,-1.05920681973856,0.654418080623413,0.235068140279374,-0.90415584622081,-0.904155846218662,0.904264371115308,NaN,0.946496585578654,0.885220313645549,-0.544661383062811,0.747418234115641,0.262052154372117,0.168025990496462,0.168025990497364,0.916546817580609,-0.916546817580423,-0.210288332367307
1319.8336,-1.3392468039804,0.897667874625582,-0.572516121780928,-0.315805443900389,0.560761067086453,0.560761067088573,0.11517370340972,1.62259249013567,0.471736945397899,0.950440487804792,-0.504605281602701,0.950440487804549,-0.0363918762587957,-0.182428898504956,-0.167704335166285,NaN,-0.503092679342149,0.266143160965024,0.571619848431798,-0.324609960657676,0.571619848430971,-0.335871672845495,-0.523099025172171,-0.538691652290777,0.34350731446678,-1.06269896639966,NaN,-0.0664481487277954,0.0664481487274109,1.01697888106617,1.12187883274638,-0.47307435778468,0.809223619530049,1.196718058219,-1.04400463936982,0.657246602532537,0.208855152189865,-0.903510183505924,-0.90351018350381,0.926719337806859,NaN,0.979778620067139,0.895891160357848,-0.52655658050488,0.767581460941289,0.247969416332806,0.188018618613712,0.188018618614597,0.890582126302414,-0.890582126302231,-0.211685758969751
1319.936,-1.3335579309663,0.885419485699512,-0.57600476251514,-0.330596511606992,0.559594124224484,0.559594124226578,0.104883694561952,1.59969277885087,0.457511205115852,0.948276509550597,-0.51310809697655,0.948276509550368,-0.0851453848650192,-0.169289000011561,-0.201917548403394,NaN,-0.490103196033261,0.248556242280375,0.5201068222089,-0.336209884622135,0.520106822208067,-0.35522281348178,-0.530518434343666,-0.556576057612356,0.320081070816228,-1.05766713005736,NaN,-0.0658765804444372,0.0658765804440396,0.993385213040361,1.12715164107669,-0.47078600156888,0.815084818509753,1.19059486561511,-1.02759169557919,0.658850587150927,0.181489098640366,-0.901771747201617,-0.90177174719954,0.949700861829254,NaN,1.0136772287412,0.906239114404886,-0.508356751360647,0.78742520223439,0.233437799373867,0.20723353845811,0.207233538458982,0.863765005440433,-0.863765005440245,-0.213085259591179
1320.0384,-1.32750379821474,0.871912500252251,-0.580048808522519,-0.345773470085453,0.556739835220935,0.556739835223009,0.0914550450249441,1.57328057948311,0.439740588038039,0.945729611686128,-0.521216230491658,0.945729611685915,-0.134159945693645,-0.15453820835927,-0.235174678325079,NaN,-0.478094692363553,0.230136659606489,0.468469173037014,-0.347732855201902,0.468469173036173,-0.374665926838011,-0.537571975101027,-0.574313245089112,0.296053075816183,-1.05192549719871,NaN,-0.0666664360063042,0.066666436005911,0.968442248800033,1.13151922310847,-0.467389998909943,0.820624169929923,1.18261612493226,-1.00996751787322,0.659252660068547,0.153007287350336,-0.898985950755659,-0.89898595075362,0.973162616738571,NaN,1.04813869318774,0.916239909246352,-0.490055926348969,0.806924917511737,0.218480273000962,0.22562873846711,0.225628738467968,0.836108090544744,-0.836108090544553,-0.214489898859735
1320.1408,-1.32108370844756,0.857163131702309,-0.584636253727674,-0.361326434089156,0.552222856838562,0.552222856840603,0.0749869411433568,1.54346833812225,0.418537448895572,0.942831072373007,-0.52891190118633,0.942831072372808,-0.183326478756754,-0.138203564873864,-0.267397433554094,NaN,-0.467067732520623,0.210957264195502,0.416795927815624,-0.359156337443405,0.416795927814779,-0.394182311180378,-0.544234379168211,-0.591875453456578,0.271427989484261,-1.04545346033397,NaN,-0.0688361252572125,0.0688361252568118,0.942142467701481,1.13497772579846,-0.462854700001548,0.825852589198635,1.17281072263248,-0.9911353353579,0.658478542956406,0.123450140037808,-0.895199902739706,-0.895199902737705,0.997056398490236,NaN,1.08310663311685,0.92587005255465,-0.471648753084099,0.826056656445224,0.203120293513453,0.243162184085208,0.24316218408605,0.807626995045125,-0.807626995044931,-0.215902688055999
1320.2432,-1.31429870016013,0.841191375376468,-0.589753996227213,-0.377243273515586,0.546072048972205,0.546072048974213,0.0555913781204855,1.51037962756132,0.394027875403625,0.939610948919635,-0.536177907612304,0.939610948919458,-0.232535604006186,-0.120316071150609,-0.298510181092417,NaN,-0.457019573242706,0.191093172668624,0.365176884910658,-0.370456197799538,0.365176884909808,-0.413751001527195,-0.550480636758439,-0.609233481739446,0.246211873938455,-1.03823266674686,NaN,-0.072400405988783,0.0724004059883867,0.914481223025402,1.13752578978841,-0.457152490234904,0.830781429577266,1.16121253779741,-0.971102054206909,0.656557003842497,0.0928611284278324,-0.890462276955906,-0.890462276953944,1.02133227563118,NaN,1.11852218512313,0.93510693651498,-0.453130576208762,0.844797146445496,0.187381674222527,0.259791937839403,0.25979193784023,0.778340265357578,-0.778340265357388,-0.21732664273341
1320.3456,-1.3071515674394,0.824020990204832,-0.595387868933319,-0.393509628427807,0.538320417967674,0.53832041796965,0.0333926152680296,1.4741486483406,0.366351098319907,0.936097993362329,-0.542997679485266,0.936097993362169,-0.281677988239497,-0.100910648612245,-0.328440229001649,NaN,-0.447944112609608,0.170621539237609,0.313702347767794,-0.381606774398458,0.313702347766943,-0.43334885417973,-0.556286064256971,-0.626356787795166,0.220412244917134,-1.03024710470968,NaN,-0.077370266006647,0.0773702660062455,0.885456831876729,1.13916458956835,-0.450259903719387,0.835422467097763,1.14786035784821,-0.949878234273782,0.653519788331319,0.0612866935098918,-0.884823170046472,-0.884823170044544,1.04593875783076,NaN,1.15432419961601,0.943928956121144,-0.434497524356174,0.863123886133418,0.171288467383332,0.275476293171126,0.275476293171935,0.748269339407308,-0.748269339407118,-0.218764827071403
1320.448,-1.2996468589517,0.805679468304765,-0.601522660013413,-0.410108935223358,0.529005053401569,0.529005053403534,0.00852657771183192,1.43491968887012,0.335658845374796,0.932319594338264,-0.549355314536265,0.932319594338126,-0.330644685588987,-0.0800260745513012,-0.357118085910655,NaN,-0.43983186633046,0.149621324692093,0.262462861037947,-0.392580951476778,0.262462861037092,-0.452950642046009,-0.561626368850518,-0.643213592669204,0.194038121599929,-1.02148318618083,NaN,-0.0837528197130234,0.0837528197126246,0.855070666605041,1.13989786133149,-0.44215773156406,0.839787876624109,1.13279777689967,-0.927478071605681,0.649401531841527,0.0287761524981413,-0.878333940881977,-0.87833394088009,1.07082296963526,NaN,1.19044944235148,0.952315621974068,-0.415746602269502,0.881015230309187,0.154864876348993,0.290173918033155,0.290173918033946,0.717438507993487,-0.717438507993299,-0.22022038546019
1320.5504,-1.29179086268621,0.786198000637189,-0.608142123295887,-0.427022464161454,0.518167076172799,0.518167076174746,-0.0188597833753764,1.39284655620706,0.302114652264547,0.928301745472841,-0.555235614984261,0.928301745472723,-0.379327452985945,-0.0577049086644915,-0.384477690942477,NaN,-0.432669956873149,0.128173066226926,0.211548956540907,-0.403350245356903,0.211548956540048,-0.472529160013009,-0.566477716094701,-0.6597709937076,0.167100074380754,-1.01192981999863,NaN,-0.0915511976339492,0.091551197633542,0.823327246636936,1.13973191024561,-0.432831126801388,0.843890190639211,1.11607307995926,-0.903919381210077,0.644239658415958,-0.00461840471135763,-0.871047031160466,-0.871047031158623,1.09593081370495,NaN,1.22683278619457,0.960247650251832,-0.39687578105114,0.898450450141928,0.138135200761034,0.303844006217037,0.303844006217808,0.685874868415674,-0.685874868415488,-0.221696567429473
1320.6528,-1.28359158528354,0.76561144041499,-0.615228985391344,-0.444229368956051,0.505851599452527,0.505851599454462,-0.0486091651466383,1.34809198339869,0.26589313805805,0.924069028293442,-0.560624137745582,0.924069028293332,-0.42761904164999,-0.0339934170922674,-0.410456620193059,NaN,-0.426442106567893,0.106358646142051,0.161050908599543,-0.413884905334366,0.16105090859868,-0.492055342421156,-0.570816805265484,-0.675995090674534,0.139610267351108,-1.00157846836379,NaN,-0.100764425559768,0.100764425559352,0.790234322289718,1.13867559160198,-0.42226969705742,0.847742239754244,1.09773911517087,-0.879223563531108,0.638074275595088,-0.0388422315721397,-0.863015773361775,-0.863015773359973,1.12120711547115,NaN,1.26340738734412,0.967707019925763,-0.377884077153175,0.915409761683129,0.121123800550988,0.316446440770871,0.316446440771623,0.653608258600313,-0.653608258600137,-0.223196753048591
1320.7552,-1.27505873217095,0.74395825863899,-0.622764959063613,-0.461706748571253,0.492107686350585,0.492107686352498,-0.0805546218534256,1.30082701070569,0.227179244582358,0.919644593573472,-0.565507263271183,0.919644593573366,-0.475413484579124,-0.00894148625268506,-0.434996282058852,NaN,-0.421128637013721,0.0842610527457099,0.111058492778339,-0.424154026437338,0.111058492777475,-0.511498394852872,-0.57462095370212,-0.691851127127125,0.111582491589964,-0.99042318272677,NaN,-0.111387308159403,0.111387308158976,0.75580294370758,1.13674026719442,-0.410467572489828,0.851357081867636,1.07785315377514,-0.853415539012682,0.630948072054148,-0.0738380571620484,-0.85429419492095,-0.854294194919188,1.14659575481988,NaN,1.30010485262724,0.974677002866607,-0.358771615390244,0.931874331172657,0.103855054102326,0.327941980083752,0.32794198008448,0.620671167508193,-0.62067116750803,-0.2247244820645
1320.8576,-1.26620368961474,0.721280482326213,-0.630730770470403,-0.479429721552941,0.476988284049329,0.476988284051225,-0.114520310552966,1.25123033409795,0.186167436061662,0.915050132185504,-0.569872278389217,0.915050132185398,-0.522606403908824,0.0173974924801294,-0.458042108906454,NaN,-0.416706485513996,0.0619641276980868,0.0616607429885788,-0.434125666403323,0.0616607429877103,-0.530825942877191,-0.577868188056037,-0.707303647695466,0.083032185475855,-0.978460618629663,NaN,-0.123410338891391,0.123410338890953,0.720047515114989,1.13393974223015,-0.397423441982445,0.854747928015518,1.0564767349416,-0.826523645050066,0.622906217884564,-0.109546237895763,-0.844936823825713,-0.844936823823986,1.17203979874615,NaN,1.33685541124082,0.98114218226149,-0.339539677976583,0.947826273542109,0.0863532863120362,0.338292475749943,0.338292475750649,0.587098623890117,-0.587098623889962,-0.226283486410453
1320.96,-1.25703950459116,0.697623606774453,-0.639106202668542,-0.497371514283357,0.460550121547715,0.460550121549592,-0.15032227579673,1.19948761636915,0.143060856157745,0.910305837197877,-0.573707463524584,0.910305837197771,-0.569095352855846,0.044966785317745,-0.479543744984784,NaN,-0.413149251415011,0.0395522982409618,0.0129457049523521,-0.443766959295931,0.012945704951478,-0.550004199300223,-0.580537340710168,-0.722316671351509,0.0539764388756829,-0.965690030933365,NaN,-0.136819655003129,0.136819655002672,0.682985837607976,1.13029018707861,-0.383140556761349,0.857928069228802,1.03367549172634,-0.798579498813479,0.613996262433309,-0.145904930379285,-0.834998495250708,-0.834998495249025,1.19748164736338,NaN,1.37358810276642,0.98708847260708,-0.320190743887312,0.963248657061881,0.0686426565062254,0.347461122394578,0.347461122395261,0.552928066760157,-0.552928066760008,-0.227877723272476
1321.0624,-1.24758085534094,0.673036477945087,-0.647870151727226,-0.515503564269409,0.442853567575634,0.442853567577495,-0.187769274497417,1.14579076064181,0.0980704413137974,0.905430367364261,-0.577002173562432,0.905430367364153,-0.614780190786834,0.0737065319561516,-0.499455224725833,NaN,-0.410427280049788,0.0171102974316594,-0.0349998123351186,-0.453044223702638,-0.0349998123359993,-0.568998145782725,-0.582608151868507,-0.736853878049721,0.0244339806863144,-0.952113253121036,NaN,-0.151597048950503,0.15159704895005,0.644639142916771,1.12581004610473,-0.367626703865041,0.860910805339822,1.00951895497777,-0.769617833976945,0.604268023107337,-0.182850285047896,-0.824534155071208,-0.82453415506956,1.22286319880989,NaN,1.41023098689933,0.992503146985506,-0.300728521766964,0.978125519080411,0.0507470168575574,0.355412730023726,0.355412730024388,0.518199201871944,-0.518199201871802,-0.229511402810316
1321.1648,-1.23784400514405,0.647571146463836,-0.65700068769472,-0.53379563804128,0.423962453908077,0.423962453909921,-0.226663639639281,1.09033715074917,0.0514139925940896,0.900440826630747,-0.579746902920876,0.900440826630637,-0.659563471403049,0.103554003082289,-0.517735132093719,NaN,-0.408507781906684,-0.00527712030247263,-0.0820904802163408,-0.461923072061688,-0.0820904802172299,-0.587771718011556,-0.58406137747435,-0.750878801237729,-0.00557484712503002,-0.937734664847273,NaN,-0.167720034557834,0.167720034557374,0.605032119762173,1.12051993501645,-0.350894153725701,0.863709375103195,0.984080334319209,-0.739676319859277,0.593773460507166,-0.220316657512762,-0.813598655105016,-0.813598655103396,1.24812603180533,NaN,1.44671137392442,0.997374870602448,-0.281157977579048,0.992441891170304,0.0326897678695371,0.362114003654142,0.362114003654778,0.482953849519461,-0.482953849519326,-0.231189003020742
1321.2672,-1.22784673418593,0.621282698976877,-0.666475111786338,-0.552215961590875,0.403943876380065,0.403943876381893,-0.266802176294481,1.03332886730372,0.00331521374454488,0.895352773059406,-0.581933328766028,0.895352773059295,-0.703350813189281,0.134443873591356,-0.534346732333655,NaN,-0.407354976644309,-0.0275254590622749,-0.128242678621927,-0.470368532960854,-0.128242678622827,-0.606287983788502,-0.584878899166272,-0.764355016572896,-0.0360281235665003,-0.922561149133457,NaN,-0.185161949448696,0.185161949448237,0.564192934506563,1.11444252815808,-0.332959587801557,0.866336886229675,0.957436279316596,-0.708795371545157,0.582566538969501,-0.258236831950252,-0.802246536246613,-0.802246536245025,1.27321160037223,NaN,1.48295607109569,1.00169373522216,-0.261485356837144,1.00618382773097,0.0144937432395327,0.36753381272171,0.367533812722322,0.447235789699215,-0.447235789699082,-0.232915266284508
1321.3696,-1.21760824976044,0.594229075242815,-0.676270004131613,-0.570731359543107,0.382867987454016,0.382867987455825,-0.307977078704074,0.974971891527613,-0.045997271944969,0.890180263470008,-0.583554331568268,0.890180263469887,-0.746051225580109,0.166308485166437,-0.549258071685882,NaN,-0.406930249852367,-0.049550749448739,-0.173374699570623,-0.478345196196335,-0.173374699571533,-0.624509311160849,-0.585043829060166,-0.777246320650514,-0.0669023850333829,-0.906602040968097,NaN,-0.203892065374515,0.203892065374055,0.522153249110798,1.10760243725621,-0.313844015391807,0.868806242544568,0.929666627344214,-0.677017962588343,0.570703073439652,-0.296542249248764,-0.790531797759886,-0.790531797758328,1.29806143228414,NaN,1.51889163610336,1.00545128582588,-0.241718203775269,1.01933842724578,-0.00381885334289347,0.371643434404826,0.371643434405416,0.411090612176488,-0.411090612176356,-0.234695177411234
1321.472,-1.20714908150523,0.566470878130972,-0.686361263060332,-0.589307398424308,0.360807787829666,0.360807787831459,-0.349976856133848,0.915475309645739,-0.096290912314013,0.884935928719959,-0.58460399776133,0.884935928719825,-0.787577380253126,0.199078084226198,-0.562442045870965,NaN,-0.407192313706638,-0.0712698029464539,-0.217406921657096,-0.485817383166302,-0.217406921658018,-0.642397530888231,-0.584540603365844,-0.789516899290895,-0.0981726598983086,-0.889869074504263,NaN,-0.223875682390136,0.223875682389671,0.478948239537906,1.1000260824551,-0.293572691219624,0.871130063751195,0.90085414531339,-0.644389452727023,0.558240563836478,-0.335163232721952,-0.778507655095642,-0.778507655094117,1.32261731922355,NaN,1.55444462298354,1.00864052777764,-0.221865384275498,1.03189382996001,-0.0222264611415926,0.374416762602808,0.374416762603376,0.374565576536648,-0.374565576536506,-0.236533929348061
1321.5744,-1.19649097247432,0.538071178214169,-0.696724144444642,-0.607908530785558,0.337838913384247,0.337838913386028,-0.392587258291796,0.855050524968843,-0.147330214863162,0.879631062158384,-0.585077612953156,0.879631062158236,-0.827845835864298,0.232681037991253,-0.573876442804915,NaN,-0.408097369559211,-0.0926004586769784,-0.260261959707727,-0.492749336261744,-0.260261959708663,-0.659914099508514,-0.583355063282608,-0.801131488882786,-0.129812500975291,-0.872376337649233,NaN,-0.24507420103165,0.245074201031174,0.434616613823439,1.09174155519113,-0.272175041526478,0.873320593855986,0.871084269518778,-0.610957435811933,0.545238018578724,-0.374029207152606,-0.766226295488395,-0.766226295486913,1.34682148736602,NaN,1.58954180533596,1.01125590578671,-0.201937118975135,1.04383917929852,-0.0407081511821982,0.375830487851507,0.375830487852051,0.337709478619658,-0.337709478619505,-0.238436885115403
1321.6768,-1.1856567764797,0.509095309300614,-0.707333313030087,-0.626498239456759,0.314039405747964,0.314039405749745,-0.435592196104075,0.79391047392163,-0.198877730329068,0.874275698677495,-0.584971654460349,0.874275698677333,-0.866777236415501,0.267044043434498,-0.583543966817396,NaN,-0.409599278830619,-0.113461832945831,-0.301864801323864,-0.499105413847255,-0.30186480132481,-0.677020269570559,-0.581474524699611,-0.812055536278654,-0.161794020075311,-0.854140235865427,NaN,-0.267445190719006,0.267445190718531,0.389200624929855,1.0827784728739,-0.249684597226411,0.875389598887888,0.840444843048785,-0.576771602475668,0.531755769206722,-0.413068911709895,-0.753738644849672,-0.753738644848227,1.37061674663336,NaN,1.624110372021,1.01329325807042,-0.181945027325264,1.05516455049446,-0.0592436271898745,0.375864265443237,0.375864265443756,0.300572514348173,-0.300572514347998,-0.240409541094583
1321.7792,-1.17467036621958,0.479610650987447,-0.718162912561856,-0.645039183117034,0.289489457618792,0.289489457620569,-0.478774657030933,0.732268836172908,-0.250695032839483,0.868878670720707,-0.584283789002594,0.868878670720537,-0.904296501469346,0.302092343927547,-0.591432249832266,NaN,-0.41164975202721,-0.133774580438863,-0.342142943770095,-0.504850275987178,-0.342142943771054,-0.693677273137035,-0.57888783974089,-0.822255363287587,-0.194087930074392,-0.83517945892142,NaN,-0.290942486532032,0.290942486531556,0.342746073894881,1.07316782787964,-0.22613892482179,0.877348260442038,0.809025847417769,-0.54188360550925,0.517855278354642,-0.452210610171584,-0.741094156654994,-0.741094156653589,1.39394662756969,NaN,1.65807810344784,1.01474975953104,-0.161902177480323,1.06586086425032,-0.0778132647668,0.374500890028265,0.374500890028755,0.263206135797956,-0.263206135797767,-0.242457492789616
1321.8816,-1.16355654755777,0.449686398758306,-0.729186650177045,-0.663493345433751,0.264271136120548,0.264271136122317,-0.521917614405513,0.670339231861703,-0.302543697799128,0.863447643790648,-0.583012877284069,0.863447643790467,-0.940333014241354,0.337749958343236,-0.597533851423711,NaN,-0.414198560399637,-0.153461170918521,-0.381026541207074,-0.50994905110245,-0.381026541208043,-0.709846519291668,-0.575585455826732,-0.831698339564911,-0.226663596747303,-0.815514943732436,NaN,-0.315516338437447,0.315516338436966,0.295302300727497,1.06294183403355,-0.201579542922909,0.879207073495577,0.776919125002432,-0.506346915013262,0.503598943660646,-0.491382301532357,-0.728340626883281,-0.728340626881924,1.41675551754505,NaN,1.69137354232303,1.01562386665407,-0.141823132663865,1.07591980392408,-0.0963981886698114,0.371726487082578,0.371726487083043,0.225662900052726,-0.225662900052528,-0.244586402719696
1321.984,-1.15234096953935,0.419393325913038,-0.740377882701298,-0.681822190074722,0.238468098617921,0.238468098619681,-0.564804928823415,0.608334404842974,-0.354186276029946,0.857989144338297,-0.581158983566711,0.857989144338104,-0.974820799189607,0.373939915704734,-0.601846245306882,NaN,-0.417193765381533,-0.172446179175275,-0.418448564565322,-0.514367483536846,-0.418448564566303,-0.725489797481283,-0.571559479388698,-0.840353062293296,-0.259489098421081,-0.795169831696675,NaN,-0.341113610939988,0.341113610939509,0.246922160985823,1.05213377098673,-0.176051814882015,0.880975753194156,0.744218088994085,-0.470216653395645,0.489049898976165,-0.530511932652194,-0.715524032639898,-0.715524032638582,1.43898880331621,NaN,1.72392617031682,1.01591526850567,-0.121723983094835,1.08533374609004,-0.114980363083779,0.36753072119352,0.367530721193962,0.187996312406833,-0.187996312406628,-0.246801968666868
1322.0864,-1.14105002148707,0.388803541250311,-0.751709694325493,-0.69998682246169,0.212165316167995,0.212165316169741,-0.607222238103274,0.546465395458628,-0.405387260324625,0.85250859370598,-0.578723385323583,0.852508593705777,-1.00769866968415,0.410584481005193,-0.604371785397851,NaN,-0.420581955033011,-0.190656579344375,-0.454344964727146,-0.518072072587823,-0.454344964728138,-0.740569473537986,-0.566803748302587,-0.848189535770463,-0.292531289665713,-0.774169422503369,NaN,-0.367678006811655,0.367678006811186,0.197661987165613,1.040777824744,-0.149604815534119,0.882663149931882,0.711017418163103,-0.433549406819197,0.474271811854996,-0.56952761331803,-0.702688387338645,-0.702688387337377,1.4605930199058,NaN,1.7556665947191,1.01562484109016,-0.101622355813824,1.09409570486259,-0.133542663659336,0.361907009540518,0.361907009540934,0.150260664458333,-0.150260664458113,-0.24910988828076
1322.1888,-1.12971071475172,0.357990243785933,-0.763154962583103,-0.717948156716428,0.185448810503654,0.185448810505378,-0.648957831723135,0.484940708773992,-0.455914039477569,0.847010357034848,-0.575708575945494,0.847010357034631,-1.03891032683548,0.447605358551985,-0.605117644485489,NaN,-0.424308477398247,-0.208022030683836,-0.488654821273737,-0.521030218292849,-0.488654821274738,-0.755048667938672,-0.561313910093343,-0.855179341864575,-0.32575586583903,-0.752541126150731,NaN,-0.395150286030097,0.395150286029646,0.14758153519933,1.02890892427454,-0.122291177509983,0.88427717016963,0.677412736525153,-0.396403019468487,0.459328674549068,-0.608357832255299,-0.68987560556013,-0.689875605558901,1.48151600191646,NaN,1.78652674284509,1.01475460066861,-0.0815374015179312,1.10219928544825,-0.15206891129693,0.354852721103508,0.354852721103902,0.112510869294851,-0.112510869294621,-0.251515815154577
1322.2912,-1.1183505519622,0.327027473886075,-0.77468641561927,-0.735667084178245,0.158405399116657,0.158405399118356,-0.689803505871802,0.423965484924466,-0.505537834901313,0.841497809664471,-0.572118253215297,0.841497809664244,-1.06840440559233,0.484923869313799,-0.604095724614728,NaN,-0.428317667293844,-0.224475143773408,-0.521320461426205,-0.523210384835504,-0.521320461427214,-0.768891413300533,-0.555087494182885,-0.861295792439621,-0.359127426593498,-0.730314414373532,NaN,-0.423468467831248,0.423468467830808,0.0967439144010799,1.01656257744902,-0.0941669251340178,0.885824702300579,0.643500281663196,-0.358836386426189,0.444284584957604,-0.646931670587389,-0.677125375287594,-0.677125375286399,1.50170703473376,NaN,1.81644006077526,1.01330765437875,-0.061489764286675,1.10963864240349,-0.170543862404318,0.34636934351931,0.346369343519682,0.0748023005517795,-0.0748023005515317,-0.254025303164921
1322.3936,-1.10699738960412,0.2959898600114,-0.786276686549819,-0.753104639402759,0.131122437820664,0.13112243782233,-0.72955539523865,0.363740678996576,-0.554034614744175,0.835973417837935,-0.567957289739483,0.835973417837695,-1.09613448006421,0.522461111711708,-0.601322542972096,NaN,-0.432553071225148,-0.239951722078001,-0.552287543637037,-0.524582282803577,-0.552287543638052,-0.782062794601692,-0.548123963568781,-0.866514057741902,-0.392609538023966,-0.707520772755904,NaN,-0.452568021103536,0.452568021103105,0.0452154966573996,1.00377470950637,-0.0652913029515046,0.887311547276594,0.609376567509664,-0.320909264379154,0.429203514366769,-0.685179008583379,-0.664475037452142,-0.664475037450984,1.52111700281848,NaN,1.84534171115373,1.01128814670994,-0.0415015443869245,1.11640843636874,-0.188953162471029,0.336462608538217,0.336462608538564,0.0371906444373699,-0.0371906444371005,-0.256643740342919
1322.496,-1.09567930128901,0.264952362141926,-0.797898370770155,-0.770222160953187,0.103687553703168,0.1036875537048,-0.768014776927063,0.304462259751673,-0.601185979349285,0.830438825984668,-0.56323168931237,0.830438825984416,-1.12205904276459,0.560138120846543,-0.596819095428009,NaN,-0.436957679174989,-0.254390980874374,-0.581505110767841,-0.525117062215435,-0.581505110768862,-0.794529077528703,-0.540424741573341,-0.870811272016679,-0.426164794960559,-0.684193652876299,NaN,-0.48238205665939,0.482382056658965,-0.00693419821666545,0.990581503287001,-0.0357266034531907,0.888742351214594,0.575138047563172,-0.282682112421436,0.414149062095314,-0.723030722569464,-0.651959473149929,-0.651959473148802,1.53969852697143,NaN,1.87316875899456,1.00870119595564,-0.0215962631636557,1.12250377860927,-0.207283278729465,0.325142579788606,0.325142579788932,-0.000268231665331861,0.000268231665622442,-0.259376279221431
1322.5984,-1.08442444770463,0.233990015833556,-0.809524088820188,-0.786981446418193,0.0761883699419705,0.0761883699435821,-0.80498884175996,0.24632043727697,-0.646780011615474,0.82489494107858,-0.55794853982505,0.824894941078316,-1.14614146484575,0.597876034864262,-0.590610697672448,NaN,-0.441474171344338,-0.267735751606673,-0.608925625656,-0.524787502845666,-0.608925625657027,-0.806257828581348,-0.531993223151349,-0.874166624397259,-0.459754885304232,-0.660368420930773,NaN,-0.512841534717808,0.512841534717402,-0.0596326394262872,0.977019238484666,-0.00553799362645943,0.890120537641484,0.540880782862454,-0.244215960373194,0.399184202270381,-0.760418870670414,-0.639611002466924,-0.639611002465832,1.55740608214051,NaN,1.89986033519296,1.00555281553252,-0.00179883173783933,1.12792015684744,-0.225521429394893,0.312423715977106,0.312423715977408,-0.037518401604397,0.0375184016047111,-0.262227772224477
1322.7008,-1.07326095512208,0.203177681388347,-0.821126553343433,-0.803344902648688,0.048712231520581,0.0487122315221643,-0.84029142917315,0.189498926905959,-0.690612087257857,0.819342008245537,-0.552115972849289,0.819342008245258,-1.16834993547718,0.635596265786745,-0.582726804254965,NaN,-0.44604518293329,-0.279932680231487,-0.634505001966256,-0.523568190717027,-0.634505001967285,-0.817218027973376,-0.522834783531367,-0.876561443191443,-0.493340656927879,-0.636082299974426,NaN,-0.54387549296152,0.543875492961132,-0.112804438271526,0.963124129654387,0.025206664718232,0.891448241441717,0.506700115867114,-0.205572290812857,0.384371030006944,-0.797276868011847,-0.62745930156222,-0.627459301561162,1.57419609685683,NaN,1.92535777891384,1.00184982421742,0.0178644823306733,1.13265334957557,-0.243655521971694,0.298324920100945,0.298324920101225,-0.0745040088790398,0.0745040088793772,-0.265202716489636
1322.8032,-1.06221680161876,0.172589800415445,-0.83267863778724,-0.81927569253654,0.0213459421491423,0.0213459421507192,-0.873743722859603,0.134174252692619,-0.732485641738896,0.813779678107467,-0.545743134863012,0.813779678107173,-1.18865737470429,0.673220666646153,-0.573200806462143,NaN,-0.450613580651223,-0.290932421938569,-0.658202635537075,-0.521435678228201,-0.658202635538106,-0.827380174524069,-0.512956791838569,-0.87797927742745,-0.526882186856764,-0.611374305736116,NaN,-0.575411290158417,0.575411290158044,-0.166371511664554,0.948932165428375,0.0564370066553309,0.892726249397575,0.472690349642157,-0.166812921105372,0.369770512577636,-0.833539653566861,-0.615531342880695,-0.615531342879668,1.59002704357992,NaN,1.94960476984664,0.997599755436744,0.0373660980179673,1.13669934366201,-0.261674106908685,0.282869572919901,0.282869572920163,-0.111169412268546,0.111169412268911,-0.268305207901668
1322.9056,-1.0513197099619,0.142300160965639,-0.844153445066184,-0.834737878640258,-0.0058244828900036,-0.00582448288844226,-0.905174905611747,0.0805150914977968,-0.772212892271524,0.808207070170231,-0.538840170457827,0.80820707016992,-1.20704131737622,0.710671688898839,-0.562069811314632,NaN,-0.455122738622102,-0.300689828790142,-0.67998143554806,-0.518368631546056,-0.679981435549096,-0.836716382052506,-0.50236863163163,-0.87840597643526,-0.560338852844762,-0.58628517527149,NaN,-0.607374856072446,0.607374856072096,-0.220253256238254,0.934478952168468,0.0880803718919919,0.89395395209868,0.438944432836984,-0.12799987816767,0.355442249291295,-0.869143850916267,-0.603851361120682,-0.603851361119697,1.60485952922262,NaN,1.97254746183696,0.992810773926119,0.0566771777143527,1.14005426651646,-0.27956634535478,0.266085538422608,0.266085538422854,-0.147459347567512,0.147459347567902,-0.27153890153014
1323.008,-1.04059704540507,0.112381673289995,-0.855524373180124,-0.849696562805185,-0.0327140483376915,-0.0327140483361435,-0.934422772845874,0.0286816581238243,-0.809615514343951,0.802622838990007,-0.531418214864293,0.80262283898969,-1.22348377056636,0.747872527894319,-0.549374405512874,NaN,-0.459516804448016,-0.309164125203684,-0.699807853592355,-0.514347968966993,-0.699807853593394,-0.84520046931777,-0.491081724580018,-0.877829766713664,-0.593669407725539,-0.56085728414753,NaN,-0.63969094085672,0.63969094085639,-0.274366736932427,0.91979956477687,0.12006202999184,0.895129310362531,0.405553652145902,-0.0891952645298313,0.341444242313354,-0.904027923533523,-0.592440845647469,-0.592440845646523,1.61865639097531,NaN,1.99413462468127,0.987491604079569,0.0757676989524839,1.14271433809014,-0.297321979812323,0.248005128633932,0.24800512863417,-0.183319095194152,0.183319095194559,-0.274906973552335
1323.1104,-1.03007571513709,0.0829061576086203,-0.866765173886377,-0.864118020865402,-0.0592389957375356,-0.0592389957360011,-0.961334303342629,-0.02117486751211,-0.844525271259051,0.797025251779112,-0.523489390927336,0.797025251778794,-1.2379710506902,0.784747257514399,-0.535158409097603,NaN,-0.463740951947966,-0.316319066318796,-0.71765190770978,-0.50935699199838,-0.717651907710824,-0.852808045156942,-0.479109548677534,-0.876241322261955,-0.626832056953375,-0.535134546142123,NaN,-0.67228336112965,0.672283361129346,-0.328626892881767,0.904928406354667,0.152305421468224,0.896248836977023,0.372607333644161,-0.0504611190584686,0.32783267822945,-0.938132323033816,-0.581318556669104,-0.581318556668199,1.6313827978777,NaN,2.01431779505682,0.98165147104417,0.0946065408309181,1.14467584382673,-0.314931290693361,0.228665024363215,0.228665024363448,-0.218694643701988,0.218694643702408,-0.278412079067613
1323.2128,-1.01978206589706,0.0539441418027267,-0.877850002760075,-0.877969831963123,-0.0853170071271394,-0.0853170071256115,-0.985766183953079,-0.0689128687854888,-0.876784593304733,0.791412283513132,-0.515066803744967,0.791412283512805,-1.25049361138815,0.821220959399434,-0.519468624791836,NaN,-0.467741619957915,-0.322123075530242,-0.733487198564512,-0.503381509139934,-0.733487198565554,-0.859516584336498,-0.466467642950695,-0.873633820571877,-0.659784539723175,-0.509162292304702,NaN,-0.705075243791879,0.705075243791602,-0.38294676195046,0.889899078139785,0.184732410117153,0.897307592961079,0.340192553871785,-0.0118592814298298,0.314661717095239,-0.971399627486376,-0.57050055956283,-0.570500559561961,1.6430063551754,NaN,2.03305143259713,0.975300053065082,0.113161583144549,1.14593512598661,-0.332385026705334,0.208106158711598,0.208106158711833,-0.253532842850067,0.253532842850505,-0.282056302323342
1323.3152,-1.0097417779115,0.0255646642237653,-0.888753462360432,-0.891221002212432,-0.110867399260635,-0.110867399259114,-1.00758528393366,-0.114400773143401,-0.906247102033296,0.785781728274227,-0.50616452676142,0.785781728273883,-1.26104587334907,0.857219854485244,-0.502354587382835,NaN,-0.471466737316804,-0.32654936068786,-0.74729091854475,-0.496409950366198,-0.74729091854579,-0.865305486907784,-0.453173595979476,-0.870002977664202,-0.6924842133565,-0.482987133169474,NaN,-0.737989272522948,0.7379892725227,-0.437237724850581,0.874744260230718,0.217263539848115,0.898299195731276,0.308393862027013,0.0265487278334989,0.301983284953672,-1.00377466641424,-0.560000271069102,-0.560000271068271,1.65349720537764,NaN,2.05029307254044,0.968447439560551,0.131399812908942,1.14648858474576,-0.349674308968942,0.186373572616508,0.186373572616738,-0.287781543282757,0.287781543283213,-0.285841101410917
1323.4176,-0.999979756350185,-0.00216492173076854,-0.89945064192888,-0.903842082402885,-0.135811310212749,-0.135811310211236,-1.02666907410965,-0.157517481490714,-0.932778074595787,0.780131317399324,-0.496797578799168,0.780131317398968,-1.26962605993299,0.892671439727593,-0.483868314493197,NaN,-0.474865934648649,-0.329576012984184,-0.759043860374754,-0.488433467895768,-0.75904386037579,-0.870156122234979,-0.439247018799744,-0.86534706332005,-0.724888139776745,-0.456656813241687,NaN,-0.770947942413972,0.770947942413758,-0.491409769292638,0.859495601026796,0.249818290643239,0.899215834834614,0.277293015881766,0.0647018079242551,0.289846870554675,-1.03520462942425,-0.549828514198333,-0.549828514197524,1.66282811622391,NaN,2.06600346248453,0.961104084203808,0.149287432544215,1.14633267444023,-0.366790519728015,0.163516247997046,0.163516247997273,-0.321389725261493,0.32138972526197,-0.289767256389468
1323.52,-0.99052002448538,-0.02917914062668,-0.909917156921839,-0.915805279316836,-0.16007187787145,-0.16007187786995,-1.04290598788819,-0.198152741582896,-0.956254844477252,0.774458830299437,-0.486981898053821,0.774458830299067,-1.27623603760135,0.927504625381087,-0.464064061273827,NaN,-0.477890746283604,-0.331186095780575,-0.768730435620887,-0.479446016831591,-0.768730435621918,-0.874051867627844,-0.424709503305175,-0.859666904128939,-0.756953173226853,-0.430220064136699,NaN,-0.803873822834607,0.803873822834425,-0.545371772192895,0.844183613011159,0.282315333433868,0.900048292982497,0.246968734004914,0.102539370199254,0.278299333774171,-1.06563915729951,-0.539993584523111,-0.539993584522331,1.67097454791957,NaN,2.08014667373737,0.953280745132271,0.166789968065883,1.14546388536409,-0.383725193010254,0.139586921612802,0.139586921613033,-0.354307622468637,0.354307622469127,-0.293834830198866
1323.6224,-0.981385623621475,-0.0554145823773713,-0.920129190674829,-0.927084560380474,-0.18357441025205,-0.183574410250549,-1.05619572513037,-0.236207461085238,-0.97656713852163,0.768762186811525,-0.476734320212478,0.768762186811141,-1.28088116124177,0.961649868520987,-0.442998082285768,NaN,-0.480494808003579,-0.33136772888814,-0.776338710178756,-0.469444410936578,-0.776338710179786,-0.876978148801756,-0.409584570462846,-0.852965881923065,-0.78863604990955,-0.403726453773073,NaN,-0.836689821047207,0.836689821047058,-0.599031793579726,0.828837575285921,0.314672788719895,0.900785974960898,0.217496465594315,0.140001441510869,0.267384735478121,-1.09503041745181,-0.530501332870781,-0.530501332870029,1.67791470135376,NaN,2.09269018823911,0.944988416330237,0.183872380961712,1.1438787173261,-0.400469924570207,0.114641882384735,0.11464188238497,-0.386486845452746,0.386486845453248,-0.298043144652605
1323.7248,-0.97259852382728,-0.0808100810450484,-0.930063539742483,-0.937655751753428,-0.206246548345851,-0.206246548344369,-1.06644950202244,-0.271593958107537,-0.993617352488163,0.763039517261193,-0.466072564355862,0.763039517260795,-1.28357012648146,0.995039304423197,-0.420728401263348,NaN,-0.482634051721656,-0.330114168406428,-0.781860456240732,-0.45842835495125,-0.781860456241755,-0.878922483001638,-0.393897614336358,-0.845249931655223,-0.819893481530283,-0.377226221904838,NaN,-0.869319434256505,0.869319434256388,-0.652297376132993,0.813485444816261,0.346808496951779,0.901416949862481,0.188948179617495,0.177028793249887,0.257144197083024,-1.12333316800571,-0.521355267144546,-0.521355267143828,1.68362955462437,NaN,2.10360496990669,0.936238260700723,0.20049919088521,1.14157365999272,-0.4170163104217,0.088740752752898,0.0887407527531365,-0.417880508340223,0.417880508340732,-0.302390769458727
1323.8272,-0.964179547711029,-0.105306884295441,-0.939697664390088,-0.947496630061636,-0.22801842263346,-0.228018422631976,-1.07359024935162,-0.304236150597847,-1.00732076755659,0.757289210364041,-0.455015226063031,0.757289210363631,-1.28431483262948,1.02760687835377,-0.397314590151772,NaN,-0.484266889310752,-0.327423878399651,-0.785291215938418,-0.44640046036451,-0.785291215939435,-0.87987452498106,-0.37767584179453,-0.836527538784076,-0.850682254670956,-0.350770092956613,NaN,-0.901686978788635,0.901686978788553,-0.705075851471655,0.798153777959789,0.378640309397861,0.90192801205919,0.161392175788348,0.21356310227604,0.247615794961221,-1.15050481533057,-0.512556673895982,-0.512556673895292,1.68810289382236,NaN,2.11286553042898,0.927041551710074,0.216634615873782,1.13854519077686,-0.433355912582838,0.0619462513251309,0.0619462513253727,-0.448443363892745,0.448443363893258,-0.306875522726974
1323.9296,-0.956148307425913,-0.128848815233938,-0.949009745618092,-0.956587007601348,-0.248822805342098,-0.248822805340614,-1.07755276009207,-0.334069688509874,-1.01760570946764,0.751509940846235,-0.443581774325589,0.751509940845813,-1.28313025873734,1.05928847663578,-0.372817560499795,NaN,-0.485354374823287,-0.323300589048369,-0.786630370455733,-0.433366252399321,-0.786630370456743,-0.879826115957421,-0.360948201611773,-0.826809732608107,-0.880959336893331,-0.324409064455061,NaN,-0.933717792157323,0.933717792157273,-0.757274658314779,0.782867663514025,0.410086403246771,0.902304763752118,0.134892917493859,0.249547140352574,0.238834488280009,-1.1765054684312,-0.50410475806508,-0.504104758064432,1.69132134305221,NaN,2.12044999871289,0.917409626858694,0.232242732977192,1.13478979522907,-0.449480245597821,0.0343239338232354,0.0343239338234829,-0.478131948722727,0.478131948723237,-0.311494480639495
1324.032,-0.948523153465521,-0.151382429145664,-0.957978749196519,-0.96490881007424,-0.268595261506062,-0.268595261504581,-1.07828378603069,-0.361042031153499,-1.02441365061377,0.745700682836971,-0.431792547771226,0.745700682836534,-1.28003435066097,1.09002205532354,-0.347299366534967,NaN,-0.485860340689202,-0.317753334617679,-0.785881206446969,-0.419334173592616,-0.785881206447971,-0.878771332751072,-0.343745297859603,-0.816110070634699,-0.910681989294832,-0.298194176731046,NaN,-0.965338411943721,0.965338411943706,-0.808801672595518,0.767650667694365,0.441065615497726,0.902531716990912,0.109510883156356,0.284924978630736,0.230832070932941,-1.20129799083202,-0.495996794764082,-0.495996794763465,1.6932743987399,NaN,2.12634020083931,0.907353856345587,0.247287658130998,1.13030401318434,-0.46538077750353,0.0059419149149146,0.00594191491517072,-0.506904730762971,0.506904730763481,-0.316243992334268
1324.1344,-0.941321131393976,-0.1728571665343,-0.966584494226482,-0.972446145532435,-0.287274302107406,-0.287274302105926,-1.07574208385024,-0.3851124703195,-1.0276992555801,0.739860719764499,-0.419668743897503,0.739860719764055,-1.27504791424671,1.11974776790542,-0.320823014475396,NaN,-0.485751512593952,-0.31079646514405,-0.783050971718987,-0.404315585905855,-0.783050971719984,-0.876706534047069,-0.326099284984695,-0.804444610326753,-0.939807883493392,-0.272176274496945,NaN,-0.996476741676177,0.996476741676195,-0.859565542139153,0.752524790399193,0.471497783229982,0.902592408915141,0.0853024308178618,0.319642186290575,0.223637133286147,-1.22484804772459,-0.488228283306222,-0.48822828330566,1.69395447144723,NaN,2.13052175238185,0.896885630584342,0.26173374053539,1.12508451262775,-0.481048936946017,-0.0231294179005553,-0.0231294179002817,-0.534722244411066,0.534722244411582,-0.321119695025188
1324.2368,-0.934557938271991,-0.193225502509737,-0.974807718865927,-0.979185364316704,-0.304801539699931,-0.304801539698451,-1.06989841361724,-0.406252102309431,-1.0274303734259,0.733989662943528,-0.407232391991494,0.733989662943075,-1.26819450819177,1.14840809343506,-0.293452271231398,NaN,-0.484997612623424,-0.302449628752203,-0.778150916180142,-0.388324769304305,-0.778150916181137,-0.873630404404976,-0.308043741399985,-0.791831866828834,-0.968295218600338,-0.246405774790363,NaN,-1.02706221723148,1.02706221723153,-0.909476015286922,0.737510432272957,0.501304075380381,0.902469522987946,0.0623196704444059,0.353646002044502,0.217275019011103,-1.24712414406388,-0.480793094221132,-0.480793094220625,1.69335693566951,NaN,2.13298415933951,0.886016368504001,0.275545762695434,1.11912818945048,-0.496476114026615,-0.0528176852343433,-0.0528176852340551,-0.561547200219058,0.561547200219574,-0.326116523214863
1324.3392,-0.928247868876582,-0.212443091606239,-0.982630133683368,-0.985115111560718,-0.321121840038174,-0.321121840036687,-1.06073549345775,-0.424443753644088,-1.02358798110326,0.728087487047123,-0.39450630181943,0.728087487046664,-1.25950032727697,1.17594796192164,-0.265251466458827,NaN,-0.48357145935304,-0.292737724409604,-0.771196318365965,-0.371378911741861,-0.77119631836696,-0.869543998713976,-0.289613520655902,-0.778292758026959,-0.996102832912302,-0.220932454309776,NaN,-1.0570259810859,1.05702598108599,-0.958444255436713,0.722626371750388,0.53040730340218,0.902145009716427,0.0406103407658403,0.386885467511029,0.211767769077383,-1.26809764857779,-0.473683604155987,-0.473683604155528,1.69148018284181,NaN,2.13372091748594,0.874757542119466,0.288689135435866,1.11243228319647,-0.511653643598376,-0.0830487880663296,-0.0830487880660261,-0.587344561414494,0.587344561415009,-0.331228708662493
1324.4416,-0.922403748306978,-0.230468904938635,-0.990034457409278,-0.990226373910044,-0.336183457801886,-0.336183457800395,-1.04824791226329,-0.439681861533281,-1.01616607986925,0.722154580753674,-0.381513990145519,0.722154580753213,-1.24899407036562,1.20231487194407,-0.236285286636343,NaN,-0.48144906940026,-0.281690826918803,-0.762206500285939,-0.353498085190149,-0.762206500286933,-0.864450786881821,-0.270844588158672,-0.763850541405615,-1.02319030726171,-0.195805259770337,NaN,-1.08630105833116,1.08630105833128,-1.00638314032105,0.707889749030506,0.558732206757909,0.90160020222508,0.0202176935288317,0.419311528961472,0.207134058528919,-1.28774280024603,-0.466890819336245,-0.46689081933585,1.68832566534909,NaN,2.13272959415552,0.863120704033087,0.301130081247356,1.10499449082404,-0.526572769576306,-0.113747178133421,-0.113747178133104,-0.612081588795632,0.612081588796148,-0.336449775418244
1324.544,-0.917036857947854,-0.247265352870748,-0.997004436553948,-0.994512520057526,-0.349938146002341,-0.349938146000833,-1.03244200089524,-0.451972306194976,-1.00517154443495,0.716191801777054,-0.368279599034814,0.716191801776593,-1.23670679758661,1.2274589971495,-0.206618567617083,NaN,-0.47860975944453,-0.26934408778769,-0.751204834451451,-0.334705204633308,-0.751204834452447,-0.858356693825309,-0.251773859460567,-0.748530748515346,-1.0495180598295,-0.171072134963795,NaN,-1.11482252344389,1.11482252344404,-1.05320754982124,0.69331605363536,0.586205719852132,0.90081592663893,0.00118039323332224,0.450877126379934,0.203389142132379,-1.3060366973217,-0.460404493373214,-0.460404493372871,1.68389791900596,NaN,2.13001187951268,0.851117504744643,0.312835807439755,1.09681306441899,-0.541224601577895,-0.14483613164175,-0.144836131641418,-0.635727867842026,0.635727867842539,-0.341772538536676
1324.6464,-0.912156866787606,-0.262798384953057,-1.00352485387954,-0.997969332948756,-0.362341235826447,-0.362341235824919,-1.0133356632639,-0.461332191515153,-0.990623925250677,0.710200525287566,-0.354827822731706,0.710200525287101,-1.22267178372879,1.25133327753425,-0.176316095020466,NaN,-0.475036239500113,-0.255737615793836,-0.738218745340529,-0.315025971470659,-0.738218745341525,-0.851270129106651,-0.232439053031483,-0.732361120552577,-1.07504743352477,-0.146779854128954,NaN,-1.14252765278693,1.14252765278712,-1.09883464520069,0.678919115842967,0.612757231258065,0.899772612491498,-0.0164675597248811,0.481537288223366,0.20054482459841,-1.32295927222353,-0.45421324677834,-0.45421324677806,1.67820456087037,NaN,2.12557360671831,0.838759697867922,0.323774676770146,1.08788689419141,-0.555600081319211,-0.176238023379475,-0.17623802337913,-0.658255337175051,0.658255337175567,-0.347189112472912
1324.7488,-0.90777177804984,-0.277037562942282,-1.0095815317292,-1.00059503154018,-0.373351692406905,-0.373351692405348,-0.990958170126327,-0.467789572642053,-0.972555206090019,0.704182680113741,-0.34118385228785,0.70418268011327,-1.20692436923197,1.27389349161028,-0.145442416594138,NaN,-0.470714681218944,-0.240916339008877,-0.723279703405314,-0.294488807313837,-0.72327970340631,-0.843202005656146,-0.21287855823124,-0.715371545075274,-1.09974077762474,-0.1229738537192,NaN,-1.1693560625157,1.16935606251592,-1.14318413886531,0.66471110443232,0.638318841985411,0.898450408462431,-0.0326968793640523,0.511249240389101,0.198609462146986,-1.33849325711671,-0.448304691654584,-0.448304691654349,1.67125626754255,NaN,2.1194247499135,0.826059140076135,0.333916383544661,1.07821558803012,-0.569689972992503,-0.207874595725359,-0.207874595725002,-0.679638331415525,0.679638331416042,-0.352690930896604
1324.8512,-0.90388789585812,-0.28995610901203,-1.01516133593204,-1.00239028088106,-0.382932157810535,-0.382932157808961,-0.965349919029321,-0.471383134021695,-0.951009520727457,0.698140771008359,-0.327373336949045,0.698140771007875,-1.18950180706308,1.2950983114754,-0.114061663511397,NaN,-0.465634749098096,-0.224929848650313,-0.706423207640071,-0.273124784193332,-0.706423207641069,-0.83416575187333,-0.193131310540356,-0.697593992270644,-1.12356152571366,-0.0996980626642824,NaN,-1.19524983268785,1.1952498326881,-1.18617855059124,0.650702531255844,0.662825621961019,0.896829303537825,-0.0474830214787804,0.539972525948545,0.197587990487396,-1.35262414460147,-0.442665558710852,-0.442665558710664,1.663066741255,NaN,2.11157940989563,0.813027793183372,0.343232138647193,1.06779955749077,-0.583484884299718,-0.239667219387538,-0.239667219387162,-0.699853641053856,0.699853641054365,-0.358268776146123
1324.9536,-0.900509809840233,-0.301530934842721,-1.02025218239633,-1.00335819041653,-0.391048991183522,-0.391048991181927,-0.936562163231802,-0.472161827584788,-0.926042833406362,0.692077888457118,-0.313422354627111,0.692077888456623,-1.17044310590759,1.31490934833883,-0.0822373754070303,NaN,-0.459789595801526,-0.207832225590356,-0.687688754960897,-0.250967552475376,-0.687688754961901,-0.82417731898939,-0.173236666890385,-0.679062447952742,-1.146474271297,-0.0769947388436178,NaN,-1.22015362060832,1.2201536206086,-1.22774344576539,0.636902262081633,0.686215858790569,0.894889250378233,-0.0608061961698501,0.567669123686169,0.197481966213446,-1.36534014614777,-0.437281820569191,-0.437281820569041,1.65365267127373,NaN,2.10205579516697,0.799677734662551,0.351694861343324,1.05664011631699,-0.596975315398877,-0.271537145130668,-0.271537145130275,-0.718880583559225,0.718880583559731,-0.363912813232096
1325.056,-0.897640388777245,-0.311742657365145,-1.0248430424568,-1.0035043015838,-0.397672309881896,-0.397672309880274,-0.904656711312588,-0.470184483709231,-0.897722587474894,0.685997711720258,-0.299357380225887,0.685997711719753,-1.14978887378583,1.33329119659035,-0.0500323268729922,NaN,-0.45317583213006,-0.189681850697362,-0.66711979758996,-0.228053263761853,-0.66711979759097,-0.813255179642351,-0.153234277608118,-0.659812838429014,-1.1684448410129,-0.0549043204720754,NaN,-1.2440147673807,1.24401476738101,-1.26780765390935,0.623317534791916,0.708431292759406,0.892610289131178,-0.072651372578472,0.594303552298812,0.198289609097714,-1.37663214889353,-0.432138805373911,-0.43213880537381,1.64303369647919,NaN,2.09087620313334,0.786021181658877,0.35927937249602,1.04473959474847,-0.610151720961366,-0.30340574748586,-0.303405747485452,-0.736701076010591,0.736701076011081,-0.369612622437867
1325.1584,-0.895280771999789,-0.32057560529353,-1.02892393973448,-1.00283656610463,-0.402776031734312,-0.402776031732657,-0.86970559911571,-0.465519403823695,-0.866127325660727,0.679904513451754,-0.285205239125638,0.679904513451242,-1.1275811664555,1.35021148220115,-0.0175083550634805,NaN,-0.445793483333948,-0.17054119889446,-0.64476368897219,-0.204420486280253,-0.644763688973203,-0.801420313087992,-0.133163951905382,-0.639882942245355,-1.18944036401173,-0.0334652981971036,NaN,-1.2667833998203,1.26678339982064,-1.30630346787112,0.609953986732747,0.729417333349456,0.889972671173997,-0.083008278360758,0.619842951672455,0.200005839049495,-1.38649366985302,-0.427221295757197,-0.427221295757145,1.63123237028473,NaN,2.07806700153756,0.772070529690615,0.365962583008692,1.0321014681579,-0.623004563220166,-0.33519476087626,-0.335194760875839,-0.753299700007586,0.753299700008062,-0.375357227365409
1325.2608,-0.893430352125071,-0.328017817992018,-1.03248593383973,-1.00136531590072,-0.406337916841091,-0.4063379168394,-0.831790735999718,-0.458243934554307,-0.831346283679831,0.673803172476056,-0.270993037810477,0.673803172475541,-1.10386333969812,1.36564091601563,0.0152738128174017,NaN,-0.437645940297699,-0.150476615271167,-0.620671616364466,-0.180110112149919,-0.620671616365481,-0.788696177457095,-0.113065514403706,-0.619312287644489,-1.20942933603008,-0.0127141101502789,NaN,-1.28841252731239,1.28841252731277,-1.34316682496979,0.596815690940244,0.749123252538953,0.88695698037709,-0.0918713912735123,0.644257137490345,0.20262230852819,-1.39492080541433,-0.422513612072216,-0.42251361207221,1.61827412245639,NaN,2.06365860338265,0.75783839986783,0.371723671098309,1.01873049019931,-0.635524342466079,-0.366826506675893,-0.366826506675457,-0.768663753953927,0.768663753954385,-0.381135120552659
1325.3632,-0.892086751580637,-0.334061034653529,-1.03552109169661,-0.999103225237029,-0.408339602651897,-0.408339602650168,-0.791003525965957,-0.448444016322007,-0.793478956059203,0.667699194136757,-0.256748076058895,0.667699194136238,-1.07867990086655,1.3795533436605,0.0482547301920902,NaN,-0.428739906170008,-0.129558073431254,-0.594898520369916,-0.155165255555203,-0.594898520370935,-0.77510867204142,-0.0929786561355077,-0.598142039824493,-1.22838167818286,0.00731494428638029,NaN,-1.3088581273929,1.30885812739332,-1.37833747391724,0.583905198182906,0.767502353012505,0.883544248237478,-0.0992399153028117,0.667518631332659,0.206127438500244,-1.40191217407756,-0.417999685053495,-0.417999685053541,1.60418720584951,NaN,2.0476854217555,0.743337679945038,0.376544244062943,1.00463281202497,-0.647701609851548,-0.398224111079451,-0.398224111078998,-0.78278329576294,0.782783295763383,-0.386934293733861
1325.4656,-0.891245800828564,-0.338700669198667,-1.03802245037125,-0.996065265574357,-0.408766623172373,-0.408766623170606,-0.747444463284967,-0.436213700697036,-0.752634632538665,0.661598729846306,-0.242497755575095,0.661598729845789,-1.05207635879043,1.39192577794615,0.0813763903181596,NaN,-0.419085329035808,-0.107858920977924,-0.567503007014062,-0.129631139662428,-0.567503007015083,-0.760686088230531,-0.0729427919887978,-0.576414883957662,-1.24626879153057,0.0265897824459321,NaN,-1.32807920807249,1.32807920807294,-1.41175913214896,0.571223581896504,0.78451211606967,0.879716062395428,-0.105117733779846,0.689602678452277,0.21050647051283,-1.40746885245725,-0.413663126182223,-0.413663126182318,1.58900261725794,NaN,2.03018579276586,0.728581545246689,0.38040848608613,0.989816072596737,-0.659526978307694,-0.429311717498889,-0.429311717498419,-0.795651184460644,0.795651184461067,-0.392742278864895
1325.568,-0.890901525906228,-0.34193576761061,-1.03998397593803,-0.99226865329799,-0.4076084085962,-0.407608408594397,-0.701222704445951,-0.421654636714132,-0.708931906692283,0.655508586045121,-0.228269499108375,0.655508586044597,-1.02409907655458,1.40273840391199,0.11458236267736,NaN,-0.408695308359542,-0.0854556186540238,-0.538547258152651,-0.103554971926259,-0.538547258153675,-0.745459043561783,-0.0529969386095199,-0.554174908193837,-1.26306360833713,0.0450806177155918,NaN,-1.34603783923779,1.34603783923827,-1.44337963343064,0.558770485925908,0.800114337262418,0.875454672118668,-0.109513338790755,0.710487272631989,0.215741544242199,-1.4115943073075,-0.40948730153493,-0.409487301535059,1.57275399293398,NaN,2.0112018675034,0.713583458836807,0.383303298969057,0.974289462501608,-0.670991147532836,-0.460014696140664,-0.460014696140174,-0.807263126609449,0.807263126609856,-0.398546200196129
1325.6704,-0.891046150769258,-0.343768948998269,-1.04140052421662,-0.987732790261596,-0.404858269874904,-0.404858269873068,-0.652455620924449,-0.404875529587424,-0.662498161482255,0.649436215785535,-0.21409068588892,0.649436215785007,-0.994795134389083,1.41197455752692,0.14781790077039,NaN,-0.397585969045845,-0.0624274768419257,-0.508096941199041,-0.0769858112194831,-0.508096941200067,-0.729460397856849,-0.033179618421946,-0.531467489204115,-1.27874064136449,0.0627600443612848,NaN,-1.36269915665173,1.36269915665225,-1.47315106162018,0.546544175880285,0.814275255955198,0.870743094316019,-0.112439742296854,0.730153203778631,0.221811802445515,-1.41429432783301,-0.405455410765855,-0.405455410766002,1.55547748867572,NaN,1.99077948484533,0.698357161373864,0.385218443032051,0.958063776265512,-0.682084955227227,-0.490259845234682,-0.490259845234172,-0.817617730129186,0.817617730129584,-0.404332835933069
1325.7728,-0.891670117355417,-0.344206335515723,-1.04226780959979,-0.982479197201619,-0.400513375554976,-0.400513375553104,-0.601268337158451,-0.385991577610895,-0.61346903690346,0.643389688826091,-0.199988601668215,0.643389688825562,-0.964212211511834,1.41962068662596,0.181030019696995,NaN,-0.38577630625545,-0.0388563910272038,-0.476221117181633,-0.0499744308623183,-0.476221117182661,-0.712725157165851,-0.0135287842605989,-0.508339181094778,-1.29327603351099,0.0796031276799978,NaN,-1.37803134789576,1.37803134789633,-1.50102986863671,0.534541593745289,0.826965682607127,0.865565221487774,-0.113914374895252,0.74858413169201,0.228693519281016,-1.41557696214915,-0.401550571773871,-0.401550571774047,1.5372116552758,NaN,1.96896803883627,0.682916661590257,0.386146681426409,0.941151466910025,-0.692799459619468,-0.519975572717811,-0.519975572717279,-0.826716568134185,0.826716568134567,-0.410088689690464
1325.8752,-0.892762121344528,-0.343257476875973,-1.04258238418136,-0.976531440174293,-0.394574727197603,-0.394574727195695,-0.547793256630722,-0.365123896109598,-0.56198788427735,0.637377640419564,-0.185990395944594,0.637377640419028,-0.932398493349898,1.4256663029098,0.21416754425865,NaN,-0.37328801224961,-0.0148265785478474,-0.442992148021984,-0.0225731771294238,-0.442992148023014,-0.695290370176826,0.00591824506588849,-0.48483760535864,-1.30664760976619,0.095587495873533,NaN,-1.39200562842293,1.39200562842354,-1.52697697610608,0.522758416088981,0.838161123246565,0.859905931678885,-0.113958976618873,0.76576667630715,0.236360243506335,-1.41545245951488,-0.397755912625593,-0.397755912625816,1.51799731851649,NaN,1.94582035144527,0.667276236422432,0.38608392515221,0.923566711661106,-0.703126046991825,-0.549092051816362,-0.549092051815812,-0.834564249375295,0.834564249375658,-0.415800069160582
1325.9776,-0.894309155347559,-0.340935273989625,-1.04234162294093,-0.96991505014444,-0.387047139102761,-0.387047139100807,-0.492169578515582,-0.342398937080501,-0.508205211318465,0.631409205462571,-0.172123033361429,0.63140920546203,-0.899402603855874,1.43010393238398,0.247181133294678,NaN,-0.360145300489396,0.00957568100362933,-0.408485603869122,0.00516418150983503,-0.408485603870149,-0.677195016179802,0.0251248453573731,-0.461011337126534,-1.31883493136437,0.110693426024019,NaN,-1.4045962142238,1.40459621422445,-1.55095785617092,0.511189118259932,0.84784189390279,0.853751199326209,-0.112599483504878,0.781690507524662,0.24478294547228,-1.41393321678189,-0.394054671245467,-0.394054671245745,1.49787747137316,NaN,1.92139255687961,0.651450449835502,0.385029370607129,0.905325495265702,-0.713056547421418,-0.577541353305539,-0.577541353304973,-0.841168478572811,0.841168478573157,-0.421453164636806
1326.08,-0.896296547787193,-0.337255904925197,-1.04154370668936,-0.962657436017115,-0.37793922602705,-0.37793922602506,-0.434542806899899,-0.31794791048801,-0.452278121093316,0.625493949478535,-0.158413223568262,0.625493949477987,-0.865273556288667,1.43292907254055,0.2800232923669,NaN,-0.346374739969978,0.0342623032635526,-0.372780166097395,0.0331826160274253,-0.372780166098423,-0.658479880249166,0.0440551482097983,-0.436909782092671,-1.32981934924796,0.124903915248643,NaN,-1.41578029665115,1.41578029665183,-1.57294258518414,0.499827048219809,0.855993214703565,0.847088205633773,-0.10986591290206,0.796348417804186,0.253930157569562,-1.41103372491481,-0.390430300391263,-0.390430300391581,1.4768971831271,NaN,1.89574399882844,0.635454197009101,0.38298561854219,0.886445713370356,-0.722583337496711,-0.605257564692135,-0.605257564691556,-0.846540083271363,0.846540083271691,-0.42703411928154
1326.1824,-0.898707988112508,-0.332238753778291,-1.04018759478455,-0.954787791396766,-0.367263395434065,-0.367263395432044,-0.375064251358899,-0.291906210136462,-0.39436974447497,0.619641808868494,-0.14488731930193,0.619641808867945,-0.830060709648275,1.43414016139652,0.312648390118066,NaN,-0.332005105294187,0.059143661822846,-0.335957514499536,0.0614260022938441,-0.33595751450056,-0.639187409975794,0.0626741057282348,-0.412583038442513,-1.3395840521461,0.138204731190313,NaN,-1.42553802014582,1.42553802014655,-1.59290586930896,0.488664514036703,0.862605274942518,0.83990544818806,-0.105792247287449,0.80973636273125,0.263768101709578,-1.40677051027073,-0.386866574257374,-0.386866574257721,1.45510352432945,NaN,1.86893713700911,0.619302772091639,0.379958763365491,0.866947288949716,-0.731699411763553,-0.632176912108005,-0.632176912107407,-0.850692990909071,0.850692990909381,-0.432529086587082
1326.2848,-0.90152553730235,-0.32590633816969,-1.03827298367497,-0.946336994853335,-0.35503583150051,-0.355035831498462,-0.313890512984246,-0.264412841248005,-0.334648660280954,0.613863048245664,-0.131571186448557,0.613863048245116,-0.793813714526522,1.43373855217969,0.345012688343764,NaN,-0.317067236790777,0.0841288652786192,-0.298102185928061,0.0898372794387203,-0.298102185929079,-0.619361549558951,0.0809475574356085,-0.388081741610564,-1.34811410516338,0.150584440982788,NaN,-1.43385245518558,1.43385245518634,-1.61082704785323,0.477692886777634,0.867673263962189,0.832192849051019,-0.10041631091499,0.821853459978293,0.274260804881509,-1.40116206607632,-0.383347694778061,-0.383347694778436,1.43254549767091,NaN,1.84103745251144,0.603011945736022,0.375958446080363,0.846852283273768,-0.740398415032956,-0.658237899873408,-0.658237899872789,-0.853644154096784,0.853644154097072,-0.437924277712518
1326.3872,-0.904729632786714,-0.318284227008702,-1.03580025359816,-0.937337503333081,-0.341276456153792,-0.341276456151712,-0.251182949706104,-0.235609841472658,-0.273288295823123,0.608168232295062,-0.118490064448567,0.608168232294511,-0.756582439445381,1.43172847838349,0.377074382524029,NaN,-0.301593894366923,0.109126052631566,-0.259301399766787,0.118358595729471,-0.259301399767799,-0.599047553169306,0.0988422925387344,-0.363456897169114,-1.35539647777901,0.1620344226482,NaN,-1.44070955473222,1.44070955473302,-1.62669008215483,0.46690271454561,0.871197368961925,0.823941857949347,-0.0937796317474644,0.832701951358988,0.285370211994238,-1.3942287727144,-0.379858398535385,-0.379858398535777,1.40927395918668,NaN,1.81211333718406,0.586598033385629,0.370997873041509,0.826184981038545,-0.748674643793589,-0.683381470051016,-0.683381470050377,-0.855413436203611,0.855413436203875,-0.443206008016043
1326.4896,-0.908299101709688,-0.309400941191615,-1.03277041079189,-0.927823239172033,-0.326008861401818,-0.326008861399707,-0.187107120679383,-0.205641688846115,-0.210466306185561,0.602568199822206,-0.105668439603642,0.602568199821657,-0.718416886302611,1.4281169991147,0.408793637596054,NaN,-0.285619588285354,0.134042702635017,-0.219644857723552,0.146931445983413,-0.219644857724557,-0.578291785998032,0.116326099024245,-0.338759712693939,-1.36142006354279,0.172548866081305,NaN,-1.4460980873756,1.44609808737643,-1.64048353363337,0.456283839194445,0.873182747284008,0.815145546269599,-0.0859272866470731,0.842287148819327,0.297056307258492,-1.38599280955294,-0.376384066797821,-0.37638406679824,1.38534151899469,NaN,1.78223595685134,0.570077943429553,0.365093810384499,0.804971941901972,-0.756523039730403,-0.707551167642761,-0.707551167642105,-0.856023479099273,0.856023479099513,-0.448360751498397
1326.592,-0.912211192736511,-0.299287834954546,-1.02918503277861,-0.917829472060783,-0.309260216922029,-0.309260216919886,-0.121832215516279,-0.1746546974683,-0.146363937457772,0.597074025683408,-0.0931299459825435,0.597074025682862,-0.679367118751131,1.4229139290089,0.440132600659812,NaN,-0.269180380854213,0.158785946397996,-0.179224533424639,0.175496810814884,-0.179224533425635,-0.557141524457913,0.133367794231966,-0.314041439757388,-1.36617569523816,0.182124770463676,NaN,-1.450009549445,1.45000954944586,-1.6522005284595,0.445825509380107,0.873639481722684,0.80579868996287,-0.0769077348932614,0.850617388253982,0.309277250059034,-1.37647806329471,-0.37291084073062,-0.372910840731057,1.36080242132936,NaN,1.75147908802765,0.553469207572033,0.358266564971476,0.783242025959118,-0.763939201590841,-0.730693288831009,-0.730693288830337,-0.855499576177473,0.855499576177688,-0.453375206242102
1326.6944,-0.916441629385795,-0.287978958939234,-1.02504622014307,-0.907392697317598,-0.291061158344063,-0.291061158341891,-0.0555304759749335,-0.142796407846669,-0.0811653821582925,0.591696962703018,-0.0808972981883731,0.591696962702475,-0.639483225886476,1.4161317632275,0.471055378231191,NaN,-0.252313662391428,0.183262872068816,-0.138134467529379,0.203995308163579,-0.138134467530366,-0.535644767766211,0.14993723716026,-0.289353234489822,-1.36965615850082,0.190761940370386,NaN,-1.45243806636963,1.45243806637052,-1.66183870491409,0.4355164885061,0.872582523820804,0.795897842305459,-0.0667726469992663,0.857704002599745,0.321989523897099,-1.36571003753642,-0.369425742556325,-0.369425742556776,1.33571241152307,NaN,1.71991893637136,0.536790003356725,0.350539959018051,0.761026407554476,-0.770919431380475,-0.752756992158618,-0.752756992157934,-0.853869564200699,0.853869564200884,-0.458236369667849
1326.7968,-0.920964681854579,-0.275510906588594,-1.02035655321489,-0.896550511335269,-0.271445659778008,-0.271445659775787,0.0116233827946846,-0.110214981810265,-0.0150571353170347,0.586448366341299,-0.0689922527052149,0.586448366340762,-0.59881532586464,1.40778560189976,0.501527977104233,NaN,-0.235057906497754,0.20738081587566,-0.0964705769861039,0.232367361941701,-0.0964705769870807,-0.513850069603849,0.166005326999206,-0.264746040212391,-1.37185620481392,0.198462976624659,NaN,-1.45338029910735,1.45338029910827,-1.66940014308476,0.425345159332405,0.870031627040873,0.785441398992873,-0.0555767336255012,0.863561310467909,0.335148092213139,-1.35371576668104,-0.365916801981223,-0.365916801981685,1.31012860146387,NaN,1.68763395050286,0.520059180751207,0.341941301086582,0.73835859200913,-0.777460814377234,-0.773694363590768,-0.773694363590065,-0.851163732313141,0.851163732313301,-0.46293162019525
1326.8992,-0.925753249227596,-0.261922647750553,-1.01511904909736,-0.885341485093538,-0.250450894794951,-0.250450894792691,0.0794527460437437,-0.0770586125891013,0.0517726416402471,0.581339613673003,-0.0574355869976902,0.581339613672467,-0.557413597450634,1.39789307246949,0.531518218496263,NaN,-0.217452411280548,0.231047641335262,-0.0543304760639558,0.260553384231401,-0.0543304760649211,-0.491806388853138,0.181543993006132,-0.240270488479593,-1.37277256293736,0.205233256296077,NaN,-1.452835370528,1.45283537052895,-1.67489127967302,0.415299628556928,0.866011270490852,0.77442965890068,-0.0433775763134381,0.86820660969984,0.348706554705847,-1.34052373533788,-0.362373185382192,-0.362373185382659,1.28410934461668,NaN,1.65470464469903,0.503296303232335,0.332501352064142,0.715274446357659,-0.783561316709285,-0.793460443436681,-0.793460443435957,-0.847414736167405,0.847414736167543,-0.467448800264026
1327.0016,-0.930778941032306,-0.247255356967001,-1.0093371143783,-0.873805036922459,-0.228117089914278,-0.228117089911999,0.147779666047485,-0.04347495843415,0.119134745360327,0.576382030186076,-0.046247079458752,0.576382030185548,-0.515328322581085,1.38647424799816,0.560995639277992,NaN,-0.199537037418892,0.254172013213159,-0.0118132986274625,0.28849396114525,-0.0118132986284169,-0.469562948940574,0.196526180616305,-0.215976808344233,-1.37240394737731,0.211080901479265,NaN,-1.45080481459254,1.45080481459352,-1.6783228118176,0.405367835503364,0.860550572469081,0.762864883953563,-0.030235458929632,0.871660163897841,0.362617299831778,-1.32616380217748,-0.358785324392628,-0.358785324393108,1.25771412605953,NaN,1.62121343707667,0.486521708405409,0.322254281645579,0.691812247719171,-0.789219874785622,-0.812013237625158,-0.812013237624416,-0.84265750297219,0.842657502972306,-0.471776294019416
1327.104,-0.936012149292349,-0.231552243054731,-1.00301449021585,-0.861981304949683,-0.204487370011498,-0.204487370009195,0.216425423030547,-0.00961060198267922,0.186839544165478,0.571586834390752,-0.0354454750640429,0.571586834390235,-0.472609922287777,1.37355155696793,0.589931392899955,NaN,-0.181351952783005,0.276663673609867,0.0309804903645238,0.31613003166622,0.0309804903635809,-0.44716909341268,0.210925840129826,-0.191914731485637,-1.37075106269176,0.216016741880234,NaN,-1.44729253371436,1.44729253371536,-1.67970959393001,0.39553766871407,0.853683189888256,0.750751359776078,-0.0162131977468838,0.873945168630006,0.376831649467875,-1.31066712527332,-0.355145040173233,-0.355145040173728,1.23100346536445,NaN,1.58724450059719,0.469756585188996,0.311237608865177,0.66801274305158,-0.794436451585098,-0.829313739073891,-0.829313739073128,-0.836929115062491,0.836929115062589,-0.475903092120738
1327.2064,-0.941422108975531,-0.214858381367551,-0.996155188884948,-0.849911017882094,-0.17960759026498,-0.179607590262654,0.285211085399753,0.0243894704837492,0.25469758650147,0.566965104380288,-0.025048430564256,0.566965104379783,-0.429308967699965,1.35914967593461,0.618298160091683,NaN,-0.162937383592412,0.298433726358718,0.0739493041088111,0.343403051832193,0.0739493041078812,-0.424674131673356,0.224717924347633,-0.168133385248128,-1.36781660201793,0.220054274941626,NaN,-1.44230474039626,1.44230474039728,-1.67907053027368,0.385797091985764,0.845447196197183,0.73809545516344,-0.00137596827400658,0.875087686461964,0.391299992646931,-1.29406608466043,-0.351445657930968,-0.351445657931482,1.20403882234882,NaN,1.55288361548247,0.453023054817812,0.299492119137587,0.643919202571512,-0.799212044320408,-0.845325976239905,-0.845325976239124,-0.830268664838852,0.830268664838938,-0.479818840729076
1327.3088,-0.946976952631294,-0.197220546954998,-0.988763425735687,-0.837635361643366,-0.15352615175655,-0.153526151754198,0.353958076303581,0.0583823804401299,0.322520212775046,0.562527761286359,-0.01507244269803,0.562527761285863,-0.385476155709172,1.34329539991247,0.646070074934675,NaN,-0.144333362253925,0.319394932948668,0.116990670481659,0.370255140633507,0.116990670480744,-0.402127177111127,0.237878397163559,-0.144681173992762,-1.3636052381972,0.223209622364255,NaN,-1.43584986390516,1.43584986390619,-1.67642846446146,0.376134277729254,0.835884931186769,0.724905675420048,0.0142088742410304,0.875116549326015,0.405971910590245,-1.27639419802746,-0.347682105606059,-0.347682105606589,1.176882489222,NaN,1.51821800497856,0.43634423504151,0.287061751631281,0.619577440898891,-0.803548643784161,-0.8600170901856,-0.8600170901848,-0.822717085085481,0.822717085085551,-0.48351388170186
1327.4112,-0.952643769400457,-0.178687047899519,-0.980843555202881,-0.825195840363947,-0.126293806601437,-0.126293806599059,0.42248875055435,0.0922278662269256,0.390120175718497,0.558285554677302,-0.0055327693589719,0.558285554676813,-0.341162255826662,1.32601749426935,0.673222663219185,NaN,-0.125579461721255,0.339462017223748,0.160001494348587,0.39662921000059,0.160001494347689,-0.37957698405085,0.250384250897002,-0.121605654563515,-1.35812360735741,0.22550147992975,NaN,-1.4279384164742,1.42793841647525,-1.67181006641054,0.366537742629411,0.82504282267811,0.711192704974854,0.0304719834838968,0.874063236531274,0.420796299442845,-1.25768602808768,-0.343850994333855,-0.343850994334412,1.14959745549365,NaN,1.48333613909776,0.419744271598778,0.273993456556868,0.595035787866567,-0.807449164127096,-0.873357426546521,-0.873357426545699,-0.814316968558845,0.814316968558901,-0.486979295418934
1327.5136,-0.958388675700801,-0.159307560467748,-0.972400018573313,-0.812634132841303,-0.0979634639469372,-0.0979634639445481,0.490626978244428,0.125788787171849,0.457312265460469,0.554249032093496,0.00355664539046764,0.55424903209301,-0.29641804864255,1.30734653557876,0.699732780201845,NaN,-0.106714515453587,0.358551969280864,0.202878332743461,0.422469088559557,0.202878332742579,-0.357071791691133,0.262213531937608,-0.0989534118472328,-1.35138028632306,0.226951058047777,NaN,-1.41858282822828,1.41858282822936,-1.66524571692399,0.356996480869795,0.81297118758638,0.696969438364785,0.0473422182749287,0.871961740644995,0.435721494648241,-1.23797708413087,-0.339950683114974,-0.339950683115555,1.12224724519526,NaN,1.44832750393709,0.403248337642397,0.260337029028047,0.570345012763312,-0.810917372163132,-0.885320623834075,-0.885320623833233,-0.805112388619373,0.80511238861941,-0.490206951451207
1327.616,-0.964176897296415,-0.139132969011031,-0.963437305308427,-0.799991947768673,-0.0685900049272256,-0.068590004924817,0.558198725102027,0.158931613198053,0.52391392842922,0.550428481618527,0.0121832365769718,0.550428481618052,-0.251294278624937,1.28731474791625,0.72557853207275,NaN,-0.087776330773032,0.376584336606519,0.245517664404,0.447719651659795,0.245517664403135,-0.334659183266489,0.27334537581498,-0.0767699395688081,-1.34338576549757,0.227582011178411,NaN,-1.40779726981006,1.40779726981115,-1.65676938907644,0.347500093432941,0.799724022415592,0.682251002812129,0.0647468405788886,0.868848432565854,0.450695396661981,-1.21730372261545,-0.335981330661469,-0.335981330662067,1.09489573653288,NaN,1.41328234555518,0.386882613486336,0.24614492874651,0.545558220079323,-0.813957838712334,-0.895883685158142,-0.895883685157281,-0.795148723768752,0.795148723768777,-0.49318956544472
1327.7184,-0.969972856821042,-0.118215212520272,-0.953959923935015,-0.787310881504092,-0.0382301059713957,-0.0382301059689752,0.625032618807624,0.191526891016388,0.589745868637148,0.54683384947706,0.0203358736327546,0.546833849476593,-0.205841633875609,1.26595584117582,0.750739174626516,NaN,-0.0688014046418502,0.393481495609885,0.287816141185246,0.472326966560604,0.2878161411844,-0.31238596338259,0.283760045500969,-0.0550995319769568,-1.33415241880698,0.227420356717461,NaN,-1.39559748604283,1.39559748604394,-1.64641852296313,0.338038914363226,0.785358790002567,0.667054776315998,0.0826117094261217,0.864761933757891,0.465665596032027,-1.19570305120211,-0.331944934328024,-0.331944934328649,1.06760697598621,NaN,1.37829140115928,0.370674259597698,0.231472092442928,0.520730734394077,-0.816575917028407,-0.905027025927613,-0.905027025926738,-0.784472486245613,0.78447248624562,-0.495920759117933
1327.8208,-0.975740259940568,-0.0966071363887287,-0.943972375369282,-0.774632281188619,-0.00694206210085295,-0.00694206209841363,0.690960493792469,0.223449680562911,0.654632623364577,0.54347464738606,0.0280049077078563,0.543474647385598,-0.160110748036304,1.24330485665482,0.775194997349238,NaN,-0.0498246489349581,0.409168905665871,0.329670821535802,0.496238454496384,0.329670821534973,-0.290298049181901,0.29343895987382,-0.033985190937686,-1.32369447202777,0.226494386840836,NaN,-1.38200066042142,1.38200066042255,-1.634233887828,0.328604134274104,0.769936204043882,0.651400402214934,0.10086146622994,0.85974299847667,0.480579494869273,-1.17321283848762,-0.327845354857842,-0.327845354858502,1.04044499709075,NaN,1.34344563010786,0.354651392382482,0.216375742481549,0.495919986665779,-0.818777736916898,-0.912734491606546,-0.912734491605663,-0.773131157248737,0.773131157248742,-0.49839511911706
1327.9232,-0.981442175655736,-0.0743623454933814,-0.933479121904635,-0.761997113905477,0.0252143989655608,0.0252143989680213,0.755817912198555,0.254579955771096,0.718403109863866,0.540359867470581,0.0351822147210446,0.540359867470123,-0.114152206026185,1.21939801892602,0.798927208702904,NaN,-0.0308791311440501,0.423575353459333,0.370979396623927,0.519403062308956,0.370979396623113,-0.268440366738584,0.302364705391555,-0.0134685464203638,-1.31202796930805,0.22483457611343,NaN,-1.36702531363165,1.36702531363279,-1.62025942784586,0.319187920639608,0.753520010079145,0.635309799195214,0.119419709350662,0.853834403536506,0.495384421586892,-1.14987142919795,-0.323688327732889,-0.323688327733569,1.01347365005492,NaN,1.30883595379514,0.338843067226468,0.200915191936906,0.471185407069812,-0.820570192842667,-0.918993348113044,-0.918993348112161,-0.761173029308885,0.761173029308889,-0.500608248252498
1328.0256,-0.987041109983485,-0.0515350564591707,-0.922484549680277,-0.749445840039876,0.0581783136461445,0.0581783136486096,0.819444663992823,0.284802965635019,0.780891144772989,0.537497914752263,0.0418612412565161,0.537497914751809,-0.0680165334674825,1.19427258731848,0.821917835818643,NaN,-0.0119958339713903,0.43663319506659,0.411640423338653,0.54177142935845,0.411640423337853,-0.246856741764749,0.310521036457629,0.00641022046489149,-1.29917073589972,0.222473483438987,NaN,-1.35069121742324,1.35069121742439,-1.60454209341482,0.309783535459527,0.736176760325467,0.618807166095079,0.138209159385157,0.847080837831356,0.51002773680549,-1.12571766257075,-0.319481462219531,-0.319481462220226,0.986756441569831,NaN,1.27455300624716,0.323279265924628,0.185151642536769,0.44658831953801,-0.821960904661708,-0.923794263058384,-0.923794263057505,-0.748647049018512,0.748647049018513,-0.502556803514024
1328.128,-0.99249907642209,-0.0281799510822764,-0.91099292907534,-0.737018287776424,0.0918876835756468,0.0918876835781158,0.881685252913646,0.314009557852241,0.841935942595076,0.534896556336254,0.0480370602426967,0.534896556335807,-0.0217541598195732,1.16796670263536,0.844149644358234,NaN,0.00679656617577092,0.448278599073262,0.451553574910171,0.563296036837725,0.451553574909387,-0.22558977669422,0.317892875875844,0.0256124640477935,-1.28514233523418,0.219445643615362,NaN,-1.33301929478644,1.33301929478761,-1.58713166208372,0.300385450944977,0.717975577344618,0.60191897980684,0.157151819375092,0.839528779874846,0.524456929103886,-1.10079079060902,-0.315234225632548,-0.315234225633248,0.960356376518107,NaN,1.24068688779239,0.307990877451217,0.169147967554778,0.422191822018678,-0.822958143869466,-0.92713130018548,-0.927131300184605,-0.735602650974082,0.735602650974083,-0.50423852104226
1328.2304,-0.99777767021224,-0.00435203459449966,-0.899008381909448,-0.72475352648253,0.126279671430616,0.126279671433089,0.942389374760347,0.342096474602683,0.90138260111652,0.532562877182229,0.0537064362380184,0.532562877181786,0.0245846363271992,1.140519232927,0.865606073752393,NaN,0.0254719032017427,0.458451787878183,0.490619909297362,0.583931337098155,0.49061990929659,-0.204680717777735,0.324466323926124,0.0441011726835966,-1.26996402071455,0.215787445567137,NaN,-1.31403148824022,1.31403148824139,-1.56808055218034,0.290989461503321,0.698987902105054,0.584673982680289,0.176169134779561,0.831226356843927,0.538619702250205,-1.0751303933862,-0.310957909074069,-0.31095790907478,0.934335788757321,NaN,1.20732690784255,0.293009656073971,0.152968472120481,0.398060631095706,-0.82357073832173,-0.929001933003207,-0.929001933002333,-0.722089583322228,0.722089583322225,-0.505652236321902
1328.3328,-1.00283815434841,0.0198934989177989,-0.886534864216153,-0.712689738770663,0.1612907824962,0.161290782498674,1.00141238877996,0.368966630720785,0.959082576768674,0.530503227089524,0.0588678917444172,0.530503227089083,0.0709497743501245,1.11196962972162,0.886271173317847,NaN,0.0440067075691142,0.467097267965273,0.528742141579368,0.60363387333179,0.528742141578613,-0.184169326537968,0.330228677189498,0.0618410699210754,-1.2536586850649,0.21153699910856,NaN,-1.2937506063126,1.29375060631378,-1.54744363114381,0.281592788975874,0.679287228762431,0.567103157703778,0.195182156348569,0.822223191895578,0.552464059900302,-1.04877629097789,-0.306665576754288,-0.306665576755014,0.908756154756611,NaN,1.17456130915069,0.27836814865675,0.136678631058462,0.374260881862618,-0.823807982473213,-0.929407059748081,-0.929407059747205,-0.708157736588195,0.708157736588181,-0.506797910911654
1328.4352,-1.00764156171121,0.044501393146402,-0.873576169071015,-0.700864093286277,0.196857024726488,0.196857024728956,1.05861577490056,0.394529376637439,1.01489414414351,0.528723146694257,0.0635217644258684,0.528723146693817,0.117291383506743,1.08235780864186,0.906129524703268,NaN,0.0623803719567627,0.474164037707136,0.565824899675367,0.622362405136755,0.565824899674626,-0.164093770096132,0.335168451749576,0.0787987049516215,-1.23625081088437,0.206733994812305,NaN,-1.27220017974199,1.27220017974319,-1.5252780187783,0.272194179657151,0.658948835445424,0.549239694354539,0.214111706232845,0.812570253936428,0.56593839444076,-1.02176845463655,-0.302372008216728,-0.302372008217477,0.883677898785728,NaN,1.1424769818297,0.264099600663667,0.120344813472101,0.350859897896208,-0.82367958019662,-0.928350991705168,-0.928350991704288,-0.693856988170063,0.693856988170047,-0.507676671469196
1328.5376,-1.01214881189573,0.0694164485555444,-0.860135947977214,-0.689312621726316,0.2329140463197,0.232914046322159,1.11386756620213,0.418700740656681,1.06868282915362,0.527227270777897,0.0676702500599955,0.527227270777457,0.16355976893013,1.0517240606535,0.925166145613848,NaN,0.0805752957248373,0.479605765464609,0.601774948532113,0.640078048085394,0.60177494853139,-0.144490537117897,0.339275403738163,0.0949425235298363,-1.21776642504712,0.20141956377606,NaN,-1.24940434997006,1.24940434997128,-1.50164288447021,0.262793992864056,0.638049522116002,0.531118949955397,0.232878547323944,0.8023197227953,0.578991585780515,-0.994146921456939,-0.298093644066858,-0.298093644067628,0.859160203905434,NaN,1.11115918286349,0.25023785747711,0.104034007733976,0.327925956153925,-0.823195630175739,-0.925841398594152,-0.92584139859327,-0.679237070187022,0.679237070186999,-0.50829085994595
1328.64,-1.01632083818203,0.0945836353659529,-0.846217745576795,-0.678070103585286,0.269397258859845,0.269397258862292,1.16704274870297,0.441403644132656,1.12032180744522,0.526019217394995,0.0713174303415224,0.526019217394547,0.209705343458214,1.02010898605958,0.943366379570618,NaN,0.098577015526125,0.483380938697093,0.63650138128682,0.656744421029267,0.636501381286115,-0.125394377750688,0.342540543363035,0.11024291827305,-1.19823305801881,0.195636147103274,NaN,-1.22538778661305,1.22538778661426,-1.47659924015384,0.253394279099597,0.616667363370332,0.512778408339112,0.251403556743359,0.791524880466622,0.591573115741362,-0.965951716416444,-0.293848542346153,-0.293848542346946,0.835260835673952,NaN,1.08069127173083,0.236817269452372,0.0878135597077085,0.3055280620475,-0.822366642329031,-0.921889214656902,-0.921889214656016,-0.664347465116927,0.664347465116912,-0.508644090826298
1328.7424,-1.02011872083103,0.119948201894823,-0.831825043301422,-0.667169960816752,0.306241957646256,0.306241957648706,1.21802362540433,0.462568084378081,1.16969226421156,0.52510147547664,0.0744692857207503,0.525101475476193,0.255678546916995,0.987553436946817,0.960715780615714,NaN,0.116374334405163,0.485452992069456,0.669915788883156,0.672327784544405,0.669915788882468,-0.106838262219268,0.344956144591878,0.124672263343479,-1.17767970792348,0.189427382696389,NaN,-1.20017561874244,1.20017561874366,-1.45020973465929,0.243998843128875,0.594881477152905,0.494257631986085,0.269607902861278,0.780240033225709,0.603633199618484,-0.93722278400186,-0.289656347588108,-0.289656347588924,0.812035980023665,NaN,1.05115446803403,0.223872601656016,0.0717509319557775,0.283735739261884,-0.821203566251619,-0.916508521449859,-0.916508521448969,-0.649237327388642,0.649237327388636,-0.508741309312755
1328.8448,-1.02350382446372,0.145455776953366,-0.816961310860675,-0.656644162506217,0.343383444934002,0.34338344493645,1.26670014596018,0.48213127946331,1.21668371526466,0.524475300285037,0.0771336952208948,0.524475300284586,0.301429768146792,0.954098458491343,0.977199999645553,NaN,0.133959455255238,0.485790424656799,0.701932425170244,0.686797154441903,0.701932425169572,-0.0888533549104309,0.346515759061467,0.138204940699276,-1.1561368080444,0.182838007463951,NaN,-1.17379337300415,1.17379337300537,-1.4225384556573,0.234613287671455,0.572771802787842,0.475598200701995,0.287413223444542,0.768520456132617,0.615122928847427,-0.907999929360902,-0.285538268573662,-0.285538268574503,0.789540098241576,NaN,1.02262763665727,0.211438949304454,0.0559134838578376,0.262618835426321,-0.819717818761313,-0.90971642450383,-0.909716424502936,-0.633955419988523,0.633955419988525,-0.508588842869114
1328.9472,-1.02643793757316,0.171052462705359,-0.801630066340671,-0.646523137398009,0.380757151211145,0.380757151213589,1.31297020587485,0.500037770573278,1.26119429178305,0.524140619725972,0.0793204299078758,0.524140619725518,0.346909274935464,0.919785227037275,0.992804675482359,NaN,0.151328109611392,0.48436691241531,0.73246838027906,0.700124383239009,0.732468380278403,-0.071469002736948,0.347214245180036,0.150817365113558,-1.13363619512177,0.175913764183494,NaN,-1.14626692322284,1.14626692322406,-1.39365074268169,0.225245038185983,0.550418876851364,0.456843632035853,0.304741803327947,0.756422338575264,0.625994413689025,-0.878322766488239,-0.281517056000866,-0.28151705600173,0.767825803274971,NaN,0.995187103798787,0.199551661695287,0.0403682644868604,0.242247343086331,-0.817921303928461,-0.901532935376073,-0.901532935375172,-0.618550050464603,0.618550050464616,-0.508194438736433
1329.0496,-1.0288834122109,0.196684915031206,-0.785834945229121,-0.636835690823653,0.418298743930462,0.418298743932909,1.35673991974173,0.516239484307874,1.3031309932235,0.524095952362171,0.081041150821609,0.524095952361716,0.392067154529324,0.884654989322349,1.00751533632518,NaN,0.168479662667914,0.481161417274984,0.761443768072478,0.712284211287992,0.761443768071836,-0.0547127331034186,0.347047818739803,0.162488014903019,-1.11021107516315,0.168701301592329,NaN,-1.1176224562055,1.11762245620673,-1.36361301020568,0.215903354056525,0.527903594068133,0.43803928244334,0.321516752061508,0.744002705927638,0.636200915176047,-0.848230668561338,-0.277616969959978,-0.277616969960869,0.746943758538836,NaN,0.968906501241518,0.188246276010107,0.0251818044601419,0.222691231293031,-0.815826420575437,-0.891980865525019,-0.891980865524111,-0.603068992645638,0.603068992645669,-0.507567281445847
1329.152,-1.03080330296925,0.222300411763998,-0.769579777320436,-0.627608923596061,0.455944218778358,0.455944218780797,1.3979238737336,0.530695765546307,1.34240991537698,0.524338339572969,0.0823094193518595,0.524338339572512,0.436853269215581,0.848749010751375,1.02131732147274,NaN,0.185417179769931,0.476158292307115,0.788781928826406,0.723254293410521,0.788781928825779,-0.0386102542193622,0.346014122231354,0.173197471834898,-1.08589598442665,0.161248062412755,NaN,-1.08788644984572,1.08788644984692,-1.33249257697402,0.206599330235046,0.505306943702927,0.419232228553736,0.337662184265981,0.731319301304889,0.645696961705367,-0.817762714093485,-0.273863729807401,-0.273863729808322,0.726942592396253,NaN,0.943856627722687,0.177558454537336,0.0104198933758855,0.204020274514602,-0.813446053443598,-0.881085734918089,-0.881085734917174,-0.587559387466094,0.587559387466142,-0.506717989643902
1329.2544,-1.03216150584924,0.247846913124042,-0.75286866899407,-0.618868153626092,0.493629980498285,0.493629980500729,1.43644536180335,0.54337339565793,1.37895646084461,0.524863293567487,0.0831407167356418,0.52486329356703,0.481217229080664,0.812108538335303,1.03419572936875,NaN,0.20214745346896,0.469347381751304,0.814409643536737,0.733015208159075,0.814409643536125,-0.0231854548558731,0.344112301449059,0.182928465645572,-1.0607267449101,0.153602159672854,NaN,-1.05708565853905,1.05708565854024,-1.30035749907104,0.197345886416419,0.48270972022357,0.400471125310939,0.353103406400178,0.718430430242124,0.654438455027299,-0.78695762398442,-0.27028444437279,-0.270284444373743,0.707868812701357,NaN,0.920105309372736,0.167523908617101,-0.00385266226381365,0.186303857821151,-0.810793549101016,-0.868875690564265,-0.868875690563344,-0.572067626955969,0.572067626956027,-0.505658600087082
1329.3568,-1.03292289771582,0.273273120215039,-0.735706087380622,-0.61063684379123,0.531292924753416,0.531292924755856,1.47223660400499,0.55424660660607,1.41270553295722,0.525664759045183,0.0835524586997019,0.525664759044728,0.525108379538565,0.774774778223108,1.04613538974808,NaN,0.218681000501825,0.460724113757572,0.838257352496074,0.74155045532676,0.838257352495477,-0.00846040437292238,0.341343074823645,0.191665914158758,-1.03474041427792,0.145812243440809,NaN,-1.02524710984432,1.02524710984549,-1.26727640664615,0.18815773749128,0.460192216861709,0.381806039208725,0.36776711157113,0.705394787368537,0.662382775722487,-0.755853688975231,-0.266907525996951,-0.266907525997937,0.689766707950643,NaN,0.897717245859128,0.158178294778632,-0.0175722947554774,0.16961074469557,-0.807882685336546,-0.855381422351632,-0.855381422350709,-0.556639234561605,0.556639234561686,-0.504402548285873
1329.4592,-1.03305347633169,0.298528534914871,-0.718096944068638,-0.602936539605287,0.568870524503616,0.568870524506055,1.50523893740686,0.563297091496689,1.44360170494214,0.526735082109722,0.0835639916194574,0.526735082109276,0.568475799381804,0.736788884115685,1.0571208533122,NaN,0.235032039270536,0.450289582481848,0.860259370632746,0.748846443073314,0.860259370632163,0.00554464890440132,0.337708786280219,0.199396955025868,-1.00797523027575,0.137927362252033,NaN,-0.992398118728602,0.992398118729745,-1.23331834627369,0.179051344629722,0.437833917823529,0.36328826321374,0.381581581774082,0.69227128667278,0.669488897278279,-0.724488691562989,-0.263762595834496,-0.263762595835517,0.672678235486893,NaN,0.876753844497733,0.149557084715965,-0.0306769329190848,0.154008814563587,-0.804727647296272,-0.840636066601878,-0.840636066600952,-0.54131875620268,0.541318756202782,-0.502964647494863
1329.5616,-1.03252050177328,0.323563521038525,-0.700046679159706,-0.595786818223506,0.606300914863542,0.606300914865974,1.53540296781358,0.570514006748815,1.47159935294194,0.52806497827684,0.0831965647437633,0.5280649782764,0.611268303611838,0.698191953772163,1.06713639169583,NaN,0.25121845416359,0.438050614333371,0.880354092349423,0.754892464102932,0.880354092348855,0.0188112838638769,0.33321344127507,0.206110970926555,-0.980470551320476,0.129996827878197,NaN,-0.958566317098556,0.95856631709967,-1.19855263211777,0.170044852097364,0.415713206105186,0.34497012577039,0.394476896636579,0.679118910208526,0.675717514555867,-0.692899828414542,-0.260880387348117,-0.260880387349173,0.656642906129336,NaN,0.857273053952986,0.141695421422701,-0.0431062512720603,0.139564788653197,-0.801343020483714,-0.824675095894221,-0.82467509589329,-0.526149670384219,0.526149670384344,-0.50136106201387
1329.664,-1.03129264162616,0.348329365809296,-0.681561348500799,-0.58920524836466,0.643522969235351,0.643522969237776,1.56268867465764,0.575893962141727,1.49666274535589,0.529643494437655,0.0824732791879187,0.52964349443722,0.653434443594079,0.659025034192831,1.07616600143967,NaN,0.26726174666961,0.424019812298398,0.898484178853383,0.759680662997241,0.89848417885283,0.0313229150413088,0.327862729915392,0.211799608876516,-0.952266796777688,0.122070091045401,NaN,-0.923779692745843,0.923779692746927,-1.16304870648492,0.161158013046225,0.393907097219626,0.326904801551046,0.406385146026883,0.665996581842796,0.681031187127081,-0.661123638585592,-0.258292649003852,-0.258292649004948,0.641697672210183,NaN,0.839329205905458,0.134627971246783,-0.0548019046478315,0.126343957854821,-0.797743803471727,-0.807536192573443,-0.807536192572511,-0.511174318352186,0.511174318352341,-0.499609271484419
1329.7664,-1.02934012152802,0.372778340950135,-0.66264771598519,-0.58320735966047,0.680476363433821,0.680476363436231,1.58706546752,0.579440993687718,1.51876608600335,0.531457965655576,0.0814190171287747,0.531457965655143,0.694922498590101,0.619329137700459,1.08419340825288,NaN,0.283186967454234,0.408215574503641,0.914596724813306,0.763205998884888,0.914596724812767,0.0430647982295218,0.321664041508282,0.216456792588941,-0.92340538954825,0.114196626772709,NaN,-0.888066639343834,0.888066639344887,-1.12687600691512,0.152412104021618,0.37249099865701,0.309146123633991,0.417240641245881,0.6529630632038,0.685394491238307,-0.629195940332232,-0.256032041793352,-0.256032041794493,0.627876822795514,NaN,0.822972868609026,0.128388777260758,-0.0657077477842573,0.114409918853258,-0.79394543685702,-0.789259098414292,-0.789259098413354,-0.49643384974194,0.496433849742124,-0.497728023974197
1329.8688,-1.02663487896692,0.396863762613929,-0.643313349591281,-0.577806619397299,0.717101628194785,0.717101628197176,1.60851219790586,0.581166510369697,1.53789351222652,0.533493972147385,0.08006035747506,0.533493972146957,0.735680458390189,0.579145269255145,1.09120207156402,NaN,0.299022621503802,0.390662086869443,0.928643406478319,0.765466206253088,0.928643406477794,0.0540240314371664,0.314626477081865,0.220078730396455,-0.893928700401558,0.106425821678648,NaN,-0.851456023602945,0.851456023603962,-1.09010383782479,0.143829829040875,0.351538488230203,0.291748394767385,0.426980121021286,0.640076859449965,0.688774171291704,-0.597151775802936,-0.254132027400208,-0.254132027401405,0.615211890148685,NaN,0.808250715723387,0.123011118512577,-0.0757700434267714,0.103824322053056,-0.789963838516957,-0.769885438995328,-0.769885438994385,-0.481968173929933,0.481968173930146,-0.495737275350545
1329.9712,-1.02315071405931,0.42054005085233,-0.623566715033357,-0.573014414262482,0.753340193593941,0.7533401935963,1.62701713237594,0.581089207085498,1.55403905150954,0.535735304109281,0.0784254870570604,0.535735304108859,0.775656003838353,0.538514463410792,1.09717519430319,NaN,0.314800538785892,0.371389291604822,0.940580615851995,0.766461754989771,0.940580615851484,0.064189552805699,0.306760868562213,0.222663924890041,-0.863879989986415,0.0988068560697829,NaN,-0.813977270537197,0.813977270538173,-1.05280124521255,0.135435215927011,0.331121102403857,0.274766196110583,0.435542952640573,0.627396115946484,0.691139282674613,-0.565025359542006,-0.252626743032165,-0.25262674303341,0.603731570078302,NaN,0.795205411625124,0.118527377742192,-0.0849376647689631,0.0946466315667325,-0.785815427735839,-0.749458532657483,-0.749458532656536,-0.467815901509965,0.467815901510203,-0.493658112241023
1330.0736,-1.01886342929527,0.443762792756289,-0.603417256928359,-0.568840034750534,0.789134431765538,0.789134431767871,1.64257789263157,0.579234943056788,1.56720654133374,0.538163943164662,0.0765441155636561,0.538163943164246,0.814796495097857,0.497477831482109,1.10209574720997,NaN,0.330555703076855,0.350432832935307,0.950369585231854,0.766195810796786,0.950369585231357,0.0735521380644507,0.298079808811634,0.224213188521377,-0.833303341966805,0.0913885732611251,NaN,-0.775660463962737,0.77566046396367,-1.01503688896973,0.127253505823961,0.311308124219582,0.258254189561638,0.442871330184357,0.614978484617144,0.692461318257093,-0.532850024767847,-0.251550854553369,-0.251550854554674,0.593461652796938,NaN,0.78387550716544,0.114968913346156,-0.0931623005782069,0.0869338887575474,-0.781517119321055,-0.728023193167313,-0.728023193166359,-0.454014257909229,0.454014257909493,-0.491512656379929
1330.176,-1.01375095380396,0.466488815619863,-0.582875459027323,-0.565290661043433,0.824427706599044,0.824427706601354,1.65520136688906,0.575636592422059,1.57740951759313,0.540760066294003,0.0744473947506581,0.540760066293594,0.853048974585973,0.456076620882665,1.10594651536046,NaN,0.346326034190493,0.327833980520563,0.957976504410997,0.764674197897131,0.95797650441051,0.0821043993434647,0.288597686757517,0.224729663105617,-0.802243581612852,0.0842193278829544,NaN,-0.736536460540871,0.736536460541766,-0.976878905606783,0.119311033557426,0.292166361067059,0.242266907089607,0.448910471601848,0.602880944286361,0.692714313158683,-0.500658161910823,-0.250939379586058,-0.250939379587425,0.584424953923346,NaN,0.774295332470375,0.112365923049265,-0.100398670721913,0.0807404617712395,-0.777086281959706,-0.705625523340693,-0.70562552333973,-0.440598959566513,0.440598959566799,-0.489323951955429
1330.2784,-1.00779345440602,0.488676274431975,-0.561952882525683,-0.562371351733193,0.859164438627037,0.859164438629317,1.66490359473646,0.570333877971982,1.58467107599208,0.543502070035767,0.0721678318838604,0.543502070035366,0.890360186243402,0.414352283440494,1.10871016605219,NaN,0.362152126593119,0.30363953055227,0.963372629274591,0.761905365889125,0.963372629274114,0.0898407841696251,0.278330715938142,0.224218835641911,-0.770746179100175,0.0773468114934434,NaN,-0.696637012455641,0.696637012456502,-0.938394759034006,0.111635094673561,0.273759910131137,0.226858522274105,0.453608816074594,0.591159576344602,0.691874929742897,-0.468481147678518,-0.250827482708065,-0.250827482709493,0.576641235004837,NaN,0.766494875279874,0.110747286547274,-0.106604750641274,0.0761177674176578,-0.77254067582796,-0.682312690991194,-0.682312690990224,-0.427604062051591,0.427604062051892,-0.487115843843864
1330.3808,-1.00097343850488,0.510284752915927,-0.540662187536342,-0.560085038899831,0.893290187100271,0.893290187102512,1.67170962283356,0.563373196354855,1.58902370602474,0.546366605728379,0.0697391848703982,0.546366605727984,0.92667660801541,0.372346544229708,1.1103693289755,NaN,0.378076955795078,0.277901683512279,0.966534376760724,0.757900361115002,0.966534376760257,0.0967575703617136,0.267296947846018,0.222688542453082,-0.738857141548952,0.0708178637258115,NaN,-0.655994887062647,0.655994887063475,-0.899651082827919,0.104253795869974,0.25614992150142,0.21208260560519,0.456918221548561,0.579869317855903,0.689922532649773,-0.436349268468312,-0.25125025460107,-0.251250254602559,0.570127110847203,NaN,0.760499644578194,0.110140384414327,-0.111741991786637,0.0731139682352155,-0.767898391227982,-0.658132685596888,-0.658132685595912,-0.4150618038623,0.415061803862616,-0.484912856256332
1330.4832,-0.993275851611479,0.531275372789406,-0.519017143973974,-0.558432532665705,0.926751742855122,0.926751742857336,1.67565332485562,0.55480743426434,1.59050909166044,0.54932861625511,0.067196334158164,0.549328616254716,0.961944493237537,0.330101462982911,1.11090667892179,NaN,0.394145566932815,0.25067789642345,0.967443400695741,0.752672800046758,0.967443400695286,0.102852853906955,0.255516266665448,0.220148957625525,-0.706622899233878,0.0646782808273114,NaN,-0.614643971180345,0.614643971181148,-0.860713518904109,0.0971958888976809,0.239394375562185,0.197991871194984,0.458794159777843,0.569063722277458,0.686839264903004,-0.40429164551985,-0.252242486353859,-0.252242486355415,0.564895948115863,NaN,0.756330527890957,0.110570899664675,-0.115775522994079,0.0717736587013491,-0.763177798771723,-0.633134064380389,-0.633134064379408,-0.40300246695884,0.403002466959166,-0.482740076018204
1330.5856,-0.984688170635157,0.551610903018892,-0.497032638641434,-0.55741253633819,0.959497222250256,0.959497222252438,1.67677718094522,0.544695768073821,1.58917787287498,0.552361369295927,0.0645751341476371,0.552361369295537,0.996109921534927,0.287659482579789,1.11030501750672,NaN,0.410404757848899,0.222030709214238,0.966086648105389,0.746238838845015,0.966086648104944,0.108126531048743,0.243010363638913,0.216612565590836,-0.674090191113752,0.0589726306696578,NaN,-0.572619352818124,0.5726193528189,-0.82164655552689,0.0904905907117363,0.223547886688696,0.184637922924058,0.45919590445728,0.558794746931792,0.682610129518555,-0.372336168677175,-0.253838445110713,-0.253838445112341,0.560957761051123,NaN,0.754003651072011,0.112062610219826,-0.118674324939474,0.0721375534059764,-0.758397512654216,-0.607365699352169,-0.60736569935118,-0.391454262121129,0.391454262121469,-0.480623038553419
1330.688,-0.975200494003355,0.571255860890991,-0.474724685212289,-0.557021671496814,0.991476154191006,0.991476154193153,1.67513201723309,0.533103439235001,1.58508936676043,0.55543648678987,0.0619122492016119,0.555436486789482,1.02911886327155,0.245063462418685,1.10854735592324,NaN,0.426902763110058,0.19202754784422,0.96245640018115,0.738617133536614,0.962456400180716,0.112580276082844,0.229802692249438,0.212094119587905,-0.641305953803002,0.0537440780685203,NaN,-0.529957381991767,0.529957381992519,-0.782513365881901,0.0841673933980061,0.208661535722567,0.172071004373156,0.458086707666697,0.549112567880866,0.677223072412903,-0.340509441991679,-0.256071656183425,-0.256071656185124,0.558319110577564,NaN,0.753530247983822,0.114637181018313,-0.12041137772286,0.0742421869715889,-0.753576368149054,-0.580876530864473,-0.580876530863479,-0.380443235648998,0.380443235649348,-0.478587612065838
1330.7904,-0.964805627787777,0.590176601188928,-0.452110438976074,-0.557254510990538,1.0226395537187,1.02263955372082,1.67077670856745,0.520101501154353,1.57831124997543,0.558523972765991,0.0592449808998769,0.55852397276561,1.06091725553257,0.202356701075929,1.10561700016492,NaN,0.443688935490748,0.160740505754048,0.956550298911797,0.729828791585073,0.956550298911373,0.116217514418736,0.215918411738054,0.206610590047051,-0.608317215196458,0.0490342174363941,NaN,-0.486695725875301,0.486695725876033,-0.743375649323042,0.078255868961406,0.194782727458991,0.16033975546829,0.455433961196066,0.540065410614981,0.670669058185266,-0.308836739983628,-0.258974697813499,-0.258974697815277,0.556983014950796,NaN,0.754916547055506,0.11831396668536,-0.120963787508786,0.0781196352956836,-0.748733410769088,-0.553715326225009,-0.553715326224008,-0.369993186943932,0.369993186944296,-0.47665987478321
1330.8928,-0.953499163440863,0.608341394851572,-0.429208211432115,-0.558103617235297,1.05293997759537,1.05293997759747,1.66377784663441,0.5057665365732,1.56891920421932,0.561592243486356,0.0566110961592992,0.561592243485979,1.09145108146026,0.159582958382969,1.10149763884039,NaN,0.460813412113211,0.128246102464052,0.948371355913583,0.719897321231167,0.948371355913166,0.119043392453177,0.201384328993683,0.200181109793323,-0.575170990246362,0.0448829039442186,NaN,-0.442873441307255,0.442873441307954,-0.704293478412938,0.0727854760951692,0.181955066525873,0.149490979324436,0.451209342233781,0.53169938022524,0.662942130960346,-0.277341970391109,-0.262579011701543,-0.262579011703399,0.556948879871932,NaN,0.758163679484818,0.123109835263278,-0.120312901880712,0.0837972655362163,-0.743887888320207,-0.525930442814628,-0.525930442813621,-0.360125584238899,0.360125584239273,-0.47486597973791
1330.9952,-0.941279540080815,0.625720500163323,-0.406037476251219,-0.559559584427962,1.08233156524404,1.08233156524612,1.65420937568644,0.49018034889414,1.55699652745411,0.564608167628711,0.0540486662657733,0.564608167628342,1.12066645119204,0.116786485517114,1.09617343835786,NaN,0.478326752059515,0.0946250199982094,0.937927943915756,0.708848582579096,0.937927943915345,0.121064748116147,0.186228844879813,0.192826922290501,-0.541914174051434,0.0413280745280701,NaN,-0.398531075805978,0.398531075806652,-0.665325152703898,0.0677853747428685,0.170218243358665,0.139569420813758,0.445388946425132,0.524058274212227,0.654039455561588,-0.246047638146393,-0.266914725566331,-0.266914725568274,0.558212451646348,NaN,0.763267609596478,0.129039017489486,-0.118444422505118,0.091297515990611,-0.739059234890989,-0.497569601935583,-0.497569601934569,-0.350859467767379,0.350859467767776,-0.473232003330658
1331.0976,-0.928148084901296,0.642286229310708,-0.382618858846454,-0.561611085522161,1.11077007844924,1.11077007845131,1.64215220087772,0.473429637758031,1.54263371759745,0.567537126025104,0.0515959215828803,0.567537126024734,1.14850969604818,0.0740120620544671,1.0896291551973,NaN,0.496279543359567,0.0599618214917342,0.925233777396762,0.696710738413281,0.925233777396356,0.122290082417387,0.170481905041708,0.184571333181564,-0.508593427994036,0.0384055588352399,NaN,-0.35371078387158,0.353710783872231,-0.626527057538576,0.0632842490894686,0.159607923731619,0.130617554457053,0.43795341400524,0.517183368835952,0.643961340299988,-0.21497480584762,-0.272010480869741,-0.272010480871762,0.560765788323554,NaN,0.770219081752588,0.136112975137374,-0.115348516962035,0.100637697749619,-0.734267035464227,-0.468679682874503,-0.468679682873479,-0.342211336040878,0.342211336041291,-0.4717837802421
1331.2,-0.914109031102431,0.658013012863349,-0.358974107216059,-0.564244926221418,1.13821295394473,1.13821295394681,1.6276937758939,0.455605673942257,1.52592803797494,0.570343093678842,0.0492911168211264,0.570343093678471,1.17492749289304,0.0313050265251211,1.08185027056607,NaN,0.514721992495557,0.0243446554848149,0.910307885918793,0.683514201376416,0.91030788591839,0.122729526246516,0.154174950335092,0.175439658276896,-0.475255058866653,0.0361488927615775,NaN,-0.308456431693927,0.30845643169455,-0.587953527200901,0.0593101343643088,0.15015564191424,0.122675377451448,0.428888053955226,0.511113188160355,0.632711250139796,-0.184143049206807,-0.277893263540577,-0.27789326354267,0.564597234783062,NaN,0.779003571913137,0.144340271868478,-0.111019922849037,0.111829802663345,-0.729530965260176,-0.43930654288181,-0.439306542880779,-0.334195022419046,0.334195022419476,-0.470546735171406
1331.3024,-0.899169520617119,0.672877463610019,-0.335126049585959,-0.567446107919172,1.16461937275115,1.16461937275323,1.61092767454253,0.43680398299596,1.50698307076117,0.572988735795626,0.0471723934377498,0.57298873579526,1.19986702546606,-0.0112887179963113,1.07282313990473,NaN,0.533703517452068,-0.0121350543128563,0.893174575682394,0.669291576585095,0.893174575681996,0.122394795127451,0.137340860785361,0.165459159338217,-0.44194489587857,0.0345891525685671,NaN,-0.262813671704556,0.262813671705155,-0.549656714612349,0.0558902421126661,0.141888705080867,0.115780206431527,0.418182965776468,0.505883281711943,0.620295821488484,-0.153570411383267,-0.284588242452652,-0.284588242454813,0.569691388402144,NaN,0.789601233329433,0.153726431719554,-0.105458032343018,0.124880306262485,-0.724870713530436,-0.409494860455403,-0.409494860454364,-0.326821579992227,0.326821579992667,-0.469545723526101
1331.4048,-0.883339601568628,0.686858438897464,-0.311098548372147,-0.571197900033493,1.18995033864733,1.18995033864941,1.59195314772802,0.417124032599491,1.48590825850681,0.575435504994308,0.0452776261674278,0.575435504993938,1.22327616958974,-0.0537227326380665,1.06253513851394,NaN,0.553272359674785,-0.0493829357357274,0.873863371184325,0.654077600808575,0.87386337118393,0.121299128683794,0.120013890460308,0.154658963865613,-0.408708172104338,0.0337548208981106,NaN,-0.216829987766333,0.216829987766909,-0.511686471143693,0.0530507828840175,0.13483012033317,0.109966482184189,0.405833153131567,0.501526037536473,0.606724885217196,-0.123273363867558,-0.292118622437745,-0.292118622439981,0.576029054071683,NaN,0.801986837153674,0.164273784714952,-0.0986669472493658,0.139789969570351,-0.720305914052305,-0.379287991355477,-0.379287991354426,-0.320099194756478,0.32009919475693,-0.468804886944976
1331.5072,-0.866632225430886,0.699937097511583,-0.2869164577067,-0.575481921309478,1.21416875302528,1.21416875302735,1.57087466525962,0.396668909331827,1.4628184299951,0.577643730313239,0.0436442496333251,0.577643730312865,1.24510367604574,-0.0959500998229275,1.0509747841184,NaN,0.573475216151793,-0.0873020135583664,0.852408928574805,0.637909081942574,0.852408928574414,0.119457216454219,0.102229594196512,0.143069970582918,-0.375589415696273,0.0336716852520224,NaN,-0.170554724783061,0.170554724783618,-0.474090240632493,0.0508167899111757,0.12899855445617,0.105265590198794,0.391838623302214,0.498070544217538,0.592011498306899,-0.0932667812672684,-0.300505516263755,-0.300505516266063,0.583587198696001,NaN,0.816129719296346,0.17598131239027,-0.0906555002696023,0.156553656088029,-0.715856101389701,-0.348727827317788,-0.348727827316725,-0.314033141022646,0.314033141023103,-0.46834752298809
1331.6096,-0.849063240613876,0.712096944421306,-0.262605586272754,-0.580278230238093,1.23723947571656,1.23723947571862,1.54780144083775,0.375544972965662,1.43783330626547,0.579572695907195,0.0423090714612467,0.579572695906819,1.26529933110355,-0.137923495423863,1.03813182815386,NaN,0.594356882127928,-0.12579307598707,0.82885091250313,0.620824845196269,0.82885091250274,0.116885113860251,0.0840247471434536,0.130724743849792,-0.342632353978467,0.0343627633982383,NaN,-0.124039116471704,0.124039116472246,-0.436912970879844,0.0492119486416544,0.124408331856097,0.1017057039792,0.376204468736504,0.495542501003311,0.57617198023079,-0.0635639343637721,-0.309767836285614,-0.309767836287996,0.592338917560991,NaN,0.831993746464594,0.188844508930766,-0.0814372431960466,0.175160181259367,-0.711540698080452,-0.31785465657642,-0.317854656575338,-0.308625783183818,0.308625783184285,-0.468195965274852
1331.712,-0.830651373636673,0.723323857642052,-0.238192661543775,-0.585565425333083,1.25912936989936,1.25912936990138,1.52284693889169,0.353861483741185,1.41107698460433,0.581180716380043,0.0413080834615186,0.581180716379664,1.28381409140681,-0.179595263651753,1.02399732192786,NaN,0.615959894333046,-0.164755062831861,0.803233832650423,0.602865690740376,0.803233832650031,0.113600151985267,0.0654372569414441,0.117657399463382,-0.309879830416919,0.0358482475953697,NaN,-0.0773363190066417,0.0773363190071659,-0.400197041440557,0.0482584353073135,0.121069469000122,0.0993116532623074,0.358940927118867,0.493964164953431,0.559225945743901,-0.0341765018056088,-0.319922201880807,-0.319922201883258,0.602253421475077,NaN,0.849537309604555,0.202855269506971,-0.0710304057365549,0.195592205743064,-0.707379023989592,-0.286707029332181,-0.286707029331087,-0.30387661552792,0.303876615528398,-0.468371468177645
1331.8144,-0.811418189148241,0.733606096449063,-0.213705288119452,-0.591320755382878,1.27980733946755,1.27980733946954,1.49612836522711,0.33173020363126,1.38267740244562,0.582425222704715,0.0406762804599093,0.582425222704333,1.30060020004928,-0.220917482930142,1.00856367249637,NaN,0.638324170235604,-0.204085471603986,0.775606845040646,0.58407436179892,0.775606845040255,0.109620844757994,0.0465060681846221,0.103903484171062,-0.27737373115227,0.0381454566928133,NaN,-0.0305014538383736,0.03050145383888,-0.363982200914493,0.0479767652314294,0.118987735202318,0.0981048131498798,0.340063415227411,0.493354315897839,0.541196321008324,-0.00511459677351679,-0.330982854980072,-0.330982854982594,0.613296049630386,NaN,0.868713347409307,0.21800181185852,-0.0594578310119725,0.217826176552118,-0.703390312437094,-0.255321625884976,-0.255321625883875,-0.299782321732113,0.2997823217326,-0.46889408859938
1331.9168,-0.791388022893689,0.742934294884244,-0.189171892090242,-0.597520238508602,1.29924437257884,1.29924437258081,1.46776614799382,0.309264974524402,1.35276578753691,0.583262873689044,0.0404474925771377,0.583262873688658,1.31561129518545,-0.261842015878717,0.991824703565716,NaN,0.661486642608724,-0.243680774234462,0.746023530352726,0.564495517065385,0.746023530352334,0.104966798914837,0.0272710600512821,0.0894998531790744,-0.245154915333335,0.0412687847232579,NaN,0.0164083420592186,-0.016408342058726,-0.328305505386836,0.0483856509194586,0.118164724002753,0.0981030070107244,0.319592533014425,0.493728216754782,0.522109329628643,0.0236131978180713,-0.342961574379436,-0.342961574382015,0.625428310771949,NaN,0.889469399546615,0.234268632737682,-0.0467468958485344,0.24183231419758,-0.699593716915076,-0.223733125426443,-0.223733125425331,-0.296336834940515,0.296336834941013,-0.469782557889853
1332.0192,-0.770587884037703,0.751301447383821,-0.1646216434165,-0.60413878728041,1.31741360306241,1.31741360306435,1.4378834179041,0.286581276684862,1.32147610293955,0.583649703452528,0.0406542358267624,0.583649703452139,1.32880252999347,-0.302320553184478,0.973775731144029,NaN,0.685480888827248,-0.283436837379797,0.714541662536187,0.544175699457566,0.714541662535795,0.0996586325205774,0.00777294153652096,0.0744845522832025,-0.213263141637205,0.0452296398293634,NaN,0.0633338709539731,-0.0633338709534963,-0.29320125345443,0.0495018721934035,0.118597920591064,0.0993204185823114,0.297554039117898,0.495097552127856,0.501994442070746,0.051999793284852,-0.355867581101302,-0.355867581103943,0.63860795311098,NaN,0.911747688284491,0.251636496756243,-0.0329294243290977,0.267574639252706,-0.696008290079428,-0.191974087248026,-0.191974087246905,-0.293531386007008,0.293531386007524,-0.471054140172882
1332.1216,-0.749047328062569,0.758702895217601,-0.14008435131543,-0.611150335769477,1.33429039502098,1.3342903950229,1.40660549617052,0.263795775066732,1.28894449599336,0.583541306284017,0.0413275832190198,0.583541306283623,1.34013072595441,-0.342304676880387,0.954413654860852,NaN,0.710336759462658,-0.323249342036698,0.681222977174669,0.523163294403019,0.681222977174279,0.0937179028186508,-0.0119468487706822,0.0588967091819082,-0.181736984028118,0.0500363757659436,NaN,0.110213859563011,-0.110213859562548,-0.258700919894416,0.0513401619074278,0.120280757337273,0.10176751288372,0.273978804418568,0.497470339590164,0.480884292177098,0.080039565290784,-0.369707434252798,-0.369707434255492,0.652789057568458,NaN,0.935485223484749,0.270082448647811,-0.0180415999293366,0.295011025840732,-0.692652919458259,-0.160074867988024,-0.160074867986896,-0.291354535971033,0.291354535971559,-0.472724480247477
1332.224,-0.726798309508307,0.765136320812563,-0.115590336013365,-0.61852796518796,1.34985244915164,1.34985244915354,1.37405939654496,0.241025866417838,1.25530875977876,0.582893049442061,0.0424970501252947,0.582893049441659,1.34955457039254,-0.381745965129218,0.93373705847459,NaN,0.736080023441402,-0.36301419960377,0.646132943807835,0.501508474157832,0.646132943807439,0.0871670375015122,-0.0318462356697453,0.0427764313828862,-0.150613735578701,0.055694225544777,NaN,0.156985001487867,-0.156985001487424,-0.224833094640403,0.0539131069820507,0.123202658135952,0.105450966021927,0.248902751002491,0.500850822645044,0.458814571733964,0.107728332630026,-0.384484925496031,-0.384484925498797,0.667922141450657,NaN,0.960613920133827,0.289579833665669,-0.0021238742346756,0.324093265800617,-0.689546221638937,-0.128063591089901,-0.128063591088764,-0.289792199464629,0.28979219946516,-0.474807452046564
1332.3264,-0.703875027466888,0.770601751740479,-0.0911702872085728,-0.62624402761029,1.36407992528438,1.36407992528626,1.34037334533066,0.218389236987289,1.22070781270283,0.581660299479597,0.0441904805716892,0.581660299479189,1.35703485108842,-0.420596142551273,0.911746310104282,NaN,0.762732053430429,-0.402627961826284,0.609340541231,0.479263129015334,0.609340541230599,0.0800292622407796,-0.0518825980164042,0.0261647028228798,-0.119929306262922,0.0622052505657327,NaN,0.203582067143765,-0.203582067143336,-0.191623433186729,0.0572310600108088,0.12734908103019,0.110373603873023,0.222366779689253,0.505239367479358,0.435823915985043,0.135063340476766,-0.40020098221983,-0.400200982222665,0.683954260360743,NaN,0.98706071913045,0.310098313757729,0.0147791383631938,0.354767134451238,-0.686706414855533,-0.0959661638186187,-0.0959661638174753,-0.288827677145371,0.28882767714591,-0.477315020253934
1332.4288,-0.680313772659235,0.775101571819163,-0.0668551189623484,-0.634270269025275,1.37695557550178,1.37695557550365,1.30567632113236,0.196003430426247,1.18528119765721,0.579798650670141,0.0464339226640068,0.57979865066973,1.36253470936901,-0.45880726624905,0.888443652711379,NaN,0.790309567517245,-0.441988223517127,0.570918030074919,0.456480789575683,0.570918030074513,0.0723285227288659,-0.0720128643999931,0.00910327373324791,-0.0897181229279847,0.0695683173865213,NaN,0.249938073280065,-0.249938073279659,-0.159094621953343,0.061302057935741,0.132701573609165,0.116534353047899,0.194416685359493,0.510632387416167,0.411953790096169,0.162043239992519,-0.416853586309225,-0.416853586312139,0.700829106586409,NaN,1.0147477126564,0.331603879113921,0.0326187940029552,0.386972463834946,-0.684151191989988,-0.0638063234307337,-0.0638063234295866,-0.288441718323018,0.288441718323556,-0.480257122254824
