time,S1-D1,S1-D8,S1-D9,S1-D15,S2-D1,S2-D2,S2-D3,S2-D9,S3-D1,S3-D2,S3-D16,S4-D2,S4-D3,S4-D5,S5-D3,S5-D4,S5-D5,S6-D2,S6-D5,S6-D17,S7-D6,S7-D7,S8-D6,S8-D7,S8-D18,S9-D3,S9-D4,S9-D9,S9-D11,S9-D19,S10-D8,S10-D9,S10-D10,S10-D11,S11-D8,S11-D10,S11-D20,S12-D10,S12-D11,S12-D12,S13-D4,S13-D11,S13-D12,S14-D10,S14-D12,S14-D21,S15-D13,S15-D14,S16-D13,S16-D14,S16-D22
1341.0304,-0.242244503826733,0.350490768812291,0.247697275996845,-0.350746027110961,-0.218473584437258,-0.218473584438623,NaN,NaN,-0.178365261049824,-0.474023099498534,0.353755603655234,-0.474023099498325,0.022407936252999,0.478968938562708,NaN,NaN,NaN,-0.315149653218348,-0.993626957549414,-0.740108216149334,-0.993626957550366,-1.19200820393011,0.771618612128872,-1.16498954588953,-0.933520095245736,0.716822101263528,NaN,0.0150792666731104,-0.0150792666724665,-0.527732839431231,0.786936433022338,-0.51702561944874,NaN,NaN,-0.00247112813174698,0.115786462447522,-1.08340206361989,-0.699199344921909,-0.699199344922756,-0.172732621043968,NaN,0.229430601269477,NaN,-0.412708535261147,-0.646383372650407,-0.692090917630808,0.31534167001418,0.31534167001313,NaN,-0.735691152572873,NaN
1341.1328,-0.264945755709428,0.357811185616582,0.234605351561233,-0.351200795747069,-0.217204779710124,-0.217204779711515,NaN,NaN,-0.177752301901469,-0.463327804385113,0.344261425306129,-0.463327804384892,0.00827333338497095,0.472894738066125,NaN,NaN,NaN,-0.296004818191993,-0.968702467532686,-0.746450781166367,-0.968702467533663,-1.22647927472571,0.803854889859167,-1.17501723676311,-0.935237128172837,0.699030814264775,NaN,0.0179754892494256,-0.0179754892487692,-0.525019151458473,0.784574771012905,-0.521769906288012,NaN,NaN,0.0186858073965167,0.141609578582912,-1.07603547059644,-0.662753188643452,-0.662753188644265,-0.201031545557379,NaN,0.266154494093403,NaN,-0.392594170289305,-0.662045555337505,-0.678889808144908,0.301779579809575,0.301779579808534,NaN,-0.752136943442673,NaN
1341.2352,-0.287814944383158,0.364830882341307,0.220911836602312,-0.350628658070137,-0.216193206881873,-0.216193206883285,NaN,NaN,-0.177490182803047,-0.451252480307631,0.334434007216876,-0.45125248030739,-0.00515561149675494,0.466199949359042,NaN,NaN,NaN,-0.276333155625643,-0.943500310208561,-0.752271309909342,-0.943500310209569,-1.26022864362943,0.835262407157854,-1.18520187022627,-0.935947581861468,0.680536385935787,NaN,0.0214716718536845,-0.0214716718530148,-0.520798255417782,0.781446310913039,-0.527200161917629,NaN,NaN,0.0399163014037903,0.167565603885558,-1.06629136531402,-0.625337708963008,-0.625337708963786,-0.229398938833888,NaN,0.302276126438347,NaN,-0.373583055115565,-0.676918881967138,-0.66379848985149,0.288097690959386,0.288097690958354,NaN,-0.767905229234205,NaN
1341.3376,-0.310818244095246,0.371518923637159,0.206607753119742,-0.349081193834083,-0.215468313818729,-0.215468313820165,NaN,NaN,-0.177605066978098,-0.437852845407864,0.324294436272367,-0.437852845407612,-0.0178618924918835,0.458882103594243,NaN,NaN,NaN,-0.256170547985186,-0.918068927811431,-0.757569435457127,-0.918068927812461,-1.29321171311494,0.865813108861141,-1.19549791843472,-0.935657227298241,0.661347555223662,NaN,0.0255624570602371,-0.0255624570595386,-0.515114220754091,0.777586445489893,-0.533306205585666,NaN,NaN,0.0611927033663719,0.193620239883792,-1.05423613496447,-0.587011824199946,-0.587011824200691,-0.257795740758265,NaN,0.337764742475921,NaN,-0.355664260589865,-0.690977648331598,-0.646845410946617,0.274319815484014,0.274319815482986,NaN,-0.782959959040038,NaN
1341.44,-0.333920597543549,0.377846547968999,0.191688490035546,-0.346612209899787,-0.215056247505291,-0.215056247506748,NaN,NaN,-0.178119901368374,-0.423188873838093,0.31386571972886,-0.423188873837827,-0.0298304155862178,0.450940776586908,NaN,NaN,NaN,-0.235552745413021,-0.892458061388251,-0.762347330492642,-0.892458061389322,-1.32538641039351,0.895482283108074,-1.20585824558343,-0.934374509174515,0.641475438961431,NaN,0.0302396303216581,-0.0302396303209104,-0.508016044418257,0.773032777086859,-0.540073985177117,NaN,NaN,0.0824876459390452,0.219738617037808,-1.03994474063282,-0.547837549039037,-0.547837549039749,-0.28618199443275,NaN,0.372591010643011,NaN,-0.338825610648036,-0.704198535594989,-0.628066674785689,0.260470655429363,0.260470655428341,NaN,-0.797266952416337,NaN
1341.5424,-0.357085737947145,0.383787308872019,0.176153981252931,-0.343277412658311,-0.214979649075838,-0.214979649077318,NaN,NaN,-0.17905423600973,-0.407324513655368,0.303172649576659,-0.407324513655093,-0.0410479707613396,0.442377568335491,NaN,NaN,NaN,-0.214515134718563,-0.86671867449811,-0.766609748716745,-0.866718674499218,-1.3567135179559,0.924248616213107,-1.21623481036053,-0.932110427553343,0.620933520942531,NaN,0.0354921264388688,-0.0354921264380765,-0.499557307045447,0.767824905987706,-0.547485717143234,NaN,NaN,0.103774121662132,0.24588526485102,-1.02350024784322,-0.507879788226507,-0.507879788227184,-0.314516909766489,NaN,0.40672690759142,NaN,-0.323053902503446,-0.716560938137584,-0.607506036881875,0.246575742380635,0.246575742379621,NaN,-0.8107940955725,NaN
1341.6448,-0.380276224704174,0.389317199653442,0.160008846102108,-0.339134107556251,-0.215257476741281,-0.215257476742786,NaN,NaN,-0.180424077825757,-0.39032740010518,0.292241643666932,-0.390327400104894,-0.0515032141692883,0.433196072089898,NaN,NaN,NaN,-0.1930925090337,-0.840902866823304,-0.770364049110401,-0.840902866824455,-1.38715694739571,0.952094200120455,-1.22657933849118,-0.928878430005194,0.599737627831846,NaN,0.0413060661497712,-0.0413060661489088,-0.489795844905048,0.762004225636178,-0.555520034012229,NaN,NaN,0.125025553070708,0.272024097184851,-1.00499336544893,-0.467206107789454,-0.467206107790097,-0.342758950231,NaN,0.44014561112535,NaN,-0.30833510819183,-0.72804726224144,-0.585214831305976,0.232661343043515,0.232661343042513,NaN,-0.823511545197194,NaN
1341.7472,-0.403453493134606,0.394414752554454,0.143262478877764,-0.334240937842644,-0.215904867802955,-0.215904867804481,NaN,NaN,-0.182241785978031,-0.372268575349218,0.281100567495719,-0.372268575348923,-0.0611866630666228,0.423401831384148,NaN,NaN,NaN,-0.171318858180054,-0.815063763207298,-0.773620199398898,-0.815063763208491,-1.4166839398229,0.97900449043683,-1.23684392807062,-0.924694323786641,0.577905892109787,NaN,0.0476648282185124,-0.0476648282175725,-0.478793451785555,0.755613725025026,-0.564152135890906,NaN,NaN,0.146215848909545,0.298118412412413,-0.984522006145052,-0.425886497086202,-0.425886497086807,-0.370865927619533,NaN,0.472821408714327,NaN,-0.294654533724059,-0.738643176127002,-0.561251818276462,0.218754327415105,0.218754327414113,NaN,-0.83539194015952,NaN
1341.8496,-0.426577916805369,0.399061105734083,0.125929079582267,-0.328657670259942,-0.216933046751262,-0.216933046752814,NaN,NaN,-0.184516011488097,-0.353222222265858,0.269778541352777,-0.353222222265559,-0.0700907021181014,0.413002283967673,NaN,NaN,NaN,-0.149227195352771,-0.789255363474804,-0.776390756682966,-0.789255363476046,-1.44526518630403,1.00496822133327,-1.24698155613705,-0.919576215168257,0.555458703003447,NaN,0.0545491592459561,-0.0545491592449373,-0.46661562089925,0.748697791963481,-0.57335394081727,NaN,NaN,0.167319441900777,0.324130907877224,-0.96219087479327,-0.383993133900135,-0.383993133900697,-0.398795086481957,NaN,0.504729624286644,NaN,-0.281996914126007,-0.748337798924296,-0.535682953786083,0.204882001664288,0.204882001663308,NaN,-0.84641062057384,NaN
1341.952,-0.449608881892813,0.403240036822538,0.108027624657456,-0.322445023920873,-0.218349277716461,-0.218349277718037,NaN,NaN,-0.187251678858546,-0.333265410508313,0.258305739173488,-0.333265410507998,-0.0782095980471885,0.402006693132203,NaN,NaN,NaN,-0.126849421647276,-0.76353235141825,-0.778690823780537,-0.763532351419542,-1.47287486958272,1.02997727962566,-1.25694648413711,-0.913544473928013,0.532418646938787,NaN,0.0619373221055178,-0.061937322104429,-0.453331323181699,0.741302008160791,-0.583094230270858,NaN,NaN,0.188311308339986,0.350023709333582,-0.938111076921111,-0.341600157432096,-0.341600157432616,-0.426503167502982,NaN,0.535846560258782,NaN,-0.270346442951398,-0.757123828135646,-0.508581093254539,0.191071913301291,0.19107191330032,NaN,-0.856545852801603,NaN
1342.0544,-0.472504874501883,0.40693796563468,0.0895817804378299,-0.315664529425173,-0.220156854195576,-0.220156854197173,NaN,NaN,-0.19045000518926,-0.312477846576983,0.246713185135767,-0.312477846576648,-0.0855395195092028,0.390426068602786,NaN,NaN,NaN,-0.104216223865934,-0.737949869542705,-0.780537979382412,-0.737949869544054,-1.49949063401902,1.05402653768046,-1.26669458061958,-0.906621713853566,0.508810439101213,NaN,0.0698052823650126,-0.0698052823638438,-0.439012805410021,0.733472927654181,-0.593338789241656,NaN,NaN,0.209166973208009,0.375758417106329,-0.912399726377102,-0.298783448404018,-0.298783448404497,-0.453946450478191,NaN,0.566149452236598,NaN,-0.259686747534397,-0.764997615408827,-0.480025640411312,0.177351637091545,0.177351637090588,NaN,-0.865779056165209,NaN
1342.1568,-0.495223580475805,0.410143928400266,0.0706197631597464,-0.308378409896461,-0.222355122033338,-0.222355122034955,NaN,NaN,-0.194108554189109,-0.290941622787415,0.235032546580992,-0.290941622787068,-0.0920785594254068,0.378273079102035,NaN,NaN,NaN,-0.0813570054840249,-0.71256325409351,-0.781952183307448,-0.712563254094905,-1.5250934906797,1.07711364904301,-1.27618356933873,-0.898832783502658,0.484660846535608,NaN,0.0781269301595593,-0.0781269301583303,-0.423735392974123,0.725257832444213,-0.604050540070339,NaN,NaN,0.229862504981455,0.401296171061933,-0.885179531060412,-0.255620412424103,-0.255620412424544,-0.481080790403004,NaN,0.595616440489416,NaN,-0.250000808884311,-0.771959199420695,-0.450102136922875,0.163748544895899,0.16374854489496,NaN,-0.874095026554423,NaN
1342.2592,-0.51772199444237,0.412849525165641,0.051174151249005,-0.300649482963797,-0.224939535910816,-0.224939535912454,NaN,NaN,-0.198221323562633,-0.268740964845881,0.223295914743615,-0.268740964845522,-0.0978267576374098,0.365561957683747,NaN,NaN,NaN,-0.058299851287551,-0.687427711952234,-0.782955663926639,-0.687427711953675,-1.54966766480041,1.09923881317412,-1.28537320574396,-0.890204765996608,0.459998601323728,NaN,0.0868743325184207,-0.0868743325171361,-0.407577287997781,0.716704464868276,-0.615189670745561,NaN,NaN,0.25037450459826,0.426597736344161,-0.856578344181899,-0.212189758032947,-0.212189758033346,-0.507861670168266,NaN,0.624226565783621,NaN,-0.241270815302799,-0.778012298376946,-0.418901779079804,0.150289560050559,0.150289560049638,NaN,-0.881482155978189,NaN
1342.3616,-0.539956534607126,0.415048845336349,0.0312816605679936,-0.292541074402448,-0.227901746176001,-0.227901746177657,NaN,NaN,-0.202778859212272,-0.245961972727392,0.211535571166988,-0.245961972727017,-0.102786121256892,0.352308402625511,NaN,NaN,NaN,-0.035071518074396,-0.662597936969973,-0.783572795490708,-0.662597936971458,-1.57320040350906,1.12040451689989,-1.29422540881878,-0.880766979123027,0.43485430243793,NaN,0.0960180048916712,-0.0960180048903287,-0.390619347539388,0.707860744526431,-0.626713767015077,NaN,NaN,0.270680095766858,0.451623610882054,-0.826728670885007,-0.168571257543569,-0.168571257543925,-0.534244289104045,NaN,0.651959792058667,NaN,-0.233477959789436,-0.783164265553832,-0.386520863847548,0.137000905075832,0.137000905074928,NaN,-0.887932645901838,NaN
1342.464,-0.561883161583023,0.416738379916401,0.0109828965622199,-0.284116920869381,-0.231229707313943,-0.231229707315622,NaN,NaN,-0.207768382646707,-0.222692340207181,0.199783751885565,-0.222692340206796,-0.106960637642088,0.338529479760896,NaN,NaN,NaN,-0.0116974371635577,-0.638127698362198,-0.783829966390671,-0.638127698363738,-1.59568177368711,1.14061526679156,-1.30270438968704,-0.870550957237708,0.409260307007715,NaN,0.105527184421689,-0.105527184420293,-0.372944820450445,0.698774482946381,-0.638577965396395,NaN,NaN,0.29075692517043,0.476334153767976,-0.795767120565576,-0.124845483315216,-0.124845483315523,-0.560183690759226,NaN,0.678797049951335,NaN,-0.226602222641551,-0.787426017102923,-0.353060190026472,0.123907861920938,0.123907861920051,NaN,-0.893442700104828,NaN
1342.5664,-0.583457501011541,0.417916927245143,-0.00967790676707828,-0.275441044976484,-0.23490780083688,-0.234907800838577,NaN,NaN,-0.213173917866754,-0.199021038916358,0.188072425082971,-0.199021038915967,-0.110356273965999,0.324243531775905,NaN,NaN,NaN,0.0117982841928922,-0.614069447962311,-0.783755432753779,-0.614069447963899,-1.61710447628873,1.15987733336653,-1.3107767935195,-0.859590402108826,0.383250613154028,NaN,0.115370090801071,-0.115370090799629,-0.354639035127328,0.689493108347919,-0.650735139351323,NaN,NaN,0.310583177194143,0.5006897325973,-0.763833808166632,-0.0810935207266402,-0.0810935207269066,-0.585634922958294,NaN,0.704720291321942,NaN,-0.220622185879188,-0.790811941439344,-0.318624441004923,0.111034562072817,0.111034562071949,NaN,-0.898012674563518,NaN
1342.6688,-0.604634971671101,0.41858549516604,-0.0306531586465126,-0.266577604105584,-0.238916969817542,-0.23891696981926,NaN,NaN,-0.218976411347693,-0.175037962699519,0.17643308930058,-0.175037962699122,-0.112980960930569,0.309470097121737,NaN,NaN,NaN,0.0353928694419569,-0.590473975579663,-0.783379151984107,-0.5904739755813,-1.63746368815087,1.17819852525865,-1.31841183927696,-0.847921104021879,0.356860736884364,NaN,0.125514170623504,-0.125514170622017,-0.335789051013185,0.680063408764359,-0.663136118156139,NaN,NaN,0.330137602722551,0.524650888301015,-0.731071723686648,-0.0373966630278687,-0.0373966630280841,-0.610553223528775,NaN,0.729712546753374,NaN,-0.215514905796046,-0.79333979243069,-0.283321559583557,0.0984038111348711,0.0984038111340245,NaN,-0.901647167353145,NaN
1342.7712,-0.625370922317427,0.418747200194656,-0.0518921966228879,-0.257590721032728,-0.243234864592041,-0.243234864593775,NaN,NaN,-0.225153846102867,-0.150833537411686,0.164896593232514,-0.150833537411288,-0.114844563115318,0.294229838325368,NaN,NaN,NaN,0.0590648865013222,-0.567390119326247,-0.782732594442629,-0.567390119327908,-1.65675693126771,1.1955880023172,-1.32558143585732,-0.835580839083661,0.330127585028834,NaN,0.135926327973486,-0.135926327971966,-0.316483289498105,0.670531298082074,-0.675729931695742,NaN,NaN,0.349399558477196,0.548178515095996,-0.697626088328045,0.00616390662295777,0.00616390662278559,-0.634894226476867,NaN,0.753757981594644,NaN,-0.211255847877775,-0.795030562753835,-0.247262118845104,0.0860369432221969,0.0860369432213683,NaN,-0.904355039333909,NaN
1342.8736,-0.645620779379924,0.418407162642279,-0.0733415886476007,-0.248544298714594,-0.247836000432367,-0.247836000434118,NaN,NaN,-0.231681353591293,-0.126498304792443,0.153492979031148,-0.126498304792059,-0.115958839533623,0.278544476819743,NaN,NaN,NaN,0.0827942623773141,-0.544864526556319,-0.781848532811612,-0.544864526557992,-1.67498396794069,1.21205613172916,-1.33226026087634,-0.822609244291316,0.303089324801612,NaN,0.146573145683304,-0.14657314568174,-0.296811148818892,0.660941606128493,-0.688464076493469,NaN,NaN,0.368349051668198,0.571234051980988,-0.663643702352812,0.0495074409031807,0.049507440903054,-0.658614183360096,NaN,0.776841950094482,NaN,-0.207818876808546,-0.79590833444253,-0.210558696764398,0.0739537001046008,0.0739537001037912,NaN,-0.906149363152336,NaN
1342.976,-0.665340206827641,0.417572398426221,-0.094945452473508,-0.239501815875005,-0.252691925433385,-0.252691925435154,NaN,NaN,-0.238531326907994,-0.102122484883072,0.142251350163161,-0.10212248488269,-0.116337395365594,0.262436731939634,NaN,NaN,NaN,0.106562295363695,-0.522941455329986,-0.780760809648163,-0.522941455331671,-1.69214672075242,1.22761438975169,-1.33842579326157,-0.809047667825339,0.27578525085815,NaN,0.157421099821917,-0.157421099820301,-0.276862598578858,0.651337890136806,-0.701284799831793,NaN,NaN,0.386966787918617,0.593779685309115,-0.629272279318416,0.0925539615965146,0.0925539615964257,-0.681670198756403,NaN,0.798951051499478,NaN,-0.205176294203023,-0.796000103927613,-0.173325262230251,0.0621721311065972,0.0621721311058029,NaN,-0.90704731082367,NaN
1343.0784,-0.684485281129764,0.416251712441286,-0.116645788459433,-0.230526096247636,-0.257771391661076,-0.257771391662864,NaN,NaN,-0.245673537332619,-0.077795513583314,0.131199761716891,-0.0777955135829248,-0.115995623418685,0.245930265053125,NaN,NaN,NaN,0.130351667672887,-0.501662604571018,-0.77950408496973,-0.50166260457271,-1.70824921313764,1.24227530551286,-1.34405829745032,-0.794938989157542,0.248255652336788,NaN,0.168436767414771,-0.168436767413096,-0.256727743705797,0.641762262423865,-0.714137397077109,NaN,NaN,0.405234226659982,0.615778566564432,-0.594659755059833,0.135224606819867,0.13522460681982,-0.704020483542356,NaN,0.820073194725743,NaN,-0.203298919857823,-0.795335575178085,-0.135676574997671,0.0507085090293945,0.0507085090286147,NaN,-0.907069998902003,NaN
1343.1808,-0.703012683998626,0.414455597679991,-0.138382822609415,-0.221679042557849,-0.26304052337051,-0.263040523372316,NaN,NaN,-0.253075253818622,-0.0536055493621708,0.120365131266208,-0.0536055493617771,-0.114950632916415,0.229049629819438,NaN,NaN,NaN,0.154146463450301,-0.481066963235981,-0.77811356480823,-0.481066963237664,-1.72329752517452,1.25605243998645,-1.34914076207733,-0.780327402491521,0.220541681470288,NaN,0.179587028410434,-0.179587028408688,-0.236496344777951,0.632255229141583,-0.726966516237233,NaN,NaN,0.423133648258835,0.637195049328654,-0.559953555811746,0.177441998283999,0.177441998283993,-0.725624629703577,NaN,0.840197678521214,NaN,-0.202156208645197,-0.793946915116635,-0.0977275960259789,0.0395772595451774,0.0395772595444113,NaN,-0.906242303211645,NaN
1343.2832,-0.720879911043842,0.412196139466839,-0.160095358811802,-0.213021332569,-0.268462982269194,-0.268462982271017,NaN,NaN,-0.260701362912702,-0.0296389492415364,0.109773168799712,-0.0296389492411444,-0.113221163604717,0.211820226147473,NaN,NaN,NaN,0.17793219809872,-0.461190668620394,-0.776624710286257,-0.461190668622071,-1.73729976412784,1.2689603996127,-1.3536587932306,-0.765258162503006,0.192685222540272,NaN,0.190839263889609,-0.190839263887799,-0.216257289983577,0.622855536697784,-0.739716466146213,NaN,NaN,0.44064823187681,0.657994944340077,-0.525299817161878,0.219130628236512,0.219130628236546,-0.746443906952784,NaN,0.859315291396336,NaN,-0.201716391863154,-0.791868473155434,-0.0595929021381727,0.0287909067138892,0.0287909067131355,NaN,-0.904592645351517,NaN
1343.3856,-0.7380454879559,0.409486920910137,-0.181721137142264,-0.204612088921672,-0.27400013456354,-0.274000134565383,NaN,NaN,-0.268514488179515,-0.00597972586531476,0.0994483218917362,-0.00597972586492812,-0.110827486179694,0.194268252930909,NaN,NaN,NaN,0.201695863709819,-0.442066862011122,-0.775072925504256,-0.442066862012787,-1.75026604980335,1.28101488299964,-1.35760046615837,-0.749777303125905,0.164728757955363,NaN,0.202161547862404,-0.202161547860522,-0.196098034636387,0.613600024633565,-0.752331529896455,NaN,NaN,0.457762139564125,0.678145783034697,-0.4908425680036,0.260217256582335,0.260217256582408,-0.766441572492835,NaN,0.877418427401992,NaN,-0.201946637203402,-0.789136475201913,-0.0213861058223171,0.0183600401168276,0.018360040116082,NaN,-0.902152756026831,NaN
1343.488,-0.75446918163996,0.406342924507727,-0.203197192408818,-0.196508546207473,-0.279611227115172,-0.279611227117036,NaN,NaN,-0.276475112824161,0.0172909917275632,0.0894137319414672,0.0172909917279508,-0.107791294375956,0.176420653838395,NaN,NaN,NaN,0.225425987221491,-0.423725533001596,-0.773493221296111,-0.423725533003262,-1.76220850514234,1.29223274231721,-1.36095615514797,-0.733931349699556,0.136715227438776,NaN,0.213522825258593,-0.213522825256644,-0.176104042558734,0.604523485762646,-0.764756287241877,NaN,NaN,0.474460600424546,0.697617071934131,-0.456722916375198,0.300631298674142,0.300631298674252,-0.785583173207325,NaN,0.894501204783846,NaN,-0.202813224926517,-0.785788706600084,0.0167807067268143,0.00829330851132407,0.00829330851058411,NaN,-0.898957424674952,NaN
1343.5904,-0.770112195927279,0.402780426018668,-0.224460207729455,-0.188765738426808,-0.285253580221071,-0.285253580222952,NaN,NaN,-0.284541711943105,0.0400954686574198,0.0796911997423806,0.0400954686578069,-0.104135595725607,0.158305052057504,NaN,NaN,NaN,0.249112688362811,-0.40619335528818,-0.771919859644926,-0.406193355289828,-1.77314123764877,1.30263203385104,-1.36371836614459,-0.717767044373421,0.108687878002774,NaN,0.224893070294178,-0.224893070292191,-0.156358264997163,0.595658536308193,-0.776935943182413,NaN,NaN,0.490729988065875,0.716380520537728,-0.42307827847584,0.340305181975121,0.340305181975266,-0.803836817648792,NaN,0.910559575437129,NaN,-0.20428173422098,-0.781864196992054,0.0547975032716391,-0.00140255763455914,-0.00140255763529182,NaN,-0.895044237643971,NaN
1343.6928,-0.784937348329005,0.398816881035548,-0.245446858863874,-0.181436220535677,-0.290882800385317,-0.290882800387213,NaN,NaN,-0.292670899027267,0.0623598273855075,0.0703011597801999,0.0623598273858875,-0.0998846061522878,0.139949674455733,NaN,NaN,NaN,0.272747722613935,-0.389493535677466,-0.770386001543729,-0.389493535679099,-1.7830803077713,1.31223204827356,-1.36588158485221,-0.701331096202896,0.0806901068589773,NaN,0.236243423030244,-0.236243423028223,-0.136940679037049,0.587035500501045,-0.788816651317855,NaN,NaN,0.506557886663987,0.734410233857454,-0.390041678154346,0.37917465859793,0.379174658598109,-0.821173404828649,NaN,0.925591420477375,NaN,-0.206317234777291,-0.777402917086025,0.0925567930381496,-0.0107226975974608,-0.01072269759819,NaN,-0.890453301170701,NaN
1343.7952,-0.798909229302058,0.394470808291093,-0.266094145083872,-0.174569828033287,-0.296453011054407,-0.296453011056322,NaN,NaN,-0.300817588359145,0.0840144531646996,0.061262662269495,0.0840144531650756,-0.095063650779753,0.121383268796346,NaN,NaN,NaN,0.296324500123402,-0.373645710548959,-0.768923387945491,-0.373645710550577,-1.79204369031585,1.3210533248551,-1.36744214556286,-0.684669958564503,0.0527653022634702,NaN,0.247546303576533,-0.247546303574488,-0.117927891799556,0.578682314298841,-0.800345821064416,NaN,NaN,0.521933144315939,0.751682868752417,-0.357741126457922,0.417179071711292,0.417179071711503,-0.837566805927623,NaN,0.93959662984515,NaN,-0.208884485943803,-0.772445496418241,0.12995407585491,-0.0196640531493026,-0.0196640531500245,NaN,-0.885226950630693,NaN
1343.8976,-0.811994346717011,0.38976167364889,-0.286339703749586,-0.16821347229714,-0.30191709671755,-0.301917096719485,NaN,NaN,-0.308935173896215,0.104994338660895,0.0525933619178639,0.104994338661266,-0.0896990710247166,0.102635016725426,NaN,NaN,NaN,0.319838079393895,-0.358665910584653,-0.767562068536351,-0.35866591058626,-1.8000512303997,1.32911764850723,-1.36839812716594,-0.667829631176594,0.0249566860932863,NaN,0.258775504999692,-0.258775504997617,-0.0993928064155352,0.570624450687707,-0.811472405813721,NaN,NaN,0.536845914440495,0.768177757307953,-0.326299078607505,0.45426158063908,0.454261580639324,-0.852994002204296,NaN,0.952577164862665,NaN,-0.211948146030194,-0.767032966137878,0.166888252957563,-0.0282252874578581,-0.0282252874585764,NaN,-0.879409450121718,NaN
1344,-0.824161258148784,0.384709777988748,-0.306122106738642,-0.16241096510751,-0.307226954241551,-0.307226954243503,NaN,NaN,-0.316975722974086,0.125239371415633,0.0443095128255989,0.125239371416012,-0.0838181354826445,0.0837344445032601,NaN,NaN,NaN,0.343285140790508,-0.344566583921283,-0.76633017722451,-0.344566583922871,-1.80712459048599,1.33644802337175,-1.3687492826033,-0.650855480865269,-0.00269283952525269,NaN,0.269906266610545,-0.269906266608452,-0.0814043392075898,0.562884865843033,-0.822147173051781,NaN,NaN,0.551287687628685,0.783877003118784,-0.295831957404531,0.490369353005224,0.490369353005495,-0.867435189664615,NaN,0.964537106046677,NaN,-0.215472984738973,-0.761206518366424,0.203262003404336,-0.0364066908041085,-0.0364066908048293,NaN,-0.873046683484637,NaN
1344.1024,-0.835380693593129,0.379336152780532,-0.32538113602724,-0.15720286232677,-0.312333743253668,-0.312333743255639,NaN,NaN,-0.324890178945968,0.144694573346189,0.0364259693099006,0.144694573346562,-0.0774489503298574,0.0647113348132601,NaN,NaN,NaN,0.366663947522068,-0.331356648571004,-0.765253749787574,-0.331356648572571,-1.81328719066894,1.3430686233198,-1.36849700637291,-0.63379207294814,-0.0301408390110878,NaN,0.280915327593141,-0.280915327591011,-0.0640271721651628,0.555483963506762,-0.832322954454007,NaN,NaN,0.565251318363211,0.798765557121603,-0.266449724818933,0.52545373263638,0.525453732636682,-0.880873860946168,NaN,0.975482687857812,NaN,-0.219424086074519,-0.755007268444016,0.238982140644537,-0.0442100761815005,-0.0442100761822256,NaN,-0.866185843650505,NaN
1344.2048,-0.845625671228067,0.373662466915333,-0.344058036058945,-0.152626315072826,-0.317188127990045,-0.317188127992031,NaN,NaN,-0.332628566470852,0.163310303326684,0.0289561925579105,0.163310303327059,-0.0706203664121562,0.0455956424067377,NaN,NaN,NaN,0.389974300354955,-0.319041543489934,-0.764356578649911,-0.319041543491477,-1.81856414661938,1.34900472330653,-1.36764434178867,-0.616683004525344,-0.0573454819801249,NaN,0.291780960534204,-0.291780960532047,-0.0473215224519539,0.548439575846156,-0.841954873130968,NaN,NaN,0.578731051658975,0.812831276603786,-0.238255479943777,0.559470388966968,0.559470388967297,-0.893296869099062,NaN,0.985422319557336,NaN,-0.223767035671283,-0.748476017194239,0.273959960296598,-0.0516386710101453,-0.0516386710108723,NaN,-0.858875135736925,NaN
1344.3072,-0.854871607321877,0.367710945653553,-0.362095742819046,-0.148714920000203,-0.321740507988335,-0.321740507990337,NaN,NaN,-0.340140196920162,0.181042430343417,0.0219122628435207,0.181042430343803,-0.0633618828035512,0.0264174128430897,NaN,NaN,NaN,0.413217489600717,-0.307623258315217,-0.763660097596856,-0.307623258316726,-1.82298220194946,1.35428261173041,-1.36619601946965,-0.599570734414806,-0.0842656751381225,NaN,0.302482986539639,-0.302482986537464,-0.0313429169503439,0.541766961548324,-0.851000550072607,NaN,NaN,0.591722552069007,0.826064966440894,-0.211345069236765,0.592379449032298,0.592379449032656,-0.904694476318926,NaN,0.994366593464804,NaN,-0.228468096888116,-0.741653022140819,0.30811157278097,-0.0586970094692271,-0.0586970094699583,NaN,-0.851163504532058,NaN
1344.4096,-0.863096417329111,0.361504297781252,-0.379439092110777,-0.145498570137746,-0.325941241614325,-0.325941241616342,NaN,NaN,-0.347373874113882,0.197852477646061,0.0153048968516797,0.197852477646461,-0.0557035471765729,0.00720670034357109,NaN,NaN,NaN,0.436396245982252,-0.297100344247056,-0.763183286928728,-0.297100344248548,-1.82656964726529,1.35892948567786,-1.36415850308363,-0.582496412716489,-0.110861191255938,NaN,0.31300277567522,-0.31300277567302,-0.0161419764742441,0.535478822340491,-0.859420294084961,NaN,NaN,0.604222932001193,0.838460398897105,-0.185806715919386,0.624145607208046,0.624145607208429,-0.915060389250563,NaN,1.00232828338196,NaN,-0.233494383271548,-0.734577787390371,0.341358205388316,-0.0653908291112793,-0.065390829112019,NaN,-0.843100385220145,NaN
1344.512,-0.870280603186675,0.355065644203241,-0.396035011500215,-0.143003318031451,-0.329740870071062,-0.329740870073086,NaN,NaN,-0.354278102208085,0.213707732295428,0.009143469525903,0.213707732295843,-0.047675854627011,-0.0120065197608138,NaN,NaN,NaN,0.459514687940173,-0.287467926139289,-0.762942589872008,-0.28746792614076,-1.82935622178368,1.36297333697058,-1.36154001306674,-0.565499720683256,-0.137092798661408,NaN,0.323323237209277,-0.323323237207068,-0.0017642300037018,0.529585337672786,-0.867177275268057,NaN,NaN,0.616230771746206,0.850014307423741,-0.161720694145304,0.654738202562385,0.654738202562786,-0.924391777496058,NaN,1.0093223325606,NaN,-0.23881403154328,-0.727288876855409,0.373626463814192,-0.0717269748874978,-0.071726974888245,NaN,-0.834735470006785,NaN
1344.6144,-0.876407324918214,0.348418443674023,-0.41183270008561,-0.14125126491262,-0.33309034727932,-0.333090347281355,NaN,NaN,-0.360801299240104,0.228581312723311,0.00343603980043386,0.228581312723743,-0.039309649532417,-0.0311924458619075,NaN,NaN,NaN,0.482578256709023,-0.278717728445452,-0.76295183689756,-0.278717728446903,-1.831372998371,1.36644283692537,-1.35835051162036,-0.548618731958251,-0.162922391251028,NaN,0.333428803396709,-0.333428803394487,0.011750019582019,0.524094216245488,-0.874237678573007,NaN,NaN,0.627746123948622,0.860726350601903,-0.13915907358025,0.684131254331137,0.684131254331559,-0.932689272472838,NaN,1.0153658270242,NaN,-0.244396376365466,-0.719823751733441,0.404848552584348,-0.0777133090757187,-0.0777133090764718,NaN,-0.82611848521774,NaN
1344.7168,-0.881462457110279,0.341586414652878,-0.426783798116283,-0.140260483869723,-0.335941275521137,-0.335941275523182,NaN,NaN,-0.366892019086901,0.242452190338342,-0.00181062038972506,0.242452190338796,-0.0306360338344986,-0.0503215508826437,NaN,NaN,NaN,0.505593630898132,-0.270838110553875,-0.763222175446918,-0.270838110555295,-1.83265225587593,1.3693672241692,-1.35460164838907,-0.531889800578382,-0.188313115779642,NaN,0.343305409321265,-0.343305409319022,0.0243657679273358,0.519010760439738,-0.880570836257155,NaN,NaN,0.638770498909589,0.870599045786149,-0.118185546398643,0.71230345299606,0.712303452996498,-0.939956947664929,NaN,1.02047794811215,NaN,-0.250212126148743,-0.712218633790424,0.434962460339424,-0.0833586243190082,-0.0833586243197706,NaN,-0.817298981871282,NaN
1344.8192,-0.885434629558892,0.334593452050766,-0.440842547487787,-0.140044978225778,-0.338246143632785,-0.338246143634841,NaN,NaN,-0.372499181993465,0.255305167638467,-0.00659099468757483,0.255305167638941,-0.021686280251103,-0.0693646869975702,NaN,NaN,NaN,0.528568621921355,-0.263814110067987,-0.763761993842396,-0.263814110069386,-1.83322734198719,1.37177619647804,-1.35030667265598,-0.515347475327087,-0.213229493066361,NaN,0.352940471134203,-0.352940471131949,0.0360533212529274,0.514337935520524,-0.886149341549443,NaN,NaN,0.649306830576588,0.879637676499201,-0.0988553352297308,0.739238111332443,0.739238111332895,-0.946202278117646,NaN,1.02467989805428,NaN,-0.256233529888858,-0.70450839703388,0.463912115599364,-0.0886725605246312,-0.0886725605254016,NaN,-0.808326145687031,NaN
1344.9216,-0.888315251813421,0.327463537828142,-0.453965944310897,-0.14061467115823,-0.339958565174829,-0.339958565176891,NaN,NaN,-0.377572313548164,0.267130819550946,-0.0109007899073438,0.267130819551448,-0.0124917479332289,-0.0882931928692117,NaN,NaN,NaN,0.551512058687803,-0.257627508681859,-0.764576827366488,-0.257627508683227,-1.83313252588651,1.37369980277667,-1.34548031942765,-0.499024436142826,-0.237637531641567,NaN,0.362322864836826,-0.36232286483457,0.0467882577227134,0.510076435024036,-0.890949145489427,NaN,NaN,0.659359426198541,0.887850179481751,-0.081215170414774,0.764923082698957,0.764923082699424,-0.951436075153144,NaN,1.02799479794994,NaN,-0.262434511829264,-0.696726483197405,0.491647509272037,-0.0936655229296633,-0.0936655229304433,NaN,-0.799248620840261,NaN
1345.024,-0.890098525006593,0.320220647668832,-0.466113883898403,-0.141975418765518,-0.341033514895018,-0.341033514897089,NaN,NaN,-0.382061792566771,0.277925405438999,-0.0147369041234918,0.277925405439533,-0.00308380108961237,-0.107079001635329,NaN,NaN,NaN,0.574433667974272,-0.252256934066625,-0.765669248704083,-0.252256934067956,-1.83240284114672,1.37516833084573,-1.34013868116371,-0.482951445674005,-0.261504833564174,NaN,0.371442905455155,-0.371442905452904,0.0565513540168287,0.506224738522774,-0.89494963745886,NaN,NaN,0.668933905816205,0.895247015648628,-0.0653033161526304,0.789350654040293,0.789350654040772,-0.955672399341296,NaN,1.03044756591139,NaN,-0.268790752848075,-0.688904826641744,0.518124773827354,-0.09834859174137,-0.0983485917421572,NaN,-0.790114332961021,NaN
1345.1264,-0.890781446547833,0.312888659003991,-0.477249296442623,-0.144129036396872,-0.341427560791609,-0.341427560793691,NaN,NaN,-0.385919104994444,0.287690759275223,-0.0180973959906887,0.287690759275778,0.00650626829230681,-0.125694746144129,NaN,NaN,NaN,0.597343953781342,-0.247677996922601,-0.767038761445222,-0.24767799692391,-1.83107392791214,1.37621219178861,-1.33429908542372,-0.467157307439038,-0.284800691929142,NaN,0.380292322635729,-0.380292322633478,0.0653284976619224,0.502779164245756,-0.8981337121608,NaN,NaN,0.678037139720011,0.901841027278491,-0.051149619289618,0.812517420782228,0.812517420782717,-0.958928458165039,NaN,1.03206478559509,NaN,-0.275279717572528,-0.681073777109876,0.543306218311383,-0.102733417113024,-0.102733417113818,NaN,-0.780970306336325,NaN
1345.2288,-0.890363812217543,0.305491266051748,-0.487338270023548,-0.147073327555893,-0.341099088583366,-0.341099088585457,NaN,NaN,-0.389097096591088,0.296434163981366,-0.0209814550158368,0.296434163981954,0.0162473154046271,-0.144113857011375,NaN,NaN,NaN,0.620254079026891,-0.243863464906035,-0.768681724521905,-0.243863464907315,-1.82918188701499,1.37686180326595,-1.3279800055448,-0.451668821955533,-0.307496179559454,NaN,0.388864226452835,-0.388864226450594,0.0731106062867811,0.499733923736051,-0.900487830483835,NaN,NaN,0.686677191545058,0.907647284720079,-0.0387755557778724,0.834424151134498,0.834424151134999,-0.961224491771817,NaN,1.03287457153102,NaN,-0.281880643989516,-0.673262021245242,0.567160329371353,-0.106832100724617,-0.106832100725421,NaN,-0.77186248197548,NaN
1345.3312,-0.888848216858463,0.298051905461011,-0.496350157082071,-0.150802108672216,-0.34000851770312,-0.34000851770522,NaN,NaN,-0.391550217176579,0.304168210153068,-0.0233893716901221,0.304168210153684,0.026108420242793,-0.162310651213151,NaN,NaN,NaN,0.643175751045276,-0.240783488783535,-0.770591334565226,-0.2407834887848,-1.8267631536599,1.37714747042469,-1.32120102614871,-0.436510736005032,-0.329564229714128,NaN,0.397153058771636,-0.397153058769402,0.0798935660707604,0.497081186440173,-0.902002081635239,NaN,NaN,0.694863271094076,0.912682928174193,-0.0281942628830012,0.85507564626746,0.855075646267977,-0.96258364885888,NaN,1.03290643313007,NaN,-0.288574516433218,-0.665496510245354,0.589661745058024,-0.110657067327724,-0.110657067328535,NaN,-0.762835542695445,NaN
1345.4336,-0.886240050122016,0.290593692038758,-0.50425766143153,-0.155305233010135,-0.338118511592351,-0.33811851159446,NaN,NaN,-0.393234751363161,0.310910632814169,-0.0253225061728591,0.310910632814809,0.0360589741167842,-0.18026041309054,NaN,NaN,NaN,0.666121108983845,-0.238405888359959,-0.772757682055837,-0.2384058883612,-1.8238543937916,1.37709926662382,-1.31398286631932,-0.421705688615906,-0.35097971123464,NaN,0.40515453019421,-0.405154530191997,0.0856781831689587,0.49481115707511,-0.902670244490267,NaN,NaN,0.702605694787302,0.916967009409615,-0.0194105676424783,0.874480597545807,0.87448059754633,-0.963031850080177,NaN,1.03219113550929,NaN,-0.295344036509893,-0.657802399733392,0.61079120191791,-0.11422093097619,-0.114220930977011,NaN,-0.753932746789089,NaN
1345.536,-0.882547481367629,0.283139359941987,-0.511036906266381,-0.160568626112873,-0.335394187300959,-0.335394187303079,NaN,NaN,-0.394109032933608,0.31668411885822,-0.0267832549119656,0.316684118858883,0.046068778465106,-0.197939472562439,NaN,NaN,NaN,0.689102611465058,-0.236696480263511,-0.775167879935465,-0.236696480264718,-1.82049242220977,1.37674692007247,-1.30634744350627,-0.407274164197012,-0.37171950094872,NaN,0.412865547496284,-0.412865547494101,0.0904701272759195,0.492912161298802,-0.902489835623034,NaN,NaN,0.709915846577239,0.920520334186186,-0.0124210378308578,0.892651435725429,0.892651435725964,-0.962597629752782,NaN,1.03076055295774,NaN,-0.302173594651141,-0.650203005832639,0.630535456848052,-0.1175363608673,-0.117536360868131,NaN,-0.745195768051569,NaN
1345.6384,-0.877781430045478,0.275711203361905,-0.516667487863201,-0.166574345255411,-0.331803328502912,-0.331803328505041,NaN,NaN,-0.394133643701858,0.321516083221866,-0.0277750157418168,0.32151608322255,0.0561081540607852,-0.215325285188451,NaN,NaN,NaN,0.712132925748697,-0.235619417156263,-0.777806246451361,-0.235619417157437,-1.81671413582481,1.37611970987024,-1.29831795317717,-0.393234462241709,-0.391762555191729,NaN,0.420284138798849,-0.420284138796697,0.0942798477089506,0.491370731805839,-0.901462132584063,NaN,NaN,0.716806131908732,0.923365303459852,-0.00721407844677395,0.90960416632183,0.909604166322368,-0.961311951213434,NaN,1.02864751277007,NaN,-0.309049235040875,-0.642719778555798,0.648887186044663,-0.120615948232594,-0.120615948233434,NaN,-0.736664538476913,NaN
1345.7408,-0.871955520914489,0.268331012200589,-0.52113252070316,-0.173300668788661,-0.32731660217232,-0.32731660217446,NaN,NaN,-0.393271600154331,0.325438418327854,-0.0283021527291647,0.325438418328551,0.0661480562929641,-0.232396515941986,NaN,NaN,NaN,0.735224821392762,-0.235137512823164,-0.780654515887588,-0.235137512824313,-1.81255645565654,1.37524637295109,-1.2899189445096,-0.37960268713438,-0.411089980424959,NaN,0.42740938334346,-0.427409383341352,0.097122453481166,0.490171688406278,-0.899592170753379,NaN,NaN,0.723289920747126,0.9255257529213,-0.00377008272544785,0.92535819009682,0.925358190097364,-0.959207999178299,NaN,1.0258856323825,NaN,-0.315958603710582,-0.635372288409183,0.665844863266923,-0.123472075535061,-0.123472075535909,NaN,-0.728377097357431,NaN
1345.8432,-0.865086025317275,0.261020002226253,-0.524418676011527,-0.180722214909515,-0.321907774560137,-0.321907774562287,NaN,NaN,-0.391488530412509,0.328487223227733,-0.0283699620519624,0.328487223228451,0.0761601926233191,-0.24913312470522,NaN,NaN,NaN,0.758391070386635,-0.235212541350872,-0.783692062207151,-0.235212541351986,-1.80805627641704,1.37415502362868,-1.28117638515087,-0.366392756864045,-0.429685100603926,NaN,0.434241349759761,-0.434241349757693,0.099017558496981,0.489298209792486,-0.896888717619208,NaN,NaN,0.729381480135314,0.927026792516409,-0.002061634305493,0.939936111463737,0.939936111464271,-0.956320949701588,NaN,1.02250915645474,NaN,-0.322890873410341,-0.628178219028627,0.6814126208132,-0.126116791543227,-0.126116791544082,NaN,-0.720369456691416,NaN
1345.9456,-0.857191792144183,0.253798744066604,-0.526516211274453,-0.188810084833226,-0.315553919773762,-0.31555391977592,NaN,NaN,-0.388752843061036,0.330702516814617,-0.0279846397761564,0.330702516815354,0.0861171382422193,-0.265516449090279,NaN,NaN,NaN,0.78164435363835,-0.235805516600203,-0.786896141865048,-0.23580551660129,-1.80325042308168,1.37287308456691,-1.2721177163499,-0.35361642644245,-0.447533517740958,NaN,0.440781041808347,-0.440781041806327,0.099989099570108,0.488731899729344,-0.893364227525508,NaN,NaN,0.735095900532928,0.927894648005109,-0.0020537484382455,0.95336353882789,0.953363538828413,-0.952687716243558,NaN,1.01855280239261,NaN,-0.32983664726728,-0.621153362367776,0.69560009457118,-0.128561693313008,-0.128561693313869,NaN,-0.712675484007866,NaN
1346.048,-0.848294173703268,0.246687095777913,-0.527418989395744,-0.197532021708886,-0.308235615030239,-0.308235615032406,NaN,NaN,-0.385035888155228,0.332127940980907,-0.027153251904078,0.332127940981657,0.0959924479006566,-0.281529281145907,NaN,NaN,NaN,0.804997175438412,-0.236876963981755,-0.790242159991793,-0.236876963982822,-1.79817561140479,1.3714272265105,-1.26277189714276,-0.341283319052256,-0.464623163695883,NaN,0.447030348533557,-0.447030348531581,0.100065140632006,0.488452852235827,-0.889034780440245,NaN,NaN,0.74044902129949,0.928156508065742,-0.00370413451047873,0.965668883298745,0.96566888329926,-0.948346679243208,NaN,1.01405162352054,NaN,-0.336787849548807,-0.614311619214655,0.708422253103923,-0.130817812488143,-0.130817812489013,NaN,-0.705326794043632,NaN
1346.1504,-0.838416951064044,0.239704139646925,-0.527124491288452,-0.206852574819365,-0.299937118425015,-0.299937118427192,NaN,NaN,-0.380312107539333,0.332810465353982,-0.0258837067003267,0.332810465354752,0.105760766316837,-0.297155937063814,NaN,NaN,NaN,0.828461791337977,-0.238387188126935,-0.793703938953733,-0.238387188127965,-1.79286840884533,1.3698433138295,-1.25316943570712,-0.329400956464419,-0.480944343990577,NaN,0.452991998452721,-0.452991998450789,0.0992776794432044,0.488439717802724,-0.883920011370278,NaN,NaN,0.745457359184641,0.927840381813057,-0.00696346098633524,0.976883164090864,0.976883164091364,-0.943337414804566,NaN,1.0090408940281,NaN,-0.343737612901126,-0.607665008281876,0.719899215286351,-0.132895504529888,-0.132895504530767,NaN,-0.698352644714886,NaN
1346.2528,-0.827586261538389,0.232868121539423,-0.525633827057038,-0.216733261492666,-0.290646527299914,-0.290646527302097,NaN,NaN,-0.37455917017549,0.332800104215091,-0.0241847289350382,0.332800104215884,0.115397940491141,-0.312382320506205,NaN,NaN,NaN,0.8520501530713,-0.240296539724882,-0.79725396036928,-0.240296539725896,-1.78736519046258,1.36814634874385,-1.24334241118388,-0.317974783041249,-0.496489775781047,NaN,0.458669519557935,-0.458669519556048,0.0976624675128592,0.488669770920695,-0.878043037423732,NaN,NaN,0.75013804122835,0.926974968476432,-0.0117756112821428,0.987039824047471,0.987039824047955,-0.937700437275768,NaN,1.00355601023275,NaN,-0.350680170920833,-0.601223682503586,0.730056061161039,-0.134804342956386,-0.134804342957277,NaN,-0.69177983834748,NaN
1346.3552,-0.815830527225146,0.226196390477264,-0.522951747955868,-0.227132728236518,-0.280355919341314,-0.280355919343502,NaN,NaN,-0.367758090778014,0.3321496456988,-0.0220658354098897,0.332149645699616,0.124881134201384,-0.327195981153204,NaN,NaN,NaN,0.87577386711194,-0.242565692563274,-0.800863568933964,-0.242565692564273,-1.78170208416506,1.36636040914133,-1.23332448393567,-0.307008185533826,-0.511254622241689,NaN,0.464067206179285,-0.464067206177439,0.0952588380211467,0.489118980454315,-0.871430385970555,NaN,NaN,0.754508739467638,0.92558953602554,-0.0180779375748703,0.99617454953982,0.99617454954029,-0.931476962326602,NaN,0.997632398116267,NaN,-0.357610762392797,-0.594995950892908,0.738922633258201,-0.13655302291716,-0.136553022918058,NaN,-0.685632626616248,NaN
1346.4576,-0.803180380096985,0.219705335175122,-0.519086659091962,-0.238006921986305,-0.269061481739914,-0.269061481742103,NaN,NaN,-0.359893333314389,0.330914384118454,-0.0195373112913814,0.330914384119296,0.134188942033047,-0.341586170651957,NaN,NaN,NaN,0.899644157995816,-0.245155934517821,-0.804503143913553,-0.245155934518796,-1.77591490652486,1.36450858636303,-1.22315088209793,-0.296502518241058,-0.525236524596786,NaN,0.469190092868831,-0.469190092867037,0.0921095218120597,0.489762085466434,-0.864111920785358,NaN,NaN,0.758587601000977,0.923713804086722,-0.0258015366902353,1.00432508462497,1.00432508462543,-0.924708685015588,NaN,0.991305419755057,NaN,-0.36452554885079,-0.588988311776371,0.746533323446888,-0.138149278152788,-0.138149278153692,NaN,-0.679932616595297,NaN
1346.56,-0.789668580800677,0.213410315760724,-0.514050632469486,-0.249309283550025,-0.256763632743194,-0.256763632745383,NaN,NaN,-0.350952903997431,0.3291518438734,-0.0166101871630006,0.329151843874261,0.143301497766273,-0.355543897256247,NaN,NaN,NaN,0.923671827333913,-0.248029454770312,-0.808142252559084,-0.248029454771256,-1.77003909381925,1.3626129323844,-1.21285835369182,-0.286457143275736,-0.538435630825682,NaN,0.474043935325175,-0.474043935323422,0.0882604312568727,0.490572677661027,-0.856120755785666,NaN,NaN,0.762393167641738,0.921377827599581,-0.03487157195887,1.01153103212731,1.01153103212775,-0.917437563096889,NaN,0.98461027671114,NaN,-0.37142154335275,-0.583205508149874,0.752926841502139,-0.13959981234694,-0.139599812347848,NaN,-0.674698679395589,NaN
1346.6624,-0.775329932652217,0.207325591101716,-0.507859421307904,-0.260990969181531,-0.243467136419474,-0.243467136421664,NaN,NaN,-0.340928440890066,0.326921487273547,-0.0132962168192199,0.326921487274429,0.152200571648071,-0.369061979449462,NaN,NaN,NaN,0.947867204605901,-0.251149600838299,-0.811749791272997,-0.251149600839229,-1.76410962662191,1.36069441816597,-1.20248507583816,-0.276869490293251,-0.550854618950199,NaN,0.478635198921567,-0.478635198919839,0.0837604027940348,0.491523287901405,-0.84749314586222,NaN,NaN,0.76594428323572,0.918611879338907,-0.0452076514139923,1.01783363953699,1.01783363953743,-0.909705606115068,NaN,0.977581913963401,NaN,-0.378296542979689,-0.57765060876589,0.758145959138733,-0.140910243373508,-0.140910243374419,NaN,-0.669946864604553,NaN
1346.7648,-0.760201193545622,0.201464241731107,-0.500532478460256,-0.273001099552132,-0.229181207515225,-0.229181207517417,NaN,NaN,-0.329815305208646,0.324284406793912,-0.00960785547901257,0.3242844067948,0.160869655637188,-0.382135098346617,NaN,NaN,NaN,0.972240091848302,-0.254481093112306,-0.815294097626184,-0.254481093113217,-1.75816094178217,1.35877290122322,-1.19207051019097,-0.267735134758068,-0.562498713104828,NaN,0.482971055967783,-0.482971055966092,0.0786608999061291,0.492585471469313,-0.838268351896273,NaN,NaN,0.769259989818742,0.915446332630651,-0.0567242596265094,1.02327557273549,1.02327557273592,-0.901554679524006,NaN,0.97025492936046,NaN,-0.385149051986607,-0.572325105555525,0.762237227363045,-0.142085059313096,-0.142085059314008,NaN,-0.665690322825924,NaN
1346.8672,-0.744320988111341,0.19583808952305,-0.492092979711879,-0.285287030712898,-0.213919599953765,-0.213919599955955,NaN,NaN,-0.31761267409298,0.321303006903048,-0.00555823761453942,0.321303006903954,0.169294039514607,-0.394759846730528,NaN,NaN,NaN,0.996799704196761,-0.257990201632134,-0.818743016240593,-0.257990201633019,-1.75222682785158,1.35686709876286,-1.18165520336649,-0.259047890209266,-0.573375690021335,NaN,0.487059390992191,-0.487059390990545,0.0730156858573957,0.493729889467453,-0.828488481742339,NaN,NaN,0.772359416641384,0.911911548470275,-0.0693312313935767,1.02790068527592,1.02790068527634,-0.893026328777513,NaN,0.96266348874771,NaN,-0.39197818786522,-0.567229012032783,0.765250674305973,-0.143127585734266,-0.143127585735178,NaN,-0.661939238866956,NaN
1346.9696,-0.727729723367754,0.190457619846697,-0.48256784717113,-0.297794638151335,-0.197700671942544,-0.197700671944736,NaN,NaN,-0.304323631287271,0.318040678935208,-0.00116115372108896,0.318040678936129,0.177460878568571,-0.40693476964661,NaN,NaN,NaN,1.02155460330423,-0.261644895774811,-0.822063933733542,-0.261644895775681,-1.74634030395585,1.35499455792822,-1.171280552531,-0.250799907204604,-0.583495872556752,NaN,0.490908809432619,-0.490908809431021,0.0668804813800866,0.494926390243888,-0.818198308299468,NaN,NaN,0.775261668873766,0.908037770636559,-0.0829342487902997,1.03175379273146,1.03175379273186,-0.884161623284723,NaN,0.954841243350526,NaN,-0.398783578733266,-0.562360954174883,0.76723949216532,-0.144039964365808,-0.144039964366718,NaN,-0.658700780644882,NaN
1347.072,-0.710469511773703,0.18533191449374,-0.471987764999291,-0.310468602689403,-0.18054742209833,-0.18054742210052,NaN,NaN,-0.289955249952895,0.3145614726451,0.00356897391502731,0.314561472646034,0.18535924986046,-0.418660389748225,NaN,NaN,NaN,1.04651261885197,-0.265414982604215,-0.825223820779502,-0.265414982605062,-1.74053348964778,1.3531716172485,-1.16098856922827,-0.242981769592941,-0.592872107152514,NaN,0.494528642205033,-0.494528642203498,0.0603126269666073,0.496144097960949,-0.80744506602148,NaN,NaN,0.777985723555166,0.903855030102825,-0.0974353387587823,1.034880459433,1.03488045943341,-0.875001020181654,NaN,0.94682124957746,NaN,-0.405565270868574,-0.557718259542853,0.76825972218551,-0.144823145838123,-0.144823145839033,NaN,-0.655979075107999,NaN
1347.1744,-0.692584104310432,0.18046860227994,-0.460387180386579,-0.323252686121143,-0.162487491866097,-0.162487491868286,NaN,NaN,-0.274518659302183,0.310929771495469,0.00861711622317114,0.310929771496409,0.192980193431958,-0.429939210764548,NaN,NaN,NaN,1.07168075505767,-0.269272258772335,-0.828189314193113,-0.269272258773164,-1.73483748000425,1.35141336164116,-1.15082167180133,-0.23558257795169,-0.601519723309274,NaN,0.497928937312068,-0.497928937310574,0.0533707712953463,0.497351513737779,-0.796278228242755,NaN,NaN,0.780550339221816,0.899393058635436,-0.112733347138048,1.03732680151917,1.03732680151957,-0.865584244612397,NaN,0.938635895882078,NaN,-0.412323661171048,-0.55329705814047,0.768369951029548,-0.145476899954397,-0.145476899955306,NaN,-0.653775223873424,NaN
1347.2768,-0.674118832522783,0.175873831784097,-0.447804282317928,-0.336089987193583,-0.143553130639666,-0.143553130641854,NaN,NaN,-0.258029087242062,0.307209977037434,0.0139676637095704,0.307209977038378,0.200316736555891,-0.440775694718598,NaN,NaN,NaN,1.0970650797589,-0.273190696799967,-0.830926860252091,-0.273190696800772,-1.72928223553186,1.34973357315095,-1.14082252531473,-0.228590012624557,-0.609456474414006,NaN,0.50112042933346,-0.501120429332006,0.0461146015612279,0.498516631791455,-0.784749265520512,NaN,NaN,0.78297398362487,0.894681209737643,-0.128724371478258,1.03913930701328,1.03913930701366,-0.855950178130051,NaN,0.930316840366139,NaN,-0.419059460544238,-0.549092402184697,0.767631027532498,-0.145999843625419,-0.145999843626328,NaN,-0.652087357575161,NaN
1347.3792,-0.655120553018656,0.171552267336576,-0.434280949815851,-0.348923177542664,-0.123781123137309,-0.123781123139495,NaN,NaN,-0.240505874448883,0.303466200629496,0.0196044554068992,0.303466200630439,0.207363902918405,-0.451176212719761,NaN,NaN,NaN,1.1226705952489,-0.277146660744052,-0.83340292929229,-0.277146660744836,-1.72389648712145,1.34814467742962,-1.13103392957322,-0.221990377184808,-0.616702460305623,NaN,0.504114480895505,-0.504114480894086,0.0386046134020344,0.499607070966013,-0.772911381441898,NaN,NaN,0.785274780040082,0.889748383749358,-0.145302154516109,1.04036467031945,1.04036467031983,-0.846136746623356,NaN,0.921894959263735,NaN,-0.425773688048944,-0.545098400743489,0.766105799689736,-0.146389484782474,-0.146389484783379,NaN,-0.650910714129335,NaN
1347.4816,-0.635637585421449,0.16750710303116,-0.419862667770151,-0.361694728757345,-0.103212683220724,-0.103212683222902,NaN,NaN,-0.221972459349623,0.299761957895837,0.0255108110818974,0.299761957896779,0.214118711569004,-0.461148974948654,NaN,NaN,NaN,1.1485010954359,-0.281119119744189,-0.835584285265071,-0.281119119744956,-1.71870764961945,1.3466576890886,-1.12149873155112,-0.215768633438356,-0.623280033805713,NaN,0.506923000299611,-0.506923000298227,0.0309018969858119,0.500590220517795,-0.760819223806727,NaN,NaN,0.787470466171719,0.88462295506188,-0.162358463719161,1.04104963568882,1.0410496356892,-0.836180801290112,NaN,0.913400303517779,NaN,-0.432467683604647,-0.541308360439917,0.763858871236701,-0.146642281820684,-0.146642281821587,NaN,-0.650237729780158,NaN
1347.584,-0.615719638798965,0.163740083625573,-0.404598421038857,-0.374347146426032,-0.0818933222642164,-0.0818933222663888,NaN,NaN,-0.202456340270862,0.296159864794558,0.0316695659869381,0.296159864795495,0.220580166701479,-0.470703950528234,NaN,NaN,NaN,1.17455901704882,-0.285089822444657,-0.837438262930426,-0.285089822445399,-1.71374172834015,1.34528215605673,-1.11225972239862,-0.209908442763359,-0.629213696208212,NaN,0.509558350294445,-0.509558350293101,0.0230679094394203,0.501433397060595,-0.748528575874562,NaN,NaN,0.789578354175923,0.879332700001789,-0.179783490022791,1.04124084185726,1.04124084185762,-0.826117989372128,NaN,0.904862058181859,NaN,-0.439143108740745,-0.537714924594495,0.76095637282183,-0.146753716938078,-0.14675371693898,NaN,-0.65005814056768,NaN
1347.6864,-0.595417727575413,0.160251522443427,-0.388540581925365,-0.38682322215296,-0.0598726997771049,-0.0598726997792708,NaN,NaN,-0.181989026552274,0.292721336173409,0.0380631065491887,0.292721336174329,0.226749232124413,-0.479852787164811,NaN,NaN,NaN,1.20084528649426,-0.289043407080064,-0.838933006225588,-0.289043407080794,-1.70902320090775,1.34402609821646,-1.10335948589741,-0.204392223847861,-0.634529986816373,NaN,0.512033262423854,-0.512033262422558,0.0151642145203124,0.502104007922356,-0.736096033981912,NaN,NaN,0.791615281365977,0.873904721811186,-0.197466286718998,1.04098465882955,1.04098465882991,-0.815982617684167,NaN,0.896308498979113,NaN,-0.445801904081035,-0.53431020516869,0.757465730233621,-0.146718379530694,-0.146718379531593,NaN,-0.650359092811034,NaN
1347.7888,-0.574784080046192,0.157040314047954,-0.371744797432982,-0.399066306577853,-0.0372044585095763,-0.0372044585117405,NaN,NaN,-0.160605987202662,0.289506285834242,0.044673405624182,0.289506285835147,0.232628783665492,-0.488608733331684,NaN,NaN,NaN,1.22735915535476,-0.292967434749321,-0.840037656358131,-0.292967434750034,-1.7045748732538,1.34289594266628,-1.09484018980666,-0.199201229943251,-0.6392573672835,NaN,0.514360760209161,-0.514360760207922,0.00725218500615165,0.502569716128074,-0.723578670911192,NaN,NaN,0.793597548396131,0.868365369157849,-0.215295252188505,1.04032701108688,1.04032701108723,-0.805807515370584,NaN,0.887766943188595,NaN,-0.452446198029764,-0.5310859032549,0.753455414215591,-0.146530057025073,-0.146530057025966,NaN,-0.651125260991196,NaN
1347.8912,-0.553872041857088,0.154103946229377,-0.354269872282063,-0.411020600412354,-0.0139460412748747,-0.0139460412770361,NaN,NaN,-0.138346597777394,0.286572824961235,0.051482056741897,0.28657282496212,0.238223538959497,-0.496986559384953,NaN,NaN,NaN,1.25409801976473,-0.296852339524023,-0.840722513302316,-0.296852339524724,-1.70041772542838,1.34189646586164,-1.08674333512558,-0.194315643938738,-0.643426097525258,NaN,0.516554085654675,-0.516554085653478,-0.000607326469990115,0.502798603385482,-0.711033679453378,NaN,NaN,0.795540848939405,0.862740149720071,-0.23315864879996,1.03931319018756,1.03931319018791,-0.795623899980202,NaN,0.879263697185107,NaN,-0.459078186084479,-0.528033414595686,0.748994671792837,-0.146181831369975,-0.146181831370859,NaN,-0.652338973202005,NaN
1347.9936,-0.532735975912517,0.15143851670547,-0.336177641526341,-0.422631456391596,0.00984151333451919,0.00984151333236128,NaN,NaN,-0.115254082132138,0.283976957156791,0.0584703073785902,0.28397695715766,0.243539969826242,-0.505002473420318,NaN,NaN,NaN,1.28105723248991,-0.300691294663315,-0.840959200822824,-0.300691294664005,-1.69657076345891,1.34103075056979,-1.07910948527454,-0.18971468641373,-0.647068100777468,NaN,0.518626623834521,-0.518626623833362,-0.00835433538819217,0.502759328137536,-0.698517995289467,NaN,NaN,0.797460197460352,0.85705364601594,-0.250945144057656,1.03798766743007,1.03798766743042,-0.785461251200644,NaN,0.870824009158143,NaN,-0.465700001124496,-0.525143917826517,0.744153245753106,-0.145666177979452,-0.14566617798033,NaN,-0.65398034586683,NaN
1348.096,-0.511431159397096,0.149038755683274,-0.31753283184419,-0.433845682006537,0.0340937970708286,0.034093797068675,NaN,NaN,-0.0913754450746681,0.28177227596468,0.065619091658061,0.281772275965541,0.248586204977788,-0.512674030941135,NaN,NaN,NaN,1.30822992920685,-0.304480004568655,-0.84072083760586,-0.304480004569339,-1.69305088574809,1.34030016122687,-1.07197798804552,-0.185376729376545,-0.650216819144433,NaN,0.520591825226875,-0.520591825225781,-0.0159300740486746,0.502421275137124,-0.686087909206378,NaN,NaN,0.799369860362588,0.851329441731661,-0.268544355206744,1.03639391755913,1.03639391755947,-0.775347198749601,NaN,0.862472035767462,NaN,-0.472313580879348,-0.5224084466323,0.739001089815102,-0.144975064249776,-0.144975064250647,NaN,-0.656027431227231,NaN
1348.1984,-0.490013678500916,0.146898052022751,-0.298402915329312,-0.444611830636852,0.058743279861232,0.058743279859084,NaN,NaN,-0.066761391937678,0.280009678484909,0.0729090632664947,0.280009678485761,0.253371929395085,-0.52002003994927,NaN,NaN,NaN,1.33560688950593,-0.308216443053015,-0.839982188728044,-0.308216443053696,-1.68987276541372,1.33970433667921,-1.06538669628582,-0.181279406547154,-0.652907063598308,NaN,0.522463128242284,-0.522463128241221,-0.0232773191539848,0.501754693340886,-0.673798687856467,NaN,NaN,0.801283294306112,0.845590062967541,-0.285847373866385,1.03457425944456,1.0345742594449,-0.765307427840672,NaN,0.854230821360889,NaN,-0.47892052934578,-0.5198179498164,0.733608088573989,-0.144100045099685,-0.144100045100549,NaN,-0.65845637851102,NaN
1348.3008,-0.468540321720979,0.145008482238299,-0.278857957770953,-0.454880467625744,0.0837195787601518,0.0837195787580133,NaN,NaN,-0.041466232046977,0.278737107791821,0.0803206295474516,0.278737107792668,0.257908281700825,-0.527060462690711,NaN,NaN,NaN,1.3631764377958,-0.311900566594263,-0.838719777915264,-0.311900566594936,-1.68704874625374,1.33924119263571,-1.05937169977289,-0.177399710322819,-0.655174862444782,NaN,0.524253882539981,-0.524253882538964,-0.0303406753480902,0.500730821538291,-0.661704223541168,NaN,NaN,0.803213095562068,0.839856933069803,-0.302747245369714,1.03256971521735,1.03256971521768,-0.755365602861414,NaN,0.846122280963107,NaN,-0.485521969014517,-0.517363341655208,0.728043785479647,-0.143032351412872,-0.143032351413724,NaN,-0.661241602823037,NaN
1348.4032,-0.447068470502109,0.143360844402989,-0.258970457206338,-0.464604401104578,0.108949746938821,0.108949746936686,NaN,NaN,-0.0155477626208977,0.277999330312388,0.087833987599949,0.277999330313229,0.262207749254305,-0.533816313240136,NaN,NaN,NaN,1.39092437610562,-0.315534031634407,-0.836911963124524,-0.315534031635077,-1.68458875327875,1.33890692787206,-1.05396708486712,-0.173714068486053,-0.657057310341822,NaN,0.525977269755141,-0.525977269754165,-0.0370667995413842,0.499322003025645,-0.649856725687615,NaN,NaN,0.80517096359824,0.834150336846418,-0.319139385474221,1.03041988721556,1.03041988721587,-0.745543310225467,NaN,0.838167183575082,NaN,-0.492118382200118,-0.515035543189606,0.722377117367724,-0.141762970592388,-0.141762970593225,NaN,-0.664355958166329,NaN
1348.5056,-0.425655982577998,0.141944698794545,-0.238815165326348,-0.473738877536322,0.134358580951929,0.134358580949801,NaN,NaN,0.010932872091052,0.277837747858433,0.0954291629294591,0.277837747859274,0.266284065157358,-0.540309549795911,NaN,NaN,NaN,1.41883394251043,-0.319119932872252,-0.834538983817659,-0.319119932872923,-1.68250022302513,1.33869603835573,-1.04920472514387,-0.170198402033531,-0.65859241770315,NaN,0.527646217062725,-0.527646217061794,-0.0434045706995612,0.49750179161649,-0.638306454035348,NaN,NaN,0.807167678653847,0.828489391960429,-0.334921938302537,1.02816285065303,1.02816285065334,-0.735860018036345,NaN,0.830385139100636,NaN,-0.498709441030939,-0.512825516846768,0.716676160314085,-0.140282725754461,-0.140282725755285,NaN,-0.667770920269298,NaN
1348.608,-0.404361064359994,0.140748415234848,-0.218468888021492,-0.482241752998774,0.159868942606643,0.159868942604522,NaN,NaN,0.037911348373242,0.27829023796486,0.103086050766167,0.278290237965696,0.270152111577282,-0.546562963510776,NaN,NaN,NaN,1.4468857953892,-0.322662563416145,-0.831582984284538,-0.322662563416824,-1.68078805369031,1.33860134540111,-1.04511408853914,-0.166828174213188,-0.659818960008739,NaN,0.529273303082838,-0.529273303081973,-0.049305228945814,0.495245053985548,-0.627101482831968,NaN,NaN,0.809213088969942,0.822892027700134,-0.349996099985556,1.0258350588949,1.0258350588952,-0.72633304752318,NaN,0.822794591423415,NaN,-0.505293832594092,-0.510724297427476,0.711007892285705,-0.138582359519011,-0.138582359519825,NaN,-0.671456779852449,NaN
1348.7104,-0.383242133577485,0.139759226656763,-0.19801026697763,-0.490073653796981,0.185402090799801,0.185402090797687,NaN,NaN,0.0653203530422508,0.279391013034146,0.110784459637136,0.279391013034982,0.273827826697359,-0.552600067989673,NaN,NaN,NaN,1.47505802048403,-0.326167184026238,-0.82802801937913,-0.326167184026934,-1.67945456742256,1.33861403697172,-1.04172204378503,-0.163578442516179,-0.660776327218679,NaN,0.530870660269268,-0.530870660268459,-0.0547225099486391,0.492528075130625,-0.616287481327838,NaN,NaN,0.811316102136811,0.817374970328221,-0.364266434869165,1.02347125804316,1.02347125804345,-0.716977555305201,NaN,0.81541281586522,NaN,-0.511869096816914,-0.508723022249476,0.7054379693368,-0.136652621870936,-0.136652621871735,NaN,-0.675382834158138,NaN
1348.8128,-0.362357675561441,0.13896328927227,-0.177519545301088,-0.497198134459277,0.210878020812769,0.210878020810662,NaN,NaN,0.0930897906234172,0.281170491133893,0.118504156476031,0.281170491134733,0.277328108758423,-0.558444992076183,NaN,NaN,NaN,1.50332614881089,-0.329639776570377,-0.823860053497721,-0.329639776571082,-1.67849947812419,1.33872371862327,-1.03905265775386,-0.160423920630872,-0.66150437270281,NaN,0.532449877739356,-0.532449877738617,-0.0596127888032073,0.489328670830095,-0.605907498675054,NaN,NaN,0.813484676883805,0.811953732252518,-0.377641198611964,1.02110440780117,1.02110440780146,-0.707806528887711,NaN,0.80825591461058,NaN,-0.518431497552049,-0.506812964536334,0.700030510510569,-0.134484360913501,-0.134484360914285,NaN,-0.67951756908725,NaN
1348.9152,-0.341766095482476,0.138345749761892,-0.157078318968777,-0.50358183445498,0.236215810398568,0.236215810396471,NaN,NaN,0.121147003368393,0.283655176112746,0.126224912436989,0.283655176113575,0.280670712185775,-0.564122376762492,NaN,NaN,NaN,1.53166317313194,-0.333086762365508,-0.819066960852058,-0.333086762366221,-1.67791986195066,1.33891847113173,-1.03712698365657,-0.157339052101042,-0.662043260698865,NaN,0.534021906672932,-0.534021906672254,-0.0639352354711438,0.485626305379299,-0.596001748261484,NaN,NaN,0.815725813982331,0.806642602116428,-0.390032669331275,1.01876560681326,1.01876560681354,-0.698830796497214,NaN,0.801338802924089,NaN,-0.524975929226725,-0.504985570809196,0.694847886559797,-0.132068617852935,-0.132068617853704,NaN,-0.683828836035057,NaN
1349.0176,-0.321525568613986,0.137890819668627,-0.136769275986544,-0.509194629699705,0.261333971960288,0.261333971958202,NaN,NaN,0.14941699853684,0.28686754838109,0.133926548661944,0.286867548381919,0.283874131813771,-0.569657276851261,NaN,NaN,NaN,1.56003956145611,-0.336514700971101,-0.813638529452297,-0.336514700971828,-1.67771013044165,1.33918491154451,-1.03596284771324,-0.154298093565714,-0.662433312596503,NaN,0.53559697013734,-0.535596970136713,-0.0676519751385427,0.481402210270272,-0.586607394066692,NaN,NaN,0.81804554706125,0.801454634303219,-0.401357478259647,1.01648402358381,1.01648402358408,-0.690059051465684,NaN,0.794675185437788,NaN,-0.531495837200807,-0.503232497227986,0.689950502899181,-0.129396726662729,-0.129396726663481,NaN,-0.688284024445251,NaN
1349.12,-0.301693891324761,0.137581858249767,-0.116675924273103,-0.514009770397257,0.286150811327169,0.286150811325096,NaN,NaN,0.177822680405836,0.290825970655224,0.141588981824577,0.290825970656052,0.286957473014507,-0.575075066110922,NaN,NaN,NaN,1.5884232750561,-0.339930013944334,-0.807566471339091,-0.339930013945072,-1.6778620126619,1.33950825821037,-1.03557464904941,-0.151275201970017,-0.662714852424306,NaN,0.537184477841223,-0.537184477840644,-0.0707282394451727,0.476639502080154,-0.577758346682435,NaN,NaN,0.82044893670867,0.796401638552803,-0.411536923389708,1.01428683723063,1.01428683723089,-0.681497891362396,NaN,0.788277527232934,NaN,-0.537983132939099,-0.501545642024173,0.68539657474085,-0.126460418087943,-0.126460418088675,NaN,-0.692850222903906,NaN
1349.2224,-0.282328335080779,0.137401465984376,-0.0968823075038616,-0.518003993399474,0.310584795505051,0.31058479550299,NaN,NaN,0.20628509098703,0.295544616435185,0.149192269937085,0.29554461643602,0.289940309456138,-0.580401342112551,NaN,NaN,NaN,1.61677979615194,-0.343338759093009,-0.800844440102152,-0.343338759093754,-1.67836455505175,1.33987240330396,-1.03597318636646,-0.148244517250459,-0.662928050893011,NaN,0.538792944352763,-0.538792944352235,-0.0731324892157633,0.471323300134001,-0.569485077563801,NaN,NaN,0.822940072803001,0.791494171789142,-0.420497244356362,1.01219919333003,1.0121991933303,-0.673151872620579,NaN,0.782157023452315,NaN,-0.544428107580722,-0.499917174926454,0.681241906859306,-0.12325192745678,-0.123251927457496,NaN,-0.697494361567374,NaN
1349.3248,-0.263485504307232,0.137331590738831,-0.0774727069478085,-0.521157596897499,0.334554931223432,0.33455493122138,NaN,NaN,0.234723665169354,0.301033429995941,0.156716659037587,0.301033429996776,0.292842532520193,-0.585661827202555,NaN,NaN,NaN,1.64507216285004,-0.346746438929753,-0.793468051578845,-0.346746438930516,-1.67920414194502,1.3402599944994,-1.03716551489702,-0.145180231490929,-0.663112767613195,NaN,0.54042990842796,-0.540429908427465,-0.0748364898363501,0.46544084298987,-0.5618144569973,NaN,NaN,0.825522089400093,0.786741533120209,-0.428169837771856,1.01024417797759,1.01024417797787,-0.665023584479195,NaN,0.776323570625545,NaN,-0.55081935504049,-0.498339561932829,0.677539688358775,-0.119764102801856,-0.119764102802557,NaN,-0.702183332185185,NaN
1349.4272,-0.245221196704252,0.137353648045887,-0.0585313257710445,-0.523454471264932,0.357981153520445,0.357981153518411,NaN,NaN,0.263056504605111,0.307298121025097,0.164142631313389,0.307298121025943,0.295684197183984,-0.590882263871702,NaN,NaN,NaN,1.673261005816,-0.350157821512283,-0.785434907053692,-0.350157821513062,-1.68036453900274,1.34065253151336,-1.03915482567254,-0.142056640228786,-0.663308391666455,NaN,0.542101849732507,-0.542101849732053,-0.0758153320785035,0.458981602625055,-0.55476961583792,NaN,NaN,0.828197194051061,0.782151760958037,-0.434491405141665,1.0084428086916,1.00844280869187,-0.657113745644529,NaN,0.770785743118442,NaN,-0.557143709262906,-0.496805585817953,0.674340302678754,-0.115990509189038,-0.115990509189719,NaN,-0.70688408720841,NaN
1349.5296,-0.227590262473489,0.137448654232403,-0.0401419539379275,-0.524882092419005,0.380784719349024,0.380784719347009,NaN,NaN,0.291200673451785,0.314340187193718,0.171450955256747,0.314340187194562,0.298485369733247,-0.596088305303601,NaN,NaN,NaN,1.70130458116319,-0.353576785672642,-0.776744624489065,-0.353576785673433,-1.68182696316191,1.34103048688461,-1.04194033383834,-0.138848181295108,-0.663553681294073,NaN,0.543814100255473,-0.543814100255069,-0.0760474122793372,0.451937397897842,-0.548369825148397,NaN,NaN,0.830966708697438,0.777731630935944,-0.439404049795745,1.00681403573743,1.00681403573771,-0.649421317145633,NaN,0.765550773142036,NaN,-0.563386194866133,-0.495308369905487,0.671691151991067,-0.111925529904117,-0.111925529904778,NaN,-0.711563725026821,NaN
1349.632,-0.210646459468466,0.13759736594236,-0.0223876197958029,-0.525431494500431,0.402888595633072,0.402888595631076,NaN,NaN,0.319072513583316,0.322156951283277,0.178622738028247,0.322156951284126,0.301265980052922,-0.601305406337681,NaN,NaN,NaN,1.72915879322353,-0.357006225654225,-0.767398877669939,-0.357006225655046,-1.68357017156957,1.34137344635096,-1.04551716809652,-0.135529474243819,-0.663886605621067,NaN,0.545570754188809,-0.545570754188458,-0.0755144008489737,0.444302509035154,-0.542630384566774,NaN,NaN,0.833831114180728,0.773486653932565,-0.442855357887233,1.00537474487907,1.00537474487935,-0.641943617463025,NaN,0.760624529059364,NaN,-0.569529982834056,-0.493841410300476,0.669636491634756,-0.107564466178125,-0.107564466178764,NaN,-0.71618956425554,NaN
1349.7344,-0.194442304219762,0.137780416658147,-0.00535024165809621,-0.525097238499326,0.424217829103593,0.424217829101615,NaN,NaN,0.346587968690549,0.330741600287314,0.185639479296458,0.330741600288168,0.304045676489239,-0.606558723357574,NaN,NaN,NaN,1.75677720399274,-0.36044803280702,-0.757401430426406,-0.36044803280786,-1.68557055027458,1.34166024960439,-1.04987625863644,-0.132075372678376,-0.664344193222853,NaN,0.547374586002321,-0.547374586002006,-0.074201224950684,0.436073791589921,-0.537562513501996,NaN,NaN,0.836790089451017,0.769421073700315,-0.444798495680723,1.0041397551973,1.00413975519758,-0.634676434579575,NaN,0.756011491635821,NaN,-0.575556337667909,-0.492398614007108,0.668217258670914,-0.102903632154349,-0.102903632154968,NaN,-0.720729200623345,NaN
1349.8368,-0.179028920501946,0.137978442345921,0.0108897076887997,-0.52387738585026,0.444699890073224,0.444699890071264,NaN,NaN,0.373662905902339,0.340083220997825,0.192483125317054,0.340083220998684,0.306843681103468,-0.611873029410497,NaN,NaN,NaN,1.78411103524204,-0.36390313805563,-0.746758144941049,-0.363903138056485,-1.68780218927455,1.3418691204092,-1.05500421603226,-0.128461035474301,-0.664962390951891,NaN,0.549226985882102,-0.549226985881832,-0.072096077256589,0.427250785232537,-0.533173246658022,NaN,NaN,0.839842540009068,0.765537864854931,-0.4451923383996,1.00312181198173,1.003121811982,-0.627614141807514,NaN,0.751714733307945,NaN,-0.581444554322782,-0.490974339729461,0.667470881064844,-0.0979404419576877,-0.0979404419582861,NaN,-0.725150544870583,NaN
1349.9392,-0.164455886764669,0.138172192027128,0.0262535162150311,-0.521773478571912,0.464264989956749,0.464264989954805,NaN,NaN,0.400213430488569,0.350166835305882,0.199136122074612,0.350166835306739,0.309678647883274,-0.617272645143227,NaN,NaN,NaN,1.81110917586065,-0.367371584195299,-0.735476944334739,-0.367371584196177,-1.69023694205132,1.34197778768565,-1.06088319258043,-0.124662017088662,-0.665775932848923,NaN,0.551127916732506,-0.551127916732263,-0.0691904504460507,0.417835811502181,-0.529465339260402,NaN,NaN,0.842986614240598,0.761838734486802,-0.444001629994894,1.00233157995624,1.00233157995649,-0.620749823767845,NaN,0.747735904847926,NaN,-0.587171903045754,-0.489563439246191,0.667431074956731,-0.0926734917125117,-0.0926734917130896,NaN,-0.729421856004675,NaN
1350.0416,-0.15077108374083,0.138342623297142,0.0406645262835759,-0.518790521983152,0.482846376674229,0.482846376672299,NaN,NaN,0.426156193367291,0.360973443251123,0.205581466468759,0.360973443251971,0.312568528928873,-0.622781382290417,NaN,NaN,NaN,1.83771820575265,-0.370852600372238,-0.72356772010563,-0.370852600373142,-1.69284446885454,1.34196359574051,-1.06749072854748,-0.120654373281695,-0.666818216666168,NaN,0.553075891852936,-0.55307589185272,-0.065479188912488,0.40783405471444,-0.526437186281719,NaN,NaN,0.846219709570356,0.758324131175717,-0.441197161731047,1.00177764316396,1.00177764316422,-0.614075414102126,NaN,0.744075231561811,NaN,-0.59271360199895,-0.488161294275831,0.668127648538716,-0.087102638806536,-0.0871026388070949,NaN,-0.733511786766889,NaN
1350.144,-0.138020544329301,0.138470987259177,0.0540484108768402,-0.514936961611919,0.500380612742304,0.500380612740386,NaN,NaN,0.451408690857933,0.372480080992566,0.211802754806329,0.372480080993403,0.315530451099692,-0.628422495207719,NaN,NaN,NaN,1.86388244219405,-0.374344656414062,-0.711042193733453,-0.374344656414992,-1.69559226489989,1.3418035995872,-1.07479959594433,-0.116414775570861,-0.668121185214575,NaN,0.555067968672861,-0.555067968672677,-0.060960542822228,0.397253621949763,-0.52408275883164,NaN,NaN,0.849538473511702,0.754993262896519,-0.436755948986821,1.00146651584072,1.00146651584097,-0.607581846480174,NaN,0.740731518742551,NaN,-0.598042820279848,-0.486763844801591,0.669586322740794,-0.0812290751314478,-0.0812290751319889,NaN,-0.737389446865198,NaN
1350.2464,-0.126248307743098,0.138538910299132,0.0663334409138624,-0.510224643001564,0.516807840755197,0.516807840753293,NaN,NaN,0.47588955875217,0.384659898802326,0.217784228208709,0.384659898803155,0.318580602377769,-0.634218634773398,NaN,NaN,NaN,1.88954400857323,-0.377845483908708,-0.697913762135693,-0.377845483909658,-1.69844568745197,1.34147465185338,-1.08277765955077,-0.111920625146583,-0.669715209918579,NaN,0.557099752347137,-0.557099752346984,-0.0556362046282213,0.38610558148863,-0.522391562773072,NaN,NaN,0.852938807014984,0.751844123031692,-0.430661380856134,1.00140266665135,1.00140266665159,-0.601259217684997,NaN,0.737702162220935,NaN,-0.603130698602886,-0.485367610586056,0.671828572119321,-0.0750553922877214,-0.0750553922882443,NaN,-0.741024484776103,NaN
1350.3488,-0.115496278286497,0.13852847908379,0.0774507523594913,-0.504668742082704,0.532072039989741,0.532072039987848,NaN,NaN,0.499518867709781,0.397482265046392,0.223510814798493,0.397482265047216,0.321734126769731,-0.640191798442547,NaN,NaN,NaN,1.91464292315862,-0.381352060966836,-0.684197359560698,-0.381352060967809,-1.70136800212039,1.34095349150412,-1.09138778204748,-0.107150155402547,-0.671628974987317,NaN,0.559165404370296,-0.559165404370164,-0.0495113056186304,0.374403981277024,-0.521348628030726,NaN,NaN,0.856415877088307,0.74887352270632,-0.422903316993357,1.00158855778083,1.00158855778107,-0.595096957072465,NaN,0.734983159944033,NaN,-0.607946374590756,-0.483969707554324,0.674871490517486,-0.0685856405916012,-0.0685856405921084,NaN,-0.744387190032716,NaN
1350.4512,-0.105804086399225,0.138422330915305,0.0873346186046686,-0.498287657051752,0.546121275093371,0.546121275091488,NaN,NaN,0.522218428314084,0.410912902826082,0.228968168981367,0.410912902826896,0.325005029434225,-0.646363271743136,NaN,NaN,NaN,1.93911721025186,-0.384860555645759,-0.669909347938911,-0.384860555646747,-1.70432045715096,1.3402168347509,-1.1005877945123,-0.102082514415867,-0.673889362585994,NaN,0.561257653159871,-0.561257653159774,-0.0425943560744852,0.362165848407571,-0.520934536796576,NaN,NaN,0.85996414246139,0.746077127524317,-0.413478114716003,1.00202469902707,1.00202469902731,-0.589084000634749,NaN,0.732569125693862,NaN,-0.61245701397352,-0.482567857658393,0.678727685237114,-0.0618253819782771,-0.0618253819787648,NaN,-0.747448614754821,NaN
1350.5536,-0.0972089472609809,0.138203746986926,0.0959227294990439,-0.491102863328869,0.558907934177573,0.558907934175697,NaN,NaN,0.543912110607298,0.424914061895289,0.234142708767039,0.424914061896098,0.328406097710739,-0.652753560004968,NaN,NaN,NaN,1.96290304153723,-0.388366215960809,-0.655067420457732,-0.388366215961823,-1.70726237986695,1.33924146352662,-1.11033052856232,-0.0966978270301919,-0.676521341019772,NaN,0.563367804620437,-0.56336780462036,-0.0348971319140087,0.349411170027095,-0.521125492726896,NaN,NaN,0.863577391340799,0.743449497620178,-0.4023885900969,1.00270971427021,1.00270971427045,-0.58320897320224,NaN,0.730453308595345,NaN,-0.616627860283835,-0.481160394849411,0.683405199596165,-0.0547817355120694,-0.0547817355125368,NaN,-0.750180709423103,NaN
1350.656,-0.0897455133051769,0.137856742839487,0.103156472708371,-0.483138746038129,0.570388950205768,0.570388950203897,NaN,NaN,0.564526175533596,0.439444720671019,0.239021652285433,0.439444720671817,0.331948843034216,-0.659382314071646,NaN,NaN,NaN,1.98593491010166,-0.391863206469223,-0.639690488143637,-0.391863206470244,-1.71015128368853,1.33800431071671,-1.12056388289999,-0.0909772462568054,-0.679547859105173,NaN,0.565485753978411,-0.565485753978353,-0.026434532233987,0.336162857310171,-0.521893426629695,NaN,NaN,0.86724878560369,0.740984130426841,-0.389643939001491,1.0036404144906,1.00364041449085,-0.577460377309275,NaN,0.728627621009512,NaN,-0.620422305462663,-0.479746272766832,0.688907459092928,-0.0474634152643534,-0.0474634152647994,NaN,-0.752556464632234,NaN
1350.7584,-0.0834457217499871,0.1373661513231,0.108981209570809,-0.474422428965074,0.580525998603631,0.580525998601764,NaN,NaN,0.583989608575571,0.454460805308724,0.243593054107103,0.454460805309514,0.335643461535864,-0.666268255913109,NaN,NaN,NaN,2.00814582464436,-0.395344423139271,-0.62379853523592,-0.3953444231403,-1.71294297667867,1.3364825434014,-1.13123089845009,-0.0849030071491247,-0.682989749247401,NaN,0.567600002359424,-0.567600002359387,-0.0172244375645691,0.32244669578624,-0.523206130987328,NaN,NaN,0.870970904757527,0.738673504071474,-0.375259649854359,1.00481186983595,1.00481186983621,-0.571826780353884,NaN,0.727082677261652,NaN,-0.62380196938861,-0.478325072681384,0.695233232353223,-0.0398807593516579,-0.0398807593520848,NaN,-0.754550048258481,NaN
1350.8608,-0.0783386419275902,0.136717698399645,0.113346540979573,-0.464983613457149,0.589285667352865,0.589285667351001,NaN,NaN,0.60223444552993,0.469915409855289,0.247845841031502,0.469915409856065,0.339498805727246,-0.67342910615088,NaN,NaN,NaN,2.02946750647324,-0.398801332383679,-0.607412465592314,-0.398801332384707,-1.71559167164182,1.33465364715215,-1.14226983489785,-0.0784584918512145,-0.686865638228874,NaN,0.569697678266556,-0.569697678266545,-0.00728758740277107,0.308291285542403,-0.525027415772499,NaN,NaN,0.874735786670848,0.736509118237055,-0.359257428318182,1.00621747494784,1.00621747494811,-0.566296992374038,NaN,0.725807843375533,NaN,-0.626726783541336,-0.476897004813955,0.70237660159101,-0.0320457500604631,-0.0320457500608703,NaN,-0.756136933576362,NaN
1350.9632,-0.0744503266035941,0.135898073959373,0.11620656204288,-0.45485443248827,0.596639600078761,0.596639600076897,NaN,NaN,0.61919608553591,0.485759007826888,0.251769846338868,0.485759007827652,0.343522362840141,-0.680881511262365,NaN,NaN,NaN,2.04983058602808,-0.402223858458916,-0.590553970498101,-0.40222385845994,-1.71805010351309,1.33249551477506,-1.15361425500137,-0.0716283081520621,-0.691191862505936,NaN,0.571764562523493,-0.571764562523524,0.0033525184443076,0.293727972431731,-0.527317283054517,NaN,NaN,0.878534965117815,0.734481532083526,-0.341665139022032,1.00784900704942,1.0078490070497,-0.560860227768635,NaN,0.724791291655453,NaN,-0.629155089335827,-0.475462899922226,0.710326947769569,-0.0239720277292289,-0.0239720277296195,NaN,-0.757294020754965,NaN
1351.0656,-0.0718036694197138,0.134894996987385,0.117520102367946,-0.444069318533297,0.602564613826842,0.602564613824977,NaN,NaN,0.634813589688649,0.501939655986176,0.255355841328281,0.501939655986932,0.347720241613489,-0.688640969088164,NaN,NaN,NaN,2.06916480845308,-0.405600315577169,-0.573245423068836,-0.405600315578206,-1.72026965253802,1.32998653369565,-1.16519312674288,-0.0643983794928181,-0.69598238672124,NaN,0.573785119389522,-0.573785119389586,0.0146696998707976,0.278790767539609,-0.530032124607882,NaN,NaN,0.882359504113685,0.732580402957698,-0.322516758434627,1.00969668153189,1.00969668153218,-0.555506243099556,NaN,0.724020051048103,NaN,-0.631043762781159,-0.4740241915866,0.719068958142463,-0.0156748969881294,-0.0156748969885044,NaN,-0.757999749121747,NaN
1351.168,-0.070418269801226,0.133697274051049,0.117250949116594,-0.432664879011136,0.607042793232969,0.607042793231106,NaN,NaN,0.649029963830321,0.518403196497907,0.258595563087297,0.518403196498666,0.352097170607355,-0.696721753211801,NaN,NaN,NaN,2.08739925566443,-0.408917369700351,-0.55550979300375,-0.408917369701393,-1.72220046676359,1.32710566059386,-1.17693095414805,-0.0567560415276674,-0.701248726250512,NaN,0.575742538188261,-0.575742538188356,0.0266351695930957,0.263516249920569,-0.533124947284052,NaN,NaN,0.886200030040942,0.730794530141566,-0.301852324151584,1.01174921041386,1.01174921041415,-0.550225447724854,NaN,0.723480049051582,NaN,-0.632348370164278,-0.472582889233102,0.728582656176139,-0.00717131977857974,-0.00717131977893935,NaN,-0.758234193184487,NaN
1351.2704,-0.0703103059749932,0.132294852808487,0.115368054582043,-0.420679769572116,0.610061564863685,0.610061564861821,NaN,NaN,0.66179242625394,0.535093466066194,0.261481737889088,0.535093466066955,0.356656509196795,-0.705136835589699,NaN,NaN,NaN,2.10446259019819,-0.412160016319591,-0.537370581103223,-0.412160016320637,-1.72379158953597,1.32383248327421,-1.18874795116891,-0.0486901378807174,-0.706999874096679,NaN,0.577618786426273,-0.577618786426378,0.0392176159852474,0.24794344787533,-0.536545627800552,NaN,NaN,0.890046765957656,0.729111905576328,-0.27971785857338,1.0139938666838,1.0139938666841,-0.545008992121239,NaN,0.723156147921731,NaN,-0.633023354263356,-0.471141542256002,0.738843454352216,0.00152010388831442,0.00152010388797332,NaN,-0.757979144380235,NaN
1351.3728,-0.0714924155301058,0.130678872444962,0.111845731586885,-0.408154553658868,0.611613757208458,0.611613757206591,NaN,NaN,0.673052664255257,0.551952523961339,0.264008100416886,0.551952523962106,0.361400271959415,-0.713897805232894,NaN,NaN,NaN,2.12028333048698,-0.415311569021487,-0.518851765321562,-0.415311569022539,-1.72499110692157,1.32014727853712,-1.2005602753303,-0.0401911059962511,-0.713242232139139,NaN,0.579394673342378,-0.579394673342507,0.052383314462035,0.232113695681435,-0.540241200394148,NaN,NaN,0.893889574089583,0.727519772134538,-0.256165242770125,1.01641655733778,1.01641655733809,-0.539848843623623,NaN,0.723032181377012,NaN,-0.63302224721716,-0.46970319558196,0.749822239124973,0.0103791605296232,0.0103791605292996,NaN,-0.75721818671278,NaN
1351.4752,-0.0739735824474237,0.128841710713364,0.106663837353468,-0.395131539113731,0.611697648522506,0.611697648520634,NaN,NaN,0.682767082117643,0.568920908588565,0.26616940961303,0.568920908589337,0.366329166897578,-0.723014782079599,NaN,NaN,NaN,2.13479016448271,-0.418353656634036,-0.499977739441311,-0.418353656635083,-1.72574631865669,1.31603106801072,-1.21228032555676,-0.0312510456094208,-0.719979548829335,NaN,0.581049923056255,-0.581049923056394,0.0660962810324982,0.216070465523532,-0.544156184344952,NaN,NaN,0.897718009870023,0.726004689236989,-0.231252024980601,1.01900190877122,1.01900190877155,-0.53473786165165,NaN,0.723090998249847,NaN,-0.632297907976072,-0.468271333929504,0.761485491519574,0.0193840527626593,0.0193840527623503,NaN,-0.755936765987452,NaN
1351.5776,-0.0777590294767026,0.126777025895463,0.0998079446134474,-0.381654591794415,0.610316998378922,0.610316998377048,NaN,NaN,0.690897038584359,0.585937922110973,0.267961461803072,0.585937922111742,0.37144264593239,-0.732496328323637,NaN,NaN,NaN,2.14791229689731,-0.42126622005823,-0.480773232966372,-0.421266220059283,-1.72600392378796,1.31146566954278,-1.22381708762358,-0.0218637691906409,-0.727212867593622,NaN,0.582563256034478,-0.582563256034619,0.0803184658651687,0.199859177590589,-0.548232953379045,NaN,NaN,0.901521385940434,0.724552603833654,-0.20504116789493,1.02173336509055,1.0217333650909,-0.529669879589495,NaN,0.723314517278271,NaN,-0.630802786209834,-0.466849810329594,0.773795429423079,0.0285114407618534,0.0285114407615576,NaN,-0.754122244611849,NaN
1351.68,-0.0828501148584889,0.124479791506329,0.0912694978974568,-0.367768936752751,0.607481055761263,0.607481055759384,NaN,NaN,0.697409070031122,0.602941934096589,0.269381101174597,0.602941934097365,0.37673896445525,-0.742349361810903,NaN,NaN,NaN,2.15957981763311,-0.424027504585696,-0.461263213718812,-0.424027504586751,-1.72571021401908,1.30643374563686,-1.23507650608453,-0.0120248412723053,-0.734940489935727,NaN,0.583912477901845,-0.583912477901993,0.0950099685197532,0.183526992985284,-0.552412137380089,NaN,NaN,0.905288840818954,0.723148923914617,-0.177600756721858,1.02459329476806,1.02459329476844,-0.524639787410265,NaN,0.723683792339985,NaN,-0.628489210726068,-0.465442760087965,0.786710154741928,0.0377365008933166,0.0377365008930387,NaN,-0.751763936321083,NaN
1351.7824,-0.0892442339460812,0.121946321618154,0.0810459514094011,-0.353520960028754,0.603204538444562,0.603204538442675,NaN,NaN,0.702275096153589,0.619870693810511,0.270426227371456,0.619870693811297,0.382215247274449,-0.752579076207385,NaN,NaN,NaN,2.16972408020093,-0.426614063138877,-0.441472779463238,-0.42661406313995,-1.72481127292938,1.30091885021684,-1.24596187498898,-0.00173161519299252,-0.743157955073869,NaN,0.585074576529121,-0.585074576529271,0.110129254033911,0.167122593767511,-0.556633041209172,NaN,NaN,0.909009406604789,0.721778593640196,-0.149003692525581,1.02756310031298,1.02756310031338,-0.519643604710973,NaN,0.724179084575107,NaN,-0.625309693173511,-0.464054510959028,0.800183801782485,0.0470330041033792,0.0470330041031131,NaN,-0.748853117512659,NaN
1351.8848,-0.096934728853849,0.119174286695773,0.069140885095363,-0.338958018521032,0.597507582768881,0.597507582766988,NaN,NaN,0.705472606300274,0.636661643126038,0.271095800037378,0.636661643126828,0.387867560395407,-0.763188869807287,NaN,NaN,NaN,2.17827808468116,-0.429000795716561,-0.421427049610709,-0.429000795717639,-1.72325318240829,1.29490547367744,-1.25637425087851,0.00901672820969844,-0.751858035077497,NaN,0.586025827849842,-0.586025827849996,0.125633358454208,0.150695953416578,-0.560834068546051,NaN,NaN,0.91267207261103,0.720426171882412,-0.119327385225171,1.03062332924667,1.03062332924711,-0.514678541210226,NaN,0.724779939574814,NaN,-0.621217238708684,-0.462689502699181,0.814166696943271,0.0563734148487631,0.0563734148485089,NaN,-0.745383013156533,NaN
1351.9872,-0.105910811032137,0.11616272392173,0.055564099491341,-0.324128258742472,0.590415667951434,0.590415667949533,NaN,NaN,0.706984827465314,0.653252224912647,0.271389840266678,0.653252224913452,0.393690988492169,-0.774180280338259,NaN,NaN,NaN,2.18517686286719,-0.431161041393818,-0.401151078974186,-0.431161041394914,-1.72098224252014,1.28837908969912,-1.26621289543392,0.0202191401514702,-0.761030741485057,NaN,0.58674190654956,-0.586741906549724,0.141478082707177,0.13429810038176,-0.564953142198982,NaN,NaN,0.916265845506888,0.71907591575673,-0.0886534477658736,1.033753786808,1.03375378680845,-0.509743042804945,NaN,0.725465267055436,NaN,-0.616165662753833,-0.461352220791136,0.828605547566795,0.0657290063334294,0.0657290063331875,NaN,-0.741348763739566,NaN
1352.0896,-0.116157502398617,0.112912048851754,0.0403316932507666,-0.309080440268059,0.581959522118766,0.581959522116851,NaN,NaN,0.706800875736361,0.669580185257042,0.271309428835243,0.669580185257857,0.399679714235807,-0.785552920953425,NaN,NaN,NaN,2.19035785999138,-0.433066722300989,-0.380669819937481,-0.433066722302085,-1.71794521170708,1.28132620737594,-1.27537575672587,0.0318726654204288,-0.770663338721381,NaN,0.587197995439135,-0.58719799543932,0.157618181381491,0.117980876766615,-0.568928114943646,NaN,NaN,0.919779809454127,0.717711867389001,-0.0570673812803933,1.03693365027044,1.03693365027093,-0.50483681731925,NaN,0.726213415964482,NaN,-0.610109914007409,-0.46004713914519,0.843443671962867,0.075069986357611,0.0750699863573772,NaN,-0.736747386632086,NaN
1352.192,-0.127655599781524,0.109424072495179,0.0234661242519351,-0.293863755628881,0.572175015998976,0.572175015997052,NaN,NaN,0.704915889621426,0.685583873877622,0.270856700986172,0.685583873878448,0.405827093337833,-0.797304415274277,NaN,NaN,NaN,2.19376130846868,-0.43468852140991,-0.360008135772603,-0.434688521410995,-1.71408956847291,1.27373442861936,-1.28375999203767,0.043972412428693,-0.780740363264507,NaN,0.587368891982033,-0.587368891982241,0.174007558735191,0.101796692308236,-0.572697173047256,NaN,NaN,0.923203189979955,0.716317940943233,-0.0246582337136343,1.04014158638205,1.04014158638255,-0.499960841765782,NaN,0.72700224113019,NaN,-0.603006393419568,-0.458778662223453,0.858621265557039,0.0843656332592337,0.0843656332590117,NaN,-0.731577739290407,NaN
1352.2944,-0.140381664004654,0.105702022062364,0.00499625040810685,-0.278527637161005,0.561103047196986,0.561103047195048,NaN,NaN,0.701331143465231,0.701202552667397,0.270034837885893,0.701202552668233,0.41212572417633,-0.809430332965071,NaN,NaN,NaN,2.19533060097551,-0.435996065060262,-0.339190833054095,-0.435996065061336,-1.70936379197517,1.26559251208782,-1.29126252279478,0.0565115393115418,-0.791243651503171,NaN,0.58722911592552,-0.587229115925759,0.190599484918954,0.0857982727782953,-0.576199243860262,NaN,NaN,0.926525423550706,0.714878009901396,0.00848178373313719,1.04335587731021,1.04335587731073,-0.4951173639932,NaN,0.727809167913385,NaN,-0.594813256675251,-0.457551060619831,0.874075691700543,0.0935844421349779,0.0935844421347653,NaN,-0.725840485521442,NaN
1352.3968,-0.154308031514462,0.101750562224031,-0.015042652133293,-0.263121546498543,0.548789414726939,0.548789414724985,NaN,NaN,0.696054143058943,0.716376717660429,0.268848055418814,0.716376717661271,0.418567515722908,-0.82192412775444,NaN,NaN,NaN,2.19501267205178,-0.436958090290322,-0.318242685107955,-0.436958090291386,-1.70371765650624,1.25689044358382,-1.29778060908525,0.0694812597294902,-0.802152379075704,NaN,0.586753020226302,-0.586753020226561,0.2073468363406,0.0700384051874214,-0.579374416378504,NaN,NaN,0.929736232632495,0.713375995153859,0.0422577248315954,1.04655455914703,1.04655455914758,-0.490309906463085,NaN,0.728611262964036,NaN,-0.585490708121346,-0.456368405245045,0.889741791071219,0.102694276076554,0.102694276076352,NaN,-0.719538070023617,NaN
1352.4992,-0.169402846309518,0.0975758150962914,-0.0366088936240879,-0.2476947528771,0.535284677896536,0.535284677894569,NaN,NaN,0.689098703884551,0.731048426723539,0.267301590838751,0.73104842672438,0.425143753814048,-0.834777080409657,NaN,NaN,NaN,2.19275837806123,-0.437542602665687,-0.297188451411582,-0.437542602666728,-1.69710252915328,1.24761950400941,-1.30321243801715,0.0828708639842456,-0.813443113191009,NaN,0.585914904619488,-0.585914904619761,0.22420234829953,0.0545696855988753,-0.582164371015705,NaN,NaN,0.932825702625756,0.71179595010663,0.0765723645692588,1.04971556905157,1.04971556905214,-0.485543266050589,NaN,0.729385312106632,NaN,-0.575001307372747,-0.455234510901776,0.905552201227458,0.11166251763913,0.111662517638936,NaN,-0.712674704864545,NaN
1352.6016,-0.18563011144345,0.0931853745235843,-0.0596544037243515,-0.232296113921425,0.520643989436395,0.520643989434409,NaN,NaN,0.680485006544845,0.745161619802252,0.26540168707565,0.745161619803108,0.431845161805457,-0.847978252037192,NaN,NaN,NaN,2.18852285365361,-0.437717041679472,-0.276052901267845,-0.437717041680487,-1.68947166035639,1.23777232721418,-1.30745771827567,0.0966677456325825,-0.825089880133602,NaN,0.58468913472924,-0.584689134729525,0.241118858330891,0.0394442727036691,-0.584512806227153,NaN,NaN,0.935784353393018,0.710122137978122,0.111326654734137,1.05281689205953,1.05281689206013,-0.480823500033179,NaN,0.730107904686823,NaN,-0.563310290641826,-0.454152890413649,0.921437675537319,0.120456221547403,0.120456221547216,NaN,-0.705256360475111,NaN
1352.704,-0.202949759847969,0.0885883070542687,-0.0841248034416436,-0.2169738711139,0.50492689621331,0.504926896211309,NaN,NaN,0.670239623089362,0.758662423863834,0.263155574331978,0.758662423864693,0.438661955060656,-0.861514453237618,NaN,NaN,NaN,2.18226583581756,-0.437448457710195,-0.254860826149057,-0.43744845771117,-1.68078046412519,1.22734295172376,-1.31041826320224,0.110857425803305,-0.837064249804037,NaN,0.583050272689584,-0.583050272689861,0.258049522828096,0.0247136452707704,-0.586365850495573,NaN,NaN,0.938603198448671,0.708339101510207,0.146420154244852,1.0558367010949,1.05583670109553,-0.47615789243214,NaN,0.730755524672371,NaN,-0.550385885134352,-0.453126709968195,0.937327402827801,0.129042269179569,0.129042269179388,NaN,-0.697290752573484,NaN
1352.8064,-0.221317745378771,0.0837951351796312,-0.109959523234986,-0.201775465128389,0.488197108105675,0.488197108103653,NaN,NaN,0.658395508261498,0.771499438467179,0.260571449009792,0.771499438468048,0.445583890372398,-0.875370230920929,NaN,NaN,NaN,2.17395195840205,-0.436703694650115,-0.2336370219673,-0.436703694651053,-1.67098678492517,1.21632687019696,-1.31199854568411,0.125423573221854,-0.849335436571559,NaN,0.580973221606604,-0.580973221606874,0.274948000625102,0.010428361298755,-0.587672453192134,NaN,NaN,0.941273789533371,0.706431727243278,0.181751424472133,1.05875348669708,1.05875348669773,-0.471554896624173,NaN,0.731304644305124,NaN,-0.53619959675322,-0.45215873815208,0.953149334343363,0.137387521983597,0.137387521983422,NaN,-0.688787321731102,NaN
1352.9088,-0.240686157686802,0.0788178051989177,-0.137091967652997,-0.186747369568214,0.470522239227248,0.470522239225213,NaN,NaN,0.644991946815919,0.783623996674378,0.257658450054093,0.783623996675256,0.4526003070804,-0.889527871777007,NaN,NaN,NaN,2.16355101609385,-0.435449573434472,-0.212406244243555,-0.435449573435362,-1.66005114751754,1.20472107458729,-1.31210622031289,0.140348022278846,-0.861870413842986,NaN,0.578433380987386,-0.57843338098764,0.291768606458532,-0.00336218035374531,-0.588384751970803,NaN,NaN,0.943788248778836,0.704385302928024,0.217218394151908,1.06154617395513,1.06154617395581,-0.467024052317619,NaN,0.731731814816418,NaN,-0.520726467019459,-0.451251286828479,0.968830510769499,0.145458973822031,0.145458973821862,NaN,-0.679757198711277,NaN
1353.0112,-0.261003364884025,0.0736696445173428,-0.165449723778757,-0.17193493708065,0.451973525950941,0.451973525948889,NaN,NaN,0.630074450653337,0.794990399425756,0.254426632226123,0.794990399426652,0.459700157521033,-0.903967421244274,NaN,NaN,NaN,2.1510381973769,-0.433653065439965,-0.191193147759262,-0.433653065440809,-1.64793699255321,1.19252409875127,-1.31065261571743,0.15561079392903,-0.874634039863779,NaN,0.575406809316233,-0.575406809316471,0.308466443394087,-0.0166099756222835,-0.588458416103218,NaN,NaN,0.946139291945624,0.702185566445743,0.252718706632788,1.06419422812816,1.06419422812885,-0.462575880041294,NaN,0.732013753434478,NaN,-0.503945303929774,-0.450406143747715,0.984297376860584,0.153223905094793,0.153223905094632,NaN,-0.670213150212672,NaN
1353.1136,-0.282214185134045,0.0683653107652449,-0.194954811254957,-0.157382248992674,0.432625526454977,0.43262552645291,NaN,NaN,0.613694608191852,0.805556130481907,0.250886935379518,0.805556130482814,0.466872030850142,-0.918666717116051,NaN,NaN,NaN,2.13639429666216,-0.431281434377981,-0.170022209098821,-0.431281434378775,-1.63461090053245,1.17973605886779,-1.30755320278611,0.171190126030942,-0.887589193241924,NaN,0.571870391623921,-0.571870391624148,0.324997527653661,-0.0292686514915478,-0.587852964985666,NaN,NaN,0.948320245485877,0.699818748465498,0.288150065783308,1.0666777552139,1.06667775521462,-0.458221758960645,NaN,0.732127425949237,NaN,-0.485838891674779,-0.44962449736571,0.999476083792134,0.160650038853197,0.16065003885304,NaN,-0.660169512523955,NaN
1353.216,-0.304260086484429,0.0629207351500878,-0.225523969751806,-0.143131958738372,0.41255580758005,0.412555807577974,NaN,NaN,0.595909892810799,0.815282061091034,0.247051149527385,0.815282061091948,0.474104174727317,-0.933601435388602,NaN,NaN,NaN,2.11960591700934,-0.428302329287755,-0.148917629660411,-0.428302329288502,-1.62004279990489,1.16635868231517,-1.30272805043165,0.187062520449819,-0.900696916527725,NaN,0.567802008446676,-0.567802008446903,0.341318920582936,-0.0412937052293884,-0.586532060102583,NaN,NaN,0.950325060786229,0.697271611348757,0.323410598055076,1.06897760351797,1.0689776035187,-0.453973795007318,NaN,0.73205012197797,NaN,-0.466394183238086,-0.448906854365483,1.01429278743517,0.16770569745557,0.16770569745542,NaN,-0.649642122566564,NaN
1353.3184,-0.327079413206315,0.0573530645089402,-0.257068975727734,-0.129225122659562,0.39184462473588,0.391844624733794,NaN,NaN,0.576783437335873,0.824132646594138,0.242931877024697,0.82413264659506,0.481384516241191,-0.948745144368488,NaN,NaN,NaN,2.10066566487038,-0.424683828016796,-0.127903230198403,-0.424683828017488,-1.60420615766127,1.15239531917996,-1.2961022786361,0.203202811539039,-0.913916565208147,NaN,0.563180698852622,-0.563180698852856,0.357388876610054,-0.0526427437268212,-0.584463768834523,NaN,NaN,0.952148329880328,0.694531483593934,0.3583992416014,1.071075467859,1.07107546785975,-0.449844690423867,NaN,0.731759522580154,NaN,-0.445602480909612,-0.448252951463845,1.02867395097747,0.174359958182664,0.17435995818252,NaN,-0.638648246960349,NaN
1353.4208,-0.35060763348512,0.0516806030194254,-0.289496981781719,-0.115701021169091,0.370574596206726,0.370574596204625,NaN,NaN,0.55638378134528,0.83207611086046,0.238542493873891,0.832076110861388,0.488700683998356,-0.964069365821795,NaN,NaN,NaN,2.07957233010641,-0.420394443059308,-0.107002344199811,-0.420394443059931,-1.58707815542994,1.13785094207841,-1.28760650282336,0.219584253289377,-0.927205960811489,NaN,0.55798681147782,-0.557986811478058,0.373167001456773,-0.0632757179772021,-0.581620800000228,NaN,NaN,0.953785303337,0.691586287011021,0.393016154779809,1.07295399226382,1.07295399226459,-0.445847624993226,NaN,0.731233759922921,NaN,-0.423459606638747,-0.447661667550428,1.0425466597393,0.180582804172334,0.180582804172192,NaN,-0.62720650971324,NaN
1353.5232,-0.374777601449053,0.0459227488524972,-0.322710878044636,-0.102596983457122,0.348830366218895,0.348830366216784,NaN,NaN,0.534784593480676,0.839084609297473,0.233897111445669,0.839084609298402,0.496040031269446,-0.979543646766036,NaN,NaN,NaN,2.05633103639247,-0.415403105694008,-0.0862377093388394,-0.415403105694575,-1.56863984866993,1.1227321378395,-1.27717725502623,0.236178615071358,-0.940521549702124,NaN,0.552202143228857,-0.552202143229097,0.388614401011523,-0.0731551487179921,-0.577980710798237,NaN,NaN,0.955231904888523,0.688424553224564,0.427163118094276,1.07459686274328,1.07459686274407,-0.441996147538573,NaN,0.730451466158998,NaN,-0.399966055033856,-0.447130943114571,1.05583894686172,0.186345268145492,0.186345268145353,NaN,-0.615336823143834,NaN
1353.6256,-0.399519829790561,0.0400999216419831,-0.356609677599389,-0.089948231158303,0.326698248804549,0.326698248802426,NaN,NaN,0.512064363729427,0.845134356181967,0.229010538682756,0.845134356182892,0.503389653518218,-0.995135645472653,NaN,NaN,NaN,2.03095333918326,-0.409679148226719,-0.0656313696758103,-0.409679148227218,-1.54887630333185,1.10704708818753,-1.26475737448171,0.252956274986961,-0.953818569004771,NaN,0.545810067689448,-0.545810067689697,0.403693800132742,-0.0822463389239209,-0.573526082161875,NaN,NaN,0.956484735977203,0.685035426675145,0.460743901882076,1.07598888193112,1.07598888193192,-0.438304066598596,NaN,0.729391811862004,NaN,-0.375127118746879,-0.446657709006628,1.06848011618309,0.191619571457978,0.191619571457839,NaN,-0.603060323857209,NaN
1353.728,-0.424762772286949,0.0342334804536137,-0.391088925662861,-0.0777877507613637,0.304265848994646,0.304265848992512,NaN,NaN,0.488306059814753,0.850205704332036,0.223898243889637,0.850205704332964,0.510736393077016,-1.01081123108222,NaN,NaN,NaN,2.00345725369064,-0.403192306261011,-0.045204612624485,-0.403192306261445,-1.52777671135257,1.09080554129115,-1.25029636664663,0.269886304707114,-0.967051217994976,NaN,0.538795653422885,-0.538795653423148,0.418369620403609,-0.0905175689070382,-0.568244658281732,NaN,NaN,0.957541067085992,0.681408653774451,0.493664584248749,1.07711602093121,1.07711602093203,-0.434785329575342,NaN,0.728034538798402,NaN,-0.348952985854549,-0.446237826279079,1.08040105116819,0.196379261393065,0.196379261392928,NaN,-0.590399312549685,NaN
1353.8304,-0.450433114984038,0.028345632125385,-0.426041131432083,-0.0661461977850847,0.28162166308238,0.281621663080235,NaN,NaN,0.463596745189684,0.854283175353872,0.218576314832985,0.854283175354807,0.518066830317323,-1.02653459496409,NaN,NaN,NaN,1.97386721394517,-0.395912757742393,-0.0249779468059577,-0.395912757742766,-1.50533448695869,1.07401877699356,-1.23375072890025,0.286936544836467,-0.98017283225495,NaN,0.5311457722906,-0.531145772290871,0.432608016485059,-0.0979402730423639,-0.562129448346052,NaN,NaN,0.958398816008554,0.677534560633572,0.525833817333177,1.07796544814877,1.0779654481496,-0.431453883903028,NaN,0.726359992469718,NaN,-0.321458819781204,-0.445866045200731,1.0915345071506,0.200599345759647,0.200599345759512,NaN,-0.577377194738633,NaN
1353.9328,-0.476456074268389,0.0224593273271811,-0.461356224529515,-0.0550518308469351,0.258854661034752,0.258854661032597,NaN,NaN,0.438027156006008,0.85735544863016,0.213061415913984,0.857355448631092,0.525367264814361,-1.04226837496225,NaN,NaN,NaN,1.94221397949323,-0.387811207834701,-0.00497109633129764,-0.387811207835014,-1.48154733387328,1.05669955745315,-1.21508423768531,0.304073673133108,-0.993136060604527,NaN,0.522849200992037,-0.52284920099232,0.446376878252841,-0.104489201816372,-0.555178792502489,NaN,NaN,0.959056514215921,0.673404022361581,0.557163050399764,1.07852553915558,1.07852553915643,-0.428323522839945,NaN,0.724349161859124,NaN,-0.292664829752054,-0.445535993465088,1.10181537960022,0.204256425302652,0.204256425302522,NaN,-0.564018412929401,NaN
1354.0352,-0.502755700858668,0.0165981414266483,-0.49692203918691,-0.0445304701024645,0.236053854513543,0.236053854511375,NaN,NaN,0.411691235173248,0.85941532176669,0.207370741368412,0.859415321767619,0.532623690665164,-1.05797379469628,NaN,NaN,NaN,1.9085345089905,-0.378859022935525,0.014797021340107,-0.378859022935781,-1.45641727218996,1.0388620549634,-1.19426818838989,0.321263270174382,-1.0058930466482,NaN,0.513896719633915,-0.513896719634214,0.45964581113934,-0.110142575375757,-0.54739639538016,NaN,NaN,0.959513263350975,0.669008426852416,0.587566725710504,1.07878587434658,1.07878587434743,-0.425407730958351,NaN,0.721983734551938,NaN,-0.262596326071568,-0.445240195784578,1.11118093795465,0.207328828829619,0.207328828829493,NaN,-0.55034835616349,NaN
1354.1376,-0.529255189153242,0.0107861410330598,-0.532624824345089,-0.0346054719303667,0.213307857002254,0.213307857000073,NaN,NaN,0.38468562881579,0.860459654635629,0.201521964044407,0.860459654636548,0.53982177157022,-1.07361081591723,NaN,NaN,NaN,1.8728718138717,-0.369028412274468,0.0343083449609244,-0.369028412274671,-1.42995063104689,1.02052176434169,-1.17128158580909,0.338469888893134,-1.01839561448129,NaN,0.504281206433939,-0.504281206434239,0.472386110346892,-0.114882232653873,-0.538791327721323,NaN,NaN,0.959768686099163,0.664339637546765,0.61696246727804,1.07873723126375,1.07873723126461,-0.422719543524477,NaN,0.719246167304768,NaN,-0.231283747550794,-0.444970117560013,1.11957102987174,0.20979675304242,0.209796753042295,NaN,-0.536393240891247,NaN
1354.24,-0.555877192228191,0.00504774199946123,-0.568349771752849,-0.0252977097417912,0.190704445312173,0.190704445309979,NaN,NaN,0.357109156439841,0.860489305472051,0.195533180258653,0.86048930547296,0.546946820530447,-1.0891382977856,NaN,NaN,NaN,1.83527479506315,-0.358292653340496,0.0535457307452234,-0.35829265334064,-1.40215802282365,1.00169541087721,-1.14611129861522,0.355657135962929,-1.0305954554004,NaN,0.493997723017983,-0.493997723018279,0.484570746650686,-0.118693774491573,-0.52937799503376,NaN,NaN,0.95982287816653,0.659389960054514,0.645271284914752,1.07837157679773,1.07837157679859,-0.420271418894183,NaN,0.716119762878533,NaN,-0.19876265481966,-0.444716223418484,1.12692827279417,0.21164240355841,0.211642403558281,NaN,-0.522179968630176,NaN
1354.3424,-0.582544144513413,-0.000592433428307199,-0.603981553228803,-0.0166255494988125,0.168330130497462,0.168330130495251,NaN,NaN,0.329062264668474,0.859509064254801,0.189422852009545,0.8595090642557,0.55398378500444,-1.10451415755413,NaN,NaN,NaN,1.79579805713478,-0.346626353465149,0.0724930046038597,-0.346626353465243,-1.37305430484956,0.982400854032711,-1.11875219246994,0.372787773697582,-1.04244431332633,NaN,0.483043585282039,-0.483043585282333,0.496174382113908,-0.121566694498982,-0.51917607545136,NaN,NaN,0.959676368673284,0.654152114437316,0.672417816338953,1.0776820625582,1.07768206255907,-0.418075117340122,NaN,0.712588745028385,NaN,-0.165073688681553,-0.444468045046927,1.13319824103315,0.212850135528418,0.212850135528283,NaN,-0.507735967751312,NaN
1354.4448,-0.609178592482262,-0.00610969564052336,-0.63940486078391,-0.0086048113622614,0.146269742335237,0.146269742333014,NaN,NaN,0.300646472792698,0.857527588345525,0.18320974800373,0.857527588346413,0.560917239034384,-1.11969553032647,NaN,NaN,NaN,1.7545016969555,-0.334005728085485,0.0911350004780185,-0.334005728085535,-1.34265852717115,0.962656987540778,-1.08920723658898,0.389823848379273,-1.05389416911112,NaN,0.471418418150193,-0.471418418150491,0.507173428017878,-0.123494490938106,-0.508210431804777,NaN,NaN,0.959330093295575,0.648619212012687,0.698330621596952,1.07666302439162,1.0766630243925,-0.416141587165409,NaN,0.708638328573173,NaN,-0.130262491074249,-0.444214256881326,1.13832965038711,0.213406593597119,0.213406593596979,NaN,-0.493089027082878,NaN
1354.5472,-0.635703527277247,-0.0114794244159059,-0.674504945510502,-0.00124871836108464,0.124606026429858,0.124606026427622,NaN,NaN,0.271963820104273,0.854557343877594,0.176912884382247,0.854557343878473,0.56773138927583,-1.13463892874139,NaN,NaN,NaN,1.7114510721064,-0.320408870338238,0.109457592723738,-0.320408870338246,-1.31099386728487,0.942483646175361,-1.05748756152678,0.406726843181796,-1.06489742532994,NaN,0.459124195050052,-0.459124195050368,0.51754614140073,-0.124474754479984,-0.496511000381618,NaN,NaN,0.958785378056914,0.642784735492866,0.722942522994977,1.07530998335824,1.07530998335913,-0.414480859373881,NaN,0.704254781078917,NaN,-0.09437958398336,-0.443942762780338,1.1422745488748,0.213300843631486,0.21330084363134,NaN,-0.478267133342337,NaN
1354.6496,-0.662042709716617,-0.0166772098609957,-0.709168154538113,0.00543215695656153,0.103419247559173,0.103419247556926,NaN,NaN,0.243116321251748,0.850614549803221,0.170551465369571,0.850614549804084,0.574410100793082,-1.14930040721187,NaN,NaN,NaN,1.66671655113425,-0.305815998427791,0.127447731592486,-0.305815998427754,-1.27808754776981,0.921901524478658,-1.02361244534099,0.423457845871693,-1.07540709431396,NaN,0.446165265669749,-0.446165265670088,0.527272740881077,-0.124509227873222,-0.484112654697627,NaN,NaN,0.958043925267217,0.636642522165484,0.74619096374346,1.07361964289559,1.07361964289648,-0.413101946557664,NaN,0.699425473780901,NaN,-0.0574801961878245,-0.443640797334525,1.14498851705265,0.212524484414326,0.212524484414171,NaN,-0.463298318164971,NaN
1354.752,-0.688120982308708,-0.0216790044301948,-0.743282470297874,0.0114299348764745,0.0827867916571935,0.0827867916549331,NaN,NaN,0.214205425987157,0.845719116054566,0.164144824164658,0.84571911605542,0.580936939497579,-1.16363573796394,NaN,NaN,NaN,1.62037323546836,-0.290209683522855,0.145093494808518,-0.290209683522769,-1.24397072274761,0.900932099176326,-0.987609212372925,0.439977719898376,-1.08537699292102,NaN,0.432548379044635,-0.432548379045004,0.536335520335673,-0.123603835822435,-0.471055041413442,NaN,NaN,0.957107791482017,0.63018674947167,0.768018356873594,1.07158987756038,1.07158987756127,-0.41201274560749,NaN,0.694138926476686,NaN,-0.0196240192733635,-0.443295038140031,1.14643086289799,0.211071732296628,0.211071732296469,NaN,-0.448210507175962,NaN
1354.8544,-0.713864568535463,-0.0264612890803315,-0.776738056709673,0.0167394520112074,0.0627827643862057,0.0627827643839373,NaN,NaN,0.185331476082961,0.839894568383368,0.157712364892557,0.839894568384209,0.587295222478663,-1.17760060330873,NaN,NaN,NaN,1.5725006383919,-0.273575066710611,0.162384171499344,-0.273575066710489,-1.20867832481209,0.879597548237894,-0.949513040370916,0.456247271621967,-1.09476194533402,NaN,0.418282708218973,-0.418282708219371,0.544718948056178,-0.121768686171065,-0.457382386686442,NaN,NaN,0.955979351598911,0.623411921231444,0.788372408999281,1.06921971002118,1.06921971002208,-0.411219949068671,NaN,0.688384853722594,NaN,0.0191251233794392,-0.442891718388498,1.1465647928641,0.208939473851971,0.208939473851808,NaN,-0.433031366328121,NaN
1354.9568,-0.739201360815395,-0.0310012502300247,-0.809427809016247,0.0213582636632126,0.0434775928559753,0.0434775928536959,NaN,NaN,0.156593160415254,0.833167955636869,0.151273506198996,0.833167955637697,0.593468071414707,-1.19115080095663,NaN,NaN,NaN,1.5231823174458,-0.255900066949252,0.17931037899238,-0.255900066949082,-1.17224888210675,0.857920669355278,-0.909366693742793,0.472227410831693,-1.10351798995222,NaN,0.403379875047102,-0.403379875047522,0.552409747012389,-0.119018043816956,-0.443143272602163,NaN,NaN,0.954661250453732,0.616312854131143,0.807206414370674,1.0665092750573,1.06650927505822,-0.410728964160197,NaN,0.682154213947702,NaN,0.0586996906001149,-0.442416730573671,1.14535755909777,0.206127280973123,0.206127280972959,NaN,-0.417788153711551,NaN
1355.0592,-0.764061197464492,-0.0352769582158452,-0.841247894355215,0.0252866261355694,0.0249376433115114,0.0249376433092234,NaN,NaN,0.128086979641026,0.825569736661082,0.144847625465079,0.825569736661895,0.599438471613438,-1.20424245337793,NaN,NaN,NaN,1.47250547490957,-0.237175573658342,0.195864190560098,-0.237175573658131,-1.13472432384774,0.835924799814842,-0.867220224355586,0.487879304397092,-1.11160258270493,NaN,0.387853965650826,-0.387853965651276,0.559396955121603,-0.115370277060704,-0.428390385525488,NaN,NaN,0.953156349516214,0.608884668007433,0.824479517972764,1.06345977490091,1.06345977490183,-0.410543834395033,NaN,0.675439257971347,NaN,0.0990288884107663,-0.441855719734898,1.14278059888848,0.202637391968608,0.202637391968442,NaN,-0.402507584385731,NaN
1355.1616,-0.788376129613924,-0.0392675360570141,-0.872098268148586,0.0285274634719311,0.00722486803956779,0.00722486803727307,NaN,NaN,0.0999067333573524,0.817133646075619,0.138454001432087,0.817133646076414,0.605189340076468,-1.21683221242459,NaN,NaN,NaN,1.42056054880153,-0.217395617815444,0.212039249115844,-0.217395617815197,-1.09614978708327,0.813633733525524,-0.823130682234344,0.503164525933215,-1.11897479039927,NaN,0.371721525594348,-0.371721525594815,0.565671969175608,-0.110847774212698,-0.413180241300036,NaN,NaN,0.951467678095433,0.601122783394088,0.840156950964709,1.06007343367262,1.06007343367353,-0.410667166425226,NaN,0.668233572967736,NaN,0.140039142081791,-0.441194172394827,1.13880967886692,0.198474673816168,0.198474673816001,NaN,-0.38721570649705,NaN
1355.264,-0.812080679690888,-0.042953310454411,-0.90188315648884,0.0310863267489167,-0.00960351018406954,-0.00960351018637245,NaN,NaN,0.0721430372358362,0.807896542012155,0.132111754906981,0.807896542012919,0.610703601450576,-1.22887745352155,NaN,NaN,NaN,1.36744080773661,-0.196557517322709,0.227830854637016,-0.196557517322431,-1.05657342910853,0.791071633639507,-0.77716185102961,0.518045207513027,-1.12559547137745,NaN,0.355001527236441,-0.355001527236938,0.571228582577718,-0.105476827766925,-0.397572891051679,NaN,NaN,0.949598395386386,0.593022924120379,0.854210249237264,1.05635345383403,1.05635345383495,-0.41110006992767,NaN,0.660532119536053,NaN,0.181654551181877,-0.440417509911552,1.13342504243565,0.193646577535966,0.193646577535797,NaN,-0.371937787753774,NaN
1355.3664,-0.835112090241875,-0.0463159416040899,-0.930511498393723,0.0329713501717528,-0.0254952735455417,-0.0254952735478467,NaN,NaN,0.0448828735699253,0.797898240087648,0.125839788289179,0.797898240088393,0.615964268776157,-1.24033645631721,NaN,NaN,NaN,1.31324195237325,-0.174661991205907,0.243236023015731,-0.174661991205603,-1.01604624483472,0.768262946145713,-0.729383993654259,0.532484196417478,-1.13142744283818,NaN,0.337715305465465,-0.337715305465982,0.576063022109669,-0.0992874849215752,-0.381631604340179,NaN,NaN,0.947551765244161,0.58458111940777,0.866617459922124,1.05230397142771,1.05230397142863,-0.411842112982992,NaN,0.652331261829647,NaN,0.223797330553319,-0.439511189470758,1.12661155171852,0.188163087048994,0.188163087048822,NaN,-0.356698220061244,NaN
1355.4688,-0.857410559191915,-0.0493385304021983,-0.957897341861089,0.0341931953467903,-0.040403444246426,-0.0404034442487305,NaN,NaN,0.0182091757281552,0.787181333498022,0.119656720196981,0.787181333498743,0.620954524067127,-1.25116857172032,NaN,NaN,NaN,1.25806172727351,-0.151713241664636,0.258253516564185,-0.151713241664316,-0.974621887033203,0.745232319385547,-0.679873591045809,0.546445210102955,-1.13643563494479,NaN,0.319886461808697,-0.319886461809245,0.580173971187552,-0.0923133632432492,-0.365422523624356,NaN,NaN,0.945331143113991,0.575793702694778,0.877363317455233,1.04793000772697,1.04793000772789,-0.41289129306782,NaN,0.643628793299225,NaN,0.266388237044476,-0.438460807591233,1.11835881759577,0.18203665922573,0.182036659225554,NaN,-0.341520455037476,NaN
1355.5712,-0.878919459027014,-0.0520057016834959,-0.98396018919095,0.0347649698507778,-0.054286477397469,-0.0542864773997719,NaN,NaN,-0.00779955438468715,0.775790994992615,0.11358080986968,0.775790994993323,0.625657790440965,-1.26133437801617,NaN,NaN,NaN,1.20199955299665,-0.127719012445384,0.272883847126684,-0.127719012445043,-0.932356493214818,0.722004532204028,-0.628713077062781,0.559892978638962,-1.14058723209655,NaN,0.301540740534545,-0.301540740535132,0.58356255954464,-0.0845914282253094,-0.349014291921297,NaN,NaN,0.942939973390872,0.566657309054017,0.886439356789087,1.04323741849189,1.04323741849281,-0.414244028155897,NaN,0.634423961048442,NaN,0.309346961705094,-0.437252201867349,1.10866131398145,0.175282157571053,0.175282157570873,NaN,-0.326426980968254,NaN
1355.6736,-0.899585538000821,-0.0543036646461062,-1.00862529124807,0.0347021154501575,-0.0671084091496876,-0.0671084091519877,NaN,NaN,-0.0330695919602687,0.763774758252501,0.107629873873255,0.763774758253189,0.630057792103771,-1.2707958284746,NaN,NaN,NaN,1.14515618619821,-0.10269063693712,0.287129254855774,-0.102690636936771,-0.889308531026146,0.698604438733954,-0.575990580397782,0.572793370136671,-1.14385180081144,NaN,0.282705882361032,-0.282705882361651,0.586232309791259,-0.0761617327618899,-0.332477662549815,NaN,NaN,0.940381793811555,0.557168876128405,0.893843941076474,1.03823284173278,1.03823284173371,-0.415895170461981,NaN,0.624717488271302,NaN,0.352592467316735,-0.435871557287214,1.0975184714854,0.167916783435847,0.167916783435662,NaN,-0.311439342068672,NaN
1355.776,-0.919359099131984,-0.0562202559251004,-1.03182389405136,0.0340222691661765,-0.0788389599459038,-0.0788389599481982,NaN,NaN,-0.0575322892439969,0.751182281636755,0.101821203999828,0.751182281637423,0.634138608631875,-1.27951639070379,NaN,NaN,NaN,1.08763340507545,-0.076643091156894,0.300993668637073,-0.0766430911565315,-0.845538669099878,0.675056939247832,-0.521799668496256,0.585113499670983,-1.14620140247776,NaN,0.263411462291287,-0.263411462291942,0.588189040772576,-0.0670671273612866,-0.315885094706457,NaN,NaN,0.937660242341121,0.547325654040386,0.899582197996284,1.03292364315835,1.03292364315928,-0.41783803636772,NaN,0.614511589908834,NaN,0.396043264818824,-0.434305526972715,1.08493474479637,0.159960005666455,0.159960005666268,NaN,-0.296578186153246,NaN
1355.8784,-0.938194153061059,-0.0577449716961171,-1.05349344269597,0.0327451017108309,-0.0894535947965302,-0.0894535947988136,NaN,NaN,-0.0811243239127966,0.73806510279226,0.0961714939262243,0.73806510279291,0.637884732603558,-1.28746117665632,NaN,NaN,NaN,1.02953371156475,-0.0495950698506805,0.314482656443934,-0.0495950698503167,-0.801109665471584,0.651386974652917,-0.46623907937813,0.596821823283163,-1.14761068905052,NaN,0.243688718059645,-0.243688718060339,0.589440731593445,-0.0573529532250537,-0.29931033026843,NaN,NaN,0.934779063072357,0.53712522768239,0.903665872332534,1.02731785851599,1.02731785851691,-0.420064440573786,NaN,0.603809975764805,NaN,0.439617624348518,-0.432541367646639,1.07091964965473,0.151433486427706,0.151433486427517,NaN,-0.281863318155331,NaN
1355.9808,-0.956048543730479,-0.0588689927238387,-1.07357774710316,0.0308921409205089,-0.098933541888557,-0.0989335418908288,NaN,NaN,-0.103787895031271,0.724476394395605,0.0906967801772919,0.724476394396239,0.641281135595626,-1.29459706185482,NaN,NaN,NaN,0.970960046993045,-0.0215690982490747,0.327603373166369,-0.0215690982487143,-0.756086262084098,0.627619534132491,-0.409412437456141,0.607888221416779,-1.14805698024952,NaN,0.223570373609769,-0.223570373610497,0.589997357096266,-0.0470667263059653,-0.282827947541551,NaN,NaN,0.931742109640116,0.526565552053922,0.906113113729693,1.02142413181595,1.02142413181688,-0.422564723490399,NaN,0.59261783786331,NaN,0.483233719901677,-0.430567082658985,1.05548776936188,0.142360999749915,0.142360999749721,NaN,-0.267313741825531,NaN
1356.0832,-0.972884046159662,-0.0595852042113603,-1.09202711148393,0.0284865885789417,-0.107265770789264,-0.107265770791524,NaN,NaN,-0.125470867658719,0.71047072596814,0.0854124000255756,0.71047072596876,0.644313345062058,-1.3008927925498,NaN,NaN,NaN,0.912015524122635,0.00740832866057159,0.340364507986015,0.0074083286609233,-0.710535082391482,0.603779671425173,-0.351427956568746,0.618284076376582,-1.14752032146863,NaN,0.203090458563493,-0.203090458564258,0.589870708074635,-0.036257818162383,-0.266512893063248,NaN,NaN,0.928553346045291,0.515644999773302,0.906948220864433,1.01525164852632,1.01525164852725,-0.425327767339081,NaN,0.580941821998194,NaN,0.526809726716399,-0.428371566900268,1.03865873595614,0.132768339861142,0.132768339860946,NaN,-0.252947683533595,NaN
1356.1856,-0.988666434426196,-0.059888210454832,-1.10879842556699,0.0255531334447579,-0.114442932031473,-0.114442932033716,NaN,NaN,-0.146126868544213,0.696103829298379,0.0803329620008978,0.696103829298987,0.646967532954521,-1.3063190799407,NaN,NaN,NaN,0.852803177815337,0.0373066054086536,0.352776226376755,0.0373066054089948,-0.664524533607333,0.579892529621261,-0.292398134410709,0.627982343865284,-1.14598352237769,NaN,0.182284121670334,-0.182284121671138,0.589074203336415,-0.024977139493299,-0.250439997064706,NaN,NaN,0.925216846530531,0.504362419705364,0.906201355983992,1.00881006640624,1.00881006640716,-0.428341006320555,NaN,0.568789985448372,NaN,0.570263903590232,-0.425944750078302,1.02045719280866,0.122683218690638,0.122683218690438,NaN,-0.238782600214953,NaN
1356.288,-1.00336551874211,-0.0597743423323533,-1.12385521363735,0.0221177614205269,-0.120463259169135,-0.120463259171365,NaN,NaN,-0.165715335557825,0.681432363721324,0.0754723212284721,0.681432363721922,0.649230614414545,-1.3108486813189,NaN,NaN,NaN,0.793425735641859,0.0680908994543305,0.364850099208929,0.0680908994546562,-0.618124714692289,0.555983371709216,-0.232439447719791,0.636957617758836,-1.14343217718903,NaN,0.161187436191445,-0.161187436192291,0.587622699313312,-0.0132768295927635,-0.234683482433529,NaN,NaN,0.921736797612338,0.492717206016384,0.903908241133688,1.00210945034703,1.00210945034797,-0.431590440681276,NaN,0.556171743871026,NaN,0.613514682397001,-0.423277734725782,1.00091274455932,0.112135156091924,0.112135156091717,NaN,-0.224835174542968,NaN
1356.3904,-1.01695515133804,-0.0592416563450942,-1.13716763926463,0.018207567988351,-0.125330434907999,-0.125330434910212,NaN,NaN,-0.184201520997338,0.666513681536628,0.0708435556121381,0.666513681537221,0.651090354334649,-1.31445646895073,NaN,NaN,NaN,0.73398541139056,0.0997220740369872,0.376599014744204,0.0997220740372901,-0.571407327762583,0.532077612312237,-0.171672053250014,0.645186191016211,-1.1398546686184,NaN,0.139837198832578,-0.139837198833458,0.585532308345857,-0.00120995247279965,-0.219316477327764,NaN,NaN,0.918117504086461,0.480709377050954,0.900109852550075,0.995160215642803,0.995160215643737,-0.435060658196794,NaN,0.543097810665761,NaN,0.65648077756067,-0.420362923809867,0.980059901000944,0.101155365732875,0.10115536573266,NaN,-0.211121297284432,NaN
1356.4928,-1.02941319992835,-0.0582899262088715,-1.14871246587075,0.0138505761811113,-0.129053425685051,-0.129053425687249,NaN,NaN,-0.201556449735629,0.651405595423842,0.0664589400296342,0.651405595424433,0.652535479006104,-1.31711948793579,NaN,NaN,NaN,0.674583721021005,0.132156661443545,0.38803707323657,0.132156661443828,-0.524445579123499,0.50820084245519,-0.110219479209645,0.652646114355673,-1.13524215811998,NaN,0.118270726790601,-0.118270726791523,0.582820233247868,0.0111697993142755,-0.204410533963555,NaN,NaN,0.914363398165276,0.468339662425295,0.894852125994216,0.987973079333268,0.987973079334206,-0.43873485881565,NaN,0.529580132747236,NaN,0.699081333129054,-0.417194127781724,0.957938018113216,0.0897766301371484,0.0897766301369281,NaN,-0.197656037959156,NaN
1356.5952,-1.04072148741261,-0.0569206281993169,-1.15847297345597,0.00907555199373714,-0.131646291371974,-0.131646291374158,NaN,NaN,-0.217756840479286,0.636166144573112,0.0623299098477899,0.636166144573716,0.653555784651798,-1.318817004766,NaN,NaN,NaN,0.615321313215024,0.165346902241133,0.399179463529499,0.165346902241383,-0.47731404876496,0.484378836828351,-0.0482082789315439,0.659317246034847,-1.12958856530874,NaN,0.0965256561014467,-0.0965256561023956,0.579504609611011,0.0238083939069725,-0.190035148877266,NaN,NaN,0.910479049399545,0.455609593564878,0.888185665275861,0.980559016642042,0.980559016642977,-0.442594879884246,NaN,0.515631828972077,NaN,0.741236126842681,-0.413766641009244,0.934591230211329,0.0780331524152353,0.0780331524150089,NaN,-0.184453613665355,NaN
1356.6976,-1.05086569829656,-0.0551369214181738,-1.16643883364414,0.00391179901691358,-0.133127978394903,-0.133127978397075,NaN,NaN,-0.23278500412107,0.620853348085041,0.0584670019529624,0.620853348085657,0.654142229581873,-1.31953055056455,NaN,NaN,NaN,0.556297805064068,0.199240868737739,0.410042319426142,0.199240868737946,-0.430088516251748,0.460637540220457,0.0142323757116014,0.665181278530376,-1.12289054025217,NaN,0.0746397426290965,-0.0746397426300771,0.575604332633487,0.0366517457853543,-0.176257280825302,NaN,NaN,0.906469171386207,0.442521588607655,0.88016542523069,0.972929216988248,0.972929216989182,-0.446621227135066,NaN,0.501267137571751,NaN,0.782865840181847,-0.410077292390227,0.910068363823098,0.0659603797782669,0.0659603797780343,NaN,-0.171527370317689,NaN
