time,S1-D1,S1-D8,S1-D9,S1-D15,S2-D1,S2-D2,S2-D3,S2-D9,S3-D1,S3-D2,S3-D16,S4-D2,S4-D3,S4-D5,S5-D3,S5-D4,S5-D5,S6-D2,S6-D5,S6-D17,S7-D6,S7-D7,S8-D6,S8-D7,S8-D18,S9-D3,S9-D4,S9-D9,S9-D11,S9-D19,S10-D8,S10-D9,S10-D10,S10-D11,S11-D8,S11-D10,S11-D20,S12-D10,S12-D11,S12-D12,S13-D4,S13-D11,S13-D12,S14-D10,S14-D12,S14-D21,S15-D13,S15-D14,S16-D13,S16-D14,S16-D22
1449.472,-0.604890482724907,1.86661461606083,0.639736648566974,-1.91581823239513,2.88736407162165,2.88736407162131,-0.635210125592655,0.844251867067204,-0.0729972612041885,-3.19811683897815,-0.71338157696882,-3.19811683897846,-0.630755750594479,NaN,NaN,NaN,NaN,2.2816704562978,-1.01428728014933,1.26752396475234,-1.01428728014558,1.02120996474018,0.114627612118018,1.62906765327009,0.428324779927598,0.721435677190736,NaN,NaN,0.151592714076583,-1.81750563013914,-0.603348218971795,-0.186897133812986,-0.499095982062813,0.873327258868351,-0.0906474686262608,0.620298005268958,NaN,-0.474589836790499,-0.0601813195609053,1.49653600241235,NaN,NaN,NaN,0.0936254342251525,0.387992282546076,0.459173646274331,0.109204724412208,0.109204724412959,0.85568923326991,-0.855689233271234,0.444619391994321
1449.5744,-0.543665110840776,1.88240318276938,0.691561971415099,-1.93195577089139,2.86716147134054,2.8671614713402,-0.646194638768007,0.840819504819494,-0.0965689975770501,-3.14663180839105,-0.697978174184987,-3.14663180839137,-0.636769838737315,NaN,NaN,NaN,NaN,2.24876357234231,-1.01759544880262,1.27902332328206,-1.0175954487989,1.02407438952065,0.128108686960707,1.65559784929892,0.410034170083317,0.719195169324459,NaN,NaN,0.124905459879892,-1.84471757955678,-0.572321044817126,-0.163554721773532,-0.461436922039223,0.847613710178396,-0.0944197345674378,0.599191380445406,NaN,-0.477712147333849,-0.0870533788564476,1.49905598358821,NaN,NaN,NaN,0.0934244187807394,0.377682910600964,0.446747500409882,0.0974426605322289,0.0974426605329827,0.835563840546954,-0.835563840548288,0.444136313228315
1449.6768,-0.48155930181128,1.89680537298228,0.743213804611733,-1.9479352354237,2.8448304975352,2.84483049753488,-0.656199075350257,0.83720568851212,-0.118640979101276,-3.09163540145184,-0.68297992963694,-3.09163540145217,-0.641325117885078,NaN,NaN,NaN,NaN,2.21494523954371,-1.02097342307919,1.29084103289675,-1.02097342307548,1.02621011128601,0.141974922043931,1.68174485257898,0.390962621016156,0.716048205604635,NaN,NaN,0.0977978610718994,-1.87173995580728,-0.541310367461741,-0.13982892738128,-0.423452193324112,0.821701228036367,-0.0982872941028992,0.577892283950625,NaN,-0.480591417034036,-0.114133083970276,1.50093230491575,NaN,NaN,NaN,0.0929205342393097,0.367606699457449,0.43423403759197,0.0858482215445427,0.0858482215453,0.814834158745432,-0.814834158746771,0.443651404065692
1449.7792,-0.418720975240316,1.90983651764137,0.794597390427599,-1.96367454960114,2.82044999367914,2.82044999367884,-0.665198593999301,0.833431852632459,-0.139142982909178,-3.03323282073968,-0.668459119803353,-3.03323282074,-0.644468879838023,NaN,NaN,NaN,NaN,2.18040333843923,-1.02442966193839,1.30297829588794,-1.02442966193467,1.02758381872603,0.156194312007318,1.70740835282448,0.371193750951686,0.71204834830937,NaN,NaN,0.0703112245289055,-1.89844401925366,-0.510404744644075,-0.115804996810431,-0.385265547348994,0.795673575007112,-0.102181113849375,0.556494517710618,NaN,-0.48315974130378,-0.141345650398817,1.50217068931856,NaN,NaN,NaN,0.0921141517276769,0.357825558872469,0.421645218366872,0.0744294444181618,0.0744294444189291,0.793556824363968,-0.793556824365308,0.443153669308064
1449.8816,-0.355295851893443,1.9215146150508,0.845621028401416,-1.97909240884776,2.79410134164064,2.79410134164036,-0.673170020643359,0.829520617498084,-0.158006252226545,-2.97153441890633,-0.654487207705347,-2.97153441890666,-0.646251911877063,NaN,NaN,NaN,NaN,2.14532382830446,-1.02797283571299,1.31543464570682,-1.02797283570927,1.02816228198495,0.170736107354863,1.73249025022758,0.350812145176413,0.707251245409493,NaN,NaN,0.0424889887221988,-1.92470045469677,-0.479690462977677,-0.0915654306217092,-0.346997073251669,0.769613866229042,-0.106032112836949,0.535091415146861,NaN,-0.485353586230137,-0.168619989633244,1.50277862634972,NaN,NaN,NaN,0.0910050033427662,0.348401157100867,0.408993018958154,0.0631944077807787,0.0631944077815469,0.771787612321515,-0.771787612322861,0.442631790191313
1449.984,-0.291427114200963,1.93186011290885,0.896196188738902,-1.99410847303166,2.76586815085802,2.76586815085776,-0.680091912922488,0.825495659030074,-0.175163770868601,-2.90665528236715,-0.64113448782724,-2.90665528236749,-0.646728326963459,NaN,NaN,NaN,NaN,2.10988983466656,-1.03161182456418,1.32820805902698,-1.03161182456043,1.02791261703662,0.185570813978502,1.75689502688092,0.329903115074921,0.701714312960916,NaN,NaN,0.0143764173709735,-1.95037994215004,-0.449251140601412,-0.0671896827529095,-0.308762713783106,0.743604210090536,-0.109771602356629,0.513775375354746,NaN,-0.487114066190214,-0.195888955967833,1.50276539129004,NaN,NaN,NaN,0.0895921774280068,0.339394625221196,0.396289444570116,0.0521512142588902,0.0521512142596609,0.749581224638485,-0.74958122463983,0.442074161794511
1450.0864,-0.227255057734728,1.94089568275983,0.946237627710459,-2.00864352394081,2.73583593331691,2.73583593331666,-0.685944620434423,0.821381566436643,-0.19055054530864,-2.83871480794519,-0.628469710863617,-2.83871480794553,-0.64595541488965,NaN,NaN,NaN,NaN,2.07428074289052,-1.0353557346946,1.34129505536,-1.03535573469082,1.02680259429352,0.200670202353115,1.78053019661729,0.308552479174579,0.69549639510312,NaN,NaN,-0.0139797450209488,-1.97535372410833,-0.419167373109237,-0.0427539083226809,-0.270673847940349,0.717725354604973,-0.113331726016045,0.492637401498802,NaN,-0.488387141885843,-0.22308953645951,1.50214203225,NaN,NaN,NaN,0.0878741269738075,0.330866256880772,0.383546553523844,0.0413079716099488,0.0413079716107175,0.726991092180617,-0.726991092181972,0.441468936234418
1450.1888,-0.162916724920982,1.94864599043274,0.995663513191589,-2.02261958671088,2.70409175979434,2.70409175979412,-0.690710343869745,0.817203693839151,-0.204103892287337,-2.76783626164887,-0.616559686736519,-2.76783626164921,-0.643993507277029,NaN,NaN,NaN,NaN,2.03867130205021,-1.03921392651638,1.35469078960734,-1.03921392651257,1.02480100264,0.216007319800333,1.80330683800326,0.286846364578883,0.688657401283234,NaN,NaN,-0.0425316616870643,-1.9994941679896,-0.389516425846443,-0.0183307643969897,-0.23283694566794,0.692056341797492,-0.116645900685085,0.471766644872632,NaN,-0.489123743468212,-0.25016298367985,1.50092132548032,NaN,NaN,NaN,0.0858486963645309,0.322875202198743,0.370776491415853,0.0306727706559683,0.0306727706567364,0.70406919215285,-0.704069192154208,0.440804070971554
1450.2912,-0.0985455122479186,1.95513746448259,1.0443955676096,-2.03596002041656,2.67072389265277,2.67072389265257,-0.694373197635665,0.81298800889039,-0.215763736280815,-2.69414631114457,-0.605468869250719,-2.69414631114491,-0.640905847500721,NaN,NaN,NaN,NaN,2.00323073772632,-1.04319604966837,1.3683891429692,-1.04319604966452,1.02187806913452,0.231556496264729,1.82514019488328,0.264871023761313,0.681257920026789,NaN,NaN,-0.0712308381251029,-2.02267532714547,-0.3603719631395,0.00601073787570632,-0.195353287984847,0.666674168251294,-0.119649259241118,0.451249952821694,NaN,-0.489279829288838,-0.277054900715218,1.49911770469781,NaN,NaN,NaN,0.0835131714234471,0.315479149696019,0.357991526949909,0.0202536568815196,0.0202536568822892,0.680865878425872,-0.680865878427227,0.440067380411699
1450.3936,-0.0342707530085685,1.96039806557687,1.09235922854462,-2.04858959008181,2.63582139769163,2.63582139769146,-0.696919282295263,0.808760937039763,-0.225472929622894,-2.61777453531787,-0.595258931334524,-2.61777453531822,-0.636758456536143,NaN,NaN,NaN,NaN,1.96812187276959,-1.04731208356956,1.38238281320852,-1.04731208356568,1.01800591400264,0.247293338273577,1.84595030689084,0.242712660203966,0.673358813174492,NaN,NaN,-0.100028587843957,-2.04477350044297,-0.331803801839199,0.0302053375592278,-0.15831873870025,0.641653439270519,-0.122279097183608,0.431171410131741,NaN,-0.488816394041825,-0.303715297204614,1.49674717282637,NaN,NaN,NaN,0.0808643538982859,0.308733988334426,0.345204077673919,0.0100585934397699,0.010058593440537,0.65742971659962,-0.657429716600968,0.439246589338406
1450.496,0.0297827042316097,1.96445706317852,1.13948381647652,-2.06043453421685,2.59947374747667,2.59947374747652,-0.698336770801617,0.80454919378605,-0.233177611758878,-2.53885292533393,-0.585988342821159,-2.53885292533428,-0.631619985116326,NaN,NaN,NaN,NaN,1.93350026544709,-1.05157238330348,1.39666340076386,-1.05157238329956,1.01315900458811,0.263194710147929,1.86566261721761,0.220457258456307,0.665020802483792,NaN,NaN,-0.128876498434617,-2.06566777832191,-0.303877687764663,0.0541915922805679,-0.121823560271126,0.617065993547037,-0.124475328278727,0.411611854130072,NaN,-0.487699435245305,-0.330098633438739,1.49382720041315,NaN,NaN,NaN,0.0778986554720754,0.302693448267769,0.332426717482845,9.54175807117024e-05,9.54175814798357e-05,0.633807317777752,-0.633807317779094,0.438329388949784
1450.5984,0.0934948897176006,1.96734482345538,1.18570268972055,-2.07142263756453,2.56177042841767,2.56177042841754,-0.698616007893952,0.800379594911071,-0.238827618897993,-2.457515388309,-0.577711961873818,-2.45751538830934,-0.625561541884104,NaN,NaN,NaN,NaN,1.89951338281515,-1.05598773147747,1.41122148424997,-1.05598773147352,1.00731457489807,0.279238700292239,1.88420850704094,0.198190415257443,0.656304060550258,NaN,NaN,-0.157726868568767,-2.08524055597109,-0.276655108113887,0.0779119117578181,-0.0859522800957051,0.592980476739105,-0.126180954914467,0.392648344666822,NaN,-0.485899872139281,-0.35616385380481,1.49037660444121,NaN,NaN,NaN,0.074612200573297,0.297408729371439,0.319672163887618,-0.00962820338210089,-0.00962820338133882,0.610043172076683,-0.61004317207801,0.437303497411831
1450.7008,0.156751054947563,1.96909260092017,1.2309533653585,-2.08148330947957,2.52280055102211,2.52280055102201,-0.69774961965548,0.796278841477019,-0.242376942766466,-2.37389724726209,-0.570480645069458,-2.37389724726243,-0.618656493065463,NaN,NaN,NaN,NaN,1.86629981738939,-1.06056939916354,1.42604667802102,-1.06056939915954,1.0004529981054,0.295404569401901,1.90152573354354,0.17599716508694,0.647267804415829,NaN,NaN,-0.186533107679919,-2.10337800115788,-0.250193150482583,0.101312554110378,-0.0507836152582005,0.569461860998921,-0.127342549753094,0.374353588242615,NaN,-0.483393397328388,-0.381874393085504,1.48641539664436,NaN,NaN,NaN,0.0710009264841927,0.292928131001618,0.306953247530505,-0.0191048109059776,-0.01910481090522,0.586179487182053,-0.58617948718337,0.436156725734492
1450.8032,0.219441960375734,1.96973231384871,1.27517759263555,-2.09054765676781,2.48265244862363,2.48265244862356,-0.695732630126154,0.792273286134058,-0.243784224895788,-2.28813471221476,-0.56434087041201,-2.28813471221511,-0.610980242638911,NaN,NaN,NaN,NaN,1.83398853316227,-1.06532921692564,1.44112766945868,-1.06532921692162,0.992558118743676,0.311672687796451,1.91755879303671,0.153961790154176,0.637969873753356,NaN,NaN,-0.215250115726361,-2.11997047662449,-0.224544397308591,0.124343586802925,-0.0163904478827859,0.546570932509125,-0.127910728156847,0.35679534202085,NaN,-0.480160240648867,-0.407198133940657,1.48196459635479,NaN,NaN,NaN,0.067060674094307,0.289296691494456,0.294282867702629,-0.0283271867152055,-0.0283271867144523,0.562256034794592,-0.562256034795892,0.434877047941756
1450.9056,0.281464117055835,1.96929628207995,1.31832137271117,-2.09854853470845,2.44141325022366,2.44141325022362,-0.692562584835732,0.788388691880257,-0.243013272424125,-2.20036429492438,-0.559334359530345,-2.20036429492472,-0.602610009255173,NaN,NaN,NaN,NaN,1.80269811743708,-1.07027964733697,1.45645224314207,-1.07027964733291,0.983617556265704,0.328024481751618,1.93225925878314,0.132167605446459,0.628466272622432,NaN,NaN,-0.243834671892504,-2.13491292623762,-0.19975682561207,0.146958818636642,0.0171601712767623,0.524363782438811,-0.127840578845109,0.34003583886151,NaN,-0.476184835419924,-0.432107303390373,1.47704600958511,NaN,NaN,NaN,0.0627872705796233,0.286555837057692,0.281673935975231,-0.0372883788448453,-0.0372883788440955,0.538310004432101,-0.538310004433382,0.433452673661195
1451.008,0.342719980170353,1.96781691957897,1.36033491898859,-2.10542056734653,2.39916843236026,2.39916843236026,-0.68823968767247,0.78464999346495,-0.240033594088644,-2.11072216146969,-0.555497689589804,-2.11072216147004,-0.593624608895199,NaN,NaN,NaN,NaN,1.77253602652102,-1.07543384230907,1.472007302577,-1.07543384230498,0.9736229862305,0.344442402492472,1.94558612513962,0.110696715414759,0.618810669358987,NaN,NaN,-0.272245849535779,-2.14810524104785,-0.17587368523724,0.169115707623641,0.0498070101506834,0.502891328661848,-0.127092025372943,0.324131266148356,NaN,-0.471455393937859,-0.456578312650276,1.47168197977477,NaN,NaN,NaN,0.0581766124177956,0.284743035736317,0.269139307835376,-0.0459817275681237,-0.0459817275673834,0.5143758660294,-0.514375866030656,0.431872122267855
1451.1104,0.403118073132403,1.96532639616659,1.40117255131334,-2.11110013858415,2.35600138007965,2.35600138007968,-0.682766960464654,0.781081067552612,-0.234820965337946,-2.01934344882849,-0.552861900785569,-2.01934344882884,-0.584104242628151,NaN,NaN,NaN,NaN,1.74359783410255,-1.08080567152125,1.48777889431677,-1.08080567151713,0.962570396461142,0.360909910170086,1.95750614146548,0.0896297523133037,0.609053875169428,NaN,NaN,-0.300445446873879,-2.15945262186182,-0.152933350118001,0.190775245663565,0.0814946374219637,0.482198874219933,-0.125630110110834,0.309131306605161,NaN,-0.465963419798426,-0.48059156014967,1.46589512069158,NaN,NaN,NaN,0.0532247557353965,0.283891459603996,0.25669170201574,-0.054400896390851,-0.0544008963901161,0.490485246401563,-0.490485246402799,0.430124298806575
1451.2128,0.462573015218917,1.96185630353618,1.4407925251215,-2.11552535850007,2.31199300278832,2.31199300278838,-0.676150428223458,0.777704514601322,-0.227358024096998,-1.92636159405107,-0.551452120423624,-1.92636159405141,-0.574130287097492,NaN,NaN,NaN,NaN,1.71596651449454,-1.08640972007955,1.50375223138432,-1.08640972007541,0.950460303960656,0.377411451585688,1.9679940803474,0.0690456216663762,0.599243345990808,NaN,NaN,-0.328398395356308,-2.16886594405223,-0.130969157919075,0.21190182138773,0.112173391997104,0.462325693203326,-0.1234252101106,0.295078729906528,NaN,-0.45970320531528,-0.504131225371792,1.4597080474984,NaN,NaN,NaN,0.0479280113310352,0.284029673602308,0.244343610068046,-0.0625399086700765,-0.0625399086693523,0.466666825736478,-0.466666825737689,0.428198570384987
1451.3152,0.521005439480009,1.95743736900602,1.47915681100546,-2.11863601117816,2.26722144706211,2.26722144706221,-0.668399320166989,0.774541457644016,-0.217634873383418,-1.83190772820922,-0.551287233032593,-1.83190772820956,-0.563785082794679,NaN,NaN,NaN,NaN,1.68971181628527,-1.09226126400614,1.51991170660094,-1.09226126400199,0.937297906141541,0.393932413526081,1.97703287264343,0.0490212828728477,0.589422759982314,NaN,NaN,-0.356073094988208,-2.17626211462332,-0.110009261362389,0.232463068580048,0.141799333374777,0.443304638282481,-0.120453197936006,0.282009024950447,NaN,-0.452671372707106,-0.527185077879152,1.45314312459366,NaN,NaN,NaN,0.0422830361448522,0.285181379663264,0.232107202815398,-0.0703931846774457,-0.070393184676731,0.442946261208686,-0.442946261209871,0.426084838965748
1451.4176,0.578341811575311,1.95209924671853,1.51623084906753,-2.12037350060319,2.22176192085318,2.22176192085331,-0.659526262860271,0.77161136706067,-0.205649637896565,-1.7361101705862,-0.552379627371377,-1.73611017058652,-0.553151705025479,NaN,NaN,NaN,NaN,1.6648897923519,-1.09837623346438,1.5362408837718,-1.09837623346023,0.923093135382675,0.410459048325196,1.98461356007091,0.0296315772239065,0.579631707362316,NaN,NaN,-0.383441634604818,-2.18156439835018,-0.0900765126868666,0.252429713181784,0.170334172333689,0.42516178387819,-0.116695549304336,0.269950082553479,NaN,-0.444866509105535,-0.549744314177072,1.44622224805656,NaN,NaN,NaN,0.0362869157416475,0.287365241939872,0.219994241831862,-0.0779555693501372,-0.0779555693494309,0.419346145875378,-0.419346145876534,0.423773605865921
1451.52,0.634514178225409,1.94587038960125,1.55198330002007,-2.12068082059743,2.17568660933577,2.17568660933593,-0.649547435451966,0.768931918319464,-0.191408913133071,-1.63909403305618,-0.554735044117738,-1.6390940330565,-0.542313696896676,NaN,NaN,NaN,NaN,1.64154253944414,-1.10477116800119,1.55272246183323,-1.10477116799702,0.907860596146711,0.426978386074221,1.99073506016867,0.0109490954390471,0.56990550240772,NaN,NaN,-0.410479879590057,-2.1847026838056,-0.0711883990290769,0.271775429815338,0.197745181589098,0.407916138662684,-0.11213938396448,0.258921960034464,NaN,-0.43628892283861,-0.571803422588936,1.43896667582867,NaN,NaN,NaN,0.0299372363119915,0.290594806285568,0.20801600170942,-0.0852223402181538,-0.085222340217459,0.395886008788228,-0.395886008789351,0.421256024428969
1451.6224,0.689459873089586,1.93877798875743,1.58638580489736,-2.11950256964416,2.12906465210076,2.12906465210094,-0.638482666382901,0.766518882721687,-0.174928070700182,-1.54098093036364,-0.558352534656174,-1.54098093036396,-0.531354754269738,NaN,NaN,NaN,NaN,1.61969817302676,-1.11146316525645,1.56933822053022,-1.11146316525228,0.891619384736695,0.443478153592159,1.99540377730719,-0.00695593316043968,0.560275108744469,NaN,NaN,-0.437167434235359,-2.18561366947569,-0.0533570408112108,0.290476710449752,0.224005081980704,0.39157946293306,-0.106777420557141,0.248936763057623,NaN,-0.426940526810606,-0.593360071186865,1.43139691026189,NaN,NaN,NaN,0.0232321465054636,0.294878512104907,0.196183205980929,-0.0921891911352181,-0.0921891911345349,0.372582357715198,-0.372582357716291,0.418523938688115
1451.7248,0.743121193053583,1.93084796678784,1.6194127547765,-2.11678501815078,2.08196216640067,2.08196216640088,-0.626355470863071,0.764386048283751,-0.156231422136254,-1.44188879422611,-0.563224528905453,-1.44188879422642,-0.520358370300523,NaN,NaN,NaN,NaN,1.59937103830591,-1.11846982849914,1.58606895961112,-1.11846982849499,0.874392810618746,0.459946705749091,1.99863309572646,-0.0240157475332882,0.550767163328815,NaN,NaN,-0.463487498664169,-2.18424097253423,-0.0365892546890084,0.308512742026539,0.249091900548917,0.376156210003726,-0.100607835074958,0.239998663794147,NaN,-0.416824843694164,-0.614415018074367,1.42353262892951,NaN,NaN,NaN,0.0161704112052294,0.300219783153903,0.184505979489331,-0.098852195815138,-0.0988521958144652,0.349448763931527,-0.349448763932586,0.415569907922427
1451.8272,0.795445046932554,1.92210501785181,1.65104106781474,-2.1124762281375,2.03444231634336,2.0344423163436,-0.613193041051678,0.762545170270978,-0.1353522628354,-1.34193179634373,-0.569337000998124,-1.34193179634403,-0.509407456026773,NaN,NaN,NaN,NaN,1.58056214582732,-1.12580922243233,1.60289443171587,-1.12580922242819,0.856208044713516,0.476372955023058,2.00044276680449,-0.0401651711095413,0.541404085701608,NaN,NaN,-0.489426639943337,-2.18053517838834,-0.0208866722015898,0.325865290747868,0.272988803423372,0.361643592490166,-0.0936340279967244,0.2321040538221,NaN,-0.405947124548133,-0.634972049634991,1.41539265511728,NaN,NaN,NaN,0.0087514620540506,0.306617178397514,0.172993820013489,-0.105207758100373,-0.105207758099716,0.326495988760027,-0.326495988761061,0.412387219718571
1451.9296,0.846382578836879,1.91257268952477,1.68124997236104,-2.10652622366492,1.98656542776836,1.98656542776863,-0.599026195064475,0.761005947918531,-0.11233281113733,-1.24122038527218,-0.576669714619984,-1.24122038527246,-0.498583951364567,NaN,NaN,NaN,NaN,1.56325981504838,-1.13349984294875,1.61979325814745,-1.13349984294463,0.837095714736715,0.492746281248729,2.00085818871917,-0.0553417453941453,0.532204260097766,NaN,NaN,-0.514974493020848,-2.17445384807706,-0.00624590086277139,0.34251859399035,0.295683911746425,0.348031765183324,-0.0858643167135206,0.225241818153751,NaN,-0.394314565797899,-0.655037949864318,1.40699496049682,NaN,NaN,NaN,0.000975451968528269,0.314064584315636,0.161655588271055,-0.111252554372943,-0.111252554372297,0.303732148747338,-0.303732148748339,0.408969896758457
1452.032,0.895888775719568,1.90227349315728,1.71002079523082,-2.09888720749951,1.93838913443654,1.93838913443684,-0.583889277471989,0.75977601594234,-0.0872240437761452,-1.13986142625021,-0.58519652612553,-1.13986142625049,-0.487968433621885,NaN,NaN,NaN,NaN,1.54744049732218,-1.14156059263624,1.63674282138088,-1.14156059263215,0.817089462249812,0.509056417396777,1.99990959220135,-0.0694858864926136,0.523182270437155,NaN,NaN,-0.540123413341994,-2.16596149739986,0.00734128630101118,0.358459261198231,0.317170109604434,0.335304113623127,-0.0773115756918955,0.219393712248486,NaN,-0.381936592095064,-0.674622488826109,1.39835669534125,NaN,NaN,NaN,-0.00715667864006751,0.322551434037544,0.150499511062748,-0.11698347403173,-0.116983474031094,0.281162911814328,-0.281162911815291,0.405312704911178
1452.1344,0.943922077178478,1.89122901597198,1.73733675254776,-2.08951381333222,1.88996852386814,1.88996852386848,-0.567820002488878,0.758860941494138,-0.0600854237697278,-1.03795840575686,-0.594885723671535,-1.03795840575712,-0.477639722479609,NaN,NaN,NaN,NaN,1.53306972741715,-1.15001073786874,1.65371914212456,-1.15001073786466,0.796225478841507,0.525293323571229,1.99763117724376,-0.0825410680885741,0.514349156579409,NaN,NaN,-0.56486811780651,-2.1550295657249,0.019887745281876,0.373676181283656,0.337444848774382,0.3234376363521,-0.067992847373269,0.214534822772343,NaN,-0.3688251561189,-0.69373840082268,1.38949423987499,NaN,NaN,NaN,-0.0156431191154835,0.332062945162912,0.139533191682084,-0.122397567711108,-0.122397567710485,0.25879171645431,-0.258791716455238,0.401411170666982
1452.2368,0.990444007446457,1.87946000913738,1.76318274242904,-2.07836337691225,1.84135625078787,1.84135625078823,-0.550859243084725,0.758264226878603,-0.030984526039312,-0.935611648441197,-0.605700385061786,-0.935611648441444,-0.46767447891795,NaN,NaN,NaN,NaN,1.52010314384068,-1.15886982087267,1.67069675427482,-1.15886982086861,0.774542045347279,0.541447065350339,1.99406026133587,-0.0944540258238643,0.505712665448975,NaN,NaN,-0.589205351119488,-2.14163639070174,0.0314107437671712,0.388160428203911,0.356509945279379,0.312403405682458,-0.0579289383459943,0.210634094220774,NaN,-0.354995011780915,-0.712401320682155,1.38042326256036,NaN,NaN,NaN,-0.0244810918503107,0.342580374394172,0.128763623038334,-0.127492011905752,-0.127492011905143,0.236620008490979,-0.236620008491858,0.397261612889891
1452.3392,1.03541884279641,1.86698644838142,1.7875451468105,-2.06539620914063,1.79260261152348,1.79260261152386,-0.533050781151794,0.757987319569742,3.41451447723305e-06,-0.832918511298463,-0.617598747949066,-0.832918511298697,-0.458146806081298,NaN,NaN,NaN,NaN,1.50848753655927,-1.16815751581371,1.68764858489025,-1.16815751580966,0.75207910006857,0.557507704367138,1.98923648895338,-0.105174967505868,0.497277494755138,NaN,NaN,-0.613133591407447,-2.12576719073904,0.0419317246586898,0.401905153343468,0.374371353755146,0.302167082888154,-0.0471440047970134,0.207654901423074,NaN,-0.340463945510117,-0.730629665064362,1.37115876556042,NaN,NaN,NaN,-0.0336667529931231,0.354081287855509,0.118197198610817,-0.132264088720241,-0.132264088719642,0.214647489217462,-0.214647489218296,0.392861189562298
1452.4416,1.07881332231067,1.85382758607576,1.81041165875355,-2.05057586184063,1.74375560085335,1.74375560085376,-0.514441038942289,0.758029626508033,0.0327959931845523,-0.729973552632961,-0.630534598770546,-0.729973552633177,-0.449127872231742,NaN,NaN,NaN,NaN,1.49816189853488,-1.17789343771282,1.70454584354373,-1.17789343770877,0.728877853071227,0.573465203027617,1.98320112951636,-0.114657776519971,0.489045542990037,NaN,NaN,-0.636652785198877,-2.10741404666005,0.0514760429043053,0.414905456361404,0.391038908152083,0.292689451616909,-0.0356651337250528,0.205555637693438,NaN,-0.325252976780079,-0.748444470860532,1.36171510464461,NaN,NaN,NaN,-0.0431951049046077,0.366539843013831,0.107839715106201,-0.13671117223345,-0.136711172232863,0.192872366737948,-0.192872366738741,0.388207957962965
1452.544,1.12059641243603,1.84000201463378,1.83177115382427,-2.03386938950315,1.69486097515583,1.69486097515627,-0.495078810855167,0.758388530650935,0.0673041278032355,-0.626868692016126,-0.644457690885309,-0.626868692016324,-0.440685574016152,NaN,NaN,NaN,NaN,1.4890584541878,-1.18809692234874,1.72135793310068,-1.18809692234471,0.704980446170283,0.589309348482569,1.97599647180058,-0.122860211086617,0.48101617201421,NaN,NaN,-0.659764098189349,-2.08657587843172,0.0600726807815842,0.427158233329006,0.406526030607394,0.283926930438912,-0.0235219378609737,0.204290281157453,NaN,-0.309386544486972,-0.765869216367775,1.35210598648184,NaN,NaN,NaN,-0.0530599296266099,0.379927077243092,0.097696362455703,-0.140830717287939,-0.140830717287364,0.171291603833029,-0.171291603833782,0.383300945912519
1452.6464,1.16073914007073,1.82552774447365,1.85161361771286,-2.01524761931745,1.64596232496272,1.64596232496317,-0.475015007041612,0.759059411646952,0.103432535397284,-0.523693374040477,-0.659314194916327,-0.523693374040661,-0.432884242727796,NaN,NaN,NaN,NaN,1.48110363247631,-1.19878679367158,1.73805239670075,-1.19878679366755,0.680429648527042,0.605029703109558,1.96766531272812,-0.129744111147826,0.473186471197698,NaN,NaN,-0.682469679406496,-2.06325842168334,0.0677539572421966,0.438662007668689,0.420849421989553,0.275832039738633,-0.0107461859218454,0.20380891096231,NaN,-0.29289268590475,-0.782929645753948,1.34234445290515,NaN,NaN,NaN,-0.063253743609441,0.394211195132787,0.0877717034118243,-0.144620253954497,-0.144620253953937,0.149901158833805,-0.14990115883452,0.378140230650716
1452.7488,1.19921450646228,1.81042228425788,1.86993013168657,-1.99468544049848,1.59710114148806,1.59710114148854,-0.454302409095566,0.760035673595302,0.141080196348096,-0.420534737352325,-0.675047170571015,-0.420534737352491,-0.425784382086071,NaN,NaN,NaN,NaN,1.47421896101064,-1.2099811307533,1.75459490262057,-1.20998113074925,0.655268583648157,0.620615582815119,1.95825053679602,-0.135275620529704,0.465551502329272,NaN,NaN,-0.704772446774407,-2.0374742114668,0.0745552444832744,0.449416752493402,0.434028748954749,0.268353819940926,0.00262851679157534,0.204058164470769,NaN,-0.275803202917382,-0.799653601071803,1.33244285467894,NaN,NaN,NaN,-0.0737677664235646,0.409357839264613,0.0780696526896473,-0.148077392271987,-0.148077392271439,0.128696217296069,-0.128696217296751,0.372727021360115
1452.8512,1.23599748317969,1.79470270695727,1.88671290739146,-1.97216211522,1.54831685958841,1.54831685958892,-0.432995429383102,0.761308782717476,0.180140824413324,-0.317477784696469,-0.691597037189705,-0.317477784696621,-0.419442422897685,NaN,NaN,NaN,NaN,1.46832187206188,-1.22169704282063,1.77094925561451,-1.22169704281657,0.629540493178928,0.636056056747164,1.94779478303755,-0.139425422731981,0.458104507608324,NaN,NaN,-0.726675904323282,-2.00924257834253,0.0805146933815267,0.459423712504434,0.446086335551127,0.261438212019478,0.0165669921951278,0.204981641395327,NaN,-0.258153800101487,-0.816070852714311,1.32241281105569,NaN,NaN,NaN,-0.084591895803749,0.425330328536755,0.0685934672534767,-0.151199836938646,-0.151199836938106,0.107671412308375,-0.107671412309025,0.367063741621853
1452.9536,1.27106507827686,1.77838568873034,1.90195535528143,-1.94766160446426,1.49964686723036,1.49964686723089,-0.411149864128761,0.762868319863265,0.220503366085554,-0.214605548910845,-0.708902018171688,-0.214605548910979,-0.413910484168326,NaN,NaN,NaN,NaN,1.4633264216537,-1.23395045469013,1.78707742622295,-1.23395045468603,0.603288546622056,0.651339959014206,1.93634019667963,-0.142168981531898,0.45083707268763,NaN,NaN,-0.748183998727856,-1.97858965696472,0.0856729597324373,0.468685231684614,0.457046860332985,0.255028414590216,0.0310327020179406,0.206520267628087,NaN,-0.239984174498646,-0.832212915873565,1.31226515321856,NaN,NaN,NaN,-0.0957146874777328,0.442089858795261,0.0593457535363145,-0.153985405438093,-0.153985405437559,0.086821031242177,-0.0868210312427916,0.361154108159007
1453.056,1.30439645322387,1.76148751260164,1.91565216852046,-1.92117289609546,1.45112647895193,1.4511264789525,-0.388822637970386,0.764702057065694,0.262052544714454,-0.11199924820817,-0.726898543087383,-0.111999248208282,-0.409236135697279,NaN,NaN,NaN,NaN,1.45914392699029,-1.2467558943241,1.80293959960751,-1.24675589431998,0.576555703329868,0.666455905878465,1.92392826353178,-0.143486775518385,0.443739243940845,NaN,NaN,-0.769301019560657,-1.9455484004565,0.0900729241736998,0.477204591051095,0.466937058745426,0.249065230468722,0.0459879203887558,0.208612633444481,NaN,-0.221338043296675,-0.848112845741796,1.30200985419013,NaN,NaN,NaN,-0.107123341466067,0.45959567131408,0.050328489987412,-0.15643204278941,-0.156432042788884,0.0661392070715311,-0.0661392070721123,0.355003201735423
1453.1584,1.33597307258792,1.74402403489805,1.92779940859018,-1.89269031969759,1.40278887598715,1.40278887598774,-0.36607154717871,0.766796067182578,0.30466944791375,-0.00973842265692374,-0.745521603095947,-0.00973842265701599,-0.405462162484188,NaN,NaN,NaN,NaN,1.45568352722152,-1.26012626820114,1.81849424934989,-1.26012626819699,0.549384625239047,0.681392317241149,1.91059972297879,-0.143364517540937,0.436799602375265,NaN,NaN,-0.790031544091321,-1.91015858753749,0.0937594073569786,0.484985858654953,0.475785433560534,0.243487412359804,0.0613938779125444,0.211195318467041,NaN,-0.20226310782175,-0.863805012005545,1.29165595145945,NaN,NaN,NaN,-0.118803692615326,0.477805196846433,0.0415430593260863,-0.158537832389556,-0.158537832389037,0.0456200932800953,-0.0456200932806485,0.348617525574296
1453.2608,1.36577887506562,1.72601061955316,1.93839458753787,-1.86221383381458,1.35466502074198,1.3546650207426,-0.342955009172721,0.769134865076375,0.348232142912019,0.0920989518265428,-0.764705065102981,0.0920989518264711,-0.40262633479537,NaN,NaN,NaN,NaN,1.45285267339839,-1.27407261770571,1.83369823908345,-1.27407261770156,0.521817632229322,0.696137440986681,1.89639454575558,-0.141793350184795,0.430005299884771,NaN,NaN,-0.810380423286444,-1.87246680939491,0.0967788852151535,0.492033751220501,0.483621975532984,0.238232012408089,0.0772108827028685,0.21420320937699,NaN,-0.182810959379313,-0.879324857201846,1.28121146915062,NaN,NaN,NaN,-0.130740199894164,0.49667417812507,0.032990286400289,-0.160301006964883,-0.16030100696437,0.0252580215528075,-0.0252580215533337,0.342005047898276
1453.3632,1.39380045604032,1.7074620526707,1.94743674704629,-1.82974927588113,1.30678356165046,1.30678356165111,-0.319531819323401,0.771701563840399,0.392616297696809,0.193436362975433,-0.784381958314927,0.193436362975379,-0.400761186887907,NaN,NaN,NaN,NaN,1.45055755636257,-1.28860386188693,1.84850694991627,-1.28860386188277,0.493896690097697,0.710679370033617,1.88135194547054,-0.138770004106073,0.423342068786082,NaN,NaN,-0.83035279944029,-1.83252643228638,0.0991792010463971,0.498353503440352,0.490477888970367,0.233234732975148,0.09339841495931,0.217569806876349,NaN,-0.163036934617212,-0.894708642638944,1.27068334211335,NaN,NaN,NaN,-0.142915933397921,0.516156768644529,0.0246704824989593,-0.161719961736449,-0.16171996173594,0.0050476407117128,-0.00504764071220629,0.335175228737354
1453.4656,1.42002724513553,1.68839245608743,1.954926533433,-1.79530856809737,1.25917075556383,1.25917075556451,-0.295860913894818,0.774478024400244,0.437695783164892,0.294198651534745,-0.804484753957685,0.294198651534708,-0.399893804170542,NaN,NaN,NaN,NaN,1.44870348249513,-1.30372653444601,1.86287442737237,-1.30372653444186,0.465663417139929,0.725006032841403,1.86551037202934,-0.134296900702807,0.416794221891888,NaN,NaN,-0.849954138679349,-1.79039754060318,0.101009261043441,0.503950739647514,0.496385310164328,0.228430267600132,0.10991518408135,0.221227508692045,NaN,-0.142999928595953,-0.909993183509057,1.26007733914796,NaN,NaN,NaN,-0.155312565106619,0.536205608706971,0.0165834986435479,-0.162793268308073,-0.162793268307568,-0.0150159633872013,0.0150159633867408,0.328139033783728
1453.568,1.44445165679543,1.66881522070951,1.96086626503857,-1.75890987029661,1.21185043968625,1.21185043968696,-0.272001143248439,0.777444988487805,0.483343236644472,0.394311861593596,-0.824945662753431,0.394311861593578,-0.400045617907276,NaN,NaN,NaN,NaN,1.447195207294,-1.31944452007363,1.87675354099028,-1.31944452006951,0.437159088235357,0.73910513807024,1.84890742503394,-0.128382179033964,0.410344664257793,NaN,NaN,-0.869190258492094,-1.74614686287716,0.102318699063306,0.508831346134812,0.501377009264593,0.223752617436672,0.126719135238241,0.225107851728574,NaN,-0.122762170267246,-0.925215573051828,1.24939798148795,NaN,NaN,NaN,-0.167910370134031,0.556771889629752,0.00872878829972877,-0.163519687076832,-0.163519687076336,-0.0349371628155662,0.0349371628151353,0.320908937277063
1453.6704,1.46706919275662,1.6487429753653,1.96525998618165,-1.72057766992686,1.16484407794214,1.16484407794288,-0.248011065405098,0.7805822041608,0.529430580379156,0.493703030707423,-0.845696969650108,0.493703030707427,-0.401232210950303,NaN,NaN,NaN,NaN,1.44593723637963,-1.33575879790626,1.89009615435453,-1.33575879790217,0.408424614808831,0.752964066968529,1.83157964598594,-0.121039633903494,0.403974934535515,NaN,NaN,-0.888067332734205,-1.69984767483518,0.103157504253483,0.513001347618412,0.505486075096363,0.219135372974662,0.143767400517241,0.229141703510758,NaN,-0.102388958340013,-0.94041289332747,1.23864845413434,NaN,NaN,NaN,-0.180688240527043,0.577805419829973,0.00110547936657206,-0.163898175988776,-0.163898175988283,-0.0547196892874198,0.0547196892870204,0.3134989129693
1453.7728,1.48787847945434,1.6281875956403,1.96811349836006,-1.68034280608545,1.11817088989378,1.11817088989454,-0.223948770518337,0.78386856192244,0.575829498744124,0.592299915916427,-0.866671407939406,0.592299915916457,-0.403463146310053,NaN,NaN,NaN,NaN,1.44483410085223,-1.35266720473186,1.90285330917229,-1.35266720472781,0.379500490210321,0.766569726556028,1.81356219637657,-0.11228856800957,0.397665282640098,NaN,NaN,-0.906591862487488,-1.65157966885582,0.10357561489419,0.516466792423404,0.50874558878966,0.214511960924798,0.161016208050854,0.233259408739133,NaN,-0.0819483514673958,-0.955621909442339,1.22783050939671,NaN,NaN,NaN,-0.193623711209405,0.599254697312062,-0.00628754386676144,-0.163927892421686,-0.1639278924212,-0.0743665359758499,0.0743665359754836,0.305924409437666
1453.8752,1.50688123348165,1.60716024272299,1.96943435820586,-1.63824243486929,1.07184804689274,1.07184804689353,-0.199871739054956,0.787282250547641,0.62241188054249,0.690030674936338,-0.887802553518832,0.690030674936394,-0.406741836843188,NaN,NaN,NaN,NaN,1.44379061115247,-1.37016423096684,1.91497542406276,-1.37016423096284,0.350426706975831,0.779908387918315,1.79488847134158,-0.102153577563135,0.391394776299034,NaN,NaN,-0.924770611574738,-1.60142877679799,0.103622489479427,0.519233647728365,0.511188293524158,0.2098158680287,0.178420779136527,0.237390913099155,NaN,-0.0615108089167051,-0.970878748906207,1.21694436466844,NaN,NaN,NaN,-0.206692996836707,0.621066983927965,-0.0134515488401756,-0.163608186594879,-0.163608186594398,-0.0938798602947859,0.0938798602944497,0.298202305744079
1453.9776,1.52408216606673,1.58567141400261,1.96923183946809,-1.59431994783068,1.02589090155365,1.02589090155447,-0.175836725268569,0.790800926237537,0.669050233293668,0.786823539309099,-0.909025208440039,0.786823539309184,-0.411065473112923,NaN,NaN,NaN,NaN,1.44271209330947,-1.3882408607347,1.92641249772137,-1.38824086073076,0.3212426615603,0.79296553334222,1.77558971043169,-0.0906642978168481,0.385141421181183,NaN,NaN,-0.942610517344957,-1.54948693057604,0.103346670253978,0.521307702512151,0.512846266801834,0.204980861477755,0.195935245090807,0.241465893216872,NaN,-0.0411487850747235,-0.986218576720569,1.20598860046685,NaN,NaN,NaN,-0.219871035674794,0.643188377307346,-0.0203878560303545,-0.162938590043331,-0.162938590042855,-0.113260896521313,0.113260896520999,0.290350846355706
1454.08,1.53948885412347,1.56373099307524,1.96751687127253,-1.54862485166321,0.980313218251265,0.980313218252113,-0.151899653365275,0.794401881966095,0.715618075430094,0.882606514033696,-0.930275745779663,0.882606514033811,-0.416425019766029,NaN,NaN,NaN,NaN,1.44150461218467,-1.40688446583217,1.93711430342589,-1.40688446582828,0.291987058095367,0.805725732854321,1.75569465607809,-0.0778551311766444,0.378882282138562,NaN,NaN,-0.960118591957774,-1.49585174797386,0.102795357372324,0.52269447523341,0.513750602765985,0.199941222185141,0.213512603313609,0.245413913639464,NaN,-0.0209362891985977,-1.00167528331416,1.19496006979747,NaN,NaN,NaN,-0.233131536347366,0.665563882828169,-0.0270977405708389,-0.161918804965361,-0.161918804964892,-0.132509888521959,0.132509888521657,0.282389557672487
1454.1824,1.55311161109576,1.54134829888781,1.96430197574627,-1.50121261319633,0.935127388350753,0.935127388351631,-0.128115516851042,0.798062205748636,0.761990309190211,0.977307120550151,-0.951492399417434,0.977307120550294,-0.422805283330182,NaN,NaN,NaN,NaN,1.44007518754889,-1.42607875690651,1.94703057228699,-1.42607875690268,0.26269781942683,0.818172564373387,1.73522929509058,-0.0637649719354053,0.372593600026623,NaN,NaN,-0.977301825238217,-1.4406261451442,0.102014013720129,0.523399127268775,0.513931116618457,0.194631994940092,0.231104717250291,0.249164615956089,NaN,-0.000948425999904128,-1.01728120241969,1.18385383184879,NaN,NaN,NaN,-0.246447026588017,0.688137490103926,-0.0335823415888064,-0.16054869616667,-0.160548696166206,-0.15162604735729,0.151626047357006,0.274339150472729
1454.2848,1.56496338326,1.51853213999643,1.95960122636566,-1.45214447484755,0.890344627455958,0.890344627456864,-0.104538273858971,0.801758919717791,0.808043576838486,1.07085218384948,-0.972615494072452,1.07085218384966,-0.430185045968284,NaN,NaN,NaN,NaN,1.43833201132446,-1.44580378400465,1.95611117145707,-1.44580378400087,0.233412016865324,0.830288578726,1.71421670137035,-0.0484369330796712,0.366250903047028,NaN,NaN,-0.994167095062187,-1.38391789554623,0.101046014650488,0.523426387271209,0.513416083576773,0.18898925212035,0.248662357687921,0.252647936414219,NaN,0.0187390697896766,-1.03306686944224,1.17266311639987,NaN,NaN,NaN,-0.259788902856334,0.710852251863975,-0.0398425807238048,-0.158828281547589,-0.158828281547132,-0.170607531212134,0.170607531211868,0.266221413409244
1454.3872,1.57505967849965,1.495290880124,1.9534302354568,-1.40148724648069,0.845975160513965,0.845975160514901,-0.0812207346882767,0.805469097738059,0.853656604034808,1.16316765735078,-0.993587619089589,1.16316765735098,-0.438537252084914,NaN,NaN,NaN,NaN,1.4361846778678,-1.46603597426283,1.964306282597,-1.46603597425909,0.20416582412535,0.842055301593031,1.69267697430829,-0.0319180727614367,0.359829115165348,NaN,NaN,-1.01072109091122,-1.32583916449819,0.0999323441342122,0.522780488775298,0.512232015237958,0.182950372005144,0.266135285818689,0.255794353010634,NaN,0.0380502975646732,-1.04906082108552,1.16137931561087,NaN,NaN,NaN,-0.273127475237946,0.733650357734973,-0.0458790844649771,-0.156757715355239,-0.156757715354785,-0.189451438904028,0.189451438903782,0.258059102372014
1454.4896,1.58341851382965,1.47163251815229,1.94580616303337,-1.34931307610072,0.802028405859673,0.802028405860633,-0.0582144472822522,0.809169969103729,0.898710529611747,1.25417847931355,-1.01435375613278,1.25417847931378,-0.447829232449576,NaN,NaN,NaN,NaN,1.43354444244929,-1.48674820062861,1.97156658280012,-1.48674820062491,0.17499448751293,0.853453263416668,1.67062724672094,-0.0142591119516144,0.353302667021529,NaN,NaN,-1.02697025737235,-1.2665060441663,0.0987113303297085,0.521465115464672,0.510403464577758,0.176454340052296,0.283472384628642,0.258535171275392,NaN,0.0569096495971764,-1.06528942897967,1.14999199666217,NaN,NaN,NaN,-0.286432003410421,0.756473201269075,-0.0516921041109105,-0.154337261403867,-0.154337261403415,-0.208153805722636,0.208153805722405,0.249875828457543
1454.592,1.59006035787966,1.44756478086529,1.93674772936877,-1.29569919873864,0.758513167440235,0.758513167441223,-0.0355695949625303,0.812839022362881,0.943089213945251,1.34380845991705,-1.03486137606579,1.34380845991731,-0.458022953231508,NaN,NaN,NaN,NaN,1.43032451965588,-1.50790987953592,1.97784343095288,-1.50790987953226,0.145932303222222,0.864462046507457,1.64808173149865,0.00448586503637752,0.346645613609431,NaN,NaN,-1.04292076062069,-1.20603810175436,0.097418414254953,0.519483345068132,0.507952848178585,0.169442078325787,0.300621842797153,0.260802854517419,NaN,0.0752422593229249,-1.08177675700085,1.13848893024729,NaN,NaN,NaN,-0.299670728983962,0.7792614475719,-0.0572814333146897,-0.151567258045974,-0.151567258045522,-0.226709594293715,0.226709594293495,0.241695943564075
1454.6944,1.59500804944383,1.4230952246097,1.92627521590161,-1.24072766250251,0.715437836463511,0.715437836464528,-0.0133349188837182,0.816454120155895,0.986679517462087,1.43198020534477,-1.055060519018,1.43198020534506,-0.469075282725154,NaN,NaN,NaN,NaN,1.42644041554375,-1.52948709128345,1.9830890633839,-1.52948709127983,0.117012598571684,0.875060337162039,1.62505178216225,0.0242597276133629,0.339831759832179,NaN,NaN,-1.05857847200643,-1.14455793915597,0.0960859501504871,0.516837588389918,0.504900281848576,0.161856789147508,0.317531379587422,0.262531382917684,NaN,0.09297443175241,-1.09854443523586,1.12685613108999,NaN,NaN,NaN,-0.312810914490188,0.801955110057212,-0.0626463312084443,-0.148448080440084,-0.148448080439628,-0.245112680911209,0.245112680910993,0.233544420000607
1454.7968,1.59828669095614,1.39823134428536,1.9144104527726,-1.1844850296222,0.672810594504295,0.67281059450534,0.00844233401858176,0.819993623617257,1.02937154612858,1.51861509052088,-1.0749038642112,1.5186150905212,-0.480938277405328,NaN,NaN,NaN,NaN,1.42181026061456,-1.55144271461272,1.98725679891695,-1.55144271460912,0.0882677123115765,0.885225977230863,1.60154595119433,0.045002624940759,0.33283479380009,NaN,NaN,-1.07394895275278,-1.08219074725337,0.0947430400169083,0.513529531249191,0.50126343780502,0.153644274462131,0.334148479632274,0.263656598627091,NaN,0.110034047222405,-1.11561155244319,1.11507790788574,NaN,NaN,NaN,-0.325818894563227,0.824493642203616,-0.0677854631523796,-0.144980106699706,-0.144980106699246,-0.263355844681798,0.26335584468159,0.225446722275983
1454.8992,1.59992353949847,1.37298069082174,1.90117680946757,-1.12706205070034,0.630639603294643,0.630639603295716,0.0297164471000926,0.823436512248941,1.07105886322356,1.60363329297225,-1.09434678804427,1.60363329297259,-0.49355949775684,NaN,NaN,NaN,NaN,1.41635509610378,-1.57373657293356,1.99030124858599,-1.57373657292998,0.059728967996423,0.894936020467523,1.57757004658619,0.0666523085400292,0.325628426961463,NaN,NaN,-1.08903741792117,-1.01906383024253,0.0934154064085774,0.509560097277761,0.497057441371219,0.144753184965185,0.350420602481774,0.264116486619687,NaN,0.126350929984026,-1.1329945782752,1.10313692241932,NaN,NaN,NaN,-0.338660142412449,0.846816049009538,-0.0726968689584614,-0.141163692008546,-0.141163692008082,-0.281430771469703,0.281430771469498,0.21742867320241
1455.0016,1.59994792953976,1.34735099717348,1.88659921251142,-1.06855331775593,0.588933165404837,0.588933165405935,0.0504432620231875,0.826762485983697,1.11163866490139,1.68695389480889,-1.11334740293621,1.68695389480926,-0.506882363225419,NaN,NaN,NaN,NaN,1.40999907952943,-1.59632559869922,1.99217852669511,-1.59632559869567,0.0314266411753473,0.904166805932923,1.55312720814214,0.0891444407293875,0.318186536965916,NaN,NaN,-1.10384866350131,-0.955306085352792,0.0921253075446985,0.504929451612409,0.492294826947513,0.135135173903112,0.36629535019263,0.263851364950105,NaN,0.141857176361947,-1.15070732962384,1.09101426188461,NaN,NaN,NaN,-0.351299356824954,0.868861019292522,-0.077377960172665,-0.136999153884577,-0.136999153884102,-0.299328084222594,0.299328084222389,0.209516317835654
1455.104,1.59839124956094,1.32135030750506,1.87070420267776,-1.00905690945801,0.547699844742364,0.547699844743483,0.0705801988315187,0.829952049714202,1.15101192009128,1.76849505224579,-1.13186656773455,1.76849505224619,-0.52084654264296,NaN,NaN,NaN,NaN,1.40266960622267,-1.6191640271862,1.99284646618286,-1.61916402718266,0.00338992524772017,0.912894060854271,1.52821803105913,0.112412882209752,0.310483305116777,NaN,NaN,-1.11838695707069,-0.891047446143335,0.0908914974723118,0.499637057650067,0.486985565406574,0.124744962932032,0.381720599182718,0.262803992747125,NaN,0.156487442535937,-1.16876099042354,1.07868953437513,NaN,NaN,NaN,-0.363700569642761,0.890567073968162,-0.0818255395565944,-0.132486775576585,-0.132486775576098,-0.31703740280645,0.317037402806243,0.201735788484741
1455.2064,1.59528697098246,1.29498709981689,1.85352002505589,-0.948674039395607,0.506948543167774,0.506948543168918,0.0900862669338077,0.832986588944721,1.1890834834194,1.84817422901392,-1.14986786573284,1.84817422901435,-0.535388363895788,NaN,NaN,NaN,NaN,1.39429736472964,-1.64220362544483,1.99226484439038,-1.6422036254413,-0.0243531034269597,0.921093039321458,1.50284074826214,0.136389956894008,0.302493339803398,NaN,NaN,-1.13265590629384,-0.826418313769826,0.0897292322340709,0.49368178639873,0.481137163035415,0.113540344555119,0.396644610851554,0.26091962088292,NaN,0.170179193625131,-1.18716418513759,1.0661409996105,NaN,NaN,NaN,-0.375827263149458,0.91187272358466,-0.0860358367579522,-0.127626835314142,-0.127626835313642,-0.334547425911764,0.334547425911564,0.194113174240291
1455.3088,1.5906707078895,1.26827039337742,1.83507673201237,-0.887508709053176,0.466688537627635,0.466688537628803,0.10892206926211,0.835848442421763,1.22576219238524,1.92590848991796,-1.16731755551611,1.92590848991842,-0.550441225130272,NaN,NaN,NaN,NaN,1.38481634567691,-1.66539394865966,1.9903956240864,-1.66539394865617,-0.0517755257290614,0.928738693573094,1.4769914596496,0.16100669656377,0.294191782014753,NaN,NaN,-1.14665832034609,-0.761548999749294,0.08865032132324,0.487062067435198,0.474754822026806,0.101482140502307,0.411016130535528,0.258146004182153,NaN,0.182872912759008,-1.20592309741173,1.05334573938232,NaN,NaN,NaN,-0.387642485840698,0.932716631445209,-0.0900045614182881,-0.122419662821995,-0.122419662821481,-0.351846024398973,0.351846024398779,0.186674396666235
1455.4112,1.58458027512323,1.24120983693522,1.81540627406474,-0.825667361158956,0.426929488647004,0.426929488648199,0.127049800288259,0.838520975652298,1.26096095483071,2.00161484941557,-1.18418450535906,2.00161484941606,-0.565935997180782,NaN,NaN,NaN,NaN,1.37416381897016,-1.68868260872582,1.98720321032759,-1.68868260872234,-0.0788516294945601,0.935805865211452,1.45066438119904,0.186193071499677,0.285554395463061,NaN,NaN,-1.16039607315245,-0.69656919126747,0.0876632209287387,0.479776064649046,0.467841645882015,0.088534125727531,0.424784479164407,0.254433384413455,NaN,0.194512268250149,-1.22504161977418,1.0402798580429,NaN,NaN,NaN,-0.399108964494526,0.953037781492873,-0.0937269775695649,-0.116865718735979,-0.11686571873545,-0.368920339744037,0.368920339743841,0.17944508929407
1455.5136,1.57705571326039,1.213815777989,1.79454255680318,-0.763258526012463,0.387681433577233,0.38768143357845,0.14443323558012,0.840988659212909,1.29459682745264,2.07521066776259,-1.20044012005147,2.07521066776311,-0.581801415887644,NaN,NaN,NaN,NaN,1.36228029397922,-1.71201554694826,1.98265471494393,-1.7120155469448,-0.1055569696955,0.942269479590771,1.42385208463494,0.2118782159686,0.276557648331437,NaN,NaN,-1.17386997442461,-0.63160743700076,0.0867731620337549,0.471821858295942,0.460398869725662,0.074662929594777,0.437899643618044,0.249734455460053,NaN,0.205044241598452,-1.24452151863346,1.02691869420556,NaN,NaN,NaN,-0.410189217662478,0.972775651145457,-0.0971980016471425,-0.110965691005212,-0.110965691004666,-0.385756886593035,0.385756886592842,0.172450477548436
1455.616,1.56813926003188,1.18609931517044,1.77252145072334,-0.700392450874849,0.348954776555748,0.348954776556986,0.161037716130067,0.843237147898137,1.3265910861563,2.14661408519765,-1.21605826511861,2.14661408519819,-0.597964468302853,NaN,NaN,NaN,NaN,1.34910947884059,-1.73533731266245,1.97672021174101,-1.73533731265902,-0.131868439228693,0.948104730053425,1.39654570521922,0.237990658118792,0.267178794888948,NaN,NaN,-1.18707965526501,-0.566790648816983,0.0859823052552808,0.46319761781403,0.452426097438406,0.0598379336677185,0.450312375849864,0.244004329791939,NaN,0.214419225481597,-1.26436259928486,1.01323702819463,NaN,NaN,NaN,-0.420845674150273,0.991870390971706,-0.10041232611692,-0.104720601461978,-0.104720601461413,-0.402341660278466,0.402341660278283,0.165715259336273
1455.7184,1.55787526032134,1.15807233369408,1.74938074844608,-0.637180705349472,0.310760281800892,0.310760281802153,0.176830139543738,0.845253347515714,1.35686929319467,2.21574448293115,-1.23101519393649,2.21574448293172,-0.614350776243395,NaN,NaN,NaN,NaN,1.33459825402897,-1.75859134775894,1.96937296552319,-1.75859134775554,-0.157764351493855,0.953287245863693,1.36873510573758,0.264458560294398,0.257395962535731,NaN,NaN,-1.20002347571788,-0.502243624046256,0.0852899165427419,0.453901757443991,0.443921535381427,0.0440311865755074,0.461974310131921,0.237200525847673,NaN,0.222591106326965,-1.28456285699326,0.999209280022597,NaN,NaN,NaN,-0.431040794719571,1.01026301506207,-0.103364567523805,-0.0981319149875611,-0.0981319149869812,-0.418660247934176,0.418660247933997,0.159263489689713
1455.8208,1.5463100159776,1.12974752076808,1.7251600684185,-0.573735765222709,0.273109070038494,0.273109070039779,0.191778969402622,0.847025459570335,1.38536136892405,2.28252295860258,-1.24528948511229,2.28252295860318,-0.630884976594289,NaN,NaN,NaN,NaN,1.31869667405814,-1.7817202680062,1.96058962801899,-1.78172026800285,-0.183224535104291,0.957793245196042,1.3404089984631,0.291209969874165,0.247188245038072,NaN,NaN,-1.21269846183025,-0.438088600862057,0.0846925621624382,0.443933075777317,0.434882222819155,0.0272173513652858,0.472838103478876,0.229282990209729,NaN,0.229517346971492,-1.30511860274913,0.984809701423302,NaN,NaN,NaN,-0.440737191855571,1.0278956027917,-0.106049428878973,-0.0912016457744205,-0.0912016457738236,-0.434697938626761,0.434697938626596,0.153118471568034
1455.9232,1.5334915809785,1.10113835778002,1.69990070715621,-0.510170585394758,0.236012614189829,0.236012614191132,0.205854264339977,0.848543006161514,1.41200167376189,2.34687280421321,-1.25886199506675,2.34687280421383,-0.647491095001501,NaN,NaN,NaN,NaN,1.30135800930423,-1.80466612842528,1.9503504061294,-1.80466612842199,-0.208230438788,0.961599680499782,1.31155504005023,0.31817307671136,0.236535799217757,NaN,NaN,-1.22510027887539,-0.374444856144176,0.0841843250827731,0.433290885041048,0.425304265290539,0.00937369504246737,0.482857601457215,0.220214162882032,NaN,0.235159079170593,-1.32602455612128,0.970012570414365,NaN,NaN,NaN,-0.449897741378482,1.0447115046754,-0.108461859541647,-0.0839324591527094,-0.0839324591520965,-0.450439826677849,0.450439826677695,0.147302651157838
1456.0256,1.51946950653677,1.07225908743837,1.67364544220276,-0.446598173263279,0.19948272997301,0.199482729974331,0.219027720321182,0.849796844414074,1.4367291004246,2.40871997751325,-1.27171582700816,2.40871997751389,-0.664092910330561,NaN,NaN,NaN,NaN,1.28253883341761,-1.82737066336528,1.93863921316136,-1.82737066336204,-0.23276524488806,0.964684385373085,1.28215991684062,0.345276472540183,0.225419941340355,NaN,NaN,-1.23722324359876,-0.311428346988432,0.083757043929475,0.421975133177452,0.415183074251039,-0.0095198775525157,0.491988029813266,0.209959087485656,NaN,0.239481208484921,-1.34727390341179,0.954792394816887,NaN,NaN,NaN,-0.458485680922135,1.0606555415763,-0.110597197806335,-0.0763277681441412,-0.0763277681435144,-0.465870903892139,0.465870903891989,0.141837513838002
1456.128,1.50429453916466,1.04312465468782,1.64643828724349,-0.383131168050353,0.163531556673656,0.163531556674996,0.231272719309883,0.850779177976539,1.45948717377242,2.46799356307423,-1.28383631711976,2.46799356307489,-0.680614309337446,NaN,NaN,NaN,NaN,1.26219915251184,-1.84977549856544,1.92544380972148,-1.84977549856225,-0.256813993640195,0.96702622964305,1.2522094286898,0.372449409099922,0.213823240461244,NaN,NaN,-1.24906037400665,-0.249151390508073,0.0834005698835477,0.409986515921641,0.404513607966577,-0.0294807513595648,0.500186209495326,0.198485560895562,NaN,0.242452531722573,-1.36885832480168,0.939124121899438,NaN,NaN,NaN,-0.466464695124443,1.07567419264775,-0.1124512898281,-0.0683918200820572,-0.0683918200814165,-0.480976139505906,0.480976139505773,0.136743478023613
1456.2304,1.48801827749976,1.01375062186141,1.61832420369732,-0.319881423694034,0.128171524116408,0.128171524117765,0.24256438139857,0.851483568085691,1.48022415621237,2.52462622299084,-1.29521103957582,2.52462622299153,-0.696979631871662,NaN,NaN,NaN,NaN,1.24030256736588,-1.87182234110728,1.91075593429076,-1.87182234110414,-0.280363721232901,0.968605284182412,1.22168856963794,0.399622053957414,0.201729608295065,NaN,NaN,-1.26060347304691,-0.187722372608919,0.0831030330820838,0.397326573385066,0.393290604164544,-0.0505234987990546,0.507410790168585,0.185764313658213,NaN,0.244045868159092,-1.39076799490549,0.922983344094702,NaN,NaN,NaN,-0.473798994704785,1.08971577707094,-0.114020587480908,-0.0601297653639803,-0.0601297653633305,-0.4957405481636,0.495740548163465,0.132039787029948
1456.3328,1.47069279912262,0.98415306255143,1.58934877919545,-0.256959590888264,0.093415306047099,0.0934153060484705,0.252879619150046,0.851904943291613,1.49889315533369,2.57855463418272,-1.30582983024882,2.57855463418343,-0.71311400736303,NaN,NaN,NaN,NaN,1.2168164627079,-1.8934531572685,1.8945714209652,-1.89345315726541,-0.303403607577247,0.969402991507356,1.19058160455764,0.426725745286136,0.189124387772105,NaN,NaN,-1.27184324141453,-0.127245477705021,0.0828511124713882,0.383997767492211,0.381508797883458,-0.0726597537440708,0.513622497296143,0.171769214337371,NaN,0.244238205102055,-1.41299155808612,0.906346492018275,NaN,NaN,NaN,-0.480453401636707,1.10273063790358,-0.115302230954508,-0.0515477002551035,-0.0515477002544425,-0.510149245154352,0.510149245154222,0.127744401268557
1456.4352,1.45237027199674,0.954348441904932,1.55955788757131,-0.194474700190829,0.0592757636259612,0.0592757636273495,0.262197193749719,0.852039604337285,1.51545222873402,2.6297199017663,-1.3156848261447,2.62971990176703,-0.728943684010806,NaN,NaN,NaN,NaN,1.19171222340766,-1.91461034183305,1.87689030316909,-1.91461034183001,-0.325925120553778,0.969402335961078,1.15887215007047,0.453693247226931,0.175994443819648,NaN,NaN,-1.28276941545333,-0.0678204392905099,0.0826303056609137,0.370003539796046,0.369163122185566,-0.0958980644278987,0.518784388985013,0.156477494096737,NaN,0.243010856364446,-1.43551607771873,0.889191012550056,NaN,NaN,NaN,-0.486393449051933,1.1146713291901,-0.11629411769874,-0.0426526776793125,-0.0426526776786402,-0.524187487558576,0.524187487558439,0.123873893920523
1456.5376,1.43310256368414,0.92435348868409,1.52899734260469,-0.132533754126569,0.0257658801983922,0.0257658801997958,0.27049777672224,0.851885217301056,1.52986448411363,2.67806793586117,-1.32477051745848,2.67806793586191,-0.744396351268569,NaN,NaN,NaN,NaN,1.16496547804018,-1.93523687432524,1.8577169025485,-1.93523687432225,-0.347922142284786,0.968588008811356,1.12654327228259,0.48045900541655,0.162328258093141,NaN,NaN,-1.2933709301948,-0.00954231902866902,0.0824251930000489,0.355348350332613,0.356248889092917,-0.120243726250461,0.522862118699139,0.139869989070292,NaN,0.240349632393019,-1.45832695908246,0.871495535541596,NaN,NaN,NaN,-0.491585494088967,1.12549279775928,-0.116994956357325,-0.0334526843406138,-0.0334526843399349,-0.537840702704776,0.537840702704639,0.120443353920341
1456.64,1.41294085495594,0.894185058272115,1.49771254968476,-0.071241335169239,-0.00710131609880374,-0.00710131609738127,0.277764023533763,0.851440788515325,1.54209817773293,2.72354978504238,-1.33308381098408,2.72354978504314,-0.759401453886674,NaN,NaN,NaN,NaN,1.13655636603761,-1.95527645967291,1.83705990064953,-1.95527645966996,-0.369391070619566,0.966946566178782,1.09357760745423,0.506959401367635,0.148116025438752,NaN,NaN,-1.30363610957271,0.0474986779700425,0.0822196879017278,0.340037697454972,0.342761946254688,-0.145698597356569,0.52582419928058,0.121931396335996,NaN,0.23624502242436,-1.48140784718815,0.853240032708277,NaN,NaN,NaN,-0.495996836244304,1.13515255003084,-0.117404307528018,-0.0239565873636082,-0.0239565873629203,-0.551094509224917,0.551094509224769,0.117466299502659
1456.7424,1.39193525645089,0.863859983732902,1.46574815280278,-0.0106992321161034,-0.0393128442118085,-0.0393128442103713,0.283980662166299,0.850706620116953,1.55212681524772,2.76612192507327,-1.34062410269703,2.76612192507404,-0.773890494491272,NaN,NaN,NaN,NaN,1.10646982201303,-1.97467365898518,1.81493239034236,-1.97467365898227,-0.390330896504593,0.964466579355592,1.05995750392239,0.533133006018242,0.133349748320124,NaN,NaN,-1.31355288117994,0.103217349913168,0.08199726786098,0.324078118126393,0.32869880580111,-0.172260902741897,0.527642264913134,0.102650537655316,NaN,0.230692389069353,-1.50474050147915,0.83440596761969,NaN,NaN,NaN,-0.499595837030635,1.14361080212538,-0.117522613962926,-0.014174055610611,-0.0141740556099175,-0.563934735660879,0.563934735660715,0.114954602490712
1456.8448,1.37013442429319,0.833394916352281,1.43314767482707,0.0489939163873119,-0.0708558732290903,-0.0708558732276413,0.289134595939814,0.84968424800398,1.55992925584298,2.80574650282679,-1.34739335278135,2.80574650282757,-0.78779732221929,NaN,NaN,NaN,NaN,1.07469587119593,-1.993374018527,1.79135190625048,-1.99337401852414,-0.410743258305425,0.961138777894525,1.0256651844082,0.558920833750959,0.118023327299841,NaN,NaN,-1.32310900834983,0.157533611317116,0.0817411852027073,0.307477168635049,0.314056744813363,-0.199925030274471,0.52829133134015,0.0820206285547199,NaN,0.223692173866049,-1.52830464867255,0.814976434964928,NaN,NaN,NaN,-0.502352041146179,1.15083061931224,-0.117351217498901,-0.00411546108092951,-0.00411546108022849,-0.576347437612044,0.576347437611867,0.112918420163933
1456.9472,1.34758517544585,0.802806161294581,1.39995315481141,0.107742965528491,-0.101717830546016,-0.101717830544551,0.293215017939343,0.84837636357132,1.5654898167145,2.84239153747172,-1.35339615336746,2.84239153747252,-0.801058405360813,NaN,NaN,NaN,NaN,1.04122993003331,-2.01132419815331,1.76634043730226,-2.0113241981505,-0.430632470134744,0.956956186046807,0.990682933822279,0.584266596582058,0.102132646373677,NaN,NaN,-1.33229233480826,0.210372579011785,0.0814346613446078,0.290243386491386,0.298833880181777,-0.228681315258972,0.527750058359461,0.0600395570748488,NaN,0.215250110428091,-1.55207781420591,0.794936290858895,NaN,NaN,NaN,-0.504236300909897,1.15677805141058,-0.116892357844641,0.00620823413443514,0.00620823413513856,-0.58831891244533,0.588318912445139,0.111366130384878
1457.0496,1.32433211069351,0.772109513175151,1.36620479059327,0.165456599563878,-0.131886511249948,-0.131886511248471,0.296213530909017,0.846786723023783,1.56879837179868,2.87603108501111,-1.35863978128413,2.87603108501192,-0.813613084922766,NaN,NaN,NaN,NaN,1.00607310503545,-2.02847209215591,1.73992442653082,-2.02847209215312,-0.450005519053037,0.951914251629866,0.954993318261485,0.609116955117276,0.0856756491511057,NaN,NaN,-1.3410910414122,0.261664634092891,0.0810610730023319,0.272386235435842,0.283029224226956,-0.258515807407044,0.526001018251915,0.0367101784412472,NaN,0.205377440598705,-1.57603513330882,0.774272276281036,NaN,NaN,NaN,-0.505220905324134,1.16142226522316,-0.116149153479524,0.0167856012519997,0.0167856012527097,-0.5998357111219,0.599835711121703,0.11030426723253
1457.152,1.30041725781225,0.741320093282626,1.33194059645487,0.22204765710789,-0.161350188578836,-0.161350188577352,0.298124262969572,0.84492005224517,1.56985043765654,2.90664537262439,-1.36313423253317,2.90664537262521,-0.825403804876279,NaN,NaN,NaN,NaN,0.969232482831188,-2.04476693463637,1.712134762747,-2.04476693463364,-0.468872027720196,0.946010964505828,0.918579435310176,0.633421760044575,0.068652399083118,NaN,NaN,-1.34949391402518,0.311345453913484,0.0806041408081312,0.253916038401255,0.26664273114384,-0.289410018996732,0.523030968176941,0.0120406257086712,NaN,0.194091126912436,-1.60014914739038,0.752973134924307,NaN,NaN,NaN,-0.505279711884401,1.16473566859051,-0.115125569971478,0.0276048761282264,0.0276048761289398,-0.610884647026114,0.6108846470259,0.10973745747803
1457.2544,1.27587975106264,0.710452190035758,1.29719608803853,0.277433437643794,-0.190097727928375,-0.190097727926885,0.298943971865098,0.842781953674544,1.56864724166034,2.93422090531645,-1.36689223726814,2.93422090531727,-0.836376316803088,NaN,NaN,NaN,NaN,0.930721403522443,-2.06015938834921,1.68300676714949,-2.06015938834654,-0.48724418361187,0.939246964799679,0.881425194292905,0.657134276101849,0.0510651178879874,NaN,NaN,-1.35749061749468,0.359356005164567,0.0800481259475045,0.234843907665021,0.249675345454526,-0.321340664205806,0.518831117031653,-0.0139553753650393,NaN,0.181414052470277,-1.62438959973501,0.731029728891099,NaN,NaN,NaN,-0.504388275889384,1.16669401841043,-0.113826379954834,0.0386540960831475,0.0386540960838648,-0.62145280292669,0.621452802926457,0.109668360053021
1457.3568,1.25075556857762,0.679519107321661,1.26200401225466,0.331535979734883,-0.21811870913656,-0.21811870913506,0.298672138353441,0.840378813163192,1.56519577105677,2.95875054543134,-1.36992925284929,2.95875054543218,-0.846479862416781,NaN,NaN,NaN,NaN,0.890559702000786,-2.0746016219715,1.65258017716661,-2.07460162196888,-0.505136641148818,0.931625649790358,0.84351563244865,0.680211379392758,0.0329181999629786,NaN,NaN,-1.36507196362493,0.405642499815005,0.0793780297826156,0.215181684732231,0.23212906062285,-0.354279414866805,0.513397371243414,-0.0412582131597646,NaN,0.167375200266922,-1.64872325001336,0.708435155875997,NaN,NaN,NaN,-0.502523974208335,1.16727650968295,-0.112257115684621,0.0499212399919866,0.049921239992707,-0.631527541217658,0.631527541217414,0.110097610288182
1457.4592,1.2250773540174,0.64853302651497,1.22639414393529,0.384282308279758,-0.24540356530765,-0.245403565306144,0.297311054843837,0.837717698023579,1.55950880277102,2.9802335698332,-1.37226343121845,2.98023356983404,-0.855667342384149,NaN,NaN,NaN,NaN,0.848773891497812,-2.08804738118996,1.62089913191391,-2.08804738118737,-0.522566407174414,0.923153295771735,0.804837279531319,0.702613719666099,0.0142182030175316,NaN,NaN,-1.37223015290841,0.450156332991676,0.0785797850606189,0.19494190291439,0.214006992807335,-0.388192708094376,0.506730541532421,-0.0698421534810324,NaN,0.152009805414338,-1.67311372712647,0.685184866988202,NaN,NaN,NaN,-0.499666126481533,1.16646584993863,-0.110424016140186,0.0613943703792905,0.0613943703800155,-0.641096526792801,0.64109652679254,0.111023770315939
1457.5616,1.19887434537537,0.617504885410415,1.19039316708403,0.435604655487847,-0.271943747883171,-0.271943747881661,0.294865913291362,0.834806238485605,1.55160491137444,2.99867571535156,-1.37391555690175,2.99867571535241,-0.863895479983968,NaN,NaN,NaN,NaN,0.805397264373599,-2.10045206160269,1.58801216446099,-2.10045206160014,-0.539552721820377,0.913839210479335,0.76537857991158,0.724305842577176,-0.00502618432008255,NaN,NaN,-1.3789589702782,0.492854031505837,0.0776404305992652,0.174137781995224,0.195313473441979,-0.423041635976709,0.498836495934532,-0.0996751886152735,NaN,0.135359471313876,-1.69752143799982,0.661276779582017,NaN,NaN,NaN,-0.495796119063449,1.16424832511667,-0.10833397377179,0.07306177414045,0.0730617741411795,-0.650147772003484,0.650147772003207,0.112443287715151
1457.664,1.17217242121972,0.586444277036496,1.15402464960785,0.485440662585755,-0.29773192041066,-0.297731920409147,0.291344891544758,0.831652489492955,1.54150845000738,3.01408922083685,-1.37490895158379,3.01408922083771,-0.871124985227812,NaN,NaN,NaN,NaN,0.760469898604699,-2.11177279970746,1.55397220003714,-2.11177279970495,-0.556116940199876,0.903695921182401,0.725130373032465,0.745256270588262,-0.0248041957824148,NaN,NaN,-1.38525392708789,0.53369723621731,0.0765482675112118,0.152783257240596,0.176054161537127,-0.458781931240915,0.489726252294537,-0.130718985666359,NaN,0.11747223876836,-1.72190354623659,0.636711380714335,NaN,NaN,NaN,-0.490897534621387,1.16061386045917,-0.105994485642521,0.0849120942548134,0.0849120942555462,-0.658669709212816,0.658669709212528,0.114350464745389
1457.7664,1.1449942614665,0.555359374963691,1.11730911326478,0.53373356585798,-0.322762170859148,-0.322762170857633,0.286759235676997,0.828264773908908,1.52924950123375,3.02649286326361,-1.37526934054916,3.02649286326448,-0.877320721848838,NaN,NaN,NaN,NaN,0.714038570466084,-2.12196859952005,1.51883655114731,-2.12196859951756,-0.572282405280898,0.89273938728539,0.684086427183932,0.765437542772407,-0.0451030575638708,NaN,NaN,-1.39111235334537,0.572652723849197,0.0752929974773433,0.130893038103043,0.156236171923504,-0.495364048603514,0.479416011087777,-0.162928933576366,NaN,0.0984026006978335,-1.74621402629415,0.61149182312115,NaN,NaN,NaN,-0.484956288368219,1.15555608057666,-0.103413610953298,0.0969344451258053,0.0969344451265384,-0.666651291422613,0.666651291422312,0.11673743944694
1457.8688,1.11735961095003,0.524256891211657,1.08026419409405,0.580432363675207,-0.34703022726689,-0.347030227265374,0.281123334267114,0.824651512876756,1.51486379784272,3.0359119774301,-1.37502467782846,3.03591197743098,-0.882451875148704,NaN,NaN,NaN,NaN,0.666156579036469,-2.13100050006524,1.48266689790429,-2.13100050006276,-0.588074294624279,0.880989216592162,0.642244016186102,0.784826215135582,-0.0659080723377511,NaN,NaN,-1.39653344865485,0.60969245571202,0.0738658426895839,0.108482688871609,0.135868212459825,-0.532733332834076,0.467927133694793,-0.196254279785047,NaN,0.0782114623285804,-1.77040378802319,0.585624016507396,NaN,NaN,NaN,-0.477960771101229,1.14907237372623,-0.100599933200985,0.109118509058368,0.109118509059098,-0.674082116237899,0.674082116237585,0.119594178594023
1457.9712,1.08928563008925,0.493142065487011,1.04290488162163,0.62549195642361,-0.370533667765034,-0.370533667763521,0.274454776990689,0.82082105409358,1.49839261346283,3.04237845181016,-1.37420493080755,3.04237845181105,-0.886492112116567,NaN,NaN,NaN,NaN,0.616883492769636,-2.13883177478001,1.44552924366892,-2.13883177477753,-0.603519432275353,0.868468868586411,0.599604523465783,0.803402825492467,-0.087202718671321,NaN,NaN,-1.40151830161996,0.644793633408724,0.0722596454054848,0.0855687244581535,0.11496072311159,-0.570830257406825,0.45528607290283,-0.230638341346144,NaN,0.0569660518930684,-1.79442085845876,0.559116712010404,NaN,NaN,NaN,-0.469901996528461,1.14116396138178,-0.0975625218099425,0.121454613918162,0.121454613918893,-0.680952564061504,0.680952564061173,0.122908482402443
1458.0736,1.06078731825736,0.462018677560195,1.00524382210693,0.668873253065335,-0.393272124813312,-0.393272124811803,0.266774391168785,0.816781509244818,1.47988262573235,3.04593070211815,-1.37284182962621,3.04593070211904,-0.889419719744245,NaN,NaN,NaN,NaN,0.566284832193291,-2.1454281487856,1.4074938372406,-2.14542814878313,-0.618646070989943,0.855205837922455,0.556174054874599,0.821151827952508,-0.108968771013807,NaN,NaN,-1.40606988798197,0.677938745952108,0.0704689448653832,0.0621687177286038,0.0935260125121596,-0.609590714146043,0.441524261670185,-0.266018773021502,NaN,0.0347397852136294,-1.81821060794275,0.531981578057609,NaN,NaN,NaN,-0.460773745679217,1.13183596962897,-0.0943108898118275,0.133933789874533,0.133933789875263,-0.68725394032326,0.68725394032292,0.126666002149478
1458.176,1.03187799517704,0.4308890747401,0.967291670982794,0.710543243857645,-0.41524748506192,-0.415247485060422,0.258106256409676,0.812540606904232,1.45938576006224,3.04661362781551,-1.37096859022401,3.04661362781641,-0.89121770844837,NaN,NaN,NaN,NaN,0.514431700710193,-2.15075802186468,1.36863505469819,-2.1507580218622,-0.633483659170657,0.841231816709805,0.511964037644577,0.838061501598874,-0.131186443507949,NaN,NaN,-1.41019305352044,0.709115602827456,0.0684900316441852,0.0383014176167829,0.0715783913803117,-0.648946340041033,0.426677962175688,-0.302327881008104,NaN,0.0116120786484676,-1.84171601517501,0.504233270540835,NaN,NaN,NaN,-0.450572697384189,1.12109749717647,-0.0908549489121074,0.146547800416059,0.146547800416786,-0.692978613801411,0.692978613801067,0.130850272603944
1458.2784,1.0025698168477,0.399754214254914,0.929057477943161,0.75047504402602,-0.436464076898472,-0.436464076896978,0.248477698436197,0.808105563000851,1.43695901851475,3.04447854889987,-1.36861962055999,3.04447854890078,-0.891873875628276,NaN,NaN,NaN,NaN,0.461400370585553,-2.15479268735092,1.32903124222603,-2.15479268734841,-0.648062607782282,0.826582832564652,0.466991778932777,0.854123839345871,-0.153834551957386,NaN,NaN,-1.41389447919441,0.738317357475826,0.066320982827072,0.0139868761789976,0.0491343030723509,-0.688824878628228,0.410788072747564,-0.339492981392226,NaN,-0.0123319017465082,-1.8648779705251,0.475889499406369,NaN,NaN,NaN,-0.439298535629482,1.10896167452628,-0.0872049646793766,0.159289143792581,0.159289143793303,-0.69812014628532,0.698120146284973,0.135442759292845
1458.3808,0.972874295058659,0.368613727733291,0.890549087124331,0.788647915367832,-0.456928827193908,-0.456928827192416,0.237919258632074,0.80348296896575,1.41266428783811,3.0395831115268,-1.36583021735309,3.03958311152771,-0.891380832596016,NaN,NaN,NaN,NaN,0.407271829210768,-2.15750654003747,1.2887645310993,-2.15750654003494,-0.662414065139725,0.811299353071183,0.421280957226501,0.869334424304459,-0.176890680982686,NaN,NaN,-1.4171826226659,0.76554252823036,0.0639616840011752,-0.0107534231408242,0.0262124478525259,-0.729150579009348,0.393899890271095,-0.377436806710669,NaN,-0.0370015613128843,-1.8876356137814,0.44697108842639,NaN,NaN,NaN,-0.426954033160809,1.09544571109128,-0.0833715161809646,0.172151025587331,0.172151025588047,-0.702673411358832,0.702673411358479,0.140422917974937
1458.4832,0.942802796385647,0.337466012441973,0.851773538168696,0.825047270014347,-0.476651371650895,-0.476651371649408,0.226464637119821,0.798678694117844,1.38656811855216,3.03199115527773,-1.36263625777128,3.03199115527865,-0.889735999654063,NaN,NaN,NaN,NaN,0.352131292425438,-2.15887727059391,1.24792063501223,-2.15887727059138,-0.676569701635271,0.795426344167618,0.374862022863981,0.883692297636939,-0.20033134648718,NaN,NaN,-1.42006763593062,0.79079501526696,0.0614138447413759,-0.0358964486151016,0.0028338936119892,-0.76984463105582,0.37606282960981,-0.416077958845486,NaN,-0.0623012611537511,-1.90992669907573,0.417502022233739,NaN,NaN,NaN,-0.413545118675169,1.08057093125815,-0.0793654679636473,0.185127307559355,0.185127307560066,-0.706634701321329,0.706634701320976,0.145768264283563
1458.5856,0.912367010387675,0.30630834673481,0.812737459527301,0.859664655563933,-0.495644114963708,-0.49564411496223,0.214150615856316,0.79369779362729,1.35874147577965,3.02177254417693,-1.35907388828106,3.02177254417785,-0.886941571822198,NaN,NaN,NaN,NaN,0.296067695522579,-2.15888604648185,1.20658862909567,-2.15888604647932,-0.690561507540077,0.779013274091614,0.327772489296673,0.897199817456825,-0.224132150149385,NaN,NaN,-1.42256126382848,0.814084101373401,0.0586810093465494,-0.0614175254554726,-0.0209778353750741,-0.810825626865427,0.357330105198973,-0.45533139846423,NaN,-0.0881307491036437,-1.93168797927028,0.387509474998837,NaN,NaN,NaN,-0.399080934725016,1.06436280172321,-0.075197958974865,0.19821243986837,0.198212439869074,-0.710001820631428,0.710001820631066,0.151454455625255
1458.688,0.881579381894923,0.275137025451282,0.773447447999842,0.892497718325129,-0.513922242947848,-0.513922242946376,0.201016973778307,0.788544410056445,1.32925946814496,3.00900296421027,-1.35517921276753,3.00900296421119,-0.88300445770179,NaN,NaN,NaN,NaN,0.239173173937493,-2.15751768040099,1.16486070206859,-2.15751768039843,-0.704421606370716,0.762114057382469,0.28005710240358,0.90986250795124,-0.248267923485909,NaN,NaN,-1.42467672840735,0.835424422495402,0.0557685545977704,-0.0872902693134047,-0.0451967016178379,-0.852010035554141,0.337758381133146,-0.495108958449019,NaN,-0.114385620008296,-1.95285560036156,0.357023815548119,NaN,NaN,NaN,-0.383573886801845,1.0468509494592,-0.0708804033015554,0.211401383151785,0.211401383152481,-0.712774162794768,0.712774162794399,0.157455391180123
1458.7904,0.850453498682554,0.24394751164942,0.733910426363173,0.923550140650199,-0.531503689488496,-0.531503689487031,0.187106400869814,0.783221660344616,1.29820105676671,2.99376368788716,-1.35098798573479,2.99376368788808,-0.877936194429149,NaN,NaN,NaN,NaN,0.181542539815134,-2.15476078724461,1.12283187200354,-2.15476078724205,-0.718182082937553,0.744786930593081,0.231767875171462,0.921688898135306,-0.272712859030298,NaN,NaN,-1.4264286062024,0.854835900397865,0.0526836624363587,-0.113486552305021,-0.0697941399433265,-0.893312682874881,0.317407394169006,-0.535319872929993,NaN,-0.140957797601163,-1.97336549687553,0.326078586286943,NaN,NaN,NaN,-0.367039678181059,1.02806916644241,-0.0664244946520748,0.224689523400927,0.224689523401614,-0.714952768596418,0.714952768596046,0.163743335626224
1458.8928,0.819004423672063,0.212734599216004,0.694133968384045,0.952831548597262,-0.548409063095241,-0.548409063093783,0.172464407668275,0.777731509918265,1.26564874029704,2.97614130873074,-1.34653532155662,2.97614130873167,-0.871752839638467,NaN,NaN,NaN,NaN,0.123272750944031,-2.15060792471635,1.08059965723518,-2.15060792471378,-0.731874830043454,0.727094252373393,0.182963969907503,0.93269034811167,-0.297440629772358,NaN,NaN,-1.42783270879629,0.872343638090367,0.0494352633295686,-0.139976504728795,-0.0947390905225176,-0.934647231777075,0.296339550417291,-0.575871318643375,NaN,-0.167736045302762,-1.99315378588866,0.294710459020948,NaN,NaN,NaN,-0.349497323335979,1.00805539738558,-0.0618422142759791,0.23807257756831,0.238072577568991,-0.716540368066696,0.716540368066313,0.170289068897031
1458.9952,0.787248963041937,0.181492581332691,0.654126582327188,0.98035738949075,-0.564661537448504,-0.564661537447052,0.157139221433774,0.772074640738871,1.23168820899662,2.95622744938831,-1.34185543113035,2.95622744938924,-0.864474841196774,NaN,NaN,NaN,NaN,0.0644623640159926,-2.14505570598717,1.03826369639422,-2.14505570598456,-0.745531429609708,0.709102230243827,0.133711409641011,0.942880860886689,-0.322424499230203,NaN,NaN,-1.42890597337956,0.887977785791083,0.0460339550001296,-0.166728554157783,-0.119998078253716,-0.975926660253461,0.274619495574871,-0.616668965917481,NaN,-0.194606520920473,-2.01215716336202,0.262959173891302,NaN,NaN,NaN,-0.330969133918294,0.986851710055191,-0.057145850111561,0.251546484662424,0.251546484663102,-0.717541411544362,0.717541411543966,0.177062061701332
1459.0976,0.755205864366346,0.150215424557329,0.61389794870701,1.00614878132948,-0.580286704942582,-0.580286704941144,0.141181661666208,0.766250316195267,1.19640795857225,2.93411844276816,-1.33698139124667,2.9341184427691,-0.856126889245136,NaN,NaN,NaN,NaN,0.00521096810640098,-2.13810487736399,0.995925315384553,-2.13810487736136,-0.759183085431684,0.690880582088607,0.0840826078949116,0.952276878644446,-0.347637421724361,NaN,NaN,-1.42966636190693,0.901773387258137,0.042491901695089,-0.193709504581635,-0.145535337958951,-1.01706373252491,0.25231366176014,-0.657617534948701,NaN,-0.221453384714124,-2.03031330667629,0.230867464793968,NaN,NaN,NaN,-0.311480674797903,0.964504250806788,-0.0523480343686041,0.265107276736571,0.265107276737244,-0.717962092018493,0.717962092018082,0.184030676226284
1459.2,0.72289594085024,0.118896951956144,0.573459111488617,1.03023233200583,-0.595312387649411,-0.595312387647984,0.124644992191188,0.76025623951722,1.15989885477606,2.90991498148356,-1.33194494480128,2.9099149814845,-0.846737756889184,NaN,NaN,NaN,NaN,-0.0543814013925328,-2.12976036669122,0.953687038745404,-2.12976036668855,-0.772860609866273,0.67250213249889,0.0341557138026966,0.960897060082399,-0.373052131354491,NaN,NaN,-1.43013276410453,0.913770210037188,0.0388227155051979,-0.220884660998157,-0.171312989268294,-1.05797146204862,0.229489796773852,-0.698621353652442,NaN,-0.248159460128469,-2.04756128513074,0.198480969329058,NaN,NaN,NaN,-0.291060691904601,0.941063187427148,-0.0474618002120048,0.27875092569822,0.278750925698887,-0.71781035519976,0.717810355199336,0.191162392472328
1459.3024,0.690342122004097,0.0875310379688036,0.532822624505653,1.05263992077831,-0.609768401742579,-0.609768401741164,0.107584751897668,0.754088401265387,1.12225364693146,2.88372173076684,-1.32677632670367,2.88372173076778,-0.836340133085251,NaN,NaN,NaN,NaN,-0.11421486849462,-2.12003131252215,0.911652041175087,-2.12003131251943,-0.786594451446636,0.654042336357809,-0.0159862218160889,0.968762034637672,-0.398641219635677,NaN,NaN,-1.43032490018854,0.924012554560614,0.0350413209988203,-0.248218003384717,-0.197291263921362,-1.09856356666438,0.206216481943452,-0.739584914608869,NaN,-0.274606939405343,-2.06384197779246,0.165848117375765,NaN,NaN,NaN,-0.269741015881628,0.916582637645574,-0.0425006537649428,0.292473166607715,0.292473166608382,-0.717095892117945,0.717095892117512,0.198424060588
1459.4048,0.657569439294617,0.0561118125973823,0.492002657695255,1.07340843737634,-0.623686280520596,-0.623686280519194,0.0900585701569644,0.74774091700724,1.08356644236683,2.85564690454693,-1.32150411289077,2.85564690454788,-0.824970448866089,NaN,NaN,NaN,NaN,-0.174190336941875,-2.10893107624747,0.869923545783446,-2.10893107624471,-0.800414744396067,0.635578730355632,-0.0662562314832275,0.975894137713827,-0.424377201866563,NaN,NaN,-1.4302632181342,0.93254903646417,0.0311638070554778,-0.27567240462993,-0.223428778589725,-1.13875491447615,0.18256264636962,-0.780413426591806,NaN,-0.300678119119495,-2.07909849264709,0.13301999250482,NaN,NaN,NaN,-0.247556448260306,0.891120578531935,-0.0374786575750199,0.30626930627478,0.306269306275442,-0.715830113233328,0.71583011323288,0.205782174437912
1459.5072,0.624604961586434,0.0246338650037587,0.451015067868843,1.09257948555894,-0.637098973419284,-0.637098973417899,0.0721259758601325,0.741205864278719,1.04393216873822,2.82580181236005,-1.31615509656391,2.82580181236101,-0.81266869987353,NaN,NaN,NaN,NaN,-0.234210103305473,-2.09647723268683,0.828604197887965,-2.09647723268404,-0.814351356671875,0.617190328987006,-0.116564506668397,0.982317143168192,-0.450232571199759,NaN,NaN,-1.42996877973928,0.939432343606511,0.0272072696904648,-0.303209875314259,-0.249682836164469,-1.1784619571644,0.158597089033022,-0.82101335312482,NaN,-0.326256141813471,-2.09327657391042,0.100050166202308,NaN,NaN,NaN,-0.224544643749239,0.864738733549033,-0.0324105233099911,0.320134030787813,0.320134030788471,-0.71402610974204,0.714026109741573,0.213203151217816
1459.6096,0.591477694107197,-0.00690756653290056,0.409877436195909,1.11019906532405,-0.650040542975369,-0.650040542974006,0.0538482096071546,0.734473132447936,1.00344605785981,2.79430039028688,-1.31075419985251,2.79430039028784,-0.799478270930304,NaN,NaN,NaN,NaN,-0.294178427287149,-2.08269153506218,0.787795455942482,-2.08269153505938,-0.828433909982389,0.598956989530181,-0.166819485699439,0.988056011926561,-0.47617983958725,NaN,NaN,-1.42946313229536,0.944718974337215,0.0231896467483555,-0.33079181454787,-0.27600973686043,-1.21760314740038,0.13438802134663,-0.861292929992669,NaN,-0.351225718823724,-2.10632498266484,0.066994511718027,NaN,NaN,NaN,-0.200746006651108,0.8375024382596,-0.0273117127777028,0.334061222420298,0.334061222420949,-0.711698610820069,0.711698610819583,0.220653594651183
1459.712,0.558218452165514,-0.0385164256972662,0.368609076044019,1.12631724335382,-0.662545874364052,-0.662545874362712,0.0352880469298812,0.727530295340073,0.962203177106939,2.76125872684465,-1.3053244247759,2.76125872684561,-0.785445765778033,NaN,NaN,NaN,NaN,-0.354002028925268,-2.06759985022754,0.747597031523856,-2.06759985022471,-0.842691753852201,0.580958771388196,-0.216928886385252,0.993136667276212,-0.502191565918871,NaN,NaN,-1.42876816601992,0.948468963735288,0.0191295460615839,-0.358379251767277,-0.302365085061444,-1.2560993341732,0.110002639528278,-0.901162652890689,NaN,-0.375473820129609,-2.118195839889,0.0339110040063523,NaN,NaN,NaN,-0.176203610426265,0.809480484721116,-0.0221985454315617,0.348043792210012,0.348043792210661,-0.708863942095994,0.708863942095487,0.228100524941878
1459.8144,0.524859723225966,-0.0701956895271401,0.327231021108826,1.14098781396896,-0.674650402588824,-0.674650402587502,0.0165096384376392,0.720362506557245,0.920298018670065,2.72679458879752,-1.29988683812152,2.72679458879849,-0.770620838025282,NaN,NaN,NaN,NaN,-0.413590502457021,-2.05123205983814,0.708106388769477,-2.05123205983528,-0.857153894502931,0.563275314087759,-0.266800643886728,0.997585799289376,-0.528240372261816,NaN,NaN,-1.42790596062587,0.950745606223301,0.0150460742050305,-0.385933071558208,-0.328704081008675,-1.29387412368891,0.0855067321693868,-0.940535723508664,NaN,-0.398890327307128,-2.12884492385567,0.000859505727073165,NaN,NaN,NaN,-0.150963131762907,0.780744938568596,-0.017088307711645,0.362073535171759,0.362073535172403,-0.705539985410103,0.705539985409578,0.235511573183312
1459.9168,0.491435533027844,-0.101947235462335,0.285766007455933,1.15426795457178,-0.686389858060664,-0.686389858059362,-0.00242163208279844,0.71295241310074,0.877824143040225,2.69102694958505,-1.29446057917146,2.69102694958602,-0.755056016467493,NaN,NaN,NaN,NaN,-0.472856652949322,-2.03362192940544,0.669418299391987,-2.03362192940255,-0.871848888542929,0.545985250190401,-0.316343740779796,1.00143069837092,-0.554298949024353,NaN,NaN,-1.42689862796718,0.951615188132648,0.0109586748536328,-0.413414218836169,-0.354981789987485,-1.33085419202606,0.0609643275271444,-0.979328441605073,NaN,-0.421368645488663,-2.13823191558195,-0.032098463971918,NaN,NaN,NaN,-0.125072783125506,0.751370921842862,-0.0119993610973583,0.376141015113605,0.376141015114246,-0.701746138033373,0.701746138032822,0.242855145601884
1460.0192,0.457981327144263,-0.133771718525042,0.244238460595835,1.16621788595387,-0.697800029089238,-0.697800029087959,-0.0214392807579221,0.705280090538187,0.834873864648728,2.65407552383589,-1.28906288035608,2.65407552383686,-0.73880652212319,NaN,NaN,NaN,NaN,-0.531716764221733,-2.01480695246409,0.631624448482535,-2.01480695246117,-0.886804702046272,0.529165653528215,-0.365468929439532,1.00469911700772,-0.580340049605208,NaN,NaN,-1.425768158027,0.95114674494793,0.00688698065985345,-0.440783886511542,-0.381153388690126,-1.36696954257123,0.0364373862816482,-1.01746053526287,NaN,-0.442806266836464,-2.14632059086936,-0.0648999787242482,NaN,NaN,NaN,-0.0985832374034824,0.721436361544941,-0.0069512540651218,0.390235482755037,0.390235482755675,-0.69750327097663,0.697503270976055,0.250100558372491
1460.1216,0.42453386982973,-0.165668454857822,0.202674491033981,1.17690054561063,-0.708916538373517,-0.708916538372262,-0.040475864767867,0.697323011829402,0.791537964988476,2.6160603104257,-1.28370909555492,2.61606031042667,-0.721930078309454,NaN,NaN,NaN,NaN,-0.590090802964422,-1.9948281710769,0.594813090268879,-1.99482817107391,-0.902048526338109,0.512891512154733,-0.414089352225778,1.00741915636957,-0.606336476068968,NaN,NaN,-1.42453627006778,0.949411848835682,0.0028506778656756,-0.468003689349003,-0.407174392431615,-1.402153711481,0.0119855436881963,-1.05485543004639,NaN,-0.463105281581466,-2.15307896436417,-0.0974809694980909,NaN,NaN,NaN,-0.0715475508762266,0.69102171069928,-0.00196484723441903,0.404344827679739,0.404344827680368,-0.692833689883545,0.692833689882946,0.257218138453617
1460.224,0.39113115158453,-0.197635314016604,0.161101890933797,1.18638127009264,-0.719774632566349,-0.719774632565111,-0.0594631452934856,0.689056060558824,0.747905422311699,2.57710114502588,-1.27841273447126,2.57710114502685,-0.704486713764765,NaN,NaN,NaN,NaN,-0.647902563770795,-1.97372996434583,0.559068754502702,-1.97372996434281,-0.917606550420739,0.497235217419641,-0.462121073714959,1.00961917190794,-0.632261060582666,NaN,NaN,-1.42322426551257,0.946484418055661,-0.00113061883679428,-0.495035823716086,-0.433000864336041,-1.43634393090057,-0.0123341012325196,-1.09144046545695,NaN,-0.482172838751021,-2.15847939436306,-0.129776497728034,NaN,NaN,NaN,-0.04402109265847,0.660209651787273,0.00293754900214289,0.418455559438674,0.418455559439296,-0.687761105130123,0.687761105129504,0.264179289265028
1460.3264,0.35781229109562,-0.229668628605755,0.119550116970086,1.19472747542634,-0.730408987749354,-0.730408987748138,-0.0783322777601979,0.680451593112557,0.704063153859932,2.53731726582611,-1.27318550290302,2.53731726582709,-0.686538555648641,NaN,NaN,NaN,NaN,-0.705079759329093,-1.95155979700538,0.524472002900458,-1.95155979700232,-0.933503706334591,0.482266070213801,-0.50948354617263,1.01132769173313,-0.658086649762796,NaN,NaN,-1.42185288026607,0.942440533011739,-0.00503748689408636,-0.521843208331967,-0.458589605395019,-1.46948125774265,-0.0364671573384396,-1.12714706806189,NaN,-0.499921558071145,-2.16249865379111,-0.161721026549562,NaN,NaN,NaN,-0.0160614808956537,0.629084792451647,0.00773203889627052,0.432552805238928,0.432552805239544,-0.682310614056749,0.682310614056105,0.270956525107489
1460.4288,0.324617419833957,-0.261763128924635,0.0780502468058573,1.20200833143601,-0.74085353454151,-0.740853534540313,-0.0970140281058076,0.671479550224598,0.660095773390794,2.49682690125683,-1.26803734870182,2.49682690125781,-0.66814960826029,NaN,NaN,NaN,NaN,-0.761554056504099,-1.92836792933429,0.491099231984566,-1.92836792933118,-0.949763408796209,0.468049814310057,-0.556100021750873,1.01257334415548,-0.683786097111933,NaN,NaN,-1.42044213760586,0.937358248565601,-0.00885082047192817,-0.548389601539903,-0.483898326243661,-1.50151066794585,-0.0603620818278846,-1.16191088475966,NaN,-0.516269889334011,-2.16511796573437,-0.193248682052627,NaN,NaN,NaN,0.0122714841947631,0.597733356835931,0.0123930241950078,0.446620310470589,0.446620310471196,-0.676508689078859,0.676508689078199,0.277523475882662
1460.5312,0.291587547116916,-0.293911902182127,0.0366349079120117,1.20829443638386,-0.751141302844931,-0.75114130284375,-0.1154390054128,0.662107611555699,0.616085373155798,2.45574688915445,-1.26297651205784,2.45574688915543,-0.649385513825371,NaN,NaN,NaN,NaN,-0.817261060009993,-1.90420709693995,0.459022516998,-1.90420709693679,-0.966407298702198,0.454648207524471,-0.601897907013587,1.01338479548957,-0.709332263932663,NaN,NaN,-1.41901120167391,0.931317402803542,-0.0125519629961356,-0.574639694359497,-0.50888580221343,-1.53238111042002,-0.0839702938476452,-1.19567187371217,NaN,-0.531142413342647,-2.16632299697744,-0.224293506113005,NaN,NaN,NaN,0.0409159046289429,0.56624286611898,0.0168931116392852,0.460640438249926,0.460640438250526,-0.670383161067135,0.670383161066455,0.283854858575081
1460.6336,0.25876441576723,-0.326106366618639,-0.00466180868081214,1.21365750446883,-0.761304280645123,-0.76130428064396,-0.133537894169623,0.652301379280608,0.572111342420861,2.41419233082063,-1.25800957665869,2.41419233082161,-0.630313293141417,NaN,NaN,NaN,NaN,-0.872140252665864,-1.87913217080642,0.428309497004439,-1.87913217080323,-0.983454979304806,0.442118631472199,-0.646809042736969,1.01379070330296,-0.73469802497543,NaN,NaN,-1.41757822783838,0.924399432311243,-0.0161228404780724,-0.60055918225816,-0.533512010234771,-1.56204551670074,-0.107246261442569,-1.22837435002275,NaN,-0.544470081565502,-2.16610380527846,-0.254789711314487,NaN,NaN,NaN,0.0698078931661631,0.534701797039858,0.0212030359769333,0.474594175805886,0.474594175806477,-0.663963194609378,0.663963194608684,0.289926410928758
1460.736,0.226190367188535,-0.358336246902404,-0.0458044287679398,1.218170081411,-0.771373278905408,-0.771373278904259,-0.151241672960353,0.642024578296066,0.528250230427128,2.37227627550884,-1.25314151730475,2.37227627550983,-0.611001067163056,NaN,NaN,NaN,NaN,-0.926134907313469,-1.85319980647002,0.399023310773331,-1.85319980646676,-1.00092372101907,0.430513730206833,-0.690769891345023,1.01381969035954,-0.759856273625866,NaN,NaN,-1.41616020739071,0.91668720868538,-0.0195460807505517,-0.62611482215072,-0.557738244994764,-1.59046076989003,-0.130147558979077,-1.2599669875987,NaN,-0.55619039730076,-2.16445474529535,-0.284671952518598,NaN,NaN,NaN,0.0988817016467867,0.503199202659333,0.025291576242483,0.488461159262397,0.488461159262976,-0.657279264258388,0.657279264257681,0.295714783993033
1460.8384,0.193908230968222,-0.390589541058722,-0.0867561533750425,1.22190529889703,-0.781377797299935,-0.781377797298801,-0.168481819799726,0.63123927150861,0.484575651503809,2.33010942761951,-1.24837574168465,2.3301094276205,-0.591517763250453,NaN,NaN,NaN,NaN,-0.979191984131722,-1.82646808740754,0.371222593561988,-1.82646808740424,-1.01882811833523,0.419881068986035,-0.733721623326375,1.01350034004038,-0.784779924131371,NaN,NaN,-1.41477281003608,0.908264904777156,-0.022805107330465,-0.651274482558357,-0.58152721499586,-1.61758764218798,-0.15263489200122,-1.29040278289108,NaN,-0.566247547032861,-2.16137434603459,-0.31387562836337,NaN,NaN,NaN,0.128069863667981,0.471824275164305,0.0291254447963439,0.502219724952026,0.502219724952592,-0.650363142937369,0.650363142936642,0.301197393041744
1460.9408,0.161961239469752,-0.42285247697516,-0.127478893743428,1.22493666624962,-0.791345889749904,-0.791345889748788,-0.185190517047212,0.619906099679673,0.441158221304595,2.28779987291911,-1.24371412697131,2.2877998729201,-0.571932808593593,NaN,NaN,NaN,NaN,-1.03126201716764,-1.79899616502251,0.344961533230818,-1.79899616501916,-1.03717970237456,0.410262813999635,-0.775610106218576,1.012861208375,-0.809441912899895,NaN,NaN,-1.41343022973335,0.899217884440138,-0.0258842075064051,-0.676007191065802,-0.604843121907036,-1.64339070844193,-0.17467208906144,-1.31963898592489,NaN,-0.574592494504449,-2.15686517169175,-0.342337217128537,NaN,NaN,NaN,0.157303351517396,0.440665842566468,0.0326691470412542,0.515846990809531,0.515846990810087,-0.643247900424909,0.643247900424169,0.306352231877662
1461.0432,0.130392955570787,-0.455109463094343,-0.167933293808349,1.22733788724031,-0.80130403181724,-0.801304031816142,-0.20130087059868,0.607984558416761,0.398065513883594,2.24545282724526,-1.23915705175916,2.24545282724625,-0.552315810441777,NaN,NaN,NaN,NaN,-1.08229898350362,-1.77084389835156,0.320289971932929,-1.77084389834816,-1.0559865298419,0.401695441585337,-0.816385811151761,1.01193084461249,-0.833815202874581,NaN,NaN,-1.41214503767858,0.889632598509991,-0.0287685813632427,-0.700283177241423,-0.627651725340666,-1.66783823758061,-0.19622606269072,-1.34763700098689,NaN,-0.581183047755978,-2.15093366952524,-0.369994637803588,NaN,NaN,NaN,0.186511747516149,0.409811818500428,0.0358848293862769,0.529318966753997,0.529318966754544,-0.635967896657533,0.635967896656772,0.311157661359014
1461.1456,0.0992471974384059,-0.487343042820735,-0.208078756865207,1.22918268697189,-0.811276994606831,-0.811276994605757,-0.216747149232119,0.595433317117643,0.355362035219503,2.20317041503987,-1.23470342120735,2.20317041504087,-0.532736223215062,NaN,NaN,NaN,NaN,-1.13226014956754,-1.74207149783011,0.297253533346569,-1.74207149782665,-1.07525277990859,0.394209488064431,-0.856003662770595,1.01073781246797,-0.857872794843187,NaN,NaN,-1.41092804827285,0.879596468205499,-0.0314443782334941,-0.72407390717583,-0.649920393309887,-1.69090206350987,-0.217266743579944,-1.37436225996051,NaN,-0.585983901727503,-2.14359000214889,-0.396787616527288,NaN,NaN,NaN,0.215623427721187,0.379348642344433,0.0387321427721802,0.54261068622118,0.542610686221716,-0.628558754549785,0.628558754549005,0.315592188535663
1461.248,0.0685679445114712,-0.51953386440941,-0.247873494199693,1.23054463487056,-0.821287730831377,-0.821287730830327,-0.231465040147616,0.582210571411554,0.313109209692607,2.16105148265288,-1.23035068165454,2.16105148265387,-0.513263007447642,NaN,NaN,NaN,NaN,-1.18110590034592,-1.71273917707379,0.275893753130364,-1.71273917707027,-1.09497839587038,0.387829351643745,-0.894422865307092,1.00931070588006,-0.881587749373473,NaN,NaN,-1.40978820721317,0.8691977400638,-0.033898724258212,-0.747352108580425,-0.671618139491979,-1.71255744406479,-0.237766993646942,-1.3997840773108,NaN,-0.588966653183775,-2.13484786433826,-0.422658035299786,NaN,NaN,NaN,0.244565757572113,0.349360742295052,0.0411681486649586,0.555696345502706,0.555696345503234,-0.621057305313768,0.621057305312973,0.319634257270521
1461.3504,0.0383992134054746,-0.55166067594563,-0.287274609048698,1.23149695159159,-0.83135727715403,-0.831357277152996,-0.245391910230578,0.56827441013814,0.27136537447929,2.1191914452163,-1.22609482169363,2.1191914452173,-0.493964289869345,NaN,NaN,NaN,NaN,-1.22879956485439,-1.68290681560177,0.256248193020937,-1.68290681559818,-1.11515880227609,0.382573153919453,-0.931606735445498,1.00767815404664,-0.904933222156661,NaN,NaN,-1.40873250865346,0.858525298133731,-0.0361197440577524,-0.770091788816019,-0.692715651037982,-1.73278292270293,-0.257702504021977,-1.42387550048509,NaN,-0.590109783183505,-2.12472429191386,-0.447550244724246,NaN,NaN,NaN,0.273265299910929,0.319930037934601,0.043147285568264,0.568549438130345,0.56854943813086,-0.613501506665288,0.613501506664488,0.323262070927954
1461.4528,0.00878490003828607,-0.58370035205183,-0.326238222260726,1.23211228913802,-0.841504676200239,-0.841504676199222,-0.258467058129127,0.553583173733664,0.230185779476096,2.0776821622801,-1.22193035830877,2.0776821622811,-0.474907032165568,NaN,NaN,NaN,NaN,-1.27530724868639,-1.65263363527294,0.238350525447157,-1.65263363526928,-1.13578471055462,0.378452658593759,-0.967522564308169,1.0058688115908,-0.927882514121312,NaN,NaN,-1.40776594395959,0.847668419701972,-0.0380965847258772,-0.792268250450385,-0.713185315517342,-1.75156020437047,-0.277051682961746,-1.44661316658413,NaN,-0.589398601407024,-2.1132394708885,-0.471411333845091,NaN,NaN,NaN,0.301648031740756,0.291135487989329,0.0446214026582556,0.581142876733106,0.581142876733611,-0.60593033822108,0.605930338220275,0.326453463607247
1461.5552,-0.0202314108785918,-0.615627958456204,-0.364719642348219,1.23246247623782,-0.85174692363148,-0.851746923630474,-0.270631943180044,0.538095785325618,0.189622594188335,2.03661183835629,-1.21785030867604,2.0366118383573,-0.45615670911663,NaN,NaN,NaN,NaN,-1.32059767852594,-1.62197789486149,0.222230579953281,-1.62197789485777,-1.15684201248311,0.37547323807223,-1.00214152321049,1.00391133309504,-0.950409137113503,NaN,NaN,-1.40689148241619,0.836716464779105,-0.0398194573631788,-0.81385810933824,-0.733001259829056,-1.7688740472286,-0.29579553772344,-1.46797716835895,NaN,-0.58682514628948,-2.1004165464844,-0.494191360998511,NaN,NaN,NaN,0.329639564935447,0.263052685408776,0.0455398625986877,0.593449099625464,0.593449099625958,-0.598383678620533,0.598383678619722,0.329185831404919
1461.6576,-0.0486066675634143,-0.647416859193525,-0.402673581654919,1.23261822635992,-0.862098946200723,-0.862098946199732,-0.281830387279984,0.521772051221768,0.149724924350189,1.99606494504449,-1.21384615165057,1.9960649450455,-0.437776992079704,NaN,NaN,NaN,NaN,-1.36464205945876,-1.59099660876802,0.207914346178302,-1.59099660876425,-1.17831176241913,0.373633884522789,-1.03543862018996,1.00183433591021,-0.972486894979693,NaN,NaN,-1.40611008216827,0.825758498828657,-0.0412797078491294,-0.834839315664271,-0.752139407976627,-1.78471216560098,-0.313917554202635,-1.48795092770486,NaN,-0.582388038652602,-2.08628142433062,-0.515843551189167,NaN,NaN,NaN,0.357165372496656,0.235753498619754,0.0458497187547734,0.605440161933126,0.605440161933603,-0.590902165012764,0.590902165011949,0.331436127465951
1461.76,-0.0762986036891243,-0.679038866596753,-0.440054418439689,1.2326488120436,-0.872573612764739,-0.872573612763757,-0.292008758540637,0.504572944975664,0.110538840272795,1.95612215936867,-1.20990778549585,1.95612215936968,-0.419829435929428,NaN,NaN,NaN,NaN,-1.40741394323259,-1.55974529434714,0.195423935825239,-1.55974529434333,-1.20017025756385,0.372927275651748,-1.06739270324224,0.999666357915402,-0.994089977228695,NaN,NaN,-1.40542072737795,0.814882859690273,-0.0424699158379241,-0.855191172007132,-0.770577551952038,-1.79906514029833,-0.331403577658035,-1.50652107521271,NaN,-0.576092292561646,-2.07086255626055,-0.536324459797724,NaN,NaN,NaN,0.384151024960913,0.209305756157553,0.0454959731367066,0.61708781405236,0.617087814052826,-0.583527030684643,0.583527030683818,0.333180915180268
1461.8624,-0.103266019418807,-0.710464428663296,-0.476816500189596,1.2326217152612,-0.883181774812998,-0.883181774812025,-0.301116147902461,0.486460891097432,0.0721074171414746,1.91686031243996,-1.20602348652992,1.91686031244097,-0.402373172808027,NaN,NaN,NaN,NaN,-1.44888910518233,-1.52827774814621,0.184777516082269,-1.52827774814237,-1.222389222141,0.373339909283971,-1.09798649504089,0.997435816238542,-1.01519306002332,NaN,NaN,-1.40482048701296,0.804176688868934,-0.0433840127723306,-0.8748943423072,-0.788295425261416,-1.81192633433006,-0.348241695913636,-1.52367733488695,NaN,-0.567949089170985,-2.05419070591785,-0.555594099817682,NaN,NaN,NaN,0.410522437215912,0.183772975533707,0.0444219133964465,0.628363575083955,0.62836357508441,-0.576299917548597,0.576299917547768,0.334396467234732
1461.9648,-0.129469081353316,-0.741662842286546,-0.512914474893251,1.2326022695665,-0.893932328476408,-0.893932328475448,-0.309104538808344,0.467400049722603,0.0344707887079898,1.87835234430966,-1.2021798695325,1.87835234431068,-0.385464617659577,NaN,NaN,NaN,NaN,-1.48904542845694,-1.49664584810625,0.175989232087686,-1.49664584810237,-1.24493607965457,0.374852307165933,-1.1272066361446,0.995170969668326,-1.03577140868859,NaN,NaN,-1.40430458951657,0.793725450755502,-0.0440174069985136,-0.893930849655372,-0.805274770639645,-1.8232918090252,-0.364422123493801,-1.53941240958471,NaN,-0.557975517285442,-2.03629869217648,-0.57361603270877,NaN,NaN,NaN,0.436206126081843,0.159214140825663,0.04256951385851,0.639238811061069,0.639238811061513,-0.569262668839999,0.569262668839163,0.335058892721247
1462.0672,-0.154869625406692,-0.772602476266513,-0.548303629931074,1.23265331140853,-0.904832286794746,-0.904832286793792,-0.31592895872656,0.447356589668321,-0.00233378145201155,1.84066726168249,-1.198361848512,1.84066726168351,-0.369157189939042,NaN,NaN,NaN,NaN,-1.52786279480013,-1.46489937922759,0.16906913125032,-1.46489937922367,-1.26777427759672,0.377439273285096,-1.15504371107253,0.992899882133052,-1.05580097695361,NaN,NaN,-1.40386650563048,0.783612457861117,-0.0443671014099169,-0.912284063493452,-0.821499394358133,-1.83316023453489,-0.379937083794164,-1.55372186134004,NaN,-0.54619428349332,-2.0172211146872,-0.590357426243974,NaN,NaN,NaN,0.461129483265707,0.135683531664492,0.0398798775511825,0.649684822102327,0.649684822102762,-0.562457114655759,0.562457114654924,0.335144272099504
1462.1696,-0.179431450169693,-0.803250991665017,-0.58294022279876,1.23283485007689,-0.915886853115107,-0.915886853114163,-0.321547600901907,0.426298933133851,-0.0382718113862541,1.80387009581354,-1.19455259474126,1.80387009581457,-0.353501058947853,NaN,NaN,NaN,NaN,-1.56532298458779,-1.43308588347838,0.164023089821961,-1.43308588347443,-1.29086363569291,0.381070192449518,-1.18149224033149,0.990650378156472,-1.07525850086429,NaN,NaN,-1.40349803448875,0.773918406930847,-0.0444317908690456,-0.929938680025529,-0.83695520334623,-1.84153279941869,-0.394780689050073,-1.56660399002328,NaN,-0.532633396299132,-1.9969940753695,-0.605789082920063,NaN,NaN,NaN,0.485221064793896,0.113230602100653,0.0362937012092839,0.65967293094255,0.659672930942978,-0.555924858553724,0.555924858552881,0.334628791291124
1462.272,-0.203120595157481,-0.833575557305571,-0.616781798490509,1.2332037546182,-0.927099494647104,-0.927099494646166,-0.325921910303153,0.404197958035475,-0.0733115016393732,1.76802186053819,-1.19073348785199,1.76802186053922,-0.338542923280119,NaN,NaN,NaN,NaN,-1.60140959373752,-1.40125053620521,0.160852732502287,-1.40125053620124,-1.31416071279473,0.385709364600435,-1.20655063906588,0.988449978111895,-1.09412158860878,NaN,NaN,-1.40318939552088,0.764720918878375,-0.0442119343525258,-0.946880701851785,-0.851630227563075,-1.84841313588784,-0.408948822684182,-1.57805972488846,NaN,-0.517325829568594,-1.97565491410113,-0.619885438873795,NaN,NaN,NaN,0.508410891465991,0.0918999052895502,0.0317517588240906,0.669174557840255,0.669174557840678,-0.549707061489581,0.54970706148874,0.333488885768416
1462.3744,-0.22590559797312,-0.86354306377878,-0.649787491280287,1.23381345258767,-0.938472021380043,-0.938472021379114,-0.329016631603397,0.381027152608775,-0.107423628386809,1.73317951271782,-1.1868840576113,1.73317951271885,-0.324325829120098,NaN,NaN,NaN,NaN,-1.63610797484693,-1.36943604870138,0.159555336652203,-1.36943604869739,-1.33761919757626,0.391316372465376,-1.23022115358213,0.986325804675533,-1.11236880908607,NaN,NaN,-1.40292933177614,0.756094073099204,-0.043709802550371,-0.963097419536939,-0.865514630395609,-1.8538072728808,-0.422439030529437,-1.58809254108181,NaN,-0.500309169171796,-1.95324197046263,-0.632624531804773,NaN,NaN,NaN,0.530630757561427,0.0717310581967214,0.0261954066857963,0.678161271655559,0.678161271655975,-0.543844214752128,0.543844214751288,0.331701409772633
1462.4768,-0.247757723355406,-0.893120336514343,-0.681918306301207,1.2347136395744,-0.950004673466572,-0.950004673465651,-0.330799819556082,0.356762725963186,-0.140581424908224,1.69939591686718,-1.18298191771273,1.69939591686822,-0.310889021357605,NaN,NaN,NaN,NaN,-1.6694052061871,-1.33768259601294,0.160123718557604,-1.33768259600891,-1.3611903161861,0.39784647215909,-1.25250978344968,0.984304458855305,-1.12997978164146,NaN,NaN,-1.40270522542033,0.748107932583146,-0.0429295020449555,-0.978577394305914,-0.87860070700409,-1.85772361617532,-0.435250424661144,-1.59670840215757,NaN,-0.481625245745527,-1.92979437332693,-0.643987944771821,NaN,NaN,NaN,0.551814551657558,0.0527587390188873,0.0195671052156797,0.686604818386511,0.686604818386927,-0.538375900954895,0.53837590095406,0.329243831261169
1462.5792,-0.268651162711205,-0.922274344818509,-0.713137378177793,1.23595000314603,-0.961696214965818,-0.961696214964912,-0.331242814466285,0.331383679435999,-0.17276045015285,1.66671981477157,-1.17900269493361,1.66671981477262,-0.298267817598306,NaN,NaN,NaN,NaN,-1.70129008997023,-1.30602777370032,0.16254610405219,-1.30602777369626,-1.38482323749093,0.405250990409909,-1.27342618915452,0.982411869527597,-1.14693526810456,NaN,NaN,-1.40250322100352,0.740828065062516,-0.0418769747567278,-0.993310442499776,-0.890882870437129,-1.86017295073995,-0.447383599679486,-1.60391572490412,NaN,-0.461319758608909,-1.90535185677142,-0.653960743471638,NaN,NaN,NaN,0.57189859212396,0.0350127095527951,0.0118109398927363,0.694477135843412,0.69447713584383,-0.533340551454529,0.533340551453704,0.326094440343999
1462.6816,-0.28856320775336,-0.950972405104142,-0.743410208234931,1.23756396721315,-0.973544032008346,-0.973544032007456,-0.330320187087232,0.304871841791217,-0.203938448246572,1.63519580379445,-1.17491995723267,1.6351958037955,-0.286493499285704,NaN,NaN,NaN,NaN,-1.73175317778774,-1.27450658974092,0.166805991972389,-1.27450658973682,-1.4084654598445,0.413477715340577,-1.2929835844984,0.980673123540116,-1.16321726708855,NaN,NaN,-1.40230835334051,0.734315072691697,-0.0405599685956051,-1.00728762322267,-0.902357624505284,-1.86116846264006,-0.458840559726879,-1.6097253636933,NaN,-0.439441899258869,-1.87995460283213,-0.66253142252998,NaN,NaN,NaN,0.590821972242251,0.0185178543706254,0.00287312053081796,0.701750364710717,0.701750364711136,-0.52877521121043,0.528775211209607,0.322232558941289
1462.784,-0.307474400610239,-0.979182380004809,-0.772704882902045,1.23959246442862,-0.985544237878986,-0.985544237878111,-0.328009657855965,0.277211874282097,-0.234095200139213,1.60486433309425,-1.17070514459751,1.60486433309531,-0.275593218456789,NaN,NaN,NaN,NaN,-1.76078681490406,-1.24315149531359,0.172882023283938,-1.24315149530945,-1.4320631751028,0.422471274880285,-1.3111986176038,0.979112285135522,-1.17880910982011,NaN,NaN,-1.4021046807757,0.728624145415378,-0.0389879750587072,-1.02050122701967,-0.913023519155519,-1.86072577557723,-0.469624654361359,-1.61415060980249,NaN,-0.416043984599347,-1.8536431112902,-0.669691862811428,NaN,NaN,NaN,0.608526904918546,0.00329423015822012,-0.00729755414638755,0.7083968653054,0.708396865305818,-0.52471532005845,0.524715320057632,0.317638745331
1462.8864,-0.325368660640821,-1.00687287527252,-0.800992274557864,1.24206774697369,-0.997691788778393,-0.997691788777537,-0.324291993620214,0.248391254394514,-0.263212362028644,1.57576172887725,-1.16632750625389,1.57576172887831,-0.265589920218449,NaN,NaN,NaN,NaN,-1.78838519232411,-1.21199245555085,0.180747865402825,-1.21199245554667,-1.45556161350694,0.432173503262247,-1.32809124486528,0.977752214455544,-1.19369555557642,NaN,NaN,-1.40187542504757,0.72380465333433,-0.0371721338935502,-1.03294476034122,-0.922881083832485,-1.85886299258744,-0.479740520328195,-1.61720719724083,NaN,-0.391181108203544,-1.82645809213175,-0.675437291539476,NaN,NaN,NaN,0.624959057171437,-0.0106428754414547,-0.0187492709791996,0.714389245476319,0.71438924547674,-0.521194518003008,0.5211945180022,0.312294991274885
1462.9888,-0.342233389131737,-1.03401343408893,-0.82824622542804,1.24501724816941,-1.00998061111203,-1.00998061111118,-0.319150882049085,0.218400244577391,-0.291273283098308,1.54792025651094,-1.16175404849257,1.54792025651201,-0.256502281674434,NaN,NaN,NaN,NaN,-1.8145443982118,-1.18105705816245,0.190372116665426,-1.18105705815823,-1.47890537655296,0.442523801823788,-1.34368459749538,0.976614395186517,-1.2078628831135,NaN,NaN,-1.40160311623252,0.719899792996528,-0.0351251118048509,-1.04461292129272,-0.931932738779215,-1.85560073191482,-0.489194025088981,-1.61891330494722,NaN,-0.364910812677269,-1.79844037125646,-0.679766237230006,NaN,NaN,NaN,0.640067865651508,-0.0232828700637186,-0.0315268148841395,0.719700398861446,0.719700398861869,-0.518244481580083,0.518244481579291,0.306184910178365
1463.0912,-0.358059554856029,-1.06057472783582,-0.854443716076943,1.24846350445607,-1.02240373827716,-1.02240373827634,-0.312572783820954,0.187231847819217,-0.318262800432419,1.52136822158092,-1.1569495013584,1.52136822158201,-0.248344669066127,NaN,NaN,NaN,NaN,-1.8392624632618,-1.15037065188338,0.201718236690528,-1.15037065187913,-1.50203876421835,0.453459501511862,-1.35800483727927,0.975718779408409,-1.22129897432539,NaN,NaN,-1.40126973905598,0.716946296276153,-0.0328609655268038,-1.05550156437091,-0.940182688015826,-1.85096214839131,-0.497992209370225,-1.61928954759684,NaN,-0.337292781861833,-1.76963079931491,-0.682680476497087,NaN,NaN,NaN,0.653806825689341,-0.0346197619259015,-0.0456712147099668,0.724303548598142,0.724303548598574,-0.515894795263251,0.515894795262472,0.299293914897781
1463.1936,-0.372841765601182,-1.08652874271701,-0.879565021720877,1.25242413842369,-1.0349534518297,-1.0349534518289,-0.304546766468779,0.154881748838996,-0.34416701945919,1.49613010208165,-1.15187631545264,1.49613010208274,-0.241127117126269,NaN,NaN,NaN,NaN,-1.86253939688691,-1.11995650170046,0.214744510025885,-1.11995650169615,-1.52490609615688,0.464916228571594,-1.37108099852542,0.975083652280044,-1.23399338828575,NaN,NaN,-1.40085687754826,0.714974197016291,-0.0303949939386841,-1.06560765349665,-0.947636795996887,-1.84497293835961,-0.506143230055627,-1.61835895411678,NaN,-0.308388551458237,-1.74007015942357,-0.684184970427286,NaN,NaN,NaN,0.666133751971328,-0.04465204250218,-0.0612194173012347,0.728172290522505,0.728172290522942,-0.514172857470582,0.51417285746982,0.291609385401187
1463.296,-0.386578334556899,-1.11184896053404,-0.903593861615957,1.25691189393363,-1.04762141826916,-1.04762141826838,-0.295064328159741,0.121348238486797,-0.368973097458983,1.47222669184777,-1.14649469694527,1.47222669184888,-0.234855336982584,NaN,NaN,NaN,NaN,-1.8843772158475,-1.08983594954679,0.229404048123515,-1.08983594954242,-1.54745202306644,0.476828269642357,-1.38294481716943,0.974725513606086,-1.24593742637721,NaN,NaN,-1.40034585886045,0.714006641850144,-0.0277435728567551,-1.07492920484509,-0.95430244571448,-1.83766133478327,-0.513656307544913,-1.61614694075371,NaN,-0.278261238354077,-1.70979907767007,-0.68428778627381,NaN,NaN,NaN,0.677011014929254,-0.0533825516377386,-0.0782039910392589,0.731280630246071,0.731280630246513,-0.513103819790195,0.513103819789454,0.283120827106516
1463.3984,-0.399271352776505,-1.13651053113341,-0.926517547952705,1.26193470993763,-1.06039881298766,-1.0603988129869,-0.284119223271724,0.0866321224582349,-0.392669049640923,1.44967523256622,-1.14076268318447,1.44967523256733,-0.229530758956378,NaN,NaN,NaN,NaN,-1.90477997092128,-1.06002857649638,0.245644827832951,-1.06002857649197,-1.56962182887133,0.489128932466707,-1.39363055426671,0.974658972382021,-1.25712419089982,NaN,NaN,-1.39971790150501,0.714059736334582,-0.0249239620956231,-1.08346522427871,-0.960188376650818,-1.82905810261961,-0.520541679997975,-1.61268128737943,NaN,-0.246975288754703,-1.67885794407489,-0.683000007727089,NaN,NaN,NaN,0.686405755273609,-0.0608183375706909,-0.0966528676695518,0.733603012916252,0.733603012916702,-0.512710559160285,0.512710559159565,0.273820018483643
1463.5008,-0.410926774513519,-1.16049043382408,-0.948327137477484,1.26749582088191,-1.07327642667594,-1.07327642667519,-0.271707306204013,0.050736625747168,-0.415243592571841,1.4284895197158,-1.13463625784539,1.42848951971692,-0.225150613240362,NaN,NaN,NaN,NaN,-1.92375377322557,-1.0305523660727,0.263409756431231,-1.03055236606822,-1.59136172416516,0.501750897630158,-1.40317482214858,0.974896654134578,-1.26754863824758,NaN,NaN,-1.3989542732489,0.715142427785422,-0.0219540824076307,-1.0912156452191,-0.965304506346603,-1.81919653915446,-0.526810562825993,-1.60799211986385,NaN,-0.214596242998703,-1.64728684922485,-0.680335650842631,NaN,NaN,NaN,0.694290073499347,-0.066970527822424,-0.116589129462692,0.735114353705558,0.735114353706014,-0.513013679408925,0.513013679408223,0.263701145113447
1463.6032,-0.421554513146454,-1.18376762349735,-0.969017581810654,1.27359387561718,-1.08624475117626,-1.08624475117554,-0.257826412397563,0.0136673141622052,-0.436686031956474,1.40867997465833,-1.12806950332348,1.40867997465946,-0.221708045941808,NaN,NaN,NaN,NaN,-1.94130681342438,-1.00142386498143,0.282636752093761,-1.00142386497689,-1.61261912516722,0.514626555026177,-1.41161641567336,0.975449124749756,-1.27720762343864,NaN,NaN,-1.39803645765481,0.717256430427823,-0.018852271309165,-1.09818126925306,-0.969661742604819,-1.80811247422046,-0.532475110108609,-1.60211189321014,NaN,-0.181190513863931,-1.61512553617781,-0.676311603962338,NaN,NaN,NaN,0.700641189878539,-0.0718542218915169,-0.138030839414084,0.735790082992882,0.735790082993347,-0.514031531335944,0.514031531335264,0.252760919098608
1463.7056,-0.431168541488,-1.20632315793151,-0.988587870117881,1.28022307127799,-1.09929404316435,-1.09929404316365,-0.242476291486501,-0.0245679454372469,-0.456986194227534,1.39025367805026,-1.12101478824789,1.39025367805141,-0.219192264920238,NaN,NaN,NaN,NaN,-1.95744936480386,-0.97265833642386,0.303258839257673,-0.97265833641925,-1.63334291483037,0.527688324461521,-1.41899614481505,0.976324834324418,-1.2860999304241,NaN,NaN,-1.39694632173418,0.720396196714376,-0.0156370325506292,-1.10436370781424,-0.9732717930956,-1.79584425948339,-0.537548376686719,-1.59507536672254,NaN,-0.146825177368746,-1.5824133629669,-0.670947596151073,NaN,NaN,NaN,0.705441573455351,-0.0754884054103153,-0.160990904802409,0.735606216378776,0.735606216379248,-0.515780237169803,0.515780237169146,0.24099868357224
1463.808,-0.439786993971867,-1.2281403090971,-1.0070411639844,1.28737330234791,-1.11241436937881,-1.11241436937814,-0.225658600435471,-0.0639589720530933,-0.476134398279512,1.37321436578877,-1.1134229886376,1.37321436578992,-0.217588711567015,NaN,NaN,NaN,NaN,-1.97219376577881,-0.944269905339482,0.325204270731388,-0.944269905334787,-1.65348369197672,0.540868969890983,-1.42535666102732,0.977530081023635,-1.29422628577178,NaN,NaN,-1.39566627629384,0.724548938080217,-0.0123267926369705,-1.10976532345337,-0.976146978526577,-1.78243273729758,-0.542044282547962,-1.58691956473869,NaN,-0.111567778003612,-1.54918927070168,-0.664266187329983,NaN,NaN,NaN,0.708679042408205,-0.0778958766984896,-0.185476962820518,0.73453945164809,0.73453945164857,-0.518273708934522,0.518273708933884,0.228416500067619
1463.9104,-0.447432268896478,-1.24920466502914,-1.0243849269574,1.29503032838928,-1.12559564051504,-1.12559564051439,-0.207376957501795,-0.10449320148415,-0.494121464956229,1.35756239671967,-1.10524374084314,1.35756239672084,-0.216879255424654,NaN,NaN,NaN,NaN,-1.98555438174887,-0.916271697835631,0.34839668876645,-0.916271697830878,-1.67299401354238,0.554101916503986,-1.4307422691467,0.979068993060777,-1.30158935741405,NaN,NaN,-1.39417942328913,0.72969470033163,-0.00893967135579939,-1.11438917098886,-0.978300053506036,-1.76792118215632,-0.545977581208387,-1.57768371840529,NaN,-0.0754861489839316,-1.51549175206663,-0.656292771683867,NaN,NaN,NaN,0.710346841972411,-0.0791031774794948,-0.211491280322873,0.73256729119025,0.732567291190738,-0.521523655956093,0.521523655955474,0.215019216439148
1464.0128,-0.454131121859785,-1.26950422182796,-1.04063104230437,1.30317596805284,-1.13882763508017,-1.13882763507953,-0.187637049608064,-0.146155569972558,-0.51093876199623,1.34329470365525,-1.09642572322762,1.34329470365643,-0.217042404894294,NaN,NaN,NaN,NaN,-1.99754754849559,-0.888675975841853,0.372755328170823,-0.888675975837044,-1.69182862408147,0.567321568519963,-1.43519872017486,0.980943529860184,-1.30819373889448,NaN,NaN,-1.39246968528884,0.73580650010371,-0.00549326551132407,-1.11823893838305,-0.979744034517636,-1.75235520669363,-0.549363830207038,-1.56740918158434,NaN,-0.0386482422755662,-1.48135881036506,-0.647055585889679,NaN,NaN,NaN,0.710443706956018,-0.0791405244974393,-0.23903066583602,0.729668190975556,0.72966819097605,-0.525539578543017,0.525539578542416,0.200814516482086
1464.1152,-0.459914734645843,-1.28902945438062,-1.05579590147956,1.31178833119367,-1.15210000572625,-1.15210000572564,-0.166446779942749,-0.188928364294801,-0.526578278235893,1.33040473608932,-1.0869169628047,1.33040473609052,-0.2180535253317,NaN,NaN,NaN,NaN,-2.00819150100954,-0.861494264454473,0.398195258678888,-0.861494264449601,-1.70994466140342,0.580463617888614,-1.43877298563678,0.983153508434725,-1.31404591456349,NaN,NaN,-1.39052191147702,0.74285053121638,-0.00200444277546033,-1.12131888593328,-0.980492032055028,-1.7357826207745,-0.552219356751728,-1.55613930914998,NaN,-0.00112195985333502,-1.44682789503713,-0.636585713511933,NaN,NaN,NaN,0.708973910084854,-0.0780417365876306,-0.268086396868009,0.725821742028369,0.725821742028867,-0.530328743355485,0.530328743354916,0.185812954048039
1464.2176,-0.464818742151524,-1.3077733500622,-1.06990044215341,1.32084210311879,-1.16540225872249,-1.16540225872189,-0.143816443844816,-0.232791046976432,-0.541032716795138,1.31888240035208,-1.07666516242606,1.31888240035329,-0.219885059917105,NaN,NaN,NaN,NaN,-2.01750629059652,-0.834737468789273,0.424627661470609,-0.834737468784354,-1.72730183473798,0.593465337715456,-1.44151301875072,0.98569666353737,-1.31915419793361,NaN,NaN,-1.38832195736006,0.750786455916323,0.00151085187211733,-1.12363378182402,-0.980557086585869,-1.71825322864972,-0.554561208623291,-1.54391928195039,NaN,0.0370250179698482,-1.41193580244768,-0.624917080271586,NaN,NaN,NaN,0.705947291112203,-0.0758441451569244,-0.298644165473058,0.721008891177895,0.7210088911784,-0.535896136116464,0.535896136115916,0.170027973265991
1464.32,-0.468883203888413,-1.32573139329638,-1.08297011948285,1.33030889424137,-1.17872370107954,-1.17872370107896,-0.119758929057831,-0.277720056249603,-0.554295599887602,1.30871400266217,-1.06561804316705,1.30871400266339,-0.222506755154407,NaN,NaN,NaN,NaN,-2.0255136876927,-0.808415984016641,0.451960128404863,-0.808415984011703,-1.74386258447361,0.606265864227556,-1.44346750877945,0.988568749041897,-1.32352863614653,NaN,NaN,-1.38585673931556,0.759567801080738,0.00503776948089226,-1.12518883179633,-0.979952010635076,-1.69981854934903,-0.556407081764604,-1.53079586344034,NaN,0.075725403486271,-1.3767185379744,-0.612086440499446,NaN,NaN,NaN,0.701379261613506,-0.0725884757625462,-0.330684040963674,0.715212202594439,0.715212202594945,-0.542244390941015,0.542244390940488,0.153475916131591
1464.4224,-0.472152518212783,-1.3429014979998,-1.09503480763552,1.34015766158959,-1.19205335463627,-1.1920533546357,-0.0942899457079397,-0.323688575566878,-0.566361388258433,1.29988220067736,-1.0537236971232,1.2998822006786,-0.225885896290778,NaN,NaN,NaN,NaN,-2.03223706364568,-0.782539809028554,0.480096965193649,-0.782539809023607,-1.75959223655634,0.618806476911966,-1.44468563091323,0.991763682877868,-1.32718087861755,NaN,NaN,-1.38311426404017,0.769142472429666,0.00856270434306926,-1.12598960249606,-0.978689239888764,-1.68053145588604,-0.557775220720363,-1.51681708294532,NaN,0.114912464023365,-1.34121114299462,-0.598133360104194,NaN,NaN,NaN,0.695290781943633,-0.0683186945754402,-0.364180446637124,0.708416152982395,0.7084161529829,-0.5493737015197,0.549373701519197,0.136176018502136
1464.5248,-0.474675295463769,-1.35928389739803,-1.10612864829087,1.35035519190353,-1.20537984208003,-1.20537984207947,-0.0674282907201052,-0.370666273918219,-0.577225625086376,1.29236596705572,-1.0409309482984,1.29236596705697,-0.229987556639827,NaN,NaN,NaN,NaN,-2.03770124991733,-0.75711867087747,0.508939480350715,-0.757118670872523,-1.77445915603209,0.631030880428087,-1.44521679198646,0.995273727095137,-1.33012401652238,NaN,NaN,-1.38008363028285,0.779453374301058,0.012073412592492,-1.12604194348561,-0.976780699059426,-1.66044575095776,-0.558684294606785,-1.50203186010956,NaN,0.154520168373329,-1.30544749992752,-0.58310020081534,NaN,NaN,NaN,0.687708306693317,-0.0630818208853878,-0.399102150686343,0.700607441581558,0.700607441582062,-0.557281727568967,0.557281727568488,0.118150393488408
1464.6272,-0.476504219768717,-1.37488101041964,-1.11628987787511,1.36086661765818,-1.21869125530846,-1.21869125530791,-0.0391961394118985,-0.418619032752653,-0.586885111126441,1.28614056360543,-1.02718972070095,1.28614056360669,-0.234774861501952,NaN,NaN,NaN,NaN,-2.04193238513013,-0.732162157356261,0.538386252944039,-0.732162157351335,-1.78843489401166,0.642885480366176,-1.44511037720373,0.999089683588398,-1.33237240697547,NaN,NaN,-1.37675500343348,0.79043909484361,0.0155591014695656,-1.12535191822197,-0.974237691911234,-1.63961571810562,-0.559153257347559,-1.48648960384613,NaN,0.194483311545639,-1.2694601368993,-0.567032102931238,NaN,NaN,NaN,0.678663697378154,-0.056927714795052,-0.435412276532008,0.69177528730088,0.691775287301384,-0.565963516442728,0.565963516442268,0.0994239988197992
1464.7296,-0.477695923459057,-1.3896973031125,-1.12556066078416,1.37165593480817,-1.23197501777443,-1.23197501777389,-0.00961934658431748,-0.467508684815114,-0.595338111302543,1.28117752020403,-1.01245141215847,1.28117752020529,-0.240209264532182,NaN,NaN,NaN,NaN,-2.04495776661262,-0.707679848233633,0.568333390249214,-0.707679848228736,-1.80149431697965,0.654319640107212,-1.44441550354574,1.0032010866309,-1.33394149555893,NaN,NaN,-1.37311957158017,0.802034614408328,0.0190104940659587,-1.123925753418,-0.971070820991003,-1.61809568721497,-0.559201202761556,-1.47023981985586,NaN,0.23473761739982,-1.23328005041094,-0.549976959279487,NaN,NaN,NaN,0.668194107044202,-0.0499088559003497,-0.473068341143633,0.681911693085797,0.681911693086298,-0.575411456723807,0.575411456723373,0.0800245834229883
