time,S1-D1,S1-D8,S1-D9,S1-D15,S2-D1,S2-D2,S2-D3,S2-D9,S3-D1,S3-D2,S3-D16,S4-D2,S4-D3,S4-D5,S5-D3,S5-D4,S5-D5,S6-D2,S6-D5,S6-D17,S7-D6,S7-D7,S8-D6,S8-D7,S8-D18,S9-D3,S9-D4,S9-D9,S9-D11,S9-D19,S10-D8,S10-D9,S10-D10,S10-D11,S11-D8,S11-D10,S11-D20,S12-D10,S12-D11,S12-D12,S13-D4,S13-D11,S13-D12,S14-D10,S14-D12,S14-D21,S15-D13,S15-D14,S16-D13,S16-D14,S16-D22
343.1424,-0.557129194236141,0.78445498183167,-0.133753748640524,0.907025326794394,0.635096369184356,0.635096369185723,-1.418109138557,-0.535453606729297,-1.38298593137039,0.280680252165364,-0.489277098921708,0.280680252165125,0.538929688754648,NaN,NaN,NaN,NaN,2.73831771129781,-0.622779616085256,-0.337706829048936,-0.622779616082977,-1.20322790938837,-1.27482794014714,-1.28401058658242,-0.159882715358704,0.213800906465919,NaN,NaN,0.769623894252557,-1.02470874880864,-0.0417553920075082,-0.403827636853224,-0.502215333599391,-0.568880639872375,-0.0490181381209281,-0.485775788567203,NaN,0.416515727343463,0.275193157395684,2.47086732436902,NaN,NaN,NaN,-1.26906093950887,-0.800771300461017,0.0271906007789912,-1.09383422191238,-1.09383422191203,0.039069207990676,-0.0390692079903945,-1.10027359202983
343.2448,-0.555517833610415,0.797559371338249,-0.126818210440803,0.892308350153802,0.64385198646315,0.643851986464517,-1.44280430977542,-0.508756644564201,-1.38393800561387,0.280314895338042,-0.489583521200978,0.280314895337805,0.528409091350434,NaN,NaN,NaN,NaN,2.72765272797742,-0.647894358119046,-0.333727346139984,-0.647894358116758,-1.20068117080313,-1.27358832258155,-1.28209406498052,-0.180044933361005,0.194107365066614,NaN,NaN,0.773620528430844,-1.02619881329717,-0.0693402839629427,-0.372100715009602,-0.511586418537516,-0.583948957028171,-0.0309632801431831,-0.492576593569347,NaN,0.417792803580794,0.270901734575051,2.42878559754165,NaN,NaN,NaN,-1.31204368701289,-0.836450503189033,0.0255762123158337,-1.13674562565227,-1.1367456256519,0.0309839270754518,-0.0309839270751738,-1.1127226918074
343.3472,-0.554015485879274,0.810642061128701,-0.119983472475797,0.877287899051673,0.652501529944778,0.652501529946145,-1.46648688920064,-0.481222993900181,-1.38361080221594,0.279609670326096,-0.490013160356594,0.279609670325861,0.51755238856458,NaN,NaN,NaN,NaN,2.7149243426754,-0.672864969471809,-0.330458191313826,-0.672864969469514,-1.19741456879829,-1.2720447236032,-1.27966130920646,-0.201174353864584,0.174360229615762,NaN,NaN,0.777503149329851,-1.02705884255479,-0.0966707161015681,-0.340068766640151,-0.520225509716104,-0.599096833496187,-0.0120507103229414,-0.499174337438549,NaN,0.418337817794908,0.265811117233282,2.38499840924486,NaN,NaN,NaN,-1.35508002907895,-0.87184634592266,0.024110049445153,-1.17985585979375,-1.17985585979337,0.0220351210512612,-0.0220351210509881,-1.12496978192244
343.4496,-0.552644188506658,0.823691295320708,-0.11327305110573,0.861980015393043,0.661016036142993,0.661016036144361,-1.48909600538774,-0.452907744548904,-1.38199509311146,0.278565645524518,-0.490553286067476,0.278565645524286,0.506381557415534,NaN,NaN,NaN,NaN,2.70018440308083,-0.697621243813953,-0.327935727917529,-0.697621243811651,-1.19345499384435,-1.27022831153794,-1.27674248588403,-0.22328108925931,0.154585088295611,NaN,NaN,0.781267316441283,-1.02729760722265,-0.123719193270628,-0.307761194729056,-0.528120868011208,-0.61428208060607,0.00771935129598367,-0.505534203062789,NaN,0.418117681936227,0.259895400947058,2.33961390181112,NaN,NaN,NaN,-1.39813132964714,-0.90692773258682,0.0227858812414456,-1.22310932817277,-1.22310932817238,0.0121933896024657,-0.0121933896021987,-1.13701295374095
343.552,-0.551422724562016,0.836694906043947,-0.106707904923104,0.846400867837511,0.669366126232537,0.669366126233907,-1.5105741059776,-0.42386804874308,-1.37908540674398,0.277186438265274,-0.491190241632331,0.277186438265044,0.494919425222216,NaN,NaN,NaN,NaN,2.68348983846247,-0.722093458532085,-0.326193817508977,-0.722093458529776,-1.18883110543121,-1.26816980972512,-1.27336837552134,-0.246370477558979,0.13480529163422,NaN,NaN,0.784907440548764,-1.02692481442546,-0.15046228317647,-0.275206058201924,-0.535265729911623,-0.629462087207404,0.0283441997530546,-0.511621802874147,NaN,0.417101762807576,0.253131320917489,2.29274214007909,NaN,NaN,NaN,-1.44115652844569,-0.941662803750744,0.0215947076762296,-1.26644743387262,-1.26644743387222,0.00143117512759201,-0.00143117512733092,-1.14884976470478
343.6544,-0.550366615894271,0.849640314328232,-0.100306428641383,0.830566716617154,0.677522139408924,0.677522139410293,-1.53086702726435,-0.394162945865943,-1.37487996649093,0.275478183744975,-0.491909563471397,0.275478183744747,0.483189602361801,NaN,NaN,NaN,NaN,2.66490245676146,-0.746212782902492,-0.325263657373413,-0.746212782900175,-1.18357313833564,-1.26589930460259,-1.26957017310189,-0.270442871727763,0.11504172315293,NaN,NaN,0.788416833029528,-1.02595111443423,-0.176880659598878,-0.242430005953628,-0.541658304628065,-0.644594066816101,0.0498184948174233,-0.517403430343994,NaN,0.415262087425736,0.245498443371086,2.24449480579687,NaN,NaN,NaN,-1.48411190506514,-0.9760186044165,0.0205247060898043,-1.30980842908642,-1.30980842908601,-0.0102770258910189,0.0102770258912738,-1.1604771505223
343.7568,-0.549488161547843,0.862514535505735,-0.0940844830581972,0.814493872421096,0.685454252207907,0.685454252209276,-1.54992402234133,-0.363853151668288,-1.36938057593196,0.273449457704337,-0.492696095360679,0.273449457704111,0.471216394790654,NaN,NaN,NaN,NaN,2.6444887145878,-0.769911681939263,-0.325173632941476,-0.769911681936938,-1.1777126813681,-1.26344604225974,-1.26537926898888,-0.295493486101598,0.0953125965857392,NaN,NaN,0.791787756882912,-1.0243880956004,-0.202959102928881,-0.209458218468446,-0.547301711889943,-0.659635308868992,0.0721341349359788,-0.522846307257945,NaN,0.412573540226871,0.236979351180197,2.1949848750075,NaN,NaN,NaN,-1.52695084738914,-1.00996075553908,0.0195612078671728,-1.35312727994101,-1.35312727994059,-0.0229544089185403,0.0229544089187886,-1.17189135263865
343.8592,-0.548796514091099,0.875304202642903,-0.0880554491797521,0.798198658936762,0.693132586286961,0.693132586288328,-1.5676977596613,-0.333000815985401,-1.36259246220992,0.271111149203852,-0.493534103064566,0.271111149203631,0.459024678304085,NaN,NaN,NaN,NaN,2.62231945719118,-0.793124314343476,-0.325949189008248,-0.793124314341143,-1.17128244295027,-1.26083822688389,-1.26082702447999,-0.321512297800352,0.0756332896322758,NaN,NaN,0.79501149119144,-1.02224826653048,-0.228686457775031,-0.176314370387104,-0.552203874450141,-0.674543436681229,0.0952801533469019,-0.527918829585648,NaN,0.409014059462531,0.2275598283877,2.14432628178008,NaN,NaN,NaN,-1.56962365460752,-1.0434531619285,0.0186867153071552,-1.39633557763509,-1.39633557763466,-0.0366215651985357,0.0366215651987775,-1.18308784766163
343.9616,-0.548297780731116,0.887995621162087,-0.0822302898763094,0.781697385805076,0.70052731812649,0.700527318127856,-1.58414431396422,-0.301669263390504,-1.35452410284153,0.268476286052418,-0.494407393049235,0.268476286052201,0.446639723209766,NaN,NaN,NaN,NaN,2.59846962888081,-0.815786925707109,-0.327612718153091,-0.815786925704768,-1.16431602262201,-1.25810283857919,-1.25594456087974,-0.348483998386768,0.0560162276586425,NaN,NaN,0.798078419796283,-1.01954502683295,-0.254055546384209,-0.14302062836388,-0.556377378805686,-0.689276673854973,0.119242634202148,-0.532590814067203,NaN,0.404564841238778,0.217229049815821,2.09263357193589,NaN,NaN,NaN,-1.61207740744535,-1.07645778845249,0.0178809719482272,-1.43936153094259,-1.43936153094215,-0.051296146596964,0.0512961465971997,-1.19406126891789
344.064,-0.547995136076933,0.900574857204538,-0.0766176069477303,0.765006332357394,0.707608803044683,0.707608803046048,-1.59922317198879,-0.269922734391253,-1.34518706370986,0.265559821162368,-0.495299436013897,0.265559821162155,0.434086971167063,NaN,NaN,NaN,NaN,2.573017958355,-0.837838239220071,-0.330183461877395,-0.837838239217722,-1.15684770110645,-1.2552654808498,-1.2507625738695,-0.376387987379553,0.0364708227590805,NaN,NaN,0.800978146785152,-1.01629262740554,-0.279063040271311,-0.109597688386961,-0.559839312429375,-0.703794121606188,0.144004647440571,-0.536833747950471,NaN,0.399210557903859,0.2059797814217,2.0400215497326,NaN,NaN,NaN,-1.65425592246588,-1.10893451836666,0.0171210949042444,-1.48213005755192,-1.48213005755146,-0.0669925003950087,0.0669925003952389,-1.20480531611605
344.1664,-0.547888938860004,0.913027851741848,-0.0712236905442454,0.748141740821114,0.714347712318901,0.714347712320264,-1.61289726461187,-0.237826140487303,-1.33459586532309,0.262378392885456,-0.496193493755674,0.262378392885248,0.421391780513265,NaN,NaN,NaN,NaN,2.54604662825856,-0.859219836594991,-0.333677418003737,-0.859219836592635,-1.14891224905828,-1.2523502545284,-1.24531117146809,-0.40519839624278,0.0170034668878584,NaN,NaN,0.803699628508586,-1.01250611565855,-0.303709294492089,-0.0760648500732878,-0.562611081839175,-0.718056043932721,0.169546201482493,-0.540621039626253,NaN,0.392939588427251,0.193808589484506,1.98660492240183,NaN,NaN,NaN,-1.69609978562263,-1.14084108642164,0.0163817655061807,-1.52456296571022,-1.52456296570975,-0.0837212929279052,0.0837212929281304,-1.21531265460294
344.2688,-0.547976850451292,0.925340553475327,-0.0660525620928742,0.731119823588873,0.720715176000773,0.720715176002136,-1.62513302248368,-0.205444839440811,-1.3227678792703,0.258950075711972,-0.49707274873785,0.258950075711769,0.408579168142108,NaN,NaN,NaN,NaN,2.51764094346684,-0.879876505436296,-0.338107245912083,-0.879876505433931,-1.14054474484935,-1.24937964663965,-1.23961972458025,-0.434884130718919,-0.00238241839672443,NaN,NaN,0.806231305641333,-1.00820125655002,-0.327998148743793,-0.0424401250921358,-0.564718215051756,-0.732024149026899,0.195844215173705,-0.543928260124328,NaN,0.385744245206997,0.180716044573587,1.93249795099208,NaN,NaN,NaN,-1.73754645020657,-1.17213307065577,0.0156354670830376,-1.56657920437949,-1.56657920437901,-0.101489150452219,0.10148915045244,-1.22557480865364
344.3712,-0.548253957128973,0.937499068740141,-0.0611060131301829,0.713956793309368,0.726682928621348,0.72668292862271,-1.63590044251223,-0.172844429462659,-1.30972324477376,0.25529413515588,-0.497920440249675,0.255294135155684,0.395673572867251,NaN,NaN,NaN,NaN,2.48788900993917,-0.899756528100809,-0.343482160631043,-0.899756528098436,-1.13178038961869,-1.24637442431158,-1.23371671899066,-0.465408921653908,-0.0216862694174319,NaN,NaN,0.808561226503587,-1.00339442450283,-0.351936700345341,-0.00874037576191322,-0.566190152139577,-0.745661854836714,0.222872511057014,-0.546733364816751,NaN,0.377620976315936,0.166706900991927,1.87781411487067,NaN,NaN,NaN,-1.77853039022696,-1.20276393336259,0.0148527616408746,-1.60809516535992,-1.60809516535943,-0.120298340348699,0.120298340348915,-1.23558205146881
344.4736,-0.548712900193337,0.949489824215253,-0.0563836452706627,0.696668917849531,0.73222345470036,0.73222345470172,-1.64517315243141,-0.140090553927546,-1.29548479059844,0.251430793615602,-0.498720013405901,0.251430793615412,0.382698648909269,NaN,NaN,NaN,NaN,2.4568814249352,-0.918811907880355,-0.349807811107063,-0.918811907877974,-1.12265431319819,-1.24335353018947,-1.22762960375614,-0.496731380758904,-0.0409102062470724,NaN,NaN,0.810677164367718,-0.998102471937116,-0.375535054066766,0.0250185209288053,-0.567060026624256,-0.758934531977195,0.250601824844483,-0.549016891313758,NaN,0.368570530431678,0.151790240292733,1.82266578871308,NaN,NaN,NaN,-1.81898331135012,-1.23268511419939,0.0140025989030782,-1.649025032945,-1.64902503294449,-0.140146497277525,0.140146497277736,-1.24532329269634
344.576,-0.549344017201848,0.961299735356783,-0.0518829170765037,0.679272590108716,0.737310125617485,0.737310125618846,-1.65292846913438,-0.107248709323884,-1.28007795447008,0.247381007526543,-0.499455283999003,0.247381007526358,0.369677086873203,NaN,NaN,NaN,NaN,2.42471097138725,-0.936998546131314,-0.357086147007333,-0.936998546128925,-1.11320137227819,-1.24033398117093,-1.22138463765706,-0.528805068756471,-0.0600588098256583,NaN,NaN,0.812566732827505,-0.992342587359466,-0.398806050620555,0.0588214871302345,-0.567364437058931,-0.771809720096061,0.27899981740726,-0.550762134619734,NaN,0.358598084993389,0.135979580322707,1.76716392215422,NaN,NaN,NaN,-1.85883442625304,-1.2618461830527,0.013052646588381,-1.68928118543974,-1.68928118543922,-0.161026389593641,0.161026389593847,-1.25478597025178
344.6784,-0.550135497265012,0.972916379905712,-0.0475992005750684,0.661784398343528,0.741917320560356,0.741917320561717,-1.65914745431478,-0.0743840589876445,-1.26353070423478,0.243166250433449,-0.500110618008964,0.243166250433271,0.356630458084843,NaN,NaN,NaN,NaN,2.39147230862081,-0.954276380947635,-0.365315283893612,-0.954276380945236,-1.10345594660314,-1.23733077553768,-1.215006739305,-0.561578593959691,-0.0791388673141857,NaN,NaN,0.814217497625758,-0.986132155122735,-0.421764972739275,0.0926540403761101,-0.56714320212352,-0.784257315741468,0.308031077269183,-0.551955301700644,NaN,0.347713343669329,0.119292955641267,1.71141771168335,NaN,NaN,NaN,-1.89801079977802,-1.29019505558698,0.0119696299968234,-1.72877465751204,-1.72877465751151,-0.182925728418004,0.182925728418204,-1.26395596253138
344.7808,-0.551073556261743,0.984328181817965,-0.0435258500664052,0.644221187478612,0.746020528126244,0.746020528127605,-1.66381496932778,-0.0415612613370338,-1.24587346775874,0.238808292536606,-0.500671121930209,0.238808292536434,0.343579078396251,NaN,NaN,NaN,NaN,2.35726165253333,-0.970609487454636,-0.374489373097971,-0.970609487452229,-1.09345173868053,-1.23435681395127,-1.20851934656998,-0.594995761283196,-0.0981590985054434,NaN,NaN,0.815617080518773,-0.979488623260202,-0.444429227220292,0.126502080214431,-0.566439088084596,-0.796249732389774,0.337657111069354,-0.552585646801528,NaN,0.335930604547547,0.101752968652246,1.6555342599945,NaN,NaN,NaN,-1.93643776614298,-1.31767826912706,0.0107196725775191,-1.76741567053597,-1.76741567053543,-0.205827029226908,0.205827029227101,-1.27281753773231
344.8832,-0.55214264006322,0.995524607086675,-0.0396542893884011,0.626600106809569,0.749596424978394,0.749596424979754,-1.66691972554882,-0.00884432102259613,-1.22713907424417,0.234328967811046,-0.501122838535756,0.23432896781088,0.33054188941022,NaN,NaN,NaN,NaN,2.32217643803218,-0.985966137370179,-0.384598476371498,-0.985966137367762,-1.08322158075142,-1.23142283837363,-1.20194428937652,-0.628995784720171,-0.117129871262215,NaN,NaN,0.816753250753924,-0.972429379218501,-0.466818000659309,0.160351669432769,-0.565297500470224,-0.807762034062667,0.367836324836492,-0.552645587804912,NaN,0.323268796263239,0.0833868053894151,1.59961822441298,NaN,NaN,NaN,-1.97403941517647,-1.34424131257362,0.00926862851935796,-1.80511422946997,-1.80511422946942,-0.229707534719594,0.229707534719781,-1.28135334935684
344.9856,-0.553325659345015,1.00649636504134,-0.0359741233789277,0.608938640212907,0.752622928198947,0.752622928200307,-1.66845432857681,0.023703528343411,-1.20736271131356,0.229749926648354,-0.501452943803918,0.229749926648193,0.317536359936616,NaN,NaN,NaN,NaN,2.2863149586896,-1.00031882020171,-0.395628444809559,-1.00031882019928,-1.07279725180055,-1.22853739152414,-1.19530167865079,-0.663513565527236,-0.136062912591187,NaN,NaN,0.817613999494504,-0.964971628537411,-0.488951886921294,0.194188806309897,-0.56376614072662,-0.818772044116165,0.398523999260115,-0.55213080394037,NaN,0.309751483701106,0.0642262150240052,1.54377146103632,NaN,NaN,NaN,-2.01073913421474,-1.36982899926167,0.00758239581256882,-1.84178077374783,-1.84178077374726,-0.254539202983927,0.254539202984106,-1.28954447984183
345.088,-0.554604246951216,1.0172356014486,-0.0324732717710394,0.591254612603961,0.755079220182456,0.755079220183816,-1.66841532293186,0.0560199033104781,-1.1865819069528,0.225092385469911,-0.501649942739784,0.225092385469754,0.304578412650334,NaN,NaN,NaN,NaN,2.24977598626054,-1.01364423659565,-0.407560808116973,-1.01364423659322,-1.06220930420167,-1.22570679446292,-1.18860980989869,-0.698480027199649,-0.154971022737312,NaN,NaN,0.81818759147407,-0.957132269252942,-0.510852492112902,0.227999187701618,-0.561894637182732,-0.829260430645306,0.429672266248658,-0.551040313754055,NaN,0.295406850407706,0.0443074603389689,1.48809267220086,NaN,NaN,NaN,-2.04646017806154,-1.39438586925638,0.0056271994729511,-1.87732685546448,-1.87732685546391,-0.280288759326697,0.280288759326868,-1.29737053011798
345.1904,-0.555959016181433,1.02773606599737,-0.029138114775048,0.573566165410002,0.756945749832442,0.756945749833803,-1.66680324683013,0.0880433167999425,-1.16483653997409,0.220376897214949,-0.501703859776657,0.220376897214797,0.291682378410335,NaN,NaN,NaN,NaN,2.212658380501,-1.02592328087806,-0.420372689838306,-1.02592328087562,-1.05148689587572,-1.22293513322993,-1.18188507443292,-0.733822490907651,-0.17386779808263,NaN,NaN,0.818462589021964,-0.948927755729526,-0.532542035347981,0.261767976054226,-0.559734165117512,-0.839210767344347,0.461230100403507,-0.549376528106856,NaN,0.280267661883072,0.0236712461734261,1.43267706073268,NaN,NaN,NaN,-2.08112623214491,-1.41785660826254,0.00336983954230626,-1.91166580789267,-1.91166580789208,-0.306917805975228,0.306917805975392,-1.30480975032689
345.2928,-0.557369798619207,1.03799324309082,-0.0259536371085612,0.555891700339843,0.758204225349123,0.758204225350487,-1.66362270013702,0.11971321295506,-1.14216886743033,0.215623165209817,-0.501606414491252,0.215623165209669,0.278860977858083,NaN,NaN,NaN,NaN,2.17506069885944,-1.03714102644506,-0.434036769099898,-1.03714102644261,-1.04065762700385,-1.220224247726,-1.17514187404129,-0.769465073676633,-0.192767360905968,NaN,NaN,0.818427852542494,-0.940373952297552,-0.554042966176534,0.295479587046468,-0.557337070908051,-0.848609565518761,0.493143337273214,-0.547145270923549,NaN,0.264371206525102,0.00236262582119839,1.37761599059801,NaN,NaN,NaN,-2.11466194462504,-1.4401864699454,0.000777907610749678,-1.9447133769776,-1.944713376977,-0.334382986068598,0.334382986068755,-1.31183920573531
345.3952,-0.558815854133559,1.04800444695521,-0.0229035638559224,0.538249800332424,0.758837622721134,0.758837622722499,-1.65888242074919,0.150970014686614,-1.11862355005339,0.210849908363839,-0.501351173208735,0.210849908363693,0.266125327124166,NaN,NaN,NaN,NaN,2.13708080927062,-1.04728671690723,-0.448521301967336,-1.04728671690477,-1.02974738738415,-1.21757372577126,-1.16839254366295,-0.805329094225462,-0.211684086157487,NaN,NaN,0.818072533361773,-0.931485987004946,-0.575377608659177,0.329117503847848,-0.554756509582436,-0.85744627222255,0.525354722892825,-0.544355762124455,NaN,0.247759207599533,-0.019569119169746,1.32299665547832,NaN,NaN,NaN,-2.14699342360331,-1.46132169051824,-0.00218001394951428,-1.97638831026477,-1.97638831026416,-0.362636201081577,0.362636201081729,-1.31843497234936
345.4976,-0.560276060078424,1.05776888706487,-0.01997049150129,0.520659138198037,0.758830225255749,0.758830225257117,-1.652595362463,0.18175518970792,-1.09424766690838,0.206074771107662,-0.500933673164956,0.20607477110752,0.253484960160181,NaN,NaN,NaN,NaN,2.0988155078051,-1.05635375708291,-0.463790198062678,-1.05635375708044,-1.01878022191373,-1.21498090998828,-1.16164728990313,-0.841333477674007,-0.230632317916108,NaN,NaN,0.81738607505825,-0.922278121149064,-0.596567832986895,0.36266411575937,-0.552046099613574,-0.865713231278493,0.557803998617173,-0.541020558801898,NaN,0.230477700401367,-0.0420706296508801,1.26890176249356,NaN,NaN,NaN,-2.17804870654931,-1.48120989410169,-0.00553415255050882,-2.00661290673176,-2.00661290673114,-0.391624874188574,0.391624874188718,-1.3245723577596
345.6,-0.561729091412684,1.06728770554961,-0.0171360232711486,0.503138378198615,0.758167686774027,0.758167686775399,-1.64477876894893,0.212011323465626,-1.06909072276642,0.201314265456748,-0.500351519643859,0.201314265456608,0.240947858948061,NaN,NaN,NaN,NaN,2.06036014644215,-1.06433969134929,-0.479803135169196,-1.06433969134682,-1.00777821704309,-1.21244092141447,-1.15491414891202,-0.877395160747165,-0.249626077648483,NaN,NaN,0.816358228544908,-0.912763647068099,-0.617634754842166,0.396100580753921,-0.549259595785629,-0.873405607375642,0.590428030230709,-0.537155451986525,NaN,0.21257687003526,-0.0650846519801552,1.2154092427664,NaN,NaN,NaN,-2.20775820545446,-1.49980049509269,-0.00931333397830686,-2.03531352324225,-2.03531352324161,-0.421292242046104,0.421292242046239,-1.33022614326973
345.7024,-0.56315360039089,1.0765639838809,-0.0143809172028602,0.485706072901245,0.756837094134194,0.75683709413557,-1.63545423933636,0.241682191004223,-1.04320465001447,0.196583733838997,-0.499604454626393,0.196583733838859,0.228520488950959,NaN,NaN,NaN,NaN,2.02180827746753,-1.07124615167473,-0.496515696602603,-1.07124615167225,-0.99676140647094,-1.20994669867324,-1.14819896214479,-0.913429509316924,-0.268678771171242,NaN,NaN,0.814979078147112,-0.902954818829012,-0.63859846242271,0.429406714633906,-0.546450577073272,-0.880521277594042,0.623160990810333,-0.53277931963016,NaN,0.1941108470716,-0.0885502544250991,1.16259200047637,NaN,NaN,NaN,-2.23605512427726,-1.5170451000572,-0.0135447547019601,-2.0624210254963,-2.06242102549565,-0.451577656122398,0.451577656122526,-1.3353708451403
345.8048,-0.564528400194857,1.08560272040892,-0.0116852499399753,0.468380559081991,0.754827009506135,0.754827009507514,-1.62464777844974,0.27071283334698,-1.01664379641791,0.191897323142366,-0.498694394440587,0.191897323142229,0.216207845056503,NaN,NaN,NaN,NaN,1.98325131827504,-1.07707876073031,-0.513879526314599,-1.07707876072782,-0.985747694675278,-1.20748905183307,-1.14150536884314,-0.949350763531272,-0.287802902164484,NaN,NaN,0.813239077340254,-0.892862817115803,-0.659477770749146,0.462560910635096,-0.543672144799116,-0.887060698217578,0.655934603351852,-0.527913940421375,NaN,0.175137461408173,-0.112403076474492,1.11051770613423,NaN,NaN,NaN,-2.26287584438015,-1.53289790268938,-0.0182537369017682,-2.0878711749989,-2.08787117499823,-0.482416881834237,0.482416881834357,-1.33998099626323
345.9072,-0.56583265437612,1.09441079014895,-0.00902859296936387,0.451179858233081,0.752127494237254,0.752127494238638,-1.61238981929516,0.299049646967142,-0.989464884143289,0.187267959561316,-0.497625436279768,0.187267959561179,0.204013513959028,NaN,NaN,NaN,NaN,1.94477823889378,-1.08184698931635,-0.531842501015652,-1.08184698931385,-0.97475279992452,-1.20505673276564,-1.13483481703068,-0.985072518767496,-0.307009801519523,NaN,NaN,0.811129097319101,-0.882497752819325,-0.680290004160821,0.495540093068132,-0.540976628620883,-0.893026755835128,0.688678442870584,-0.522583775966818,NaN,0.155717957215702,-0.136575609979838,1.05924863352243,NaN,NaN,NaN,-2.28816027669424,-1.54731605814059,-0.0234634676135353,-2.11160495432083,-2.11160495432014,-0.513742391716352,0.513742391716464,-1.34403144979016
346.0096,-0.567046071756608,1.10299690096604,-0.00639019497674771,0.434121586732989,0.748730131563337,0.748730131564722,-1.59871520231208,0.326640487015559,-0.961726928266286,0.182707314780909,-0.49640383578105,0.182707314780772,0.191939752393884,NaN,NaN,NaN,NaN,1.9064752765372,-1.0855639821493,-0.550348915165101,-1.0855639821468,-0.963790217081036,-1.20263652198668,-1.12818659316468,-1.02050823739823,-0.3263093789831,NaN,NaN,0.808640490035049,-0.871868713025195,-0.7010508054731,0.528319704841981,-0.53841529810122,-0.898424610803455,0.721320285404358,-0.516815731954895,NaN,0.13591667310737,-0.160997511131745,1.00884154169438,NaN,NaN,NaN,-2.31185218156358,-1.56026002091534,-0.0291947298360178,-2.13356884042859,-2.13356884042789,-0.545483653399796,0.545483653399899,-1.34749769954845
346.112,-0.568149103288103,1.11137155242904,-0.00374916471029889,0.417222878264136,0.744628064018705,0.744628064020091,-1.58366310033294,0.353434778502825,-0.933491110388232,0.178225759713853,-0.495037958936904,0.178225759713716,0.179987574393086,NaN,NaN,NaN,NaN,1.86842568184702,-1.08824637083622,-0.56933967338048,-1.08824637083371,-0.952871196109593,-1.20021332890237,-1.12155786677087,-1.05557177791165,-0.345709896085997,NaN,NaN,0.805765161646474,-0.860983844663639,-0.721773967600536,0.560873724927611,-0.536038077480311,-0.90326154070415,0.753786481040827,-0.510638911784124,NaN,0.115800692195355,-0.185595942023417,0.95934761078763,NaN,NaN,NaN,-2.3338994600766,-1.57169383910592,-0.0354656390687788,-2.15371503755822,-2.15371503755751,-0.577567415956329,0.577567415956424,-1.35035620362373
346.2144,-0.569123135849267,1.11954699696063,-0.00108465029413348,0.400500320201598,0.739816054863661,0.739816054865048,-1.56727688685196,0.379383630690135,-0.904820608651149,0.173832307812763,-0.493538212326101,0.173832307812628,0.168156838888408,NaN,NaN,NaN,NaN,1.83070949904706,-1.08991408894422,-0.588752489573659,-1.08991408894169,-0.942004732017729,-1.19777030330974,-1.11494374680633,-1.09017792889313,-0.365217753610663,NaN,NaN,0.802495652771205,-0.849850466946662,-0.74247128794666,0.59317471338556,-0.533893266693568,-0.907546791477973,0.786002331464937,-0.504084375123133,NaN,0.095439467493902,-0.210295938324488,0.910812443126045,NaN,NaN,NaN,-2.35425442431742,-1.58158541003468,-0.0422913967783892,-2.17200167881348,-2.17200167881276,-0.609918002555645,0.609918002555732,-1.35258469501801
346.3168,-0.569950681595788,1.12753720564397,0.00162398717660705,0.383969908745652,0.734290580078956,0.734290580080342,-1.54960394995406,0.404439955099624,-0.875780385610179,0.169534549963336,-0.491916955048475,0.169534549963201,0.156446329238935,NaN,NaN,NaN,NaN,1.79340338057369,-1.09059019914323,-0.608522097872844,-1.0905901991407,-0.931197566288928,-1.19528895804823,-1.10833734972345,-1.12424293854154,-0.384837284186109,NaN,NaN,0.798825229775639,-0.838475209259019,-0.763152451300638,0.625193885443661,-0.532027276110037,-0.911291441137044,0.817892465268061,-0.497184907572985,NaN,0.0749044287542689,-0.235020796379064,0.863276135886153,NaN,NaN,NaN,-2.3728740524091,-1.58990670316141,-0.0496840642215244,-2.18839299981878,-2.18839299981804,-0.642457620594779,0.642457620594856,-1.3541624665751
346.4192,-0.570615566765112,1.13535784349582,0.00439700453132484,0.367647027503588,0.728049952182429,0.728049952183815,-1.53069545521188,0.428558587906804,-0.84643693589763,0.165338579237423,-0.490188394000819,0.165338579237289,0.144853818928265,NaN,NaN,NaN,NaN,1.75658043401516,-1.09030073740925,-0.62858048252813,-1.09030073740671,-0.920454203345506,-1.19274930370834,-1.10172988144868,-1.15768503102282,-0.404570541848231,NaN,NaN,0.794747994772131,-0.826864175070146,-0.783824944801691,0.65690121587541,-0.530484379274086,-0.914508274198584,0.849381211497956,-0.489974799746614,NaN,0.0542685743116785,-0.259692474069227,0.816773420740161,NaN,NaN,NaN,-2.38972022692387,-1.59663394835084,-0.0576523533636579,-2.20285948218735,-2.2028594821866,-0.67510669549269,0.675106695492758,-1.35507062179132
346.5216,-0.571103121459984,1.1430262507474,0.00725410915656571,0.351546444324893,0.721094466128936,0.721094466130322,-1.51060606516373,0.451696409530746,-0.816858003870575,0.161248904853907,-0.488368464026312,0.161248904853774,0.133376125334209,NaN,NaN,NaN,NaN,1.72031009374292,-1.0890745742716,-0.648857130120058,-1.08907457426905,-0.909776944775424,-1.19012999660341,-1.09511073526509,-1.19042490318348,-0.424417088385229,NaN,NaN,0.79025901416395,-0.815023127678067,-0.804494002438504,0.688265569463506,-0.529306484196586,-0.917211659155083,0.880392968273673,-0.482489630406008,NaN,0.0336060486045102,-0.284232004163981,0.771333855024335,NaN,NaN,NaN,-2.40475994980854,-1.60174778451291,-0.066201434238212,-2.21537796357956,-2.21537796357881,-0.70778422253258,0.707784222532639,-1.35529228777456
346.624,-0.571400362558092,1.15056141569635,0.0102142938112966,0.335682309853657,0.713426549564593,0.713426549565978,-1.48939362989464,0.473812447949238,-0.787112290534943,0.157268360823273,-0.48647469508891,0.157268360823141,0.122009160281535,NaN,NaN,NaN,NaN,1.6846580070944,-1.08694329179935,-0.66927930080302,-1.0869432917968,-0.899165941225753,-1.18740850030317,-1.08846760571554,-1.22238620056242,-0.444373786030787,NaN,NaN,0.785354454876129,-0.802957688064295,-0.825162573968583,0.719254848434171,-0.528532924947977,-0.919417421668823,0.910852558647424,-0.474766050061246,NaN,0.012991708412914,-0.308559919225176,0.726982047094293,NaN,NaN,NaN,-2.4179655266312,-1.60523336668998,-0.0753327671575119,-2.22593171205494,-2.22593171205417,-0.740408123236939,0.740408123236989,-1.35481279204645
346.7264,-0.571496157686827,1.15798392403408,0.0132956773240232,0.320068139958663,0.705050901008337,0.705050901009719,-1.46711886364667,0.49486795412553,-0.757269168141156,0.153398017237715,-0.484526066637937,0.153398017237584,0.110747986137497,NaN,NaN,NaN,NaN,1.64968592866876,-1.08394107448719,-0.689772312694466,-1.08394107448463,-0.888619260947087,-1.18456125997144,-1.08178661761761,-1.25349597668845,-0.464434610295755,NaN,NaN,0.78003171184724,-0.790673534574688,-0.845831315576269,0.749836149382061,-0.528200277390566,-0.921142709873535,0.940685571020441,-0.466841562884445,NaN,-0.00749931706058231,-0.33259668598464,0.683737905927439,NaN,NaN,NaN,-2.42931471491347,-1.60708043415466,-0.0850439719863349,-2.23451046111353,-2.23451046111276,-0.772895594769544,0.772895594769587,-1.35361981183982
346.8288,-0.571381363047685,1.16531587709488,0.0165153540140251,0.304716770485527,0.695974605940485,0.695974605941864,-1.44384501355569,0.514826440632344,-0.727398412643459,0.149637098639849,-0.482542847148777,0.149637098639719,0.099586883923803,NaN,NaN,NaN,NaN,1.61545162199701,-1.08010460795572,-0.710259833345164,-1.08010460795315,-0.87813297414096,-1.18156388825049,-1.07505246908806,-1.28368514210414,-0.484590495898936,NaN,NaN,0.774289509156587,-0.77817659550045,-0.866498603757224,0.779975928237502,-0.528342202967948,-0.922405849384276,0.969818691563906,-0.458754302619338,NaN,-0.0277920722517993,-0.356263151329759,0.641616911552906,NaN,NaN,NaN,-2.43879083371294,-1.60728334493447,-0.0953287436827893,-2.24111039992886,-2.24111039992808,-0.80516344728424,0.805163447284274,-1.3517035114236
346.9312,-0.571048932905659,1.1725807769384,0.0198892527820541,0.289640278423732,0.686207225807383,0.686207225808761,-1.41963751841843,0.533653675128887,-0.697569957845299,0.145982910204922,-0.480546418167527,0.145982910204793,0.0885194381250301,NaN,NaN,NaN,NaN,1.58200877011256,-1.07547297686328,-0.730664171303558,-1.0754729768607,-0.867701252371143,-1.17839136165906,-1.06824858765093,-1.31288890765883,-0.504829225386313,NaN,NaN,0.768127961460743,-0.765473228413893,-0.887160575062429,0.809640176111621,-0.528989321654354,-0.923226185781409,0.99818003582085,-0.450542798389858,NaN,-0.0478122318938207,-0.379481005576837,0.600630404914133,NaN,NaN,NaN,-2.44638283458546,-1.60584108173309,-0.106176820178923,-2.24573411465761,-2.24573411465683,-0.837128428163827,0.837128428163854,-1.34905668180785
347.0336,-0.570493999632535,1.17980337851101,0.0234320069081176,0.274849867760033,0.675760858035348,0.675760858036726,-1.39456365650753,0.551317623905802,-0.667853673583809,0.142430770648557,-0.47855908487598,0.142430770648428,0.0775386383125843,NaN,NaN,NaN,NaN,1.54940689370084,-1.07008755685931,-0.75090656318413,-1.07008755685673,-0.857316484531807,-1.17501822894347,-1.06135730094417,-1.34104722050014,-0.525135365447897,NaN,NaN,0.761548593511811,-0.752570385411303,-0.907811192867465,0.838794610194758,-0.530169111398382,-0.923623915507157,1.02569947490929,-0.442245732619229,NaN,-0.0674865694248401,-0.4021732645406,0.560785896724468,NaN,NaN,NaN,-2.45208533880875,-1.6027572338587,-0.11757400393485,-2.24839048259393,-2.24839048259314,-0.868707532969657,0.868707532969674,-1.34567488549703
347.136,-0.569713925280814,1.18700951349716,0.0271568357003628,0.260355723936829,0.664650169371601,0.664650169372976,-1.36869218462249,0.567788345953574,-0.638319169263912,0.138973947746264,-0.476603876578018,0.138973947746135,0.0666369912936931,NaN,NaN,NaN,NaN,1.51769127110896,-1.0639919006184,-0.770907457911764,-1.06399190061582,-0.846969413779185,-1.17141883597219,-1.05436002668433,-1.36810518540974,-0.545490251982982,NaN,NaN,0.754554327256662,-0.739475767742087,-0.928442343484328,0.86740488452748,-0.53190583252178,-0.923619910309223,1.05230894606552,-0.433901698521663,NaN,-0.0867434340254489,-0.424264766660476,0.522087394750267,NaN,NaN,NaN,-2.45589865111451,-1.59803996226704,-0.129502229600707,-2.24909452836929,-2.24909452836849,-0.899818303442165,0.899818303442175,-1.34155659698661
347.2384,-0.568708329234853,1.19422589460009,0.0310754378992446,0.246166846182142,0.65289240943172,0.652892409433094,-1.34209296682619,0.58303784116094,-0.609035619290313,0.135603590120773,-0.474704341306343,0.135603590120643,0.0558066341908959,NaN,NaN,NaN,NaN,1.48690285479804,-1.05723162205404,-0.790586803365494,-1.05723162205145,-0.836649299023507,-1.16756757118246,-1.04723748583601,-1.3940134614509,-0.565872021002363,NaN,NaN,0.747149451357135,-0.726197974315577,-0.949043966123842,0.89543682500165,-0.534220479498526,-0.923235541561729,1.07794274478889,-0.425548963259605,NaN,-0.105513232637574,-0.445682680485468,0.484535748214218,NaN,NaN,NaN,-2.45782876155212,-1.59170195569937,-0.141939664961664,-2.24786725471887,-2.24786725471807,-0.930379116181992,0.930379116181992,-1.33670332559715
347.3408,-0.567479096596255,1.2014799071765,0.0351978958754834,0.232290869161797,0.640507410227298,0.64050741022867,-1.31483658966816,0.597039861811345,-0.580071602165788,0.132308653375399,-0.472884338461016,0.132308653375268,0.0450394398892864,NaN,NaN,NaN,NaN,1.45707818559302,-1.04985428357987,-0.809864337629153,-1.04985428357728,-0.826344099165029,-1.16343912911059,-1.0399699367493,-1.41872862245265,-0.586255677318804,NaN,NaN,0.739339584775497,-0.712746646110343,-0.969604218064665,0.922856689076159,-0.537130761735889,-0.92249250884218,1.10253780380232,-0.417225238752911,NaN,-0.123728911060817,-0.466357015242589,0.448129006746031,NaN,NaN,NaN,-2.45788734110916,-1.58376038131984,-0.154860834624243,-2.24473545701552,-2.24473545701471,-0.960309467589171,0.960309467589162,-1.33111971000712
347.4432,-0.566030369396359,1.20879939041367,0.0395325897962724,0.218733886589548,0.627517569342024,0.627517569343395,-1.2869939711457,0.609769707898184,-0.551494945391807,0.129075827920834,-0.471167831007824,0.1290758279207,0.034327109365301,NaN,NaN,NaN,NaN,1.42824931430376,-1.04190928595847,-0.828659880190179,-1.04190928595587,-0.816040671111192,-1.1590087798825,-1.03253741925729,-1.44221346797769,-0.606613189575405,NaN,NaN,0.731131637242338,-0.699132602498565,-0.990109667942396,0.949631443390234,-0.540651109509871,-0.921412673661317,1.12603396210963,-0.408967459853145,NaN,-0.141326422450888,-0.486221120340085,0.412862786579158,NaN,NaN,NaN,-2.45609172442607,-1.57423682556192,-0.168236758651581,-2.23973152427964,-2.23973152427882,-0.989530254667713,0.989530254667696,-1.32481358007094
347.5456,-0.564368521322888,1.21621240999305,0.0440861220108762,0.205500290389715,0.613947809118246,0.613947809119617,-1.25863598253874,0.621204034124995,-0.523372572298874,0.125889481164618,-0.469578677085743,0.125889481164483,0.0236612497085252,NaN,NaN,NaN,NaN,1.40044374328865,-1.03344775480385,-0.846893613976725,-1.03344775480125,-0.805724970189912,-1.15425262887823,-1.02491999453906,-1.46443727156282,-0.626913603074438,NaN,NaN,0.722533763707361,-0.685367962087061,-1.0105455026503,0.975729045516273,-0.544792696962707,-0.920017897026209,1.14837421872377,-0.400811570492478,NaN,-0.158245167651365,-0.505212155218197,0.378730632388438,NaN,NaN,NaN,-2.45246486283816,-1.56315721585917,-0.182035101932045,-2.23289322538151,-2.23289322538068,-1.01796404577713,1.01796404577711,-1.31779598673409
347.648,-0.562502116071658,1.22374702814678,0.0488632540784616,0.192592636409703,0.599825508992511,0.599825508993878,-1.22983310041755,0.631320689908524,-0.495770349793491,0.122731624022703,-0.468140422134838,0.122731624022567,0.0130334414248662,NaN,NaN,NaN,NaN,1.37368439624445,-1.02452241985017,-0.864486351807353,-1.02452241984756,-0.795382247243628,-1.14914785810261,-1.01709797332404,-1.48537595820251,-0.64712316986843,NaN,NaN,0.713555313196526,-0.671466245425335,-1.03089573379557,1.00111871550712,-0.549563475419936,-0.9183298813914,1.16950495921574,-0.392792321980469,NaN,-0.174428393679844,-0.523271514284764,0.345724365937268,NaN,NaN,NaN,-2.44703523340108,-1.55055171648057,-0.196220339410122,-2.22426348012816,-2.22426348012733,-1.04553534057877,1.04553534057873,-1.31008120073747
347.7504,-0.560441849240313,1.23143107909678,0.0538668599113556,0.180011543116906,0.58518041674401,0.585180416745373,-1.2006550943941,0.640098601675695,-0.468752935137378,0.11958190625726,-0.466876094097576,0.119581906257125,0.0024353009085456,NaN,NaN,NaN,NaN,1.34798961798456,-1.01518748710683,-0.881359789551675,-1.01518748710422,-0.784997243200494,-1.1436729493071,-1.00905213284871,-1.50501220898573,-0.667205500623169,NaN,NaN,0.704206778904136,-0.657442462744092,-1.05114339834733,1.02577119066245,-0.554968215643465,-0.916370020859681,1.18937614509774,-0.384943089772064,NaN,-0.189823543490613,-0.540345200036254,0.313834418135711,NaN,NaN,NaN,-2.43983670216318,-1.53645459999804,-0.210753946574219,-2.21389011834679,-2.21389011834595,-1.07217082642902,1.07217082642898,-1.30168667741935
347.8528,-0.558200474601956,1.23929195679155,0.0590978972757154,0.16775562843351,0.570044548747066,0.570044548748426,-1.1711707487214,0.64751770313157,-0.442383616724338,0.116417642911104,-0.465808004568927,0.116417642910972,-0.00814145923448545,NaN,NaN,NaN,NaN,1.32337320278848,-1.00549850277804,-0.897436755916514,-1.00549850277543,-0.774554381823997,-1.13780788886508,-1.00076392290735,-1.52333548992108,-0.687121740139701,NaN,NaN,0.69449975784637,-0.643313189200962,-1.07127075721713,1.04965896649801,-0.561008561715683,-0.914159263617209,1.20794146358214,-0.377295712772458,NaN,-0.204382556144501,-0.556384143193391,0.283050141703297,NaN,NaN,NaN,-2.43090834899157,-1.5209041018097,-0.225594613153052,-2.20182563156241,-2.20182563156156,-1.09779963942018,1.09779963942013,-1.29263298391232
347.9552,-0.555792716736402,1.24735642007825,0.0645553981771094,0.155821491612393,0.554452087295509,0.554452087296865,-1.14144761465188,0.653558921302481,-0.416724141579802,0.113213872697303,-0.464957560212037,0.113213872697175,-0.0187049784564571,NaN,NaN,NaN,NaN,1.29984444878768,-0.995512206926214,-0.912641468682836,-0.995512206923597,-0.764037957095386,-1.13153435001901,-0.992215656869736,-1.54034199670999,-0.706830760966642,NaN,NaN,0.684446926026262,-0.62909662691732,-1.09125949783527,1.07275653004222,-0.567683099531884,-0.911717988107193,1.22515844203397,-0.36988035506926,NaN,-0.218062117527221,-0.571344468928343,0.253360100536552,NaN,NaN,NaN,-2.42029425983177,-1.50394226329449,-0.240698463567141,-2.18812691944908,-2.18812691944823,-1.12235363358914,1.12235363358908,-1.28294368673352
348.0576,-0.553235172881922,1.25565041690365,0.0702364764053784,0.144203747587126,0.53843927535279,0.538439275354142,-1.11155178834954,0.6582042236079,-0.391834522395141,0.109943445628843,-0.464345088754415,0.109943445628719,-0.0292632176603108,NaN,NaN,NaN,NaN,1.27740823412122,-0.985286378293421,-0.926899801736185,-0.985286378290801,-0.753432309502853,-1.12483584690277,-0.983390681813574,-1.55603450739748,-0.726289363734772,NaN,NaN,0.674062032660587,-0.614812652105296,-1.1110909428641,1.09504058868242,-0.574987439807698,-0.909065891865148,1.240988535236,-0.362725386656451,NaN,-0.230823862617575,-0.585187709411396,0.224752334918233,NaN,NaN,NaN,-2.40804328679705,-1.48561476347265,-0.256019266381138,-2.17285502831709,-2.17285502831623,-1.14576765553282,1.14576765553275,-1.27264519864764
348.16,-0.550546207329055,1.26419892385913,0.0761363478794338,0.132895119689906,0.522044300215928,0.522044300217274,-1.08154770773225,0.661436724696692,-0.367772820055128,0.106577137358766,-0.463989679382309,0.106577137358645,-0.0398239540004083,NaN,NaN,NaN,NaN,1.25606511108469,-0.974879671202767,-0.940139563184622,-0.974879671200145,-0.742721986847573,-1.11769785634272,-0.974273523446612,-1.57042214068939,-0.745452476246449,NaN,NaN,0.663359914939442,-0.600482844819529,-1.13074626443682,1.11649029578441,-0.582914313312707,-0.906221890457982,1.25539719279699,-0.355857278737381,NaN,-0.242634535112236,-0.59788096805711,0.197214605188193,NaN,NaN,NaN,-2.39420877402009,-1.46597073641589,-0.271508623950327,-2.15607487409573,-2.15607487409487,-1.16797981779897,1.1679798177989,-1.26176658207216
348.2624,-0.547745840575724,1.27302579478244,0.0822483592498936,0.121886595200003,0.505307153591763,0.505307153593105,-1.05149796543777,0.663240848069682,-0.344594902798858,0.103083794651086,-0.463909034092684,0.103083794650967,-0.0503947918690442,NaN,NaN,NaN,NaN,1.2358114191881,-0.964351438522119,-0.952290783378534,-0.964351438519495,-0.731891886096553,-1.11010790370476,-0.964850002084589,-1.5835200199347,-0.764273355471174,NaN,NaN,0.652356531679025,-0.586130496694317,-1.15020670700747,1.13708747620908,-0.591453679837877,-0.90320402415273,1.26835390773881,-0.349300511318953,NaN,-0.253466113553718,-0.609397043644457,0.170734614588682,NaN,NaN,NaN,-2.3788482477271,-1.44506257245688,-0.287116144318563,-2.1378549407962,-2.13785494079534,-1.18893176570662,1.18893176570654,-1.25033930414653
348.3648,-0.544855633358958,1.28215361235855,0.0885640220822503,0.111167644067307,0.488269458474566,0.488269458475901,-1.0214631384149,0.663602536388339,-0.322354186298756,0.0994305212195427,-0.464119327741127,0.0994305212194244,-0.0609831786703893,NaN,NaN,NaN,NaN,1.21663942200179,-0.953761532184926,-0.963286009977872,-0.953761532182298,-0.720927372503291,-1.10205560917405,-0.955107315866716,-1.59534884276508,-0.782703804657139,NaN,NaN,0.641069009320508,-0.571780591432813,-1.16945382461708,1.15681685462218,-0.600592856951843,-0.900029370290903,1.27983224308585,-0.343077492418961,NaN,-0.263295911763451,-0.619714520692596,0.145300207493407,NaN,NaN,NaN,-2.36202307295045,-1.42294570355174,-0.302789608632029,-2.11826695060781,-2.11826695060695,-1.20856893459101,1.20856893459092,-1.23839694118725
348.4672,-0.54189856503807,1.29160353699257,0.0950730506220176,0.10072648941983,0.470974262728482,0.470974262729811,-0.991501632997482,0.662509501287683,-0.301101359716893,0.0955829085895105,-0.464635074875795,0.095582908589393,-0.0715964173798514,NaN,NaN,NaN,NaN,1.19853747082084,-0.943170080361955,-0.973060604946705,-0.943170080359324,-0.70981437599545,-1.09353269696832,-0.945034092582117,-1.60593436719959,-0.800694413023757,NaN,NaN,0.629515690029132,-0.557459756899295,-1.18846972886107,1.1756662798665,-0.610316669939201,-0.896713959219531,1.2898098379516,-0.337208486641095,NaN,-0.272106658992153,-0.628817830951446,0.12089953886511,NaN,NaN,NaN,-2.34379808870499,-1.39967837820062,-0.318475154945459,-2.09738551242458,-2.09738551242372,-1.22684079336479,1.22684079336469,-1.22597484053615
348.5696,-0.538898907772529,1.30139514994288,0.101763400646754,0.0905504059244224,0.453465811415181,0.453465811416505,-0.961669543686385,0.659951498693018,-0.280884105428609,0.0915053063723009,-0.465469000830583,0.0915053063721849,-0.0822416664789178,NaN,NaN,NaN,NaN,1.18149019215742,-0.932637249502296,-0.981553036971446,-0.932637249499661,-0.698539472770976,-1.08453298099867,-0.934620421382955,-1.61530684341545,-0.818194815750214,NaN,NaN,0.617716174222867,-0.543196194651828,-1.20723732848594,1.19362692611048,-0.620607613579476,-0.893272693620497,1.29826840111941,-0.33171155047995,NaN,-0.279886562443597,-0.636697289957397,0.0975212151567723,NaN,NaN,NaN,-2.32424124144009,-1.37532143490537,-0.334117494290609,-2.07528776400254,-2.07528776400167,-1.24370106879991,1.2437010687998,-1.21310975848814
348.672,-0.535882101224158,1.31154629433076,0.108621306973175,0.080626022527893,0.43578931521055,0.435789315211868,-0.932020526975698,0.655920614663375,-0.261746823010107,0.0871611185555767,-0.466631918200927,0.0871611185554615,-0.0929259186908284,NaN,NaN,NaN,NaN,1.16547869169054,-0.922223001424739,-0.98870516232419,-0.922223001422101,-0.687089964028413,-1.07505234530572,-0.92385788023738,-1.62350042461697,-0.835153967741433,NaN,NaN,0.605691358292628,-0.529019598203805,-1.22574053709104,1.21069345102124,-0.631446009886023,-0.88971927442036,1.30519370019869,-0.326602474454366,NaN,-0.286629350678955,-0.643349109544122,0.0751544096451933,NaN,NaN,NaN,-2.30342323281902,-1.3499380783605,-0.349660157317252,-2.05205302229012,-2.05205302228924,-1.25910794789807,1.25910794789796,-1.1998394927519
348.7744,-0.532874633964168,1.32207292373644,0.115631318564713,0.0709396186938671,0.417990725849874,0.417990725851185,-0.902605692309257,0.650411552521589,-0.243730364952346,0.0825131114567678,-0.468132616681101,0.082513111456655,-0.103655957981604,NaN,NaN,NaN,NaN,1.15048076755125,-0.911986853629764,-0.994462487302858,-0.911986853627123,-0.675453959461654,-1.06508873041691,-0.912739568946395,-1.63055257738999,-0.851520424529131,NaN,NaN,0.593463474178543,-0.514961071575941,-1.24396443246455,1.22686410118719,-0.642810146306055,-0.886066135958756,1.31057555222992,-0.321894732442596,NaN,-0.29233429385205,-0.64877538385716,0.0537889526528556,NaN,NaN,NaN,-2.28141718576245,-1.32359365513506,-0.365045757981516,-2.02776244909221,-2.02776244909133,-1.27302426194112,1.273024261941,-1.18620251987082
348.8768,-0.529903934222273,1.33298896889388,0.122776333502666,0.0614774124397628,0.400116518395536,0.400116518396842,-0.873473509352587,0.643421919087338,-0.226871784906365,0.0775237225385242,-0.469977776618729,0.0775237225384134,-0.114438302004763,NaN,NaN,NaN,NaN,1.13647112771903,-0.901987649994587,-0.998774408827631,-0.901987649991943,-0.663620465274147,-1.05464212523208,-0.901260147390034,-1.63650350209633,-0.867242624015265,NaN,NaN,0.581056132310602,-0.501053051920635,-1.26189535947471,1.24214076080169,-0.654676385908975,-0.882324388953575,1.31440782200168,-0.317599435047394,NaN,-0.297006197406142,-0.652984045680963,0.033415392977058,NaN,NaN,NaN,-2.25829832334146,-1.29635542415502,-0.380216268666165,-2.00249873207683,-2.00249873207596,-1.28541765909019,1.28541765909006,-1.17223764627493
348.9792,-0.526998266615102,1.34430622871767,0.130037639300486,0.052225838360138,0.382213474927283,0.382213474928581,-0.844669729621664,0.634952509611031,-0.211204097283016,0.0721553630555807,-0.472171910027943,0.0721553630554712,-0.12527913818604,NaN,NaN,NaN,NaN,1.123421606727,-0.892283345177995,-1.00159443708676,-0.892283345175346,-0.651579472285913,-1.04371455827735,-0.889415873471567,-1.64139557311384,-0.882269165173592,NaN,NaN,0.568494358276805,-0.487329227849637,-1.27952097625929,1.25652894065868,-0.667019252341822,-0.878503768337605,1.31668843402216,-0.313725282709317,NaN,-0.300655368002472,-0.655988791816492,0.0140250256756625,NaN,NaN,NaN,-2.23414365230075,-1.26829231851749,-0.395113312381339,-1.97634577690127,-1.9763457769004,-1.29626077044217,1.29626077044204,-1.15798368532945
349.0816,-0.524186630046875,1.35603428648301,0.137394962948243,0.0431718140915719,0.36432846666449,0.364328466665778,-0.816237320639172,0.625007589652852,-0.196756047994067,0.0663707105677094,-0.474717322460982,0.0663707105676013,-0.136184257115608,NaN,NaN,NaN,NaN,1.11130137707376,-0.882930798481031,-1.0028804092192,-0.88293079847838,-0.639322041471098,-1.03231008362838,-0.877204636887121,-1.64527280408993,-0.896549083863117,NaN,NaN,0.555804611047317,-0.47382443926215,-1.29683025129951,1.27003770942738,-0.679811499427958,-0.874612585826117,1.31741940088445,-0.310278517593472,NaN,-0.303297553337749,-0.657808979893943,-0.00439011594860673,NaN,NaN,NaN,-2.20903164604225,-1.23947469592699,-0.409678473020295,-1.94938840475829,-1.94938840475742,-1.30553137230218,1.30553137230204,-1.14347916804828
349.184,-0.521498654724196,1.36818044762678,0.144826530911265,0.0343029979149877,0.346508235098569,0.346508235099852,-0.788216408791752,0.613595173720051,-0.183551893650843,0.0601329903453381,-0.477614083304483,0.0601329903452319,-0.147158983816621,NaN,NaN,NaN,NaN,1.1000771517624,-0.873985569527635,-1.00259470250337,-0.873985569524982,-0.626840388569347,-1.02043476086913,-0.864625989169813,-1.64818033308642,-0.910032130589435,NaN,NaN,0.543014778922886,-0.460574548321719,-1.31381342304663,1.2826795751315,-0.69302417530811,-0.870657690466309,1.31660686770418,-0.307262877038654,NaN,-0.304953859176591,-0.658469501154022,-0.0218373027592455,NaN,NaN,NaN,-2.1830419284374,-1.20997407895382,-0.423853615656911,-1.92171205145304,-1.92171205145217,-1.31321254704012,1.31321254703997,-1.12876208125306
349.2864,-0.518964496467239,1.38074969242116,0.15230913773484,0.0256080392034701,0.328799174359676,0.328799174360951,-0.760644225761499,0.600727302567385,-0.171611184240398,0.0534062468574635,-0.480859993779961,0.0534062468573594,-0.158208110050535,NaN,NaN,NaN,NaN,1.08971337582162,-0.865501712677111,-1.0007044523813,-0.865501712674456,-0.61412797202548,-1.00809663164348,-0.85168117347729,-1.65016391770998,-0.922669059545348,NaN,NaN,0.530154157872299,-0.447616279263739,-1.33046193239906,1.29447032506042,-0.70662668852816,-0.86664444267936,1.31426117066614,-0.30467955374115,NaN,-0.305650643909309,-0.658000630763841,-0.0383231853074259,NaN,NaN,NaN,-2.156254965307,-1.17986289227777,-0.437581211254267,-1.89340246893627,-1.8934024689354,-1.31929284242918,1.31929284242903,-1.11386961734722
349.3888,-0.516614724736261,1.39374463707646,0.159818223517918,0.0170768147537255,0.311247118076491,0.31124711807776,-0.733555055716062,0.586420315841709,-0.160948549347333,0.0461556061132084,-0.484450549874061,0.0461556061131069,-0.169335833633439,NaN,NaN,NaN,NaN,1.08017240765374,-0.857531575003245,-0.997181775449227,-0.857531575000588,-0.6011795869417,-0.995305695877421,-0.838373157115502,-1.65126943617832,-0.934411936348033,NaN,NaN,0.517253418757715,-0.434987033972669,-1.34676833498853,1.30542883087658,-0.720586879775789,-0.862576706929076,1.31039690457732,-0.302527168517927,NaN,-0.305419385921314,-0.656437852126437,-0.0538539029799977,NaN,NaN,NaN,-2.1287517730842,-1.14921420695079,-0.450804666823724,-1.86454543522027,-1.86454543521939,-1.32376642513866,1.32376642513851,-1.09883792380625
349.4912,-0.51448020247894,1.4071655026071,0.167327961563188,0.00870063833282469,0.293897134518207,0.29389713451947,-0.706980184698741,0.570695105963777,-0.151573498036439,0.038347526381745,-0.488378906538428,0.0383475263816471,-0.180545708463838,NaN,NaN,NaN,NaN,1.07141469514666,-0.850125607866739,-0.992003988403378,-0.850125607864082,-0.587991462707335,-0.982073887925483,-0.824706665805169,-1.6515424019338,-0.945214460650497,NaN,NaN,0.504344565526649,-0.422724697713183,-1.36272619929629,1.31557682833415,-0.734871098622522,-0.858456863875365,1.30503298794079,-0.300801759959062,NaN,-0.304296518415424,-0.653821650853179,-0.0684352230319391,NaN,NaN,NaN,-2.10061365264961,-1.11810149994197,-0.463468663186382,-1.83522647931353,-1.83522647931265,-1.32663322049014,1.32663322048998,-1.08370185445742
349.5936,-0.512591959229829,1.42101009764394,0.174811357635365,0.000472434941023565,0.276793331747853,0.276793331749107,-0.680947858346198,0.553577335440663,-0.143490248320766,0.0299500334843721,-0.492635853708781,0.029950033484278,-0.19184060326128,NaN,NaN,NaN,NaN,1.06339895303061,-0.843332200378426,-0.985153805602337,-0.84333220037577,-0.574561357214582,-0.96841504857908,-0.810688214018893,-1.65102750878571,-0.955032288960348,NaN,NaN,0.491460879531512,-0.410867447531041,-1.3783299952226,1.32493868196993,-0.749444281394085,-0.854285838188444,1.29819270825685,-0.299496793227861,NaN,-0.302323229993041,-0.650197277629956,-0.0820726968042787,NaN,NaN,NaN,-2.07192194850702,-1.08659843238106,-0.475519503065806,-1.80553062313855,-1.80553062313767,-1.32789902744226,1.32789902744209,-1.06849473681202
349.696,-0.510981059011954,1.43527382215413,0.18224036249117,-0.00761312108920801,0.259978669665057,0.259978669666304,-0.655483257979241,0.535097608478459,-0.136697599439333,0.0209329411587891,-0.497209812141676,0.0209329411586972,-0.203222660517007,NaN,NaN,NaN,NaN,1.0560823451606,-0.837197536005211,-0.976619499072987,-0.837197536002556,-0.56088863950357,-0.954344886963148,-0.796326124150318,-1.64976822510696,-0.963823343633203,NaN,NaN,0.478636841357653,-0.399453564863862,-1.39357497011268,1.33354113681278,-0.764270023218123,-0.850063137263894,1.2899037311166,-0.298603189224236,NaN,-0.29954523257907,-0.645614482364767,-0.0947718173994696,NaN,NaN,NaN,-2.04275782604716,-1.05477864589558,-0.486905477430426,-1.77554213785853,-1.77554213785765,-1.32757559910238,1.3275755991022,-1.05324817164846
349.7984,-0.509678464303142,1.44994969330993,0.189585997149432,-0.0155595038348353,0.243494775026709,0.243494775027948,-0.630608504780508,0.515291596515996,-0.131188854305895,0.0112680594688438,-0.502086849860346,0.0112680594687549,-0.214693245079137,NaN,NaN,NaN,NaN,1.04942067064397,-0.831765468575949,-0.966395014459782,-0.831765468573295,-0.546974356973851,-0.939880930076959,-0.781630531408479,-1.64780644882178,-0.971548102959467,NaN,NaN,0.465908024118589,-0.388521247621221,-1.40845700397731,1.34141305169272,-0.779310637032369,-0.84578689869183,1.28019806547087,-0.298109374723678,NaN,-0.296012499529041,-0.640127223147675,-0.106538168732537,NaN,NaN,NaN,-2.01320206200199,-1.02271557609772,-0.497577255726702,-1.74534431293966,-1.74534431293877,-1.32568068791341,1.32568068791322,-1.03799187463129
349.9008,-0.508714899707623,1.46502839016802,0.196818486421656,-0.0233682733847935,0.227381761929666,0.227381761930899,-0.606342695627542,0.494200116025252,-0.12695179580595,0.000929388603596029,-0.507250713360628,0.000929388603511166,-0.226252879814988,NaN,NaN,NaN,NaN,1.04336855032121,-0.827077413328939,-0.954480043539959,-0.827077413326287,-0.532821290102757,-0.925042463533445,-0.766613377816309,-1.64518222456099,-0.978169872038902,NaN,NaN,0.453310957854473,-0.378108422046616,-1.42297244501081,1.34858511601758,-0.794527199280164,-0.841453947204496,1.2691119892234,-0.298001352790373,NaN,-0.291778976662969,-0.633793353574038,-0.117377563704105,NaN,NaN,NaN,-1.98333484945397,-0.990482282077555,-0.507488287487048,-1.71501923868604,-1.71501923868514,-1.32223806136615,1.32223806136595,-1.02275356156623
350.0032,-0.508120718774073,1.48049831579302,0.20390739723079,-0.031039057811134,0.211678063813799,0.211678063815026,-0.582701966553677,0.471869153043549,-0.123968717545116,-0.0101067088493312,-0.512682867213674,-0.0101067088494118,-0.237901176592831,NaN,NaN,NaN,NaN,1.03787961243754,-0.823172246481533,-0.940880053045068,-0.823172246478885,-0.51843399977538,-0.9098504669419,-0.751288399682182,-1.6419335181165,-0.983655031168594,NaN,NaN,0.440882967066259,-0.368252558527861,-1.43711794081664,1.35508956480965,-0.809879590694667,-0.837059861861085,1.25668594653423,-0.298262790522957,NaN,-0.286902267408889,-0.626674290747206,-0.127296173809371,NaN,NaN,NaN,-1.95323561659492,-0.958151287377155,-0.516595189404716,-1.68464759945479,-1.6846475994539,-1.31727749053483,1.31727749053463,-1.00755887323574
350.1056,-0.507925771910106,1.49634567866483,0.210821784223735,-0.0385695786977827,0.196420278177918,0.196420278179139,-0.559699576791433,0.448349830827614,-0.122216506204313,-0.0218613587985837,-0.51836254040281,-0.0218613587986593,-0.249636771981379,NaN,NaN,NaN,NaN,1.03290668025449,-0.820086202693594,-0.925606267865309,-0.820086202690949,-0.503818868029926,-0.894327542683479,-0.735671108247574,-1.63809604318651,-0.987973255176205,NaN,NaN,0.428661982086866,-0.358990489397079,-1.45089028309811,1.36095990816365,-0.82532654280879,-0.832599053298176,1.24296442637663,-0.298875120999653,NaN,-0.281443290796048,-0.61883466407553,-0.136300650996603,NaN,NaN,NaN,-1.92298285196136,-0.925794426667499,-0.524858101972104,-1.65430846893286,-1.65430846893196,-1.31083470830264,1.31083470830243,-0.992431332698383
350.208,-0.508159268756445,1.51255459182017,0.21753034759133,-0.0459557143855708,0.18164301986936,0.181643019870576,-0.537346009620291,0.423698324027083,-0.121666770551655,-0.0343530436654882,-0.524266781860041,-0.0343530436655588,-0.261457270608499,NaN,NaN,NaN,NaN,1.02840196410985,-0.817852762203471,-0.908675611452477,-0.817852762200831,-0.488984128720289,-0.878497836120437,-0.719778760737538,-1.63370313488856,-0.991097697526065,NaN,NaN,0.416686326771863,-0.350358219726654,-1.46428627446561,1.36623068192785,-0.840825696529821,-0.828064853194522,1.22799582449596,-0.299817660526188,NaN,-0.275465909805335,-0.610341943099453,-0.144398237188163,NaN,NaN,NaN,-1.89265393007165,-0.893482697559065,-0.532241017368215,-1.62407910049043,-1.62407910048952,-1.30295133493426,1.30295133493404,-0.97739232428724
350.3104,-0.508849628927782,1.52910718115987,0.224001604563263,-0.0531915921736405,0.167378779187979,0.167378779189187,-0.5156490905378,0.397975731095861,-0.122286009966109,-0.0475974793385166,-0.530370528152972,-0.0475974793385827,-0.273359195448433,NaN,NaN,NaN,NaN,1.02431725728135,-0.816502529128584,-0.89011061261212,-0.816502529125945,-0.473939884107411,-0.862386947662725,-0.703630320111535,-1.62878565962427,-0.993005134791241,NaN,NaN,0.404994491551876,-0.342390723768572,-1.47730261572956,1.37093721753529,-0.856333672438526,-0.823449621390289,1.21183228564118,-0.30106774666583,NaN,-0.269036528348487,-0.601266041617947,-0.151596854157083,NaN,NaN,NaN,-1.86232493641772,-0.861286120743816,-0.538712084396073,-1.59403471135477,-1.59403471135386,-1.2936747698762,1.29367476987598,-0.962461079958889
350.4128,-0.51002431832472,1.54598369151365,0.230204072066128,-0.0602696997463225,0.153657783967727,0.153657783968928,-0.494614121568105,0.37124791849795,-0.124035812898491,-0.0616074948763532,-0.536646683631705,-0.0616074948764133,-0.285337946284155,NaN,NaN,NaN,NaN,1.02060413551814,-0.81606310890496,-0.869939287441544,-0.816063108902323,-0.45869810344797,-0.846021835125919,-0.68724640074699,-1.62337194562966,-0.993676069519753,NaN,NaN,0.393624903226806,-0.335121726306673,-1.48993580865795,1.37511542695763,-0.871806149219179,-0.818744874594214,1.19452952219236,-0.302600901519255,NaN,-0.262223657042716,-0.591678896197897,-0.157905168663105,NaN,NaN,NaN,-1.83207048869742,-0.82927360759342,-0.544243890006354,-1.56424825820421,-1.5642482582033,-1.28305804510674,1.28305804510652,-0.947654660263041
350.5152,-0.511709671494179,1.56316258034469,0.236106455833729,-0.0671810102943852,0.140507865065578,0.14050786506677,-0.4742440255647,0.343585340859478,-0.126873078102269,-0.076392911150497,-0.543066209554467,-0.076392911150551,-0.297387770345709,NaN,NaN,NaN,NaN,1.01721416264148,-0.816558990982799,-0.848194999133671,-0.816558990980163,-0.443272599006508,-0.829430700880791,-0.670649194815555,-1.61748771820958,-0.993094792379493,NaN,NaN,0.382615696033187,-0.328583470714801,-1.50218207381018,1.37880160233175,-0.887197950092152,-0.813941434100753,1.1761466069225,-0.304391018831505,NaN,-0.255097450795029,-0.581654020503617,-0.163332633913766,NaN,NaN,NaN,-1.8019635473662,-0.797512831479075,-0.548813711514658,-1.53479019763931,-1.53479019763839,-1.27115963229346,1.27115963229323,-0.932987923418908
350.6176,-0.51393070208579,1.5806205918981,0.241677841184715,-0.0739151245886131,0.127954321525897,0.127954321527081,-0.45453949485674,0.315062829886302,-0.130750259104568,-0.0919604170485184,-0.549598217255883,-0.0919604170485658,-0.309501748404909,NaN,NaN,NaN,NaN,1.01409910313394,-0.818011437774262,-0.824916293908383,-0.818011437771629,-0.427678976131434,-0.812642859054949,-0.653862375118818,-1.61115603161346,-0.991249406751459,NaN,NaN,0.372004479296919,-0.322806472991468,-1.51403728784625,1.38203223216157,-0.90246314215341,-0.809029583343355,1.15674573909899,-0.306410567589142,NaN,-0.247729223875357,-0.571266039925498,-0.167889517081855,NaN,NaN,NaN,-1.77207521444295,-0.766070103074821,-0.55240373357613,-1.50572822938206,-1.50572822938114,-1.25804319886796,1.25804319886772,-0.918473482905869
350.72,-0.516710902764843,1.59833281101946,0.246887883995176,-0.0804604406146921,0.116019778440735,0.116019778441912,-0.435499143169179,0.285759341368785,-0.13561563799077,-0.108313445161614,-0.556210064189725,-0.108313445161655,-0.32167179563317,NaN,NaN,NaN,NaN,1.01121113988798,-0.820438376630072,-0.800146710101346,-0.82043837662744,-0.411934556579229,-0.795688581329503,-0.63691097318735,-1.60439720596028,-0.988131821770694,NaN,NaN,0.361828091797739,-0.317819259704782,-1.5254969432404,1.38484383386189,-0.917555153506596,-0.803999224209737,1.13639198196685,-0.308630803564093,NaN,-0.240190947776224,-0.560590210347434,-0.171586926403531,NaN,NaN,NaN,-1.74247452841778,-0.735010251192237,-0.555001230635912,-1.47712702842807,-1.47712702842715,-1.24377731491517,1.24377731491493,-0.90412166179985
350.8224,-0.520072036047903,1.61627270384078,0.251707003700811,-0.0868043633269033,0.104724031099572,0.104724031100741,-0.417119661152605,0.25575765080566,-0.141413634828896,-0.125452052773189,-0.562867458395752,-0.125452052773226,-0.333888672994382,NaN,NaN,NaN,NaN,1.0085030955371,-0.823854290268927,-0.773934557022996,-0.823854290266295,-0.396058277035247,-0.778598923015282,-0.619821234513695,-1.59722879196185,-0.98373772081925,NaN,NaN,0.352122333223664,-0.313648090965157,-1.53655612960479,1.38727280071917,-0.932426909010063,-0.798840024611771,1.11515296718119,-0.311021983985601,NaN,-0.232554733498703,-0.549701921873246,-0.174436845533248,NaN,NaN,NaN,-1.71322826349816,-0.70439650730477,-0.556598721497584,-1.44904797434667,-1.44904797434574,-1.22843511861504,1.22843511861479,-0.889940457662602
350.9248,-0.524033920565395,1.63441215538394,0.256106578826736,-0.0929335637024293,0.0940838735476779,0.0940838735488399,-0.399395974331536,0.225143989625931,-0.148085157011542,-0.143372818172918,-0.569534581000042,-0.14337281817295,-0.346142006604583,NaN,NaN,NaN,NaN,1.00592865606267,-0.828270105872165,-0.746332660492652,-0.828270105869532,-0.380070567973834,-0.761405535120838,-0.602620456552053,-1.5896655862593,-0.978066508929042,NaN,NaN,0.342921669177587,-0.310316675289947,-1.5472095362827,1.38935526373831,-0.947030983593592,-0.793541556407033,1.0930985619016,-0.313553585937494,NaN,-0.224892296167368,-0.538676185861919,-0.176452174648922,NaN,NaN,NaN,-1.68440073899197,-0.674290393491672,-0.55719409743027,-1.42154888562045,-1.42154888561952,-1.21209394865248,1.21209394865223,-0.875935529340821
351.0272,-0.528614219568633,1.65272151125395,0.260059142374458,-0.0988342902015596,0.0841129136476861,0.0841129136488411,-0.382321400437262,0.194007616850494,-0.155567989604795,-0.162068765122099,-0.576174236433791,-0.162068765122126,-0.358420317865243,NaN,NaN,NaN,NaN,1.00344259364843,-0.833693090718962,-0.717398072515227,-0.833693090716329,-0.363993218038939,-0.744140469324621,-0.585336815795179,-1.58171971195236,-0.971121240155736,NaN,NaN,0.334258913200348,-0.307845886977715,-1.55745147930242,1.39112697093161,-0.961319775274162,-0.788093429114513,1.07030049579687,-0.316194533843723,NaN,-0.217274399237415,-0.527587103411947,-0.177646772353144,NaN,NaN,NaN,-1.65605364541922,-0.644751618016292,-0.556790718431475,-1.39468376806312,-1.39468376806219,-1.19483494560148,1.19483494560123,-0.862110210382056
351.1296,-0.53382823648516,1.67116962548928,0.263538573911951,-0.104492729601252,0.0748213787703959,0.074821378771546,-0.365887800666255,0.16244032922631,-0.163797220756329,-0.181529323950905,-0.582748037202496,-0.181529323950927,-0.370711068026843,NaN,NaN,NaN,NaN,1.00100098558441,-0.840126763632722,-0.687191744221606,-0.84012676363009,-0.347849224875113,-0.726835978952807,-0.567999186083265,-1.57340077224921,-0.962908529352657,NaN,NaN,0.326164891527224,-0.306253495852741,-1.56727595593258,1.39262318413936,-0.975245702900722,-0.782485425873065,1.04683194772689,-0.318913441447582,NaN,-0.209770280233781,-0.516507317280317,-0.178035487789975,NaN,NaN,NaN,-1.62824588922507,-0.615837979267347,-0.555397479624158,-1.36850258150005,-1.36850258149911,-1.17674261712468,1.17674261712442,-0.848465550447502
351.232,-0.539688718373934,1.68972390975041,0.266520285598976,-0.109895407299794,0.0662159201652914,0.0662159201664346,-0.350085718929022,0.130535930170549,-0.17270568475384,-0.201740324158469,-0.589216622282273,-0.201740324158487,-0.383000715495195,NaN,NaN,NaN,NaN,0.998561428845065,-0.847570826927378,-0.655778167581943,-0.847570826924745,-0.331662632105117,-0.709524316951355,-0.550636948540399,-1.5647160747481,-0.953438459942606,NaN,NaN,0.318668099026714,-0.305553917376971,-1.57667672456644,1.39387858984961,-0.988761428848395,-0.776707642412449,1.02276710138362,-0.321678866011821,NaN,-0.202447069697566,-0.505507457202874,-0.177634172687629,NaN,NaN,NaN,-1.60103344608224,-0.587605268253873,-0.553028861956328,-1.34305101927632,-1.34305101927537,-1.15790436451785,1.15790436451759,-0.835000384171677
351.3344,-0.546205667009618,1.70835037309871,0.26898139779658,-0.115029610430226,0.058299428182943,0.0582994281840827,-0.334904507450836,0.0983896931496976,-0.182224398656282,-0.222684001127232,-0.595539897986853,-0.222684001127246,-0.395274779590038,NaN,NaN,NaN,NaN,0.996083251933337,-0.856021120504753,-0.623224998227618,-0.85602112050212,-0.315458356666837,-0.692237535024223,-0.533279797474023,-1.55567090782283,-0.942724504926829,NaN,NaN,0.311794362100832,-0.305757990340485,-1.58564740099288,1.39492722118217,-1.00182009557779,-0.770750624447944,0.998180690667329,-0.324459564432667,NaN,-0.195369222641188,-0.494655594955993,-0.176459670838367,NaN,NaN,NaN,-1.57446920761822,-0.560107152944032,-0.549704979942987,-1.31837029175057,-1.31837029174962,-1.13840997832325,1.13840997832298,-0.821711421635333
351.4368,-0.553386160302617,1.72701364235133,0.270900897721734,-0.119883816306602,0.0510708683690787,0.0510708683702145,-0.320332442499415,0.0660978479097016,-0.192282977016486,-0.244339000282663,-0.601677286064942,-0.244339000282672,-0.407517904452076,NaN,NaN,NaN,NaN,0.993527725520599,-0.865469597553662,-0.589602668659328,-0.865469597551029,-0.299262012201245,-0.675007288781215,-0.515957547659322,-1.5462688415563,-0.930783473990998,NaN,NaN,0.305566523722261,-0.306872782557363,-1.59418156115647,1.39580239210525,-1.01437555924756,-0.764605498604373,0.973147552526349,-0.327224741663872,NaN,-0.18859797912464,-0.484016723475661,-0.1745297892138,NaN,NaN,NaN,-1.54860281263965,-0.533395029911976,-0.545451624964101,-1.29449690748154,-1.29449690748059,-1.11835111439953,1.11835111439925,-0.808593349336476
351.5392,-0.561234190419914,1.74567695987201,0.27225977446361,-0.124448114172173,0.0445251438321831,0.0445251438333184,-0.306356834432473,0.0337570949557317,-0.202810024300843,-0.266680372405583,-0.607587967331717,-0.266680372405589,-0.419713919967175,NaN,NaN,NaN,NaN,0.990858273306292,-0.875904315881784,-0.554983991835902,-0.87590431587915,-0.283099729190385,-0.657864647866942,-0.498699942782763,-1.5365120294875,-0.917635485717781,NaN,NaN,0.30000415204716,-0.308901412271873,-1.60227284685173,1.39653664619847,-1.02638261225782,-0.758264093720738,0.947742190456191,-0.329944287845208,NaN,-0.18219086156391,-0.473652267221721,-0.171863255299238,NaN,NaN,NaN,-1.52348046111653,-0.50751783746322,-0.540300287864423,-1.2714624481829,-1.27146244818194,-1.0978207569046,1.09782075690432,-0.795638930742129
351.6416,-0.569750525024738,1.76430216353186,0.273041126987832,-0.128714611400026,0.0386529916174684,0.0386529916186018,-0.292964132430711,0.00146414274439074,-0.213733508829718,-0.289679564835415,-0.613231113363795,-0.289679564835416,-0.431845901516208,NaN,NaN,NaN,NaN,0.988040681016241,-0.887309435243791,-0.519443757337914,-0.887309435241156,-0.266997971250486,-0.640839908585281,-0.48153646339083,-1.52640149517187,-0.903303952312739,NaN,NaN,0.295123268977522,-0.311842874440884,-1.60991507704137,1.39716171905088,-1.03779719996389,-0.751719051064114,0.922038346107418,-0.332589003718311,NaN,-0.176201210448891,-0.463619626275694,-0.168479663843999,NaN,NaN,NaN,-1.49914471418715,-0.482521835418236,-0.53428813707594,-1.24929334118884,-1.24929334118788,-1.07691267461204,1.07691267461175,-0.782839100946407
351.744,-0.578932594906854,1.78284965875775,0.273230246605523,-0.132677814510205,0.0334409243707895,0.0334409243719213,-0.280140023554359,-0.0306847319229711,-0.224981117659567,-0.31330442107348,-0.618566100399324,-0.313304421073478,-0.443896235361692,NaN,NaN,NaN,NaN,0.985043293420887,-0.899665214418087,-0.483058338466328,-0.899665214415454,-0.250983353090283,-0.623962414417339,-0.464496139982368,-1.51593739368684,-0.887815560909067,NaN,NaN,0.290936106808949,-0.315691880471451,-1.61710236773191,1.3977085107594,-1.04857664001814,-0.744963923197452,0.896108582445291,-0.335130813039444,NaN,-0.170677757997008,-0.453971754288802,-0.164399417252106,NaN,NaN,NaN,-1.47563429136301,-0.458450365654781,-0.527457930518208,-1.22801064886488,-1.22801064886392,-1.05572088547197,1.05572088547167,-0.770183058156502
351.8464,-0.588774409272265,1.80127839102087,0.272814676399592,-0.13633497886686,0.0288712203150096,0.0288712203161393,-0.267869530419769,-0.0625940944835996,-0.236480591816293,-0.33751920081121,-0.62355270140556,-0.337519200811205,-0.455846697463037,NaN,NaN,NaN,NaN,0.981837186317695,-0.912948007549605,-0.4459053365353,-0.912948007546973,-0.235082467808044,-0.607260393516206,-0.44760737995673,-1.50511924636465,-0.871200240028383,NaN,NaN,0.287450904661345,-0.320438728275778,-1.62382926151266,1.39820706762184,-1.05867984706831,-0.737993260421854,0.870023887911098,-0.337542958134573,NaN,-0.16566423967362,-0.444756769965829,-0.159643667069376,NaN,NaN,NaN,-1.4529838821665,-0.435343610366428,-0.519857850687959,-1.20762990174226,-1.2076299017413,-1.03433914748577,1.03433914748547,-0.757658361419714
351.9488,-0.599266500437383,1.81954581849514,0.271784246027428,-0.139686429075482,0.0249219497518589,0.0249219497529881,-0.256137115207032,-0.0941697312063357,-0.248160045624909,-0.362284622953149,-0.628151256030232,-0.36228462295314,-0.467678549263415,NaN,NaN,NaN,NaN,0.978396307490036,-0.927130262950847,-0.408063275125499,-0.927130262948214,-0.219321724640132,-0.590760815403836,-0.43089781017996,-1.49394615529881,-0.8534911106095,NaN,NaN,0.284671744103064,-0.326069207407732,-1.63009086634253,1.39868657629281,-1.06806755862483,-0.730802683425299,0.843853312786865,-0.339800173954304,NaN,-0.161199046924768,-0.436017605068931,-0.154234264516349,NaN,NaN,NaN,-1.43122398571564,-0.413238361848554,-0.511541268071559,-1.18816099055957,-1.1881609905586,-1.01286048458243,1.01286048458212,-0.745251042801945
352.0512,-0.61039590082019,1.83760787940477,0.270131077136046,-0.142735855366157,0.0215670243456725,0.0215670243468015,-0.244926793920673,-0.125318996137012,-0.25994827322953,-0.387557928623229,-0.632322820949446,-0.387557928623217,-0.479372649313257,NaN,NaN,NaN,NaN,0.974697588435024,-0.942180530503094,-0.369611337618391,-0.942180530500461,-0.203727194920897,-0.57448926528863,-0.414394133213509,-1.48241700622626,-0.83472442898514,NaN,NaN,0.282598418324782,-0.332564537790212,-1.63588299968652,1.39917537242151,-1.07670255374957,-0.723388943588492,0.817663646478603,-0.341878839096572,NaN,-0.157314925925293,-0.427791693980192,-0.148193721207745,NaN,NaN,NaN,-1.41038078392379,-0.392167810668934,-0.502566447575074,-1.16960811851684,-1.16960811851588,-0.991376745582169,0.991376745581854,-0.73294573466692
352.1536,-0.622146156995996,1.8554189560143,0.267849556217557,-0.145490586963852,0.0187762712752181,0.0187762712763473,-0.234222255944599,-0.155951127000538,-0.271775039058072,-0.413292967747981,-0.636029303626292,-0.413292967747965,-0.490909576694924,NaN,NaN,NaN,NaN,0.970721028743437,-0.958063484378008,-0.33062913344834,-0.958063484375375,-0.188324471370152,-0.5584698419251,-0.398122002940192,-1.4705306669154,-0.814939524833943,NaN,NaN,0.281226338806743,-0.339901349881258,-1.64120233158624,1.3997009600567,-1.08454985842922,-0.715749972885617,0.791519138032863,-0.343757104673784,NaN,-0.154038724224528,-0.420110707386428,-0.141545172663307,NaN,NaN,NaN,-1.39047605099671,-0.372161351737035,-0.492996208385972,-1.15196981405157,-1.15196981405059,-0.969978193878623,0.969978193878301,-0.720725808288095
352.256,-0.634497388047291,1.87293184794957,0.264936274238194,-0.147961838542614,0.0165155469975489,0.0165155469986788,-0.224006978607416,-0.18597753579469,-0.283571348378812,-0.439440320792034,-0.639233584374628,-0.439440320792017,-0.502269761098519,NaN,NaN,NaN,NaN,0.966449750483963,-0.974739964591166,-0.291196480830867,-0.974739964588533,-0.173138551138378,-0.542725090263953,-0.382105930826312,-1.45828618749042,-0.794178729954004,NaN,NaN,0.280546489127279,-0.348051718468348,-1.64604652197963,1.40029003560165,-1.09157693693681,-0.707884921712069,0.765481256986079,-0.345415000554454,NaN,-0.15139118581262,-0.413000331611314,-0.134312336302854,NaN,NaN,NaN,-1.37152710079347,-0.353244407878985,-0.482897536887352,-1.13523900507261,-1.13523900507164,-0.948753129681225,0.948753129680896,-0.708573520836505
352.3584,-0.647426396580847,1.89009776694565,0.261389931161174,-0.15016492395477,0.0147468991270908,0.0147468991282226,-0.214264328897785,-0.21531208950156,-0.295269702094936,-0.465947467522067,-0.64189963418559,-0.465947467522046,-0.513433620083157,NaN,NaN,NaN,NaN,0.961870017053321,-0.992167040039746,-0.251393198368311,-0.992167040037112,-0.158193746353372,-0.527275973312933,-0.366369227064319,-1.44568300535206,-0.77248729816314,NaN,NaN,0.280545429966156,-0.356983254233391,-1.65041435194511,1.40096851443493,-1.09775387070249,-0.699794183271752,0.739608491352544,-0.346834518849754,NaN,-0.149386796770034,-0.40648009702809,-0.126519460011535,NaN,NaN,NaN,-1.3535467714301,-0.335438279940296,-0.472341146212204,-1.11940314959939,-1.11940314959841,-0.927787544987867,0.927787544987531,-0.696470167007725
352.4608,-0.660906839209011,1.90686635770543,0.257211201650003,-0.152119428922395,0.0134287760426696,0.0134287760438047,-0.204977648303588,-0.243871394548854,-0.306804341580804,-0.492759011839174,-0.64399263293187,-0.492759011839151,-0.524381712875506,NaN,NaN,NaN,NaN,0.956971211910324,-1.01029809897646,-0.211298902716022,-1.01029809897383,-0.143513619767801,-0.512141881085515,-0.350933974265202,-1.43272114882679,-0.74991332178643,NaN,NaN,0.281205357435657,-0.366659253756602,-1.65430585327329,1.40176156366806,-1.10305352791058,-0.691479407605172,0.713956181131783,-0.347999677700452,NaN,-0.148033682753544,-0.40056325713921,-0.118191258450748,NaN,NaN,NaN,-1.33654344825489,-0.318760036796995,-0.461400974659338,-1.10444441791676,-1.10444441791578,-0.907164807775186,0.907164807774842,-0.684396227604356
352.5632,-0.674909458482095,1.92318574798838,0.252402561612382,-0.153849330414455,0.0125162870229664,0.0125162870241045,-0.196130317689086,-0.271575083328974,-0.318111480212141,-0.519816967478244,-0.645479087521452,-0.519816967478218,-0.535094917572966,NaN,NaN,NaN,NaN,0.951745777175309,-1.02908297122633,-0.170992813061531,-1.0290829712237,-0.129120945571238,-0.497340675855241,-0.33582103330187,-1.41940142617552,-0.726507639250664,NaN,NaN,0.282504223861455,-0.377038912482949,-1.65772244151225,1.40269364360707,-1.10745172919076,-0.682943507488244,0.688576383894915,-0.348896568286536,NaN,-0.147333555705634,-0.395256713647399,-0.109352833431009,NaN,NaN,NaN,-1.32052112857755,-0.303222447669523,-0.450153614587029,-1.09033992915422,-1.09033992915324,-0.886965374915262,0.886965374914911,-0.672331505987253
352.6656,-0.68940237312846,1.93900263327337,0.246968080501086,-0.155383050187035,0.011961517027641,0.0119615170287817,-0.187705800969974,-0.298346092373085,-0.329129514001365,-0.547061102288245,-0.646326951831761,-0.547061102288217,-0.545554628047744,NaN,NaN,NaN,NaN,0.946189116796832,-1.04846807754736,-0.130553562322582,-1.04846807754472,-0.115037695070523,-0.482888771299429,-0.321050079832613,-1.40572558439149,-0.702323713989322,NaN,NaN,0.284415931507468,-0.388077601167747,-1.66066705223346,1.40378855596369,-1.11092741111421,-0.674190652285897,0.66351776262442,-0.349513384901284,NaN,-0.147281705321151,-0.390560979450449,-0.10002957931331,NaN,NaN,NaN,-1.3054795279341,-0.288833947528966,-0.438677664477803,-1.07706204700169,-1.07706204700071,-0.867266537937152,0.867266537936793,-0.660255245753557
352.768,-0.704351422550385,1.95426239962085,0.240913184319241,-0.156753436052265,0.0117138906532663,0.0117138906544084,-0.17968766941101,-0.324110927424809,-0.339799209621198,-0.574429334423232,-0.64650575596332,-0.574429334423202,-0.555742965027726,NaN,NaN,NaN,NaN,0.940299469299555,-1.06839659626937,-0.0900590106100643,-1.06839659626673,-0.10128504055211,-0.468801236023913,-0.306639663037925,-1.39169642671533,-0.677417467952309,NaN,NaN,0.28691059956273,-0.399727196082354,-1.66314427633802,1.40506949766282,-1.11346278212712,-0.665226242910095,0.638825481304621,-0.349840436970981,NaN,-0.147867032704503,-0.386470174677709,-0.0902470832872881,NaN,NaN,NaN,-1.29141422659585,-0.275598630756509,-0.427053000904965,-1.06457873683851,-1.06457873683752,-0.848142203159851,0.848142203159485,-0.648146226066066
352.8704,-0.719720564387824,1.96890928487243,0.234244390386475,-0.157997673483501,0.0117205713411342,0.0117205713422785,-0.172059608727964,-0.34879991824114,-0.350063873231229,-0.601858175401366,-0.645986750828449,-0.601858175401333,-0.565642999806284,NaN,NaN,NaN,NaN,0.934077751742939,-1.08880864091781,-0.0495860543117109,-1.08880864091517,-0.0878833686614525,-0.455091910319729,-0.29260727624273,-1.37731789000492,-0.651847070157199,NaN,NaN,0.289954893505739,-0.411936450261106,-1.66516049178625,1.40655912468636,-1.11504346198638,-0.656056863809238,0.614541096787365,-0.349870143249287,NaN,-0.149072127362526,-0.382972057624285,-0.0800310338648116,NaN,NaN,NaN,-1.27831686198926,-0.263516279930546,-0.415359973973115,-1.05285398771952,-1.05285398771854,-0.82966270204955,0.829662702049176,-0.635982835090588
352.9728,-0.735472323414519,1.982886575277,0.226969014083571,-0.159157137826056,0.0119268794015472,0.0119268794026934,-0.164805410748783,-0.372347466809628,-0.359869503762162,-0.629283214322357,-0.644743067279188,-0.629283214322322,-0.575238984631808,NaN,NaN,NaN,NaN,0.927527375766264,-1.10964144774415,-0.00921042783368521,-1.10964144774151,-0.0748522972830202,-0.441773528962665,-0.27896943255623,-1.36259509607492,-0.625672696715103,NaN,NaN,0.293512400613609,-0.424651395196126,-1.66672398844256,1.40827963028694,-1.11565859478317,-0.646690213289688,0.59070244280681,-0.349597010555138,NaN,-0.150873390739245,-0.380048096588378,-0.0694071453071317,NaN,NaN,NaN,-1.26617537268717,-0.252582437228149,-0.403678542915836,-1.04184829764839,-1.04184829764741,-0.811894626260216,0.811894626259834,-0.623743126751997
353.0752,-0.751568278738538,1.99613682781644,0.219094854373913,-0.160277202432931,0.0122767097865744,0.0122767097877235,-0.157908954821231,-0.394692287900715,-0.369164933764677,-0.656639626975455,-0.642749884076073,-0.656639626975417,-0.584516574182362,NaN,NaN,NaN,NaN,0.920654043796817,-1.13082957334788,0.0309934974088472,-1.13082957334524,-0.0622106892788945,-0.428857842585455,-0.265741738203565,-1.34753439341417,-0.59895628486886,NaN,NaN,0.297544032824866,-0.437815761762742,-1.66784507911886,1.41025283459775,-1.11530092782507,-0.637135018419598,0.567343508800209,-0.349017601389733,NaN,-0.153241205452604,-0.377673584593086,-0.0584010976822195,NaN,NaN,NaN,-1.25497428122656,-0.242788511921017,-0.392087389410822,-1.03151920121848,-1.03151920121749,-0.794900682827817,0.794900682827428,-0.611404868304927
353.1776,-0.767969562003245,2.00860210047017,0.210629873467817,-0.161407019587229,0.0127129295156735,0.0127129295168268,-0.151354189320039,-0.415777636137983,-0.377901961673469,-0.683862682454756,-0.639984597268245,-0.683862682454716,-0.593463019940858,NaN,NaN,NaN,NaN,0.913465542876451,-1.15230510161391,0.0709529071013692,-1.15230510161127,-0.0499766539299264,-0.41635572672805,-0.252938953122906,-1.33214339798906,-0.571761298821244,NaN,NaN,0.302008436943358,-0.451371408196065,-1.66853619145712,1.41250027779297,-1.11396685637113,-0.627400943571303,0.544494322536836,-0.348130495099524,NaN,-0.156140140874774,-0.375817789768816,-0.0470384869146948,NaN,NaN,NaN,-1.24469498448287,-0.234121903956678,-0.380663060203062,-1.02182180231904,-1.02182180231806,-0.778739564841563,0.778739564841164,-0.598945585587145
353.28,-0.784637339768391,2.02022417299089,0.201581885731407,-0.162599285361253,0.0131777404508497,0.0131777404520071,-0.145125124084322,-0.435551512415284,-0.386035478818129,-0.710888222422688,-0.636426985265082,-0.710888222422645,-0.60206732645692,NaN,NaN,NaN,NaN,0.90597155284517,-1.17399785909936,0.110596724158454,-1.17399785909671,-0.0381675285304666,-0.404277269434589,-0.240575030149752,-1.31643103339432,-0.544152515021876,NaN,NaN,0.306862396346698,-0.465258744425291,-1.66881193999034,1.41504330930298,-1.1116564412715,-0.617498501341587,0.522180850946356,-0.346936245300898,NaN,-0.159529182135901,-0.374444130234196,-0.0353447767628252,NaN,NaN,NaN,-1.23531602393383,-0.22656612530686,-0.369479179674435,-1.01270928008875,-1.01270928008778,-0.763465832924362,0.763465832923955,-0.586342610294407
353.3824,-0.80153326739038,2.03094475105859,0.191958263451993,-0.163909987455587,0.0136130037144221,0.0136130037155828,-0.139205839160134,-0.453966840715177,-0.39352358937477,-0.737653100560104,-0.632059367802031,-0.73765310056006,-0.610320369454871,NaN,NaN,NaN,NaN,0.898183475058525,-1.19583563929058,0.149855773716309,-1.19583563928794,-0.0267998380124945,-0.392631834347707,-0.22866313008288,-1.30040756440961,-0.516195825727088,NaN,NaN,0.312061217909555,-0.479417143937144,-1.66868917813827,1.41790316578799,-1.10837340700589,-0.607438970161799,0.500424935312667,-0.345437332064905,NaN,-0.163361974486839,-0.373510366373289,-0.0233452478576557,NaN,NaN,NaN,-1.22681332422354,-0.220100910416872,-0.358605745234344,-1.00413335399627,-1.00413335399529,-0.749129805051366,0.749129805050949,-0.57357313077873
353.4848,-0.818619912308345,2.0407056583008,0.181765663129777,-0.165398126077999,0.0139605324698154,0.0139605324709782,-0.133580509203853,-0.470981604400845,-0.400327715768906,-0.76409557899758,-0.626866758336619,-0.764095578997535,-0.618214982302666,NaN,NaN,NaN,NaN,0.890114278014794,-1.21774443589788,0.18866293252413,-1.21774443589523,-0.0158892359827409,-0.381428101300639,-0.217215615372405,-1.28408461330433,-0.487958055793534,NaN,NaN,0.317559105675499,-0.493785336115966,-1.66818702723036,1.42110102964364,-1.10412512440697,-0.59723431695962,0.479244272435726,-0.343638103870576,NaN,-0.167587081112975,-0.3729688085516,-0.011064946570915,NaN,NaN,NaN,-1.21916039920028,-0.214702313335987,-0.348108498969962,-0.996044705616506,-0.996044705615534,-0.735777455303623,0.735777455303196,-0.560614246422358
353.5872,-0.835861146764848,2.04944902527282,0.171009776145571,-0.167125398098263,0.0141623672501368,0.0141623672513024,-0.128233440010327,-0.486558935552082,-0.406412682809812,-0.790155682541108,-0.620837007563032,-0.790155682541061,-0.625746016495174,NaN,NaN,NaN,NaN,0.881778351613709,-1.23964868253494,0.226953259663366,-1.23964868253229,-0.00545043427610261,-0.37067409052451,-0.206244029236475,-1.26747514694468,-0.459506788366456,NaN,NaN,0.323309525379093,-0.508301774892728,-1.66732687930514,1.42465806167982,-1.09892257979367,-0.586897121128171,0.458652443219538,-0.341544705773605,NaN,-0.17214825463856,-0.37276654040516,0.00147136066037677,NaN,NaN,NaN,-1.21232853191129,-0.2103427955714,-0.338048365000151,-0.988393360412924,-0.988393360411956,-0.723450322085898,0.723450322085461,-0.547443023579784
353.6896,-0.853222510218218,2.05711748106154,0.159695106001086,-0.169155840333131,0.014161048185687,0.0141610481868545,-0.123149112553021,-0.500667160708539,-0.41174677933599,-0.81577551375976,-0.613960935753595,-0.81577551375971,-0.6329103792226,NaN,NaN,NaN,NaN,0.87319136218386,-1.26147149534788,0.264664107606675,-1.26147149534523,0.00450287248536432,-0.360377177884346,-0.195759067427096,-1.25059342578497,-0.430910194562277,NaN,NaN,0.32926556338621,-0.522904983145685,-1.66613237272601,1.42859540692636,-1.09278033012574,-0.576440495949612,0.438658981821782,-0.339164992756109,NaN,-0.176984722522271,-0.372845657893467,0.0142392245243415,NaN,NaN,NaN,-1.20628693971119,-0.206991313942568,-0.328480943964308,-0.981129036607407,-0.981129036606443,-0.712185423502517,0.71218542350207,-0.534036548407022
353.792,-0.870671542080462,2.06365434663832,0.147824771226999,-0.171555434569164,0.0138998881960243,0.0138998881971964,-0.118312230790684,-0.513279813339207,-0.416301801253576,-0.84089953151106,-0.606232455126997,-0.840899531511006,-0.639707050217748,NaN,NaN,NaN,NaN,0.864370106394733,-1.28313491763203,0.301735217944692,-1.28313491762938,0.013958087118542,-0.350544102739602,-0.185770543623189,-1.23345491194559,-0.402236859733136,NaN,NaN,0.335380280100862,-0.53753387485992,-1.66462934121562,1.43293417726741,-1.08571644113415,-0.565878001412999,0.419269477986464,-0.336508425559034,NaN,-0.182031487202233,-0.373143524102287,0.0272145381297129,NaN,NaN,NaN,-1.20100293359643,-0.204613415764914,-0.319456060327395,-0.974201467799442,-0.974201467798481,-0.702015177943607,0.702015177943149,-0.520371973308324
353.8944,-0.888178084819474,2.06900382591143,0.135400332201173,-0.174391683269487,0.0133232401740715,0.0133232401752461,-0.11370777323172,-0.524375624618374,-0.420053083397567,-0.865474793162027,-0.597648685222733,-0.865474793161971,-0.646137076519664,NaN,NaN,NaN,NaN,0.855332369084162,-1.30456016626116,0.338108807627348,-1.3045601662585,0.0229037980342716,-0.341180964992693,-0.176287345037966,-1.21607614254821,-0.373555602059403,NaN,NaN,0.341607052704915,-0.552128058322903,-1.66284573681367,1.43769541525651,-1.07775240452546,-0.555223544250101,0.400485709028482,-0.333585946650656,NaN,-0.187219643807219,-0.373593041752401,0.0403735463636905,NaN,NaN,NaN,-1.19644207884637,-0.2031713464104,-0.31101736622701,-0.967560705358899,-0.967560705357941,-0.692967332943553,0.692967332943085,-0.506426559320946
353.9968,-0.905714556657848,2.07311119292153,0.122421641858775,-0.177733167576952,0.0123767512135404,0.0123767512147207,-0.1093210499117,-0.533938501493988,-0.422979527199372,-0.889451160615557,-0.588210060636871,-0.889451160615498,-0.652203537888569,NaN,NaN,NaN,NaN,0.84609679123472,-1.32566787741554,0.373729648508625,-1.32566787741288,0.0313298714583743,-0.332293212717451,-0.167317380879394,-1.1984745832599,-0.344935287514573,NaN,NaN,0.347899900891355,-0.56662812444291,-1.66081152546836,1.44290003928386,-1.06891303203456,-0.544491269483009,0.382305799832477,-0.33040984039505,NaN,-0.192476720856508,-0.37412295034217,0.0536928415783846,NaN,NaN,NaN,-1.19256836388258,-0.202624174221873,-0.303202016062222,-0.961157407947917,-0.961157407946962,-0.685064909883928,0.685064909883449,-0.492177720752868
354.0992,-0.92325619305871,2.07592297626632,0.108886721436886,-0.181649096626102,0.0110076023258742,0.0110076023270599,-0.105137762803317,-0.541957495949789,-0.425063625214488,-0.912781471684964,-0.577920425653213,-0.912781471684903,-0.657911475621725,NaN,NaN,NaN,NaN,0.836682750496103,-1.3463783476134,0.408545139698488,-1.34637834761074,0.0392275363147387,-0.323885627687958,-0.158867533217656,-1.18066847873787,-0.316444648796595,NaN,NaN,0.354213793208916,-0.580975924023362,-1.6585585498648,1.44856876420245,-1.05922632415332,-0.533695452064383,0.364724408380098,-0.326993585295306,NaN,-0.197727050029717,-0.374658157804722,0.0671493547117973,NaN,NaN,NaN,-1.18934437883154,-0.202927933593968,-0.296040431886182,-0.954943121918505,-0.954943121917554,-0.678326172544319,0.678326172543829,-0.477603077290613
354.2016,-0.94078125596247,2.07738713978095,0.0947916617091861,-0.186208853021864,0.00916473261427899,0.00916473261547046,-0.101144066084187,-0.548426764346779,-0.426291479175419,-0.935421678537666,-0.566787109545041,-0.935421678537601,-0.663267785319996,NaN,NaN,NaN,NaN,0.827110253706748,-1.36661176937349,0.442505371885486,-1.36661176937082,0.0465894527489239,-0.315962313979212,-0.150943617477248,-1.16267670923988,-0.28815211055181,NaN,NaN,0.360504935237796,-0.595114836668336,-1.65612035196612,1.45472198982145,-1.04872330983226,-0.52285039262347,0.347732933630811,-0.323351702625124,NaN,-0.202892166601843,-0.375120111428295,0.0807203497517158,NaN,NaN,NaN,-1.18673149865671,-0.204035782661442,-0.289556172000357,-0.948870549544273,-0.948870549543328,-0.672764625092173,0.672764625091672,-0.462680515622702
354.304,-0.958271206988687,2.0774532553216,0.0801305511213152,-0.191481537141595,0.00679904379397599,0.00679904379517366,-0.0973266282711532,-0.553345513500113,-0.426652810894299,-0.957330953561595,-0.55482097850953,-0.957330953561529,-0.668281082039308,NaN,NaN,NaN,NaN,0.817399842172211,-1.3862884691595,0.475563184591248,-1.38628846915683,0.0534097630249978,-0.308526688846791,-0.143550352733087,-1.14451865178344,-0.260125613248604,NaN,NaN,0.366731039834822,-0.608990032818903,-1.65353195345234,1.4613796554199,-1.03743785627788,-0.511970314092081,0.331319742679729,-0.319499599745684,NaN,-0.207891233875251,-0.375427201335017,0.0943834234538278,NaN,NaN,NaN,-1.18469006341412,-0.205898171670413,-0.283765899933615,-0.94289379907744,-0.942893799076499,-0.668389042048259,0.668389042047746,-0.447388261896977
354.4064,-0.975710838390116,2.07607266355279,0.0648954342987521,-0.197535511851278,0.00386358066303298,0.0038635806642367,-0.0936727030910219,-0.556717929822884,-0.426140968693609,-0.978471761595262,-0.542036462246548,-0.978471761595195,-0.672961547282262,NaN,NaN,NaN,NaN,0.807572512511626,-1.40532916204229,0.507674218703198,-1.40532916203962,0.0596841287133518,-0.301581471697344,-0.136691337609401,-1.12621403756302,-0.232432419745047,NaN,NaN,0.372851577157329,-0.622548729116176,-1.65082960103999,1.46856106573883,-1.02540645399825,-0.50106925135206,0.315470412563641,-0.315453403060479,NaN,-0.212641479215991,-0.375495181315359,0.108116509895458,NaN,NaN,NaN,-1.18317954778972,-0.20846301793261,-0.278679444416364,-0.936968609840653,-0.936968609839716,-0.665203529435211,0.665203529434686,-0.431704966032357
354.5088,-0.993088360170965,2.07319862156861,0.0490763017625022,-0.204437946735828,0.000313689727214083,0.000313689728425567,-0.0901702133740803,-0.558553088305189,-0.424752930430477,-0.998809898857416,-0.528451555162129,-0.998809898857348,-0.677320762098413,NaN,NaN,NaN,NaN,0.797649652413529,-1.42365523428177,0.538796967208725,-1.4236552342791,0.0654097573103569,-0.295128669846571,-0.130369029541575,-1.10778279762887,-0.205138886865238,NaN,NaN,0.378828004470688,-0.635740436516756,-1.64805048544527,1.47628469430961,-1.01266798463181,-0.490160927827929,0.300167978790472,-0.311229778067566,NaN,-0.21705863065538,-0.375237593397704,0.121897893110803,NaN,NaN,NaN,-1.18215871795248,-0.211675885859905,-0.274299942714544,-0.931052548083282,-0.93105254808235,-0.663207613606835,0.663207613606297,-0.415609794393168
354.6112,-1.01039544910114,2.0687864390562,0.0326611067664434,-0.212254358461296,-0.00389283479897123,-0.00389283479774894,-0.0868078474190817,-0.558864841055522,-0.422489302535513,-1.01831450262238,-0.514087794433415,-1.01831450262231,-0.681371526960368,NaN,NaN,NaN,NaN,0.787652984276057,-1.44118905486619,0.568892826411498,-1.44118905486351,0.0705854178974528,-0.289169565354952,-0.124584729947881,-1.08924489277152,-0.178310190164922,NaN,NaN,0.384623979992687,-0.648517199168318,-1.64523243915485,1.48456796467017,-0.999263479133424,-0.479258620803032,0.285393181487465,-0.306845740833619,NaN,-0.221057348098368,-0.374566190051579,0.135706235182894,NaN,NaN,NaN,-1.18158578383772,-0.215480175917533,-0.270624062060219,-0.925105175443525,-0.925105175442598,-0.662396353425558,0.662396353425007,-0.399082521985769
354.7136,-1.02762726368667,2.06279360406124,0.015635806297696,-0.221048145210844,-0.00879561265546093,-0.00879561265422931,-0.0835751647182277,-0.557671689069901,-0.41935431513982,-1.03695803537864,-0.498970217907568,-1.03695803537857,-0.685127670493397,NaN,NaN,NaN,NaN,0.777604510322445,-1.45785431156688,0.597926146751202,-1.45785431156421,0.0752114473460297,-0.283704704875062,-0.119338575642422,-1.07062012685867,-0.152009999503073,NaN,NaN,0.39020556129637,-0.660833816856586,-1.64241361726894,1.49342700879243,-0.985235873794541,-0.468375022013253,0.271124703473274,-0.302318468094425,NaN,-0.224551646529074,-0.373391352687823,0.149520626795502,NaN,NaN,NaN,-1.18141855212923,-0.219817323774423,-0.26764229964582,-0.919088190456514,-0.919088190455593,-0.662760471016714,0.66276047101615,-0.382103616557336
354.816,-1.04478242125886,2.05517989588511,-0.00201557158937372,-0.230880115018989,-0.0144315511058556,-0.0144315511046156,-0.080462704736087,-0.55499663872478,-0.415355809630064,-1.05471624096938,-0.483127302892551,-1.05471624096931,-0.688603849044205,NaN,NaN,NaN,NaN,0.767526460709906,-1.4735763680642,0.62586428016084,-1.47357636806152,0.0792897548865945,-0.278733885288877,-0.114629528729265,-1.0519279420613,-0.126300109312012,NaN,NaN,0.39554138084441,-0.672648039005619,-1.63963216662617,1.50287640873003,-0.970629765849098,-0.457522095221821,0.257339401892676,-0.297665106876811,NaN,-0.227455312454162,-0.371622507968055,0.163320662117248,NaN,NaN,NaN,-1.18161457206645,-0.224627003856072,-0.265339365717077,-0.912965535422744,-0.912965535421827,-0.664286495322637,0.664286495322061,-0.364654311766878
354.9184,-1.06186293263416,2.04590747963286,-0.0203108326204169,-0.24180800613393,-0.0208347337140711,-0.0208347337128222,-0.0774620894331146,-0.550867036764654,-0.410505207810065,-1.07156806567017,-0.466590884147393,-1.0715680656701,-0.691815334992343,NaN,NaN,NaN,NaN,0.757441251117731,-1.48828264082448,0.652677625189162,-1.48828264082181,0.0828238334673582,-0.274256125683877,-0.110455355698778,-1.03318718883544,-0.101240029037602,NaN,NaN,0.400602793926172,-0.683920723283764,-1.63692588558045,1.51292893225503,-0.955491160783305,-0.446710924742105,0.244012542736626,-0.292902575730996,NaN,-0.229682321186007,-0.369168548096372,0.177086532353571,NaN,NaN,NaN,-1.18213126573478,-0.229847335596386,-0.263694646559759,-0.906703463172071,-0.906703463171161,-0.666956913692229,0.666956913691639,-0.346716666060537
355.0208,-1.07887409712257,2.03494097616907,-0.0392694983220961,-0.253885998953339,-0.0280363213582953,-0.0280363213570369,-0.0745661128619718,-0.545314376977241,-0.404817453408645,-1.08749554046917,-0.449396048806817,-1.08749554046909,-0.694777790276513,NaN,NaN,NaN,NaN,0.747371453660952,-1.50190299538696,0.678339676975005,-1.50190299538428,0.0858187803256307,-0.270269623414848,-0.106812593312853,-1.01441586121754,-0.0768865438761193,NaN,NaN,0.40536400496202,-0.694615964011162,-1.63433187166586,1.52359526795986,-0.939867201062443,-0.435951549133527,0.231118048497539,-0.288047349585274,NaN,-0.231147264118128,-0.365938262677362,0.190799126625436,NaN,NaN,NaN,-1.18292604685479,-0.235415101268967,-0.262682732722193,-0.90027057088975,-0.900270570888846,-0.670750330297958,0.670750330297354,-0.328273601814461
355.1232,-1.09582436476051,2.0222475056896,-0.058912671755028,-0.267164228605736,-0.0360644632265852,-0.0360644632253167,-0.0717688183574522,-0.538374082940957,-0.398310929131241,-1.10248362852982,-0.431581009085158,-1.10248362852974,-0.697507025928047,NaN,NaN,NaN,NaN,0.737339780156402,-1.51437015639536,0.702827085082025,-1.51437015639269,0.088281325092054,-0.266771697748699,-0.103696504015029,-0.995630798688539,-0.0532932693981164,NaN,NaN,0.409802178974314,-0.70470119912536,-1.63188615467969,1.53488375896357,-0.923805873297149,-0.425252784331525,0.218628761354639,-0.283115230995746,NaN,-0.231765787884981,-0.361840784275189,0.204440127828533,NaN,NaN,NaN,-1.18395643564541,-0.241265982060557,-0.262273992744398,-0.893637813311904,-0.893637813311008,-0.675641631880601,0.675641631879982,-0.309308925904907
355.2256,-1.11272516894553,2.00779671271279,-0.0792628863030145,-0.281688316196147,-0.044944220257666,-0.044944220256388,-0.0690655693282955,-0.53008528100859,-0.391007362753237,-1.11652004669975,-0.413186958493755,-1.11652004669966,-0.700018753958248,NaN,NaN,NaN,NaN,0.727369074752831,-1.52562011433709,0.726119710752752,-1.52562011433441,0.0902198640611539,-0.263758723953797,-0.101101023100297,-0.976847375364544,-0.0305102341709544,NaN,NaN,0.413897534270711,-0.714147295881702,-1.6296233192317,1.54680013533181,-0.907355700134915,-0.414622050143365,0.206516715908608,-0.278121121186084,NaN,-0.231455038711901,-0.356786043005216,0.21799209393206,NaN,NaN,NaN,-1.18518016760337,-0.247334804051165,-0.26243517249879,-0.886778500356467,-0.886778500355579,-0.68160215843608,0.681602158435446,-0.289807344962674
355.328,-1.12959072720485,1.99156078709046,-0.100343929394403,-0.297498935940554,-0.054697505708824,-0.0546975057075373,-0.0664531202701966,-0.520490576220073,-0.382931735256348,-1.12959507033542,-0.394257919071688,-1.12959507033533,-0.702328341195669,NaN,NaN,NaN,NaN,0.717482313384216,-1.53559250937371,0.748200671315568,-1.53559250937104,0.0916445000662173,-0.2612260575201,-0.0990186977449329,-0.958079208752442,-0.00858351556126215,NaN,NaN,0.417633404365632,-0.722928608580858,-1.62757612647311,1.55934724852302,-0.890565428665658,-0.404065212559187,0.194753412535662,-0.273078803970847,NaN,-0.230134101971031,-0.350685222148803,0.231438520056251,NaN,NaN,NaN,-1.18655528742028,-0.253555777036555,-0.263130005921228,-0.879668276485949,-0.879668276485067,-0.688599871679147,0.6885998716785,-0.269754494455618
355.4304,-1.1464378071439,1.97351449539771,-0.122180632558,-0.314631427426859,-0.065343047280198,-0.0653430472789022,-0.0639296907188565,-0.50963583868415,-0.374112197842057,-1.14170133116742,-0.374840583230098,-1.14170133116733,-0.704450576342991,NaN,NaN,NaN,NaN,0.707702608009379,-1.54423098237869,0.76905636680567,-1.54423098237602,0.0925670867030664,-0.25916794667239,-0.0974406174960721,-0.939337914383071,0.0124450664898292,NaN,NaN,0.420996258726689,-0.731023004130314,-1.62577514811063,1.57252481485293,-0.873483728521139,-0.393586446517662,0.183310082606515,-0.268000749142792,NaN,-0.227724428091301,-0.343451207430699,0.244763881799136,NaN,NaN,NaN,-1.18804022474625,-0.259862715885779,-0.264319831453832,-0.872285079624701,-0.872285079623824,-0.696599512089088,0.696599512088426,-0.249136995861316
355.5328,-1.16328545910744,1.95363523378317,-0.144798624380177,-0.333115455080321,-0.0768963696134566,-0.0768963696121536,-0.0614950391446756,-0.497570007302017,-0.364580000038539,-1.15283362102116,-0.354984148554804,-1.15283362102107,-0.706399461639053,NaN,NaN,NaN,NaN,0.698053211265503,-1.55148349106397,0.78867649113731,-1.55148349106131,0.093001272642822,-0.257577435169228,-0.0963563393823785,-0.920632918513488,0.0325382044297279,NaN,NaN,0.423975680303079,-0.738411858370102,-1.62424842830628,1.58632918026289,-0.856158911079272,-0.383188121232513,0.172157939135762,-0.262897939082743,NaN,-0.22415023942842,-0.334999026882062,0.257953663766756,NaN,NaN,NaN,-1.18959385848803,-0.26618924733167,-0.265964208726079,-0.864609084268822,-0.864609084267949,-0.705562738667722,0.705562738667046,-0.227942545643451
355.6352,-1.18015472185084,1.93190310875498,-0.168224048894026,-0.352974713726382,-0.0893697869867104,-0.0893697869854014,-0.0591505303501884,-0.484344916416636,-0.354369427768595,-1.16298871513135,-0.334740142641497,-1.16298871513125,-0.708188036607712,NaN,NaN,NaN,NaN,0.688557513279301,-1.55730259288367,0.807054030268322,-1.55730259288101,0.0929625374629941,-0.256446264621576,-0.0957538168760419,-0.901971330909668,0.0516633147192773,NaN,NaN,0.426564307231448,-0.745080031389,-1.6230211855687,1.60075311931002,-0.83863867497158,-0.372870711601017,0.161268411579361,-0.257779721905582,NaN,-0.219338916606231,-0.325246282528793,0.270994378245125,NaN,NaN,NaN,-1.19117557921671,-0.272469012607802,-0.268021522710942,-0.856622638239098,-0.85662263823823,-0.715448252781596,0.715448252780904,-0.206160030974688
355.7376,-1.19706830792031,1.9083010459158,-0.192483255020879,-0.374226677303965,-0.102772396850763,-0.102772396849447,-0.056899190787092,-0.470015143616444,-0.343517746149895,-1.17216522157534,-0.314162236237032,-1.17216522157524,-0.709828232631031,NaN,NaN,NaN,NaN,0.679239023902035,-1.5616457005923,0.82418524738133,-1.56164570058964,0.0924682101808843,-0.255764786509057,-0.0956193425739687,-0.883357873359145,0.0697927129317961,NaN,NaN,0.428757748789676,-0.751015828267008,-1.62211555463222,1.61578567379614,-0.82096987203724,-0.362632737624794,0.150613367693117,-0.252653691825502,NaN,-0.213221364627641,-0.314113575247284,0.283873578046437,NaN,NaN,NaN,-1.19274535018656,-0.278635873056468,-0.270449561593445,-0.848310197823693,-0.848310197822831,-0.726211914779696,0.726211914778989,-0.183779663682846
355.84,-1.21405027287028,1.88281492205658,-0.217602462486835,-0.396882384809031,-0.117110073505998,-0.11711007350468,-0.0547457494632066,-0.454637869148404,-0.332065139191132,-1.18036345247011,-0.293306042502399,-1.18036345247001,-0.711330749332668,NaN,NaN,NaN,NaN,0.67012134035214,-1.564475312583,0.840069655117798,-1.56447531258034,0.0915374664431697,-0.255521887499307,-0.0959375085416408,-0.864794853426068,0.0869037569448455,NaN,NaN,0.430554481566029,-0.756210945071405,-1.62155035665865,1.63141202656731,-0.803198280096014,-0.352470729448317,0.140165325171901,-0.247525593907947,NaN,-0.205732359856334,-0.301524922528988,0.296579867088655,NaN,NaN,NaN,-1.19426375569009,-0.284624116219963,-0.273206062478913,-0.839658255816544,-0.83965825581569,-0.737806866103589,0.737806866102866,-0.160793125014065
355.9424,-1.23112567083443,1.85543371513153,-0.243607408661133,-0.420946254746983,-0.132385462291424,-0.132385462290101,-0.0526966643069058,-0.4382727362783,-0.320054639440118,-1.18758530816188,-0.27222889856148,-1.18758530816177,-0.712704945314495,NaN,NaN,NaN,NaN,0.661228103583732,-1.56575920936682,0.854709974978451,-1.56575920936418,0.0901913047917915,-0.255704926572484,-0.0966911832930145,-0.846282168421469,0.102978960690267,NaN,NaN,0.431955729993608,-0.760660397061029,-1.62134088568765,1.64761340169599,-0.785368372930895,-0.342379212884696,0.129897652077677,-0.242399249276742,NaN,-0.196810880789923,-0.287408169287567,0.309102912765882,NaN,NaN,NaN,-1.19569202582939,-0.290368654783421,-0.276249224618144,-0.830655253535589,-0.830655253534744,-0.750183667683737,0.750183667682997,-0.137193714892313
356.0448,-1.24832019856647,1.82614966530393,-0.270522980994603,-0.446415919982451,-0.148597972727238,-0.14859797272591,-0.0507601341487695,-0.420981705910602,-0.307532043406535,-1.19383416798936,-0.250989625550775,-1.19383416798925,-0.713958744219828,NaN,NaN,NaN,NaN,0.652582945239881,-1.56547060581848,0.868112082627789,-1.56547060581584,0.0884525057461651,-0.25629968060107,-0.0978615017519223,-0.827817324032599,0.118006080318882,NaN,NaN,0.432965337317871,-0.764362426914534,-1.62149870732174,1.66436698507716,-0.767523087577039,-0.332350712230788,0.119784750267574,-0.237276499946518,NaN,-0.18640042567856,-0.271695392009206,0.321433462946249,NaN,NaN,NaN,-1.19699203776841,-0.295805214182626,-0.279538190028712,-0.821291473639676,-0.82129147363884,-0.763290458459838,0.763290458459081,-0.112976497010013
356.1472,-1.26565983176221,1.79495843824316,-0.298372842016455,-0.473282080137816,-0.165743772015089,-0.165743772013755,-0.0489460962963612,-0.402828902201341,-0.294545810643836,-1.19911478619119,-0.229648266411553,-1.19911478619108,-0.715098562065097,NaN,NaN,NaN,NaN,0.644209424779251,-1.56358825988008,0.880284937246309,-1.56358825987745,0.086345579093307,-0.257290296116055,-0.0994278643327857,-0.809395457272272,0.131978173601042,NaN,NaN,0.433589634052706,-0.767318393990863,-1.62203147199308,1.68164586416148,-0.749703594009272,-0.322375772144219,0.109802216377857,-0.232157176452634,NaN,-0.174449318537806,-0.254323296018509,0.333563366825289,NaN,NaN,NaN,-1.19812630346346,-0.300870510794897,-0.283033489077956,-0.811558920166167,-0.81155892016534,-0.777073132543226,0.777073132542453,-0.0881384309983275
356.2496,-1.28317046112792,1.76185928423206,-0.327179055902741,-0.501528377471318,-0.183815779468457,-0.183815779467115,-0.0472662094958085,-0.383880449067707,-0.281146946277426,-1.20343319909057,-0.208265804726434,-1.20343319909046,-0.716129261615088,NaN,NaN,NaN,NaN,0.636130954461404,-1.56009654830824,0.891240493496818,-1.56009654830561,0.0838967013062107,-0.258659250993587,-0.101367946259964,-0.79100936450712,0.144893629009694,NaN,NaN,0.433837309693057,-0.769532653700505,-1.62294274973519,1.69941899065034,-0.731949074049193,-0.312443003751593,0.0999269837140714,-0.227039091502974,NaN,-0.160911005613571,-0.235233607068541,0.345485594555631,NaN,NaN,NaN,-1.19905795826913,-0.305502426046087,-0.286697441304398,-0.801451201807095,-0.801451201806277,-0.791475532743276,0.791475532742487,-0.0626784910545774
356.352,-1.30087753516839,1.7268551929817,-0.356961722516975,-0.531131310526176,-0.202803659206125,-0.202803659204777,-0.0457338215921741,-0.364204304058088,-0.267388870625617,-1.20679665518821,-0.186903868752267,-1.2067966551881,-0.717054138044601,NaN,NaN,NaN,NaN,0.628370710410053,-1.55498551626591,0.900993596455886,-1.55498551626329,0.0811336407527811,-0.260387332760945,-0.103657721939395,-0.772649547361748,0.156756154475044,NaN,NaN,0.433719287052689,-0.771012440026567,-1.62423189981491,1.71765117682686,-0.714296519090894,-0.302539159910055,0.0901374545164475,-0.221918060753717,NaN,-0.145744344453711,-0.214373459610842,0.357194247835515,NaN,NaN,NaN,-1.1997507624233,-0.309640182060391,-0.290494496484491,-0.790963435749188,-0.790963435748377,-0.806439657166157,0.806439657165352,-0.0365977804843263
356.4544,-1.31880571208878,1.68995304868434,-0.387738619003733,-0.562060200308983,-0.22269381070312,-0.222693810701766,-0.0443639205787344,-0.343870099330997,-0.253327281213612,-1.20921357723946,-0.165624421942056,-1.20921357723935,-0.717874935964482,NaN,NaN,NaN,NaN,0.620951530753861,-1.54825089664646,0.90956186263268,-1.54825089664385,0.078085667442565,-0.262453636457561,-0.106271507573235,-0.75430429420939,0.167574715540168,NaN,NaN,0.433248590811977,-0.771767757986778,-1.62589398897998,1.73630313774204,-0.696780555208005,-0.292649240270245,0.0804136271544642,-0.216787949817513,NaN,-0.128913885422847,-0.191695782692509,0.368684555975447,NaN,NaN,NaN,-1.20016912138312,-0.313224523379043,-0.294391509500671,-0.780092179699798,-0.780092179698995,-0.821905875218421,0.821905875217601,-0.00989965376068327
356.5568,-1.33697852128439,1.65116378932665,-0.419524847620065,-0.594277215125355,-0.243469359503845,-0.243469359502486,-0.0431730684904188,-0.322948991777789,-0.239020008088051,-1.21069355783738,-0.14448943953109,-1.21069355783727,-0.718591893252423,NaN,NaN,NaN,NaN,0.613895803089213,-1.53989409258564,0.916965550543193,-1.53989409258304,0.0747834434916921,-0.264835583177536,-0.109182024489427,-0.735959809987388,0.177363422084553,NaN,NaN,0.43244020328327,-0.771811287234519,-1.62791976093208,1.75533158281904,-0.679433295922805,-0.282756620504218,0.0707372161573028,-0.211640743499418,NaN,-0.110390144703049,-0.167159682730129,0.379952858232048,NaN,NaN,NaN,-1.20027812860915,-0.316197908284134,-0.298357957879224,-0.768835390027988,-0.768835390027193,-0.837813153074946,0.837813153074109,0.0174101477988944
356.6592,-1.35541803535583,1.61050257027938,-0.452332490585136,-0.627737452404917,-0.265110150334777,-0.265110150333413,-0.0421793205039512,-0.301513516578726,-0.224526860496298,-1.21124738504909,-0.123560572912517,-1.21124738504898,-0.719203808665741,NaN,NaN,NaN,NaN,0.60722534267722,-1.52992212068935,0.923227423037259,-1.52992212068676,0.0712588916336183,-0.267508960929457,-0.112360485381291,-0.717600398157703,0.186141372883038,NaN,NaN,0.43131090796241,-0.771158296927967,-1.6302956505247,1.77468935247075,-0.662284217110761,-0.272843198010479,0.0610917621239669,-0.20646663183007,NaN,-0.0901498685266339,-0.140730821357386,0.390996576678954,NaN,NaN,NaN,-1.20004363531598,-0.318504713718849,-0.302366115244924,-0.757192402347754,-0.757192402346966,-0.854099290471006,0.854099290470152,0.0453233471803251
356.7616,-1.37414455490988,1.56798893012702,-0.486170274714092,-0.662389074189899,-0.287592743681591,-0.287592743680223,-0.041402133432939,-0.279637441348133,-0.209909466173018,-1.2108870970238,-0.102898806206647,-1.21088709702369,-0.719708136356123,NaN,NaN,NaN,NaN,0.600961259267459,-1.5183475131735,0.928372602812257,-1.51834751317092,0.0675450417492526,-0.270447989488431,-0.115776704389948,-0.699208692392715,0.193932470947607,NaN,NaN,0.429879125897345,-0.769826570405116,-1.63300384076518,1.79432559777429,-0.64536005311557,-0.262889550334545,0.0514627301130361,-0.201254110224469,NaN,-0.0681762879903671,-0.112381786077078,0.401814182798507,NaN,NaN,NaN,-1.1994323528005,-0.320091460651349,-0.306391182882244,-0.745163935071864,-0.745163935071083,-0.870701168634859,0.87070116863399,0.0738289753189136
356.864,-1.39317631115748,1.52364695817638,-0.521043250283855,-0.698173492639024,-0.310890415392009,-0.310890415390636,-0.0408622670006087,-0.257395622954865,-0.195231107052436,-1.20962606959413,-0.082564108639476,-1.20962606959402,-0.720101113997642,NaN,NaN,NaN,NaN,0.59512380553666,-1.50518817718462,0.932428420873686,-1.50518817718206,0.063675855117271,-0.273625412239238,-0.119399232821944,-0.680765932070963,0.200765221726025,NaN,NaN,0.428164750049931,-0.767836335732006,-1.63602236869509,1.81418600765118,-0.628684718878356,-0.252875106096153,0.0418375963709214,-0.195990093637879,NaN,-0.0444593627825551,-0.0820924514405471,0.412405158739722,NaN,NaN,NaN,-1.19841199113013,-0.32090706770468,-0.310411368634463,-0.732752117723369,-0.732752117722592,-0.887555010792288,0.887555010791405,0.102913216447254
356.9664,-1.41252919006975,1.47750546201095,-0.556952487985501,-0.735025601952765,-0.334973162359667,-0.334973162358291,-0.0405816809734509,-0.2348638693673,-0.180556555174191,-1.20747913704457,-0.0626150825746082,-1.20747913704446,-0.720377928166106,NaN,NaN,NaN,NaN,0.589732202987355,-1.49046721102926,0.935424257506321,-1.49046721102671,0.0596860275710913,-0.277012614630087,-0.123195519717388,-0.662252271172721,0.206672523228971,NaN,NaN,0.426188977582581,-0.765210192792336,-1.63932528522755,1.83421309060423,-0.612279258500003,-0.242778327701209,0.0322059239596001,-0.19066004394605,NaN,-0.0189960104778624,-0.049850327088148,0.422769951866395,NaN,NaN,NaN,-1.19695142688443,-0.320903135276248,-0.314407901516079,-0.719960536251323,-0.719960536250552,-0.904596661877101,0.904596661876203,0.132559264487135
357.0688,-1.43221647540307,1.42959812695977,-0.593894795168333,-0.772874055158049,-0.359807724148388,-0.359807724147009,-0.0405834310282785,-0.212118806535443,-0.165951910895638,-1.20446273455328,-0.0431086035899562,-1.20446273455316,-0.720532913067824,NaN,NaN,NaN,NaN,0.584804452008245,-1.47421267639523,0.937391377661329,-1.4742126763927,0.0556107789693292,-0.280579759828492,-0.127132088507173,-0.64364710397882,0.2116914520042,NaN,NaN,0.423974133614098,-0.761973021660609,-1.64288286736156,1.85434651718916,-0.59616181106443,-0.232576904293957,0.0225594275194638,-0.185248109198746,NaN,0.0082096829991101,-0.0156508874633905,0.432909920447901,NaN,NaN,NaN,-1.19502088011093,-0.320034256445203,-0.318364978523789,-0.706794276414678,-0.706794276413913,-0.921761895641744,0.921761895640831,0.162747198894847
357.1712,-1.45224860496306,1.3799636547477,-0.631862452071224,-0.811641582994592,-0.385357628442983,-0.385357628441601,-0.0408915621106523,-0.189237742411753,-0.15148443742858,-1.20059504443376,-0.0240994489872478,-1.20059504443364,-0.720559772386784,NaN,NaN,NaN,NaN,0.580357139122476,-1.4564573254043,0.938362763921504,-1.45645732540178,0.051485638952353,-0.284295928892011,-0.131174717952005,-0.624929388428291,0.215863041953697,NaN,NaN,0.421543482609863,-0.758151859779125,-1.64666187472002,1.87452352230705,-0.580347581969659,-0.222247954372975,0.0128920258082464,-0.179737274695922,NaN,0.0371462738794552,0.0205021205981759,0.442827271584393,NaN,NaN,NaN,-1.1925920819085,-0.318258349764081,-0.322269648898128,-0.693259947963417,-0.69325994796266,-0.938986750845042,0.938986750844115,0.193453888662938
357.2736,-1.47263293684524,1.32864587125605,-0.670842969591503,-0.851245345273092,-0.411583258516814,-0.41158325851543,-0.0415309906851587,-0.166298506942087,-0.137222371805332,-1.19589612720075,-0.00563991469271389,-1.19589612720064,-0.720451807174298,NaN,NaN,NaN,NaN,0.576405256597806,-1.43723828240016,0.938372954497022,-1.43723828239765,0.047346236557646,-0.288129254201052,-0.13528861750825,-0.60607795293581,0.21923204753427,NaN,NaN,0.418921029783624,-0.753775742303443,-1.6506258357698,1.89467934985824,-0.564848815461848,-0.211768235247536,0.00319987775710221,-0.174109524886798,NaN,0.0677947901596629,0.058596393625414,0.452524996322141,NaN,NaN,NaN,-1.18963842006448,-0.315537004337188,-0.326111651961116,-0.679365677153533,-0.679365677152782,-0.956207883836615,0.956207883835674,0.224652931100862
357.376,-1.49337352390163,1.27569379848857,-0.710818869210221,-0.891597299802135,-0.438441936040548,-0.438441936039161,-0.0425273615293701,-0.143379240723401,-0.123234684227242,-1.19038801635685,0.0122205766288153,-1.19038801635673,-0.720202124053556,NaN,NaN,NaN,NaN,0.57296205520847,-1.41659667957723,0.937457902220859,-1.41659667957473,0.0432281010201039,-0.292047032231543,-0.139438585919055,-0.587071779117931,0.221846683123714,NaN,NaN,0.416131311720936,-0.748875499445315,-1.65473534450373,1.91474770669386,-0.549674773677347,-0.201114350485791,-0.00651860412037331,-0.16834601070705,NaN,0.100128576040035,0.0986108105472691,0.462006807162975,NaN,NaN,NaN,-1.186135049089,-0.311835819424709,-0.329883233206544,-0.66512105074994,-0.665121050749195,-0.973362911818659,0.973362911817706,0.256314627470871
357.4784,-1.51447089507368,1.22116168993214,-0.751767484277491,-0.932604575324936,-0.465888011851371,-0.465888011849981,-0.0439068647399036,-0.120558115638214,-0.109590764576384,-1.18409476040629,0.0294358731535196,-1.18409476040617,-0.719803798223103,NaN,NaN,NaN,NaN,0.570038949806432,-1.39457724643043,0.935654867826343,-1.39457724642794,0.0391664795048689,-0.296015804293162,-0.143589143994585,-0.567890255069766,0.223758337502726,NaN,NaN,0.413199171966767,-0.743483506057443,-1.65894834881656,1.93466119177661,-0.534831729320916,-0.1902629456393,-0.0162627658922832,-0.162427215237536,NaN,0.134113147586983,0.140515194810688,0.471277081265504,NaN,NaN,NaN,-1.18205895699889,-0.307124723873781,-0.333578958619553,-0.650536997555603,-0.650536997554864,-0.990390723398349,0.990390723397383,0.288405996238149
357.5808,-1.53592184484519,1.1651090339364,-0.793660781740767,-0.974169840155892,-0.493872955116775,-0.493872955115385,-0.0456960064550259,-0.0979129927967771,-0.0963600347540024,-1.17704241201734,0.045963491933757,-1.17704241201723,-0.719249979459307,NaN,NaN,NaN,NaN,0.567645480366361,-1.37122786100377,0.933002342446758,-1.37122786100129,0.0351961685251148,-0.300001410529675,-0.147704646066208,-0.548513397055933,0.225021271757814,NaN,NaN,0.410149527799726,-0.73763339546736,-1.66322041629813,1.95435167929721,-0.520322972349333,-0.17919088836687,-0.0260297457445049,-0.156333113161721,NaN,0.169706060451175,0.184270101499547,0.480340811080152,NaN,NaN,NaN,-1.17738899918628,-0.301378273934495,-0.337195536134982,-0.63562561505141,-0.635625615050677,-1.00723175096918,1.0072317509682,0.320890824551736
357.6832,-1.55771923617623,1.10760053471827,-0.836465204726765,-1.01619166499671,-0.522345434033952,-0.522345434032559,-0.0479213411119386,-0.0755210438966666,-0.0836115093411447,-1.16925897956729,0.0617650066407073,-1.16925897956717,-0.718533947046058,NaN,NaN,NaN,NaN,0.565789313060153,-1.34659908242338,0.929539982213845,-1.34659908242091,0.0313513485675229,-0.303969036984005,-0.151749386075068,-0.528922047594413,0.225692310777068,NaN,NaN,0.407007144528834,-0.731359765368072,-1.66750497205567,1.97375065161611,-0.506148826598383,-0.167875433480148,-0.0358145211547378,-0.15004332202963,NaN,0.206856797485289,0.229826636506444,0.489203563964316,NaN,NaN,NaN,-1.17210591915988,-0.294575933358534,-0.340731649111812,-0.620399967493486,-0.620399967492758,-1.02382821450839,1.02382821450741,0.353729752539818
357.7856,-1.57985182430722,1.04870607993723,-0.880141538372163,-1.05856488481935,-0.551251390379292,-0.5512513903779,-0.0506091856214264,-0.0534583706170617,-0.0714133417469241,-1.16077435857055,0.076806410879208,-1.16077435857044,-0.717649132434045,NaN,NaN,NaN,NaN,0.564476261994245,-1.32074368982422,0.925308544407695,-1.32074368982176,0.0276654144249442,-0.307883273131734,-0.15568771149344,-0.509098065736388,0.225830531808224,NaN,NaN,0.403796427468016,-0.724697897662062,-1.67175351443949,1.99278948985097,-0.492306677199201,-0.156294375232613,-0.0456099648971403,-0.143537245741217,NaN,0.245506690363433,0.27712632023418,0.497871453027814,NaN,NaN,NaN,-1.16619237029804,-0.286702334954784,-0.344187805250238,-0.604873881176777,-0.604873881176053,-1.04012434515583,1.04012434515483,0.386880378327343
357.888,-1.60230410723104,0.988500698897078,-0.924644802044951,-1.10118096630527,-0.580534115523327,-0.580534115521933,-0.0537853357958856,-0.0317996485243289,-0.0598323877481527,-1.15162025423997,0.0910584443921118,-1.15162025423986,-0.716589132054386,NaN,NaN,NaN,NaN,0.5637103180384,-1.29371624868186,0.920349824630061,-1.29371624867942,0.0241707991495072,-0.311708188002676,-0.159484150551158,-0.489024520402418,0.225496948628979,NaN,NaN,0.400541233372409,-0.717683498463924,-1.67591581939523,2.01139973164297,-0.478791015451095,-0.144426192606441,-0.0554069094938264,-0.136794214887288,NaN,0.285588891724425,0.326101010549974,0.506351121311839,NaN,NaN,NaN,-1.15963294504921,-0.277747519981963,-0.347566197163322,-0.58906175339946,-0.589061753398741,-1.0560665885613,1.05606658856028,0.420297374867656
357.9904,-1.62505620553642,0.927064510949169,-0.969924170407727,-1.14392838498705,-0.610134334002843,-0.61013433400145,-0.057474794661938,-0.0106178051018759,-0.0489337996506858,-1.14183010065677,0.10449687247119,-1.14183010065666,-0.715347727159499,NaN,NaN,NaN,NaN,0.56349367751041,-1.26557271588759,0.914706595248064,-1.26557271588516,0.0208987904480603,-0.31540742874134,-0.163103555453924,-0.468685886068989,0.224754188604537,NaN,NaN,0.397264704284028,-0.710352457539388,-1.6799401407524,2.02951330224604,-0.465593506078868,-0.132250197375513,-0.065194222632091,-0.129793632823258,NaN,0.327028412415423,0.376672898157596,0.514649740878956,NaN,NaN,NaN,-1.1524142122036,-0.267707150475343,-0.350870562284663,-0.572978384873688,-0.572978384872974,-1.07160378645665,1.07160378645562,0.453932618901432
358.0928,-1.64808377091936,0.864482659546453,-1.01592292467089,-1.18669301645636,-0.639990298445119,-0.639990298443731,-0.0617015155920725,0.0100162718193756,-0.038780650831686,-1.13143897627946,0.117102711680211,-1.13143897627935,-0.713918919668948,NaN,NaN,NaN,NaN,0.563826768520006,-1.23637008560113,0.908422540980393,-1.23637008559871,0.0178793379831107,-0.318944343592648,-0.166511263430122,-0.448068232871109,0.223666156781115,NaN,NaN,0.393989127592583,-0.702740626046736,-1.68377341138022,2.04706272483051,-0.45270307831187,-0.119746695192957,-0.0749588987520455,-0.122515137581556,NaN,0.369742234572415,0.42875458455785,0.522775027308839,NaN,NaN,NaN,-1.14452475644506,-0.256582685564663,-0.354106027816228,-0.556638839790705,-0.556638839789998,-1.08668733844879,1.08668733844775,0.487735336865304
358.1952,-1.67135792034455,0.800845223287513,-1.06257843519027,-1.22935854865321,-0.670037900042299,-0.670037900040914,-0.066488164177541,0.0300340042351471,-0.0294335877540113,-1.1204835100024,0.128862399291526,-1.1204835100023,-0.712296988207533,NaN,NaN,NaN,NaN,0.564708275927338,-1.20616607407073,0.901542184604727,-1.20616607406833,0.0151408517690411,-0.322282127735478,-0.169673274647665,-0.427159403081588,0.222297680413562,NaN,NaN,0.390735822094102,-0.69488361148273,-1.68736145212328,2.06398131797974,-0.440106043102866,-0.106897163779135,-0.0846861728187061,-0.114938784878218,NaN,0.413639506071207,0.482249248683165,0.530735266658277,NaN,NaN,NaN,-1.13595521299413,-0.244381513969098,-0.357278932591535,-0.540058333874276,-0.540058333873575,-1.10127134634599,1.10127134634494,0.521652270919342
