time,S1-D1,S1-D8,S1-D9,S1-D15,S2-D1,S2-D2,S2-D3,S2-D9,S3-D1,S3-D2,S3-D16,S4-D2,S4-D3,S4-D5,S5-D3,S5-D4,S5-D5,S6-D2,S6-D5,S6-D17,S7-D6,S7-D7,S8-D6,S8-D7,S8-D18,S9-D3,S9-D4,S9-D9,S9-D11,S9-D19,S10-D8,S10-D9,S10-D10,S10-D11,S11-D8,S11-D10,S11-D20,S12-D10,S12-D11,S12-D12,S13-D4,S13-D11,S13-D12,S14-D10,S14-D12,S14-D21,S15-D13,S15-D14,S16-D13,S16-D14,S16-D22
550.6048,0.790173398941713,0.990154788551586,1.20771425311615,0.523739291285212,-0.250816391278454,-0.250816391277871,-0.494033802087437,NaN,-1.0185073123701,0.61447208308903,0.125477438294435,0.614472083088803,-1.03364909485453,NaN,-0.667181767962656,0.354604471929763,NaN,-0.543410400254488,NaN,0.714862392987384,0.875493766457188,-0.116506801412812,0.131854076074623,0.0553969441071322,-0.999255742458112,0.421993562392195,0.421993562392045,-0.723380170116337,0.723380170115783,0.34698909355066,2.49231248008652,1.82082013147325,NaN,1.65222477722339,-0.685855885254432,1.06435238491132,-0.279774852166768,0.992801820109128,0.992801820112427,0.0685486161549539,0.216499770367871,0.518216335639216,0.560149053744057,-0.655400900114542,-0.0643799275646768,1.44168576838021,-2.64454407395772,-2.64454407395818,NaN,-1.21474048336861,0.638907288440503
550.7072,0.820778275565943,1.00744961244544,1.24399319210871,0.521388614226574,-0.231746574252476,-0.23174657425189,-0.479919414773061,NaN,-0.963947813772789,0.647022562907804,0.132206482520522,0.647022562907591,-1.05076221522526,NaN,-0.687234358390356,0.372052593094009,NaN,-0.537597190528812,NaN,0.720772151831771,0.854066135555151,-0.11709481937844,0.138666280661783,0.0697372343088827,-1.01016506442819,0.428156771375017,0.428156771374852,-0.732271914264326,0.732271914263749,0.330995632705972,2.522496595973,1.82589827673709,NaN,1.63805298674873,-0.686565441884757,1.0494750289017,-0.291353697789819,0.987285493961938,0.987285493965209,0.068771162736724,0.22915593338775,0.542090946300112,0.526731523572264,-0.640571123697176,-0.0859795898639209,1.46813774105383,-2.62538953481048,-2.62538953481093,NaN,-1.20236700414916,0.628874879670799
550.8096,0.851151143692322,1.02239289000384,1.27889003059344,0.518838240385264,-0.212771009997549,-0.21277100999696,-0.46504657666918,NaN,-0.907264958114055,0.679497658674626,0.138356506604437,0.679497658674425,-1.06798939402006,NaN,-0.707610700815684,0.390014420869014,NaN,-0.531104556571452,NaN,0.726717795411218,0.832134324273188,-0.117917576032749,0.145735294175918,0.0841688906333911,-1.0212343578251,0.433811092753058,0.433811092752877,-0.741076658318221,0.741076658317622,0.314130620506881,2.55176094540855,1.82995987037594,NaN,1.62305400713029,-0.68793956785887,1.03318596821897,-0.303463538944534,0.981496740616735,0.981496740619975,0.0692212351910316,0.241495100073868,0.565762943899987,0.492955002882765,-0.624567934933552,-0.10674829316775,1.4925688247439,-2.60554581049907,-2.60554581049951,NaN,-1.19008833818042,0.617954561554131
550.912,0.881272113329198,1.03495612110274,1.31237258530038,0.516051109176816,-0.193900400339576,-0.193900400338983,-0.449387982644451,NaN,-0.848542469872048,0.711871472729006,0.143884382856147,0.711871472728817,-1.08528312537726,NaN,-0.728262391244991,0.408459900624481,NaN,-0.523928233998239,NaN,0.7326840897118,0.809724161174829,-0.118979004010261,0.153041580177354,0.0986389122287365,-1.03250125243245,0.438934656676353,0.438934656676153,-0.749803331698988,0.749803331698366,0.296390098144,2.58005943682824,1.83296683629309,NaN,1.60725736694829,-0.689981974781997,1.01551167632507,-0.316126055640627,0.975382088425749,0.975382088428963,0.0699163992595651,0.25347436749797,0.58918246975267,0.458828317803908,-0.607411896647024,-0.126697781229653,1.5149278615251,-2.58501099861895,-2.58501099861936,NaN,-1.17787758896417,0.606133442244374
551.0144,0.911122219406523,1.04511869729852,1.34441344343891,0.512989818115963,-0.175145040379325,-0.175145040378729,-0.432917285428747,NaN,-0.787870198683268,0.744117032383112,0.148749239569641,0.744117032382934,-1.10259436676135,NaN,-0.749139157205925,0.427353787554563,NaN,-0.516068268353281,NaN,0.738655349964406,0.786863010359149,-0.120282912214803,0.160563441688163,0.113089617478516,-1.04400195041986,0.443507567343199,0.44350756734298,-0.75846008857556,0.758460088574914,0.277773400931488,2.60734687892198,1.83488425351039,NaN,1.59069498747099,-0.6926943834558,0.996482769839174,-0.329361439607201,0.968885235283998,0.968885235287186,0.0708752721322209,0.26505018315401,0.61230024258098,0.424361970723377,-0.589128078912085,-0.1458426591576,1.53516425354967,-2.56378368800863,-2.56378368800903,NaN,-1.16570556098682,0.593401974828289
551.1168,0.940683117343475,1.05286783158472,1.37498965257631,0.509616895657278,-0.156514885904861,-0.156514885904264,-0.41560921735956,NaN,-0.725343744539969,0.776206268760822,0.152912629133132,0.776206268760655,-1.11987266199424,NaN,-0.770188970931873,0.446655787527022,NaN,-0.507529106598591,NaN,0.744615563227871,0.763579892543477,-0.12183292958199,0.168277120878321,0.127458990884869,-1.0557707447294,0.447512069077876,0.447512069077637,-0.76705424604631,0.767054246045641,0.25828355336851,2.63357894827823,1.83568053285951,NaN,1.57340109190717,-0.696076324589166,0.97613409099562,-0.343188026614391,0.961947561979206,0.961947561982368,0.0721173273762754,0.276178705944955,0.635067897849652,0.389568166098021,-0.569745970196143,-0.164200271583413,1.55322788497103,-2.54186321102447,-2.54186321102485,NaN,-1.15354114810614,0.579754191903889
551.2192,0.96993674764887,1.05819842699784,1.40408235204376,0.505895074196094,-0.138019624661432,-0.138019624660835,-0.397439704282084,NaN,-0.661064014679496,0.808109996470801,0.15633869531442,0.808109996470644,-1.13706628576388,NaN,-0.791358192330144,0.46632073901844,NaN,-0.4983196799436,NaN,0.750548520007318,0.739905609180404,-0.123632455717156,0.176156926052105,0.141681077870708,-1.06783955810855,0.450932686036177,0.450932686035917,-0.775592215397994,0.775592215397303,0.237927659712186,2.65871218085456,1.83532756144072,NaN,1.55541209613751,-0.700124949119663,0.954504763087522,-0.357621944697872,0.954508687946574,0.954508687949706,0.0736627117678241,0.286816155625804,0.657438325854282,0.354460826455143,-0.549299367576181,-0.181790569800631,1.56906909284302,-2.51924990237979,-2.51924990238016,NaN,-1.14135175734889,0.565187915220556
551.3216,0.998864980206954,1.06111288914329,1.43167635802462,0.501787555276366,-0.119668753864819,-0.119668753864221,-0.378385971980215,NaN,-0.595136731643544,0.839797888331556,0.158994333520637,0.839797888331408,-1.15412240938836,NaN,-0.812591737481816,0.48629883376991,NaN,-0.48845347211067,NaN,0.756437956431495,0.71587284208729,-0.125684619191603,0.184175382142913,0.155686417172998,-1.08023751589957,0.453756337756875,0.453756337756591,-0.784079429840672,0.784079429839956,0.216717257673848,2.68270399838361,1.83380081351905,NaN,1.53676647823187,-0.704834846596454,0.931638217537431,-0.372676785767302,0.946507064986557,0.946507064989659,0.0755320691771156,0.296919148973441,0.679365997131924,0.319055596929541,-0.527826246483049,-0.198635970185747,1.58263870765148,-2.49594534349354,-2.49594534349389,NaN,-1.12910375810626,0.54970492752486
551.424,1.02744925661668,1.06162089476519,1.45775972496785,0.497258268699711,-0.101471656927633,-0.101471656927037,-0.358426644623437,NaN,-0.527671906038966,0.871238443481301,0.160849343868495,0.871238443481161,-1.17098728540697,NaN,-0.833833267809854,0.50653587401419,NaN,-0.477948561910203,NaN,0.7622677009458,0.691516206040477,-0.127992236858675,0.192303399802741,0.169402513616178,-1.0929905520162,0.45597243887328,0.455972438872974,-0.792520274519255,0.792520274518516,0.194668619127976,2.70551276579787,1.83107942604875,NaN,1.51750462763838,-0.71019786995605,0.90758219494114,-0.388363298567853,0.937880601294738,0.937880601297814,0.0777463693455739,0.306445025015167,0.700807275855285,0.283369835615902,-0.505368611104857,-0.214761208112675,1.59388817622122,-2.47195257808297,-2.4719525780833,NaN,-1.11676295536691,0.533311096139832
551.5264,1.05567024955591,1.05973912674285,1.48232330564667,0.49227213353789,-0.0834376676283289,-0.0834376676277355,-0.337541834222523,NaN,-0.458783283992068,0.902398954651975,0.161876579873437,0.902398954651843,-1.18760644691971,NaN,-0.855025396306191,0.526973568909997,NaN,-0.466827627490327,NaN,0.768021818386319,0.666872239470024,-0.130557766224153,0.200510457607719,0.182754355567436,-1.10612104108072,0.457572990651152,0.457572990650822,-0.800918022703089,0.800918022702326,0.171802994468911,2.72709786901719,1.82714623126791,NaN,1.49766867605758,-0.716202968570569,0.882388720471357,-0.40468909751126,0.928567305515134,0.928567305518186,0.080326739631254,0.315352165191954,0.721720728857723,0.247422584666225,-0.481972326973447,-0.23019319459366,1.60276976990738,-2.44727628864612,-2.44727628864644,NaN,-1.10429508404177,0.516016444129861
551.6288,1.08350755245469,1.05549097814319,1.5053603231778,0.486795326027685,-0.0655761145348401,-0.0655761145342508,-0.315713220580441,NaN,-0.388587778514959,0.933245484293729,0.162052095037379,0.933245484293606,-1.20392491814998,NaN,-0.876109910162358,0.547549875770161,NaN,-0.45511790838092,NaN,0.773684752559625,0.641979320880007,-0.133383248726666,0.20876479465337,0.195664975368917,-1.1196474563305,0.458552663268212,0.458552663267856,-0.809274778258429,0.809274778257644,0.148146796363093,2.74741980670972,1.82198773064502,NaN,1.47730230979376,-0.722836036955681,0.85611404699126,-0.421658389325484,0.918505936340007,0.918505936343035,0.0832942913699777,0.323600318464549,0.742067434702447,0.211234514498585,-0.45768693537763,-0.244960883758204,1.60923687527246,-2.42192292685205,-2.42192292685235,NaN,-1.09166632001527,0.497835171719821
551.7312,1.11093940700966,1.04890622122521,1.52686595976117,0.480795547685592,-0.047896349057418,-0.0478963490568319,-0.292924118818145,NaN,-0.317204890300806,0.963742853969898,0.161355287272432,0.963742853969782,-1.21988743771989,NaN,-0.897028014774069,0.568199388819523,NaN,-0.44285113414474,NaN,0.779241474918187,0.61687749488084,-0.136470245737198,0.217033611920687,0.208056045220463,-1.13358406703683,0.458908858198643,0.45890885819826,-0.817591420583608,0.817591420582804,0.123731708672836,2.76644029922465,1.81559399494636,NaN,1.45645056099334,-0.730079790720413,0.828818553173149,-0.439271732782983,0.90763663744757,0.90763663745057,0.0866699297676686,0.33115093900549,0.761811288185117,0.174827836263254,-0.432565448485158,-0.259095155393371,1.61324436176957,-2.39590079168582,-2.3959007916861,NaN,-1.07884380426874,0.478785631807622
551.8336,1.13794247439306,1.04002063776226,1.54683696561784,0.474242277353515,-0.0304077682765135,-0.0304077682759323,-0.269159524169684,NaN,-0.244756115096406,0.993854641168283,0.159769039583408,0.993854641168174,-1.23543870366028,NaN,-0.917720610128916,0.588853772710501,NaN,-0.430063433393773,NaN,0.78467764425608,0.591608191058422,-0.139819761345599,0.22528327228716,0.219848497886385,-1.14794069555781,0.458641738998644,0.458641738998235,-0.825867544838529,0.825867544837703,0.0985947030296356,2.78412241990195,1.80795848512542,NaN,1.4351595767812,-0.737913681748181,0.800566585173576,-0.457525852696007,0.895901537139859,0.895901537142831,0.0904741477995571,0.337967532886358,0.78091929441026,0.138226183523717,-0.406664126013166,-0.272628712361394,1.61474901917822,-2.36922004775385,-2.36922004775411,NaN,-1.06579617708828,0.458890257215228
551.936,1.16449165448018,1.02887561382481,1.56527129360003,0.467106992996191,-0.0131198429823992,-0.0131198429818246,-0.244406120315153,NaN,-0.171364331088609,1.02354317387019,0.157279855676391,1.02354317387009,-1.25052365022486,NaN,-0.938128609311297,0.609442233270265,NaN,-0.416795232268947,NaN,0.789979777576997,0.566213830334212,-0.14343213111236,0.233479475987781,0.230963163171428,-1.1627225459681,0.457754225914907,0.457754225914469,-0.834101389494194,0.834101389493348,0.0727779571158567,2.80043074279543,1.79907780015622,NaN,1.4134763698606,-0.746313860909385,0.771426238215197,-0.476413522096197,0.88324530036316,0.883245300366107,0.0947268198859753,0.344016000626074,0.799361854804433,0.101454466113476,-0.38004223525164,-0.285595991494997,1.61371005521715,-2.34189268365596,-2.34189268365621,NaN,-1.0524941245734,0.438175435958423
552.0384,1.19055995235822,1.0155177116742,1.58216776511482,0.459363359042197,0.00395784562681088,0.00395784562737946,-0.218652248379642,NaN,-0.0971531710274645,1.05276951908224,0.153877989031137,1.05276951908215,-1.26508775779211,NaN,-0.958193297653919,0.629892013332854,NaN,-0.403091143882449,NaN,0.795135428410445,0.540737337191128,-0.147306853985826,0.241587386075105,0.241321410130831,-1.17793010239119,0.456251958750334,0.456251958749861,-0.842289748816375,0.842289748815509,0.0463286861573432,2.8153314903196,1.788951370688,NaN,1.39144855766892,-0.75525318954004,0.741469084134743,-0.49592351229179,0.869615630769945,0.869615630772864,0.0994470130121901,0.34926496029509,0.81711304661741,0.0645387002764799,-0.352761795974022,-0.298033085012601,1.61008963864381,-2.31393242634623,-2.31393242634646,NaN,-1.03891094241808,0.41667133989647
552.1408,1.21611838576183,0.999998240245425,1.5975257723275,0.450987383225944,0.0208155639298254,0.0208155639303878,-0.191887850955229,NaN,-0.022246402169392,1.08149346915304,0.149557561931976,1.08149346915295,-1.27907738670405,NaN,-0.97785671808377,0.650128896183644,NaN,-0.388999845644933,NaN,0.800133363117438,0.51522160255798,-0.151442362693247,0.249571689721371,0.250845772545248,-1.19355908531689,0.454143238986407,0.454143238985901,-0.850427878920279,0.850427878919397,0.0192989108229933,2.82879266618876,1.77758113056124,NaN,1.36912409842294,-0.764701292550598,0.710769859503851,-0.516040597401087,0.854963725310407,0.854963725313302,0.104652824771499,0.353686034165008,0.834150880408174,0.027505823851002,-0.324887312790133,-0.309977665394953,1.60385346691937,-2.28535463740616,-2.28535463740637,NaN,-1.02502311245022,0.394411720704496
552.2432,1.24113592491192,0.982372848380621,1.61134502098927,0.441957551149544,0.0374433851005031,0.0374433851010574,-0.164104411509063,NaN,0.053232657235837,1.10967353379637,0.14431666818141,1.10967353379629,-1.29244012063307,NaN,-0.997062061589028,0.670077700026163,NaN,-0.374573938247164,NaN,0.804963722794527,0.489708951990983,-0.155835748453661,0.257396595988225,0.259460525599008,-1.20960044891956,0.451438964704394,0.451438964703855,-0.858509412767887,0.858509412766988,-0.00825481146824518,2.84078416798,1.76497120068952,NaN,1.34655103204201,-0.774624639499408,0.679406134274999,-0.536745591821925,0.839244685910724,0.839244685913595,0.110361252494177,0.357254080110662,0.850457507685478,-0.00961649317342175,-0.2964854979238,-0.321468905367783,1.59497133664741,-2.25617621536571,-2.2561762153659,NaN,-1.01081087454875,0.371433687414031
552.3456,1.2655794578572,0.962701157550825,1.62362531599866,0.432254949757726,0.0538311565617608,0.0538311565623091,-0.135294899907317,NaN,0.12916166681926,1.13726694704481,0.138157452682594,1.13726694704473,-1.30512510345098,NaN,-1.01575404159484,0.689662758303161,NaN,-0.35986977575894,NaN,0.809618163998278,0.46424065517181,-0.160482459129445,0.265025778781095,0.267092193301341,-1.2260404004189,0.448152569717403,0.448152569716833,-0.866526295547502,0.866526295546589,-0.0362716680422585,2.851277881719,1.75112760612778,NaN,1.32377723153522,-0.78498663799763,0.64745798020374,-0.558015397865367,0.822417895541241,0.822417895544089,0.116588096806756,0.35994735354762,0.866019357980613,-0.0468000389889708,-0.267624985231405,-0.332547389692251,1.5834177020272,-2.22641551817928,-2.22641551817946,NaN,-0.996258772782288,0.34777747613125
552.448,1.28941377829222,0.941046436686089,1.63436638826834,0.421863390018664,0.0699684814265262,0.0699684814270677,-0.105453722087467,NaN,0.205419730208279,1.16422969631628,0.131086164856272,1.16422969631621,-1.31708335532268,NaN,-1.03387923653792,0.708808388062306,NaN,-0.344947257601506,NaN,0.814089979224778,0.438856482866829,-0.165375976586747,0.272422270103941,0.273669986158276,-1.24286042838826,0.444299971730682,0.444299971730084,-0.874468744367877,0.874468744366951,-0.064686874450872,2.86024776498616,1.73605802924118,NaN,1.3008501654757,-0.79574772934211,0.615007648483508,-0.579823049953459,0.804447364729078,0.804447364731901,0.123347898686752,0.36174759627158,0.880827197020779,-0.0840162525151052,-0.238376035149858,-0.343255019906835,1.56917221469117,-2.1960923048301,-2.19609230483025,NaN,-0.981356157149431,0.323486218818012
552.5504,1.312601597326,0.917475309588706,1.64356775948028,0.410769529753999,0.0858447162679709,0.0858447162685077,-0.0745766693910207,NaN,0.281887789500123,1.19051657434101,0.123113188417893,1.19051657434095,-1.32826806241106,NaN,-1.05138639719214,0.727439341593512,NaN,-0.329869583628222,NaN,0.81837419847579,0.413594303174323,-0.170507470610103,0.279548303409391,0.27912617423669,-1.26003734296013,0.439899525716987,0.439899525716361,-0.882325233586278,0.882325233585339,-0.0934319698638885,2.8676699235841,1.71977159356826,NaN,1.27781666707145,-0.806865488625914,0.582139250113235,-0.602137760363896,0.785302044495877,0.785302044498676,0.130653899545145,0.36264005752814,0.894876098141168,-0.121236412978276,-0.208810234075068,-0.353634909934573,1.55222024027552,-2.16522767994694,-2.16522767994709,NaN,-0.966097621671497,0.298605710522251
552.6528,1.33510358304849,0.892057482115136,1.65122864181679,0.398962985486434,0.101448981705729,0.10144898170626,-0.0426608691748798,NaN,0.358448937450023,1.21608124758563,0.114253052515812,1.21608124758556,-1.33863484644238,NaN,-1.06822672856031,0.745481230053596,NaN,-0.314702983419897,NaN,0.822467669198392,0.388489710996969,-0.175865433793836,0.286365110929885,0.2833963951623,-1.27754334513791,0.434971973047416,0.434971973046766,-0.890082507135639,0.890082507134689,-0.122435148277889,2.87352268070833,1.70227867318072,NaN,1.25472270400637,-0.818294741199902,0.548938422783338,-0.62492498602397,0.76495609128483,0.764956091287609,0.138518010373203,0.362613453719583,0.908165315146282,-0.158431812269723,-0.179000196709248,-0.3637312656597,1.5325533471187,-2.13384401993366,-2.13384401993379,NaN,-0.950483360333422,0.273184165235825
552.7552,1.35687843026145,0.8648654830496,1.65734787177582,0.386436419396912,0.116770177649174,0.116770177649697,-0.00970474352741711,NaN,0.434988643652147,1.24087633348142,0.104524427219028,1.24087633348136,-1.34814202528016,NaN,-1.08435415980725,0.762860912497916,NaN,-0.299516431225929,NaN,0.826369110199199,0.363575689619848,-0.181435306693566,0.292832682659274,0.286419894976595,-1.29534614089754,0.42954037863157,0.429540378630894,-0.897725619261331,0.897725619260371,-0.151621643769718,2.87778663321177,1.68359072472323,NaN,1.23161314688683,-0.82998770502745,0.515491973782204,-0.64814653342967,0.743389072282569,0.743389072285327,0.146950783118823,0.361659872411854,0.920698055541851,-0.195573897873479,-0.149019280328615,-0.373589244287421,1.51016976649312,-2.10196486861204,-2.10196486861216,NaN,-0.934519434504923,0.247271951759305
552.8576,1.37788296014274,0.835974423312668,1.66192388017724,0.373185595809483,0.131796996465929,0.131796996466444,0.0242920184845547,NaN,0.511394901113697,1.26485348463523,0.0939501019264984,1.26485348463517,-1.35675086953803,NaN,-1.09972560699885,0.779506851762893,NaN,-0.284381349782367,NaN,0.830079136670758,0.338882309266218,-0.187199099053761,0.298909494163364,0.288139705982404,-1.31340910187159,0.423630055687614,0.423630055686915,-0.905238007239344,0.905238007238374,-0.18091416798585,2.88044469365731,1.66372014520179,NaN,1.2085315404552,-0.841894157604279,0.481887504268126,-0.671760703922193,0.720586113723363,0.720586113726101,0.155961385488864,0.359774630350517,0.932481174191833,-0.232634384210924,-0.118941317005488,-0.383254797417932,1.48507482430632,-2.06961480416925,-2.06961480416937,NaN,-0.918217955385831,0.220921313984098
552.96,1.39807224841494,0.805461782448181,1.66495470152741,0.359209412515212,0.14651793286083,0.146517932861337,0.0593284793706509,NaN,0.587558305577599,1.28796348534897,0.0825569430886538,1.28796348534891,-1.36442584868322,NaN,-1.11430122033509,0.795349445165614,NaN,-0.269371298417359,NaN,0.833600258484175,0.314436473231575,-0.193135015704448,0.304552217069234,0.288502775099397,-1.33169146116655,0.417268483342484,0.417268483341764,-0.912601598834318,0.912601598833334,-0.21023337880031,2.8814821240018,1.64268016628701,NaN,1.18551988606293,-0.853961617351235,0.448213032250697,-0.695722467456712,0.69653800520137,0.696538005204082,0.165557588104642,0.3569560930542,0.943524816593709,-0.269585338952122,-0.0888403667620075,-0.39277450823618,1.45728133553759,-2.03681928358704,-2.03681928358715,NaN,-0.901597180656572,0.194186092027548
553.0624,1.41739978013383,0.773407223658823,1.6664380216727,0.344509917957438,0.160921294009791,0.160921294010289,0.0954024769463717,NaN,0.663372084726288,1.31015636901276,0.0703758317408495,1.3101563690127,-1.37113485352431,NaN,-1.12804460258173,0.810321342211386,NaN,-0.254561642011453,NaN,0.836936859621322,0.290261719812518,-0.199217100071828,0.30971543244403,0.287460061604811,-1.35014852890439,0.410485220991265,0.410485220990528,-0.919796948862525,0.919796948861531,-0.23949835182035,2.88088656553786,1.62048479228934,NaN,1.16261844173,-0.866135530150519,0.414556628781826,-0.719983648947839,0.671241270501929,0.671241270504618,0.17574578152357,0.353205452400996,0.953842034821554,-0.306399253894794,-0.0587904914353385,-0.402195433258202,1.42680994541143,-2.00360446946804,-2.00360446946815,NaN,-0.884681524161448,0.167121461493708
553.1648,1.4358176297322,0.739892424977487,1.66637125631993,0.329092321787514,0.174995215897214,0.174995215897703,0.13251066462157,NaN,0.738732097944776,1.33138156427979,0.0574415869435006,1.33138156427972,-1.3768493866943,NaN,-1.1409229937166,0.824357757429459,NaN,-0.24002920397965,NaN,0.840095166154354,0.266378081709657,-0.205414903892622,0.31435136085818,0.284966617662103,-1.36873192050981,0.403311817150169,0.403311817149412,-0.92680339257646,0.926803392575454,-0.268627035164918,2.87864806316338,1.59714877114609,NaN,1.13986553945363,-0.878359462128118,0.381006066055671,-0.74449312089763,0.644698203759381,0.644698203762041,0.186531037187339,0.348526457959151,0.963448392097221,-0.343049104516248,-0.028865546637146,-0.411564950453836,1.39368940271216,-1.96999704553108,-1.96999704553118,NaN,-0.867501485019976,0.139783696360858
553.2672,1.45327666538861,0.705000907574936,1.66475165011023,0.312964995325846,0.188727688606189,0.18872768860667,0.17064856798588,NaN,0.81353682234244,1.35158807272648,0.0437928801193534,1.35158807272641,-1.38154472371109,NaN,-1.15290742933944,0.83739677548536,NaN,-0.225851910268288,NaN,0.843083204623833,0.24280200350589,-0.211693188958144,0.318409614152442,0.280981650807078,-1.38738980472509,0.395781704865047,0.395781704864273,-0.933599204137547,0.93359920413653,-0.29753668425549,2.87475908050722,1.5726875759183,NaN,1.11729741618442,-0.890575310134537,0.347648463828507,-0.769197011171961,0.616916860814384,0.61691686081702,0.197917209934163,0.342925111066209,0.972361568699532,-0.379508392802685,0.000861010864816553,-0.420930604947456,1.35795675401923,-1.93602402676333,-1.93602402676344,NaN,-0.850093499338049,0.112229947222898
553.3696,1.46972677427291,0.668817848448748,1.66157638677076,0.296139449956508,0.202106584340474,0.202106584340948,0.209810652176145,NaN,0.887687330916961,1.3707246710798,0.029472140406078,1.37072467107974,-1.38520005407311,NaN,-1.16397288506315,0.849379640137711,NaN,-0.212108430703298,NaN,0.84591075097593,0.219546318794036,-0.218011671495716,0.321836973182855,0.27546855575077,-1.40606718382175,0.387930074707215,0.387930074706422,-0.940161750034332,0.940161750033306,-0.326144281821404,2.86921450404201,1.54711738234457,NaN,1.09494805698102,-0.902723540314988,0.314569923600342,-0.794038939952014,0.587910998168688,0.587910998171297,0.209907068526605,0.336409339547667,0.980600979447479,-0.415751165671346,0.0303163013768378,-0.430339942671529,1.31965745084919,-1.90171256537296,-1.90171256537307,NaN,-0.832499711207007,0.0845180246349164
553.472,1.48511710224897,0.631429875788752,1.65684270369346,0.278630283752986,0.215119677557754,0.215119677558217,0.249990395058868,NaN,0.961087264816493,1.3887401253141,0.0145254488622247,1.38874012531404,-1.38779860885458,NaN,-1.17409841273259,0.86025102320386,NaN,-0.198877819049052,NaN,0.848589274525077,0.196620287391126,-0.224324824850574,0.324577199512812,0.268394900626898,-1.42470621178054,0.379793720710416,0.379793720709602,-0.946467630591055,0.94646763059002,-0.354366945821319,2.86201163580084,1.52045504580199,NaN,1.0728490509511,-0.91474345360204,0.281855152187375,-0.818960291216575,0.557699962060264,0.55769996206285,0.222502440737458,0.328988669470664,0.988187410371212,-0.451752008285981,0.0594281863562458,-0.439840330948964,1.27884536949905,-1.86708975136813,-1.86708975136824,NaN,-0.814767665965169,0.0567061841968725
553.5744,1.49939630282375,0.592924852423651,1.65054800892667,0.260455096732587,0.227754653438449,0.227754653438904,0.291180360298276,NaN,1.03364280454516,1.40558340986968,-0.000997583131486079,1.40558340986962,-1.38932776979127,NaN,-1.18326726016002,0.869959275639171,NaN,-0.186239147261136,NaN,0.851131884274559,0.174029693874638,-0.230581754743456,0.326570890992932,0.259732360254764,-1.44324654558174,0.371410861556746,0.371410861555909,-0.952492812273287,0.952492812272243,-0.382122323136313,2.85315018251566,1.49271809551275,NaN,1.05102946148179,-0.926573464450393,0.249587088125548,-0.843900510740725,0.526308538896291,0.526308538898856,0.235704363220401,0.320673904228607,0.995142677109069,-0.48748602075212,0.088125421134938,-0.449478772502529,1.23558275152609,-1.83218240940483,-1.83218240940495,NaN,-0.796949934106821,0.0288529151229909
553.6768,1.5125127944308,0.553391654562004,1.64269000335189,0.241634384367807,0.239999111802607,0.239999111803054,0.333372265163976,NaN,1.10526264993067,1.42120393738979,-0.0170439596654614,1.42120393738972,-1.38977914371279,NaN,-1.19146695361448,0.878456662276478,NaN,-0.174271129786814,NaN,0.853553281085393,0.151777008814468,-0.236726150587016,0.327755387431038,0.249456603244263,-1.46162571724705,0.362820944171146,0.362820944170289,-0.958212763611047,0.958212763609994,-0.409328964556752,2.8426322602935,1.46392476616383,NaN,1.02951571387216,-0.938151374594074,0.217846549922967,-0.868797414032363,0.493766779991441,0.493766779993984,0.249513228535739,0.311476815950482,1.00148930136102,-0.522928792651493,0.116337804069145,-0.459301720808527,1.1899400726509,-1.79701689496084,-1.79701689496096,NaN,-0.7791036660724,0.00101673503243609
553.7792,1.52441502975658,0.512919948829919,1.63326681289386,0.222191420204614,0.251840579275601,0.251840579276041,0.376557042930901,NaN,1.17585802130814,1.43555180959881,-0.0335574769422606,1.43555180959874,-1.38914858884696,NaN,-1.19868932702584,0.88569957780806,NaN,-0.163051739784852,NaN,0.855869710904126,0.129861606944335,-0.242696306553995,0.328064727388126,0.237547148641638,-1.47977951517974,0.354064435936204,0.354064435935319,-0.963602607866347,0.96360260786528,-0.435906678995749,2.83046243002405,1.43409407053401,NaN,1.00833150269509,-0.949414633363724,0.186711915880893,-0.89358749163553,0.460109804773741,0.460109804776261,0.263928918618028,0.301409856951166,1.00725020155331,-0.558056388587188,0.143996333522118,-0.469354899478577,1.14199584187103,-1.76161889043234,-1.76161889043247,NaN,-0.76129007049385,-0.0267440120822367
553.8816,1.53505178421661,0.471599960931129,1.62227713385832,0.202152129458831,0.263266538879666,0.263266538880103,0.420724903223211,NaN,1.24534269063535,1.44857809267491,-0.0504789298792008,1.44857809267485,-1.3874361968947,NaN,-1.20493050367634,0.891648741610841,NaN,-0.152657823060564,NaN,0.858098910540917,0.108280027201265,-0.248425212756356,0.327429660187874,0.223987200707301,-1.497642375313,0.345182604434012,0.345182604433103,-0.968637293514418,0.968637293513341,-0.461776874082849,2.81664775963091,1.40324589363756,NaN,0.987497715682699,-0.960300594985962,0.156258823171069,-0.918206216240833,0.425377571373397,0.425377571375897,0.278950909520302,0.290485904706218,1.01244839702508,-0.592845347865311,0.171033382519177,-0.479683118830096,1.09183632901607,-1.72601320010479,-1.72601320010491,NaN,-0.743573813966514,-0.0543713692427305
553.984,1.54437246977372,0.429522222503541,1.6097203902991,0.18154494401518,0.274264474793299,0.274264474793731,0.46586539235955,NaN,1.31363304170749,1.46023510902942,-0.0677463436966916,1.46023510902935,-1.38464624735148,NaN,-1.2101908504784,0.896269372763849,NaN,-0.143164714315656,NaN,0.860260045983529,0.0870262574073035,-0.253840732075625,0.325777726232179,0.208763458932661,-1.51514779542433,0.336217275164283,0.336217275163342,-0.973291769860136,0.973291769859048,-0.486862899070079,2.80119789710284,1.37140108229786,NaN,0.967032367133633,-0.970746793725189,0.126559860936294,-0.942588370779138,0.389614595770756,0.389614595773234,0.294578338306948,0.278718047111656,1.01710672280606,-0.627272689686043,0.197382892154185,-0.490330078925129,1.03955521955261,-1.6902235431997,-1.69022354319982,NaN,-0.726022352353349,-0.0818080086125867
554.0864,1.55232747592874,0.386777287243182,1.59559690061674,0.160400626916219,0.284821922158967,0.284821922159397,0.511967452479117,NaN,1.38064814970121,1.4704767339875,-0.0852952285876157,1.47047673398743,-1.3807871462753,NaN,-1.21447491823134,0.89953134740016,NaN,-0.134645855340707,NaN,0.862373653555257,0.0660920313867949,-0.258865881411643,0.323033421258738,0.191865899401803,-1.53222878576462,0.327210558057384,0.327210558056417,-0.97754115347045,0.977541153469348,-0.511090404070459,2.78412514194306,1.33858151667326,NaN,0.946950537806415,-0.980691251457847,0.0976842416387022,-0.966668414485946,0.352869607816179,0.352869607818634,0.310810035673562,0.266119401844625,1.02124754957353,-0.661315911849454,0.222980575560334,-0.501338154327008,0.98525319736111,-1.65427234249273,-1.65427234249285,NaN,-0.708705208536824,-0.108997510323175
554.1888,1.55886853760762,0.343455419000308,1.57990805448764,0.138752062288329,0.294926516985337,0.294926516985763,0.559019477339338,NaN,1.44630987050427,1.47925869081342,-0.103058858567378,1.47925869081335,-1.37587135187908,NaN,-1.21779136849003,0.901409338685873,NaN,-0.1271724065828,NaN,0.864461590863404,0.045467134373185,-0.263419224514043,0.319118451793819,0.173287528948835,-1.54881835750899,0.318204544551811,0.318204544550816,-0.981360880842051,0.981360880840935,-0.534387719362205,2.76544451299816,1.30481016768959,NaN,0.927264324366953,-0.990072818069498,0.069697453402301,-0.990380889637234,0.315195146718715,0.315195146721152,0.327644532125193,0.252702962580823,1.02489250862225,-0.694952977961226,0.247764125489343,-0.512748162291997,0.929037459432551,-1.61818050412932,-1.61818050412944,NaN,-0.691693205171787,-0.135884679095574
554.2912,1.56394912872478,0.29964626342526,1.56265650479366,0.116634016417221,0.304566050531129,0.304566050531553,0.607009364130914,NaN,1.51054294128407,1.48653884279944,-0.120968574109223,1.48653884279937,-1.36991528551083,NaN,-1.22015288279571,0.901882940398275,NaN,-0.120812839437039,NaN,0.866546994282335,0.0251397206180192,-0.267415367325497,0.313952077878663,0.153024122310505,-1.56485003865145,0.309240987284293,0.309240987283269,-0.984726852478168,0.984726852477036,-0.556686248671547,2.74517381921728,1.27011115351327,NaN,0.90798280193949,-0.998831532831161,0.0426609072473031,-1.01366085818188,0.276647110354342,0.276647110356761,0.345080042058544,0.238481471963129,1.02806222902217,-0.728162297447078,0.271673426640865,-0.524599117988387,0.871021173480501,-1.58196719157375,-1.58196719157387,NaN,-0.675057659044907,-0.162415896732781
554.3936,1.56752487580337,0.25543851794991,1.54384637684614,0.0940828803310552,0.313728533066945,0.313728533067369,0.655924557954527,NaN,1.57327510209472,1.49227748322995,-0.138954106540088,1.49227748322987,-1.36293922764076,NaN,-1.22157605154189,0.900936774190659,NaN,-0.115632508018811,NaN,0.868654235764606,0.00509665101317813,-0.270765535049082,0.307451535510716,0.131073968914975,-1.5802584012771,0.300360976155204,0.30036097615416,-0.987615578541587,0.987615578540442,-0.577920865051654,2.72333374200462,1.23450980412745,NaN,0.889112000462756,-1.00690898940246,0.0166315950520802,-1.03644435116298,0.23728427792566,0.237284277928058,0.363114426091946,0.223467325593527,1.03077609547852,-0.760922704464657,0.294650775105079,-0.536927981033979,0.811322897993631,-1.54564961236274,-1.54564961236285,NaN,-0.658869559028958,-0.188539499765519
554.496,1.56955398222193,0.210919614863223,1.52348349374104,0.0711364021534647,0.322402266253813,0.322402266254237,0.705752077773813,NaN,1.63443724076921,1.49643762322285,-0.156943922831566,1.49643762322276,-1.35496720004481,NaN,-1.22208124257988,0.898560573891105,NaN,-0.111693217727793,NaN,0.870808870996161,-0.0146761428432848,-0.273378207502321,0.299532533450879,0.107437666602997,-1.59497958594319,0.291604621742759,0.291604621741689,-0.990004338190565,0.990004338189405,-0.598030297904719,2.69994793435085,1.19803273525106,NaN,0.870654894957835,-1.01424868908005,-0.00833822823882756,-1.0586688154099,0.197167824105917,0.197167824108299,0.381745129227572,0.207672510861974,1.03305202987755,-0.7932134350403,0.316641100974527,-0.549769396738413,0.750065985563103,-1.50924284307404,-1.50924284307415,NaN,-0.643198762297854,-0.214206163360154
554.5984,1.5699976547241,0.166175430651094,1.50157561685403,0.0478334132358977,0.330575920403646,0.330575920404071,0.756478508808708,NaN,1.6939635487004,1.49898527394046,-0.17486558871639,1.49898527394037,-1.34602683552772,NaN,-1.22169245072668,0.894749236498467,NaN,-0.109052811084829,NaN,0.87303757012062,-0.0341932654441077,-0.275159792912062,0.29010981698551,0.0821179872694743,-1.60895181394395,0.283010755010588,0.283010755009486,-0.991871363183534,0.991871363182363,-0.616957501497865,2.67504313770481,1.1607079330233,NaN,0.852611411212453,-1.02079637098595,-0.0322013267895093,-1.08027354694541,0.156360839792983,0.156360839795346,0.400969094914363,0.191108579402887,1.03490629438881,-0.825014096385218,0.337592186530947,-0.563155433291074,0.687377982351665,-1.47275970887589,-1.472759708876,NaN,-0.628113234197473,-0.239369272631415
554.7008,1.56882052596464,0.121290031698316,1.47813270088343,0.0242135522421832,0.338238613628598,0.338238613629022,0.808089950100418,NaN,1.75179167124181,1.49988971582871,-0.192646144222499,1.49988971582861,-1.3361492351376,NaN,-1.22043712808974,0.889502836055094,NaN,-0.107764776936405,NaN,0.875368027098529,-0.0534694352096213,-0.276015325770962,0.279097787184173,0.0551198186013328,-1.62211587868412,0.274616650858512,0.274616650857381,-0.993196051242544,0.99319605124136,-0.6346499934801,2.64864931138284,1.1225648545659,NaN,0.834978449213173,-1.02650030920861,-0.0549157193764839,-1.10120010148366,0.114927874242496,0.114927874244842,0.420782659602436,0.173786650425422,1.03635331879794,-0.856304626646215,0.357454874868526,-0.577115318341405,0.62339002920709,-1.43621072329856,-1.43621072329867,NaN,-0.613678343555025,-0.263985266305288
554.8032,1.56599106844411,0.0763454623407592,1.45316716222675,0.000316996653594349,0.345379993584711,0.345379993585134,0.860571911803156,NaN,1.8078628451232,1.49912374898131,-0.210212482985665,1.4991237489812,-1.32536881007108,NaN,-1.2183459925183,0.882826604809682,NaN,-0.107877874489493,NaN,0.877828850555127,-0.0725190322091376,-0.275849179961488,0.266411166800007,0.0264501802450735,-1.63441560232911,0.26645778213999,0.266457782138831,-0.993959210253589,0.993959210252393,-0.651060148729904,2.62079976347166,1.08363454916678,NaN,0.817749926157981,-1.03131156740813,-0.0764448581048026,-1.12139266812716,0.0729345128018518,0.07293451280418,0.441181429243445,0.155717449728535,1.03740556346879,-0.887065252525166,0.376183268581302,-0.591675183625204,0.558236270511631,-1.39960408823223,-1.39960408823233,NaN,-0.599956222941258,-0.288013945672146
554.9056,1.56148199877271,0.0314215769850819,1.42669416058966,-0.0238157842457303,0.351990329611512,0.351990329611937,0.913909162474761,NaN,1.86212202628806,1.49666392765478,-0.227491728689551,1.49666392765466,-1.31372310329698,NaN,-1.21545280961476,0.874730884412676,NaN,-0.109435760554986,NaN,0.880449436691163,-0.0913556130095861,-0.274565790818654,0.251965706644,-0.00388168633196959,-1.64579824186064,0.258567610890983,0.258567610889799,-0.994143333527922,0.994143333526715,-0.666145437510533,2.59153127495243,1.04394980162556,NaN,0.800916837947556,-1.03518420469743,-0.0967577460491657,-1.14079839061322,0.030446999681475,0.0304469996837848,0.462160133420781,0.136911392473058,1.03807342560102,-0.917276456621593,0.39373492233053,-0.606857826813463,0.492053281512038,-1.3629457473228,-1.36294574732291,NaN,-0.587005199629118,-0.311418753296957
555.008,1.55527067387407,-0.0134040875223839,1.39873189337913,-0.0481442445670316,0.358060625181977,0.358060625182405,0.96808553308115,NaN,1.91451801657739,1.49249078898588,-0.244411605971989,1.49249078898575,-1.30125258837047,NaN,-1.21179414667328,0.865231041760776,NaN,-0.11247661818757,NaN,0.883259820038115,-0.109991396891749,-0.272070379250669,0.235678921663082,-0.0358641643816804,-1.65621483767172,0.250977420239824,0.250977420238611,-0.993732903863593,0.993732903862375,-0.679868609451674,2.56088421476963,1.00354529519964,NaN,0.784467333413257,-1.03807543351972,-0.115829000225473,-1.15936762982789,-0.0124680931912765,-0.0124680931889854,0.483712456283791,0.11737870650902,1.03836518143804,-0.946918963638905,0.410071034108296,-0.622682495695267,0.424979526262013,-1.32623947988965,-1.32623947988976,NaN,-0.574879292113088,-0.334167028076847
555.1104,1.54733947835606,-0.0580564089898913,1.36930189733998,-0.072627948448681,0.363582749245249,0.36358274924568,1.02308368706615,NaN,1.96500359331426,1.48658908067831,-0.260900805377664,1.48658908067818,-1.28800044985598,NaN,-1.20740910466576,0.854347343956997,NaN,-0.117032798807546,NaN,0.886290505538553,-0.128436738192194,-0.268269673551386,0.217470843212741,-0.0694830664920905,-1.66562051434159,0.243716180547577,0.243716180546335,-0.992714715551109,0.99271471554988,-0.692197839160434,2.52890264339994,0.962457788056115,NaN,0.768386794661234,-1.03994573813564,-0.133638874063949,-1.17705417881305,-0.0557441590620778,-0.0557441590598049,0.505830852938952,0.0971295792170175,1.03828694746361,-0.975973746352742,0.425156634055619,-0.639164696890177,0.357154854308,-1.28948702305604,-1.28948702305616,NaN,-0.563627761517907,-0.356230235798945
555.2128,1.53767619883811,-0.102462756764285,1.33842934848118,-0.0972267439530715,0.36854957117607,0.368549571176507,1.07888486339062,NaN,2.01353563779519,1.4789479815799,-0.276889342581325,1.47894798157976,-1.2740123552982,NaN,-1.20233904029545,0.842104797140425,NaN,-0.123130493413218,NaN,0.889572297510016,-0.146699603217737,-0.263072630623761,0.197264779283095,-0.104721419765906,-1.67397475288483,0.236810435287726,0.236810435286462,-0.991078197226729,0.991078197225488,-0.703106854445477,2.49563440235056,0.920726293611105,NaN,0.752657921744899,-1.04075896585069,-0.150173251759451,-1.19381545182502,-0.0993148244625161,-0.099314824460261,0.5285063636761,0.0761743086197574,1.03784264585428,-1.00442204350444,0.438960760745378,-0.656316030955231,0.288720038719765,-1.25268821213487,-1.25268821213499,NaN,-0.553294711202419,-0.377584173992871
555.3152,1.5262743806882,-0.146553052321568,1.30614335423043,-0.1219009392875,0.37295508343851,0.372955083438956,1.13546860005422,NaN,2.06007525716912,1.46956130625669,-0.292308912420902,1.46956130625654,-1.25933622797244,NaN,-1.1966272890824,0.828532961873928,NaN,-0.130789441696911,NaN,0.893136139469642,-0.164785071464064,-0.256391158629096,0.174988078554715,-0.141559245251658,-1.68124164809131,0.230284195760469,0.230284195759179,-0.988815722566573,0.98881572256532,-0.712575059407625,2.46113119115544,0.878392251538182,NaN,0.737260825047508,-1.04048239905655,-0.165423618135835,-1.2096126630444,-0.143114203793794,-0.143114203791555,0.5517284331017,0.054523449221365,1.03703396846659,-1.03224538285222,0.451456614347596,-0.674144057457094,0.219816355218334,-1.21584112947537,-1.21584112947551,NaN,-0.543918735046673,-0.398209154227062
555.4176,1.51313366258142,-0.190259808776213,1.27247723605813,-0.146611484425329,0.376794506025269,0.376794506025722,1.19281245033801,NaN,2.10458789686172,1.45842769003654,-0.307093238346158,1.45842769003638,-1.24402202416888,NaN,-1.19031889407356,0.813665754480637,NaN,-0.140022684388023,NaN,0.897012966051188,-0.182694883978126,-0.248140833015959,0.150572890088178,-0.179973333371642,-1.68739015034708,0.224158845666703,0.224158845665392,-0.985922902778212,0.985922902776948,-0.720587649018042,2.42544863465486,0.835499680396915,NaN,0.722173130792266,-1.03908680736602,-0.179386997945762,-1.22441099556451,-0.187077140473533,-0.187077140471309,0.57548473383962,0.032187955594293,1.03586034438953,-1.05942561339754,0.462621684156684,-0.692652197116754,0.150585202248028,-1.17894225465249,-1.17894225465264,NaN,-0.535532618658858,-0.418090158902085
555.52,1.4982600840755,-0.233518138192928,1.23746880377132,-0.171320148645171,0.380064377429576,0.380064377430041,1.25089170362533,NaN,2.14704343961521,1.44555075749522,-0.321178416810884,1.44555075749505,-1.22812151355513,NaN,-1.18346033841635,0.797541232379776,NaN,-0.150836364385498,NaN,0.901233556392284,-0.200427058474433,-0.238241588492793,0.123956905133063,-0.219937009412169,-1.69239427890944,0.218453067389816,0.218453067388493,-0.982398857793499,0.982398857792219,-0.727135699910322,2.38864633991453,0.792095315088538,NaN,0.707370104703288,-1.03654647252902,-0.192065853175935,-1.23817974829942,-0.231139423752575,-0.231139423750366,0.599760994738268,0.00917932964256036,1.0343189219659,-1.0859449582591,0.472437853992876,-0.711839680097121,0.081167762663755,-1.14198661378534,-1.1419866137855,NaN,-0.528163093773587,-0.437216961213675
555.6224,1.4816663646982,-0.276265716003296,1.20116062545147,-0.195989677748227,0.382762645248923,0.382762645249399,1.30967911532828,NaN,2.18741628864584,1.43093928201089,-0.334503253106248,1.4309392820107,-1.21168805792699,NaN,-1.17609927714442,0.780201353675542,NaN,-0.163229574899214,NaN,0.905828372529276,-0.217975579458626,-0.226618372216444,0.0950840709871045,-0.261419880984791,-1.69623328830029,0.213182804853389,0.213182804852052,-0.978246465419949,0.978246465418655,-0.732216219252018,2.3507879385685,0.74822873732232,NaN,0.69282479591636,-1.03283917989344,-0.203467930808626,-1.25089244338753,-0.27523797109971,-0.275237971097519,0.624540842938837,-0.0144902333255072,1.03240457211371,-1.11178609882577,0.480891491504516,-0.731701545933401,0.0117047057231929,-1.10496792693419,-1.10496792693437,NaN,-0.521830637914079,-0.455584200931096
555.7248,1.46337215775052,-0.31844270136321,1.16360029651145,-0.220583917554185,0.384888771243656,0.384888771244145,1.36914464369765,NaN,2.22568544133802,1.41460734376952,-0.347009581631122,1.41460734376932,-1.19477638229525,NaN,-1.16828426484727,0.761691705973701,NaN,-0.177194243101324,NaN,0.910827370810174,-0.235330161604568,-0.213201753983218,0.0639052763371851,-0.304387559854024,-1.69889177508446,0.208361269938464,0.208361269937112,-0.97347258851872,0.97347258851741,-0.735832140644031,2.31194110900645,0.703952498296541,NaN,0.678508198758672,-1.02794617826261,-0.213606065049284,-1.26252688363971,-0.319310977608912,-0.319310977606734,0.649805675582778,-0.0388077155865642,1.03010991024281,-1.1369322944078,0.487973528852545,-0.752228691953803,-0.0576640796286305,-1.0678787512545,-1.06787875125469,NaN,-0.516549306265054,-0.473191417781613
555.8272,1.44340428193367,-0.359991623838668,1.12484070550126,-0.245067903312906,0.386443855852565,0.386443855853066,1.42925519040642,NaN,2.26183456298762,1.39657448593886,-0.358642562445143,1.39657448593865,-1.17744233539451,NaN,-1.1600644815408,0.742061210573704,NaN,-0.192715042572409,NaN,0.916259789376912,-0.252476078367257,-0.197928498036302,0.0303790117047857,-0.34880135959554,-1.70035972716943,0.203998985956366,0.203998985955005,-0.968088274208496,0.96808827420717,-0.737992267604709,2.27217757321913,0.659322222065863,NaN,0.664389428419721,-1.02185211903596,-0.222497947514745,-1.27306516608826,-0.363298043888099,-0.363298043885936,0.675534571512489,-0.063759179155696,1.02742532814678,-1.16136752958698,0.493679538570583,-0.773407957545522,-0.126799739629019,-1.03071061995663,-1.03071061995684,NaN,-0.512326584771907,-0.490043047220328
555.9296,1.42179692833389,-0.400857249295068,1.08494028801479,-0.269407927606288,0.387430772828374,0.387430772828888,1.48997434386251,NaN,2.29585206188932,1.3768658591325,-0.369350947487866,1.37686585913227,-1.15974264279514,NaN,-1.15148946499104,0.72136181391616,NaN,-0.209769342901222,NaN,0.922153926753618,-0.269394041275168,-0.180742103437414,-0.00552799559061638,-0.39461798510976,-1.7006325287245,0.200103855073782,0.200103855072404,-0.96210891146803,0.962108911466688,-0.738711169032957,2.23157306102089,0.614396677615464,NaN,0.650435910455999,-1.01454498854454,-0.230165877569363,-1.28249366930888,-0.407140293261749,-0.407140293259606,0.701704245944231,-0.0893297046118243,1.02433903069738,-1.18507666943904,0.498009800480048,-0.795222226546962,-0.19556472403229,-0.993454184768212,-0.993454184768439,NaN,-0.509163265493018,-0.506148379863608
556.032,1.39859183364931,-0.440986431181406,1.04396325737325,-0.293571599484534,0.387854299859952,0.387854299860479,1.55126212283369,NaN,2.32773116222363,1.35551234118571,-0.379087312514345,1.35551234118546,-1.14173465802798,NaN,-1.14260885736865,0.699648176690995,NaN,-0.228327210366553,NaN,0.928536921934016,-0.286060111859772,-0.161593313613707,-0.0438401797052348,-0.441789233021921,-1.69971092907101,0.196681241896816,0.196681241895425,-0.95555433512269,0.955554335121331,-0.738009021685651,2.19020722869608,0.569237815571095,NaN,0.636613589904478,-1.00601604202793,-0.236636494363185,-1.29080302688384,-0.450780480163451,-0.450780480161329,0.728289053299334,-0.115503367890657,1.02083708373232,-1.20804560112006,0.500969351707727,-0.817650532195601,-0.263823091367943,-0.9560993797616,-0.956099379761837,NaN,-0.507053362460726,-0.521521479602525
556.1344,1.37383840587033,-0.480327946850732,1.00197979980404,-0.317527896316125,0.387721237607055,0.387721237607593,1.61307471492253,NaN,2.35746997447858,1.33255062302892,-0.387808253740542,1.33255062302866,-1.12347611283623,NaN,-1.1334721663365,0.676977367425141,NaN,-0.248351466697111,NaN,0.935434534370224,-0.302445632551263,-0.140440586155486,-0.0845725814458625,-0.490261715364827,-1.69760096786554,0.193734074646495,0.193734074645085,-0.94844887259791,0.948448872596529,-0.735911381076525,2.14816351768833,0.523910773359218,NaN,0.622887168121099,-0.99625973748512,-0.241940480865311,-1.29798808189598,-0.494163082066287,-0.49416308206418,0.755261048177929,-0.142263254522066,1.01690349104227,-1.23026135084249,0.502568015400214,-0.84066815705091,-0.331440867582088,-0.918635629288445,-0.918635629288698,NaN,-0.505984095154716,-0.536181052265905
556.2368,1.34759378734711,-0.518832316383946,0.959066221763268,-0.341247197492287,0.387040518002775,0.387040518003326,1.67536420788848,NaN,2.38507156566272,1.30802325778218,-0.395474550675719,1.3080232577819,-1.10502485933963,NaN,-1.12412852961017,0.653408563276536,NaN,-0.269797804767206,NaN,0.942870919880429,-0.318517169046277,-0.117250511448766,-0.127730353242502,-0.539976611919231,-1.69431383435852,0.191262971372681,0.191262971371256,-0.94082133397566,0.940821333974257,-0.732448855690109,2.10552894480425,0.478483857453208,NaN,0.609220373163077,-0.985273658140466,-0.2461122242211,-1.30404780057289,-0.5372343608218,-0.537234360819711,0.782590109029307,-0.169591503840705,1.0125203220523,-1.25171217985235,0.502820409964881,-0.864246729988919,-0.398286464940645,-0.881052111573164,-0.881052111573429,NaN,-0.505935959386477,-0.550150259686668
556.3392,1.31992284352559,-0.556451601975213,0.915305039780618,-0.36470128208577,0.385823308316648,0.385823308317213,1.73807831921253,NaN,2.41054403425123,1.28197867694277,-0.402051297566493,1.28197867694248,-1.08643859064307,NaN,-1.11462646488926,0.629002754267581,NaN,-0.292614956760973,NaN,0.950868399347545,-0.334236456543989,-0.0919981761226123,-0.173308324269228,-0.590869443517808,-1.68986563396646,0.189266402009978,0.189266402008534,-0.932704945194127,0.932704945192703,-0.72765666503906,2.06239381954035,0.433028513287083,NaN,0.595576264601236,-0.973058408353029,-0.249189418313328,-1.30898511632946,-0.579942376736196,-0.579942376734128,0.810244117467986,-0.197469369013911,1.00766790452011,-1.27238767275229,0.501745945145437,-0.888354328489145,-0.464231156781642,-0.843338065767063,-0.843338065767343,NaN,-0.506882885824,-0.563456476544816
556.4416,1.29089807139227,-0.593139191302267,0.870785005734227,-0.387863275376791,0.384083118233915,0.384083118234498,1.80116013121443,NaN,2.43390059766056,1.2544711802113,-0.407508005204102,1.25447118021099,-1.06777453023055,NaN,-1.10501359208941,0.603822442502162,NaN,-0.316744910987216,NaN,0.959447212856159,-0.349560343962778,-0.0646674794633127,-0.221290611360935,-0.642869850709737,-1.68427704621093,0.187740894677769,0.18774089467631,-0.924137224350722,0.924137224349275,-0.721574080508437,2.01885138344254,0.387619289396218,NaN,0.581917567096099,-0.959617473775275,-0.25121260621193,-1.31280668506116,-0.622236943727425,-0.622236943725376,0.838189180796113,-0.225877282146038,1.00232508109323,-1.29227883427665,0.499368813572803,-0.912955595059037,-0.52914959290194,-0.805483117091398,-0.805483117091697,NaN,-0.508792467220518,-0.576130985353251
556.544,1.26059942549514,-0.62884958014725,0.825601058017169,-0.410707545138813,0.38183590821069,0.381835908211293,1.86454784184483,NaN,2.45515969267686,1.22556089904447,-0.411818674407607,1.22556089904414,-1.04908909504224,NaN,-1.09533633181945,0.577931334286244,NaN,-0.342123174134642,NaN,0.968625257297116,-0.36444074537845,-0.0352514172847816,-0.271650263849654,-0.695901381240019,-1.67757288464081,0.186681280980961,0.186681280979487,-0.915159802783967,0.915159802782499,-0.714243774548022,1.97499737202097,0.342333789986268,NaN,0.568207019712698,-0.944957051051036,-0.252224680229543,-1.31552255887307,-0.664069528734687,-0.664069528732659,0.866389883792519,-0.254794919382519,0.996469515507077,-1.31137820583249,0.495717983390767,-0.938011874502121,-0.592920333538637,-0.767477604023666,-0.767477604023984,NaN,-0.511626232439956,-0.588208607770572
556.6464,1.2291140613195,-0.663538179582595,0.779854185774247,-0.433209568972283,0.379100183135652,0.379100183136275,1.9281745537847,NaN,2.47434507389252,1.19531372292002,-0.414961843117414,1.19531372291967,-1.03043755082861,NaN,-1.08563959962112,0.551394037379042,NaN,-0.368679074672766,NaN,0.978417824068773,-0.378824627258066,-0.00375233928706093,-0.324348951488796,-0.749881320063693,-1.66978159695481,0.186080958595672,0.186080958594183,-0.905818195062618,0.905818195061126,-0.705711125684023,1.93092951561167,0.297252597210523,NaN,0.554407723603233,-0.929085865261902,-0.252270372936987,-1.3171458125471,-0.705393115759525,-0.705393115757516,0.894809552261079,-0.284201259656269,0.990078030531852,-1.3296799987396,0.490827186528572,-0.963481374310447,-0.655426379923529,-0.729312903529584,-0.729312903529915,NaN,-0.515339959349639,-0.599727283895601
556.7488,1.19653599838541,-0.697161170333477,0.733651197073893,-0.455345801852973,0.375897049904778,0.375897049905422,1.99196813271019,NaN,2.49148588684739,1.16380117223534,-0.416920608677679,1.16380117223498,-1.01187367803025,NaN,-1.07596651547716,0.524275781599404,NaN,-0.396336105284405,NaN,0.988837364188026,-0.39265406698447,0.0298178315973261,-0.379336724400706,-0.804720603780842,-1.6609347506442,0.185932145471348,0.185932145469843,-0.896161522419354,0.896161522417841,-0.696023529697195,1.88674700704325,0.252459144660292,NaN,0.540483473140309,-0.912014994446062,-0.251395770996145,-1.31769216370732,-0.746162060657387,-0.746162060655394,0.923410511302168,-0.314074631290994,0.983126959513648,-1.34718022486108,0.484734886927682,-0.989319343168869,-0.716555685936818,-0.690981745906941,-0.690981745907293,NaN,-0.519884029068104,-0.610727623903567
556.8512,1.16296570746727,-0.729675412345389,0.687104390988887,-0.477093564006376,0.372250225018987,0.372250225019652,2.0558511560298,NaN,2.50661669637245,1.13110020706348,-0.417682625798838,1.1311002070631,-0.993449455934689,NaN,-1.06635813652923,0.496642172369725,NaN,-0.425012309537794,NaN,0.999893300281799,-0.405866410066816,0.0654374423807224,-0.436551880112311,-0.860323847901656,-1.65106653300451,0.186226109649532,0.186226109648013,-0.88624219069257,0.886242190691036,-0.685229750337585,1.8425499588196,0.208039535809677,NaN,0.526399063125776,-0.893757710768374,-0.249647867582305,-1.31717961197879,-0.786331952669706,-0.786331952667727,0.952154326724855,-0.344392746469579,0.975592491849394,-1.363876802513,0.477484213294782,-1.01547825916551,-0.776201641333482,-0.652478502773249,-0.652478502773622,NaN,-0.525203818950184,-0.621252455593058
556.9536,1.12850962514775,-0.761038402631419,0.640331139941412,-0.49843095417064,0.368185989254072,0.368185989254759,2.11974095675119,NaN,2.51977745985838,1.09729297143898,-0.417240081099997,1.09729297143859,-0.975214768403265,NaN,-1.0568532144693,0.468558973726499,NaN,-0.454620722112222,NaN,1.01159188732889,-0.418394538577522,0.103075042446518,-0.495920967862702,-0.916589499507708,-1.64021327113714,0.186953372288727,0.186953372287197,-0.876115522713832,0.876115522712278,-0.673379319947785,1.79843885682084,0.164082306770176,NaN,0.512120572690951,-0.874329337262845,-0.247074151835728,-1.3156281008797,-0.825859483534562,-0.825859483532592,0.981002019854486,-0.375132722596482,0.96745099766899,-1.37976962903624,0.46912284908355,-1.04190802577968,-0.834263515904289,-0.613799438330602,-0.613799438330994,NaN,-0.531240127238236,-0.631346378083475
557.056,1.09327959682216,-0.791208269236129,0.5934533893854,-0.519336781596893,0.363733093352284,0.363733093352995,2.1835497591255,NaN,2.53101344229902,1.06246648065155,-0.415589644556045,1.06246648065114,-0.957217136891463,NaN,-1.04748798039755,0.440091909660765,NaN,-0.485069865772436,NaN,1.02393610949978,-0.430167250230923,0.142689422865705,-0.557358944221295,-0.973410110140017,-1.62841296182887,0.188103891718198,0.188103891716661,-0.865839348186648,0.865839348185071,-0.660521984725926,1.75451400512904,0.120678123054281,NaN,0.497615632088882,-0.853747114676818,-0.243722224333862,-1.31305919189818,-0.864702318111402,-0.864702318109443,1.00991424304439,-0.406271078323876,0.958679332904991,-1.3948606270785,0.459702880879354,-1.06855618225063,-0.890646851384296,-0.57494292561146,-0.574942925611875,NaN,-0.537929630126436,-0.641055317159781
557.1584,1.05739225096622,-0.820143795610308,0.546597080212884,-0.539790504448965,0.358922621884522,0.358922621885257,2.24718490448296,NaN,2.54037507223441,1.02671226078333,-0.412732393242169,1.0267122607829,-0.93950148328606,NaN,-1.03829595879615,0.411306471617448,NaN,-0.516264298004357,NaN,1.03692559959864,-0.441109739893173,0.184229762837982,-0.62076947018996,-1.03067270594062,-1.61570479758093,0.189667237687748,0.189667237686199,-0.855473552584993,0.855473552583394,-0.646707186578055,1.71087495265693,0.077919387962177,NaN,0.482853679243098,-0.832030076373749,-0.23963942989621,-1.30949573789133,-0.902818966405037,-0.902818966403088,1.03885140262376,-0.437783684227019,0.949255139404031,-1.40915377455717,0.449280611050543,-1.09536813326338,-0.945263792608973,-0.535909629051371,-0.535909629051803,NaN,-0.545205377311536,-0.650426073079989
557.2608,1.02096831113871,-0.84780448081967,0.499891497028346,-0.559772165725303,0.353787820699747,0.353787820700514,2.31054916909967,NaN,2.54791773443978,0.990125945846373,-0.408673697579793,0.990125945845922,-0.922109918255779,NaN,-1.02930780942907,0.382267723449845,NaN,-0.548105198545246,NaN,1.05055658055935,-0.451144177029232,0.227635869313859,-0.686045327920033,-1.08825923448952,-1.60212868415777,0.191632755236533,0.191632755234972,-0.845079578758771,0.845079578757149,-0.631983582767468,1.66761989083377,0.0358997377500321,NaN,0.467806208276635,-0.809198938357992,-0.234872511643107,-1.30496155358305,-0.940168670172902,-0.940168670170958,1.06777372239647,-0.469645655171265,0.939157152458411,-1.42265511695318,0.437916338436947,-1.12228739249877,-0.998033359040053,-0.496702647370353,-0.496702647370803,NaN,-0.552997328171638,-0.65950585764873
557.3632,0.984131851699621,-0.874150645662422,0.453468542672356,-0.579262329904811,0.34836388369886,0.34836388369966,2.3735411780592,NaN,2.55370148769933,0.952806829521541,-0.403423061395269,0.952806829521073,-0.905081552057487,NaN,-1.02055119904604,0.35304009905477,NaN,-0.580491000240121,NaN,1.06482184338834,-0.460190384477245,0.272838496850053,-0.753068945746736,-1.14604708985716,-1.5877247593738,0.193989704880842,0.19398970487927,-0.834719869305583,0.83471986930394,-0.616398616436838,1.62484501026596,-0.00528659525360289,NaN,0.452447007770256,-0.785276018259369,-0.229467300638559,-1.29948109595069,-0.976711325775937,-0.976711325773994,1.09664124943073,-0.501831185094226,0.928365517365802,-1.43537274809951,0.425674102959215,-1.14925582898324,-1.04888166471487,-0.457327609454956,-0.457327609455431,NaN,-0.561232930957808,-0.668341824425742
557.4656,0.947009501076598,-0.899143588866695,0.407461940378243,-0.59824203311097,0.342687685551792,0.342687685552628,2.4360559207688,NaN,2.55779069473324,0.914857361613914,-0.39699391369844,0.914857361613425,-0.888452331277068,NaN,-1.01205070912411,0.323687188166858,NaN,-0.613318077718401,NaN,1.07971078072034,-0.468166629697598,0.319759744643746,-0.821713035037799,-1.20390973032641,-1.57253292928701,0.19672736280563,0.196727362804049,-0.824457241054561,0.824457241052894,-0.599998152975672,1.58264381082023,-0.0455455574239515,NaN,0.436752385832667,-0.760285193829843,-0.22346845325287,-1.29307917168727,-1.01240746061267,-1.01240746061073,1.12541380803965,-0.534313332064929,0.916862110428238,-1.44731674578634,0.412621385242179,-1.17621391037092,-1.09774209576539,-0.417792720523518,-0.417792720524014,NaN,-0.569837750587731,-0.676980599633324
557.568,0.909729601245399,-0.922745787291123,0.362006374422434,-0.616692756904653,0.336797452713464,0.336797452714334,2.49798536773627,NaN,2.56025356479005,0.876382583846057,-0.389403357521828,0.876382583845549,-0.87225490595116,NaN,-1.00382778270437,0.294271505202469,NaN,-0.646481503028015,NaN,1.09520948546614,-0.474990521138798,0.368313528024178,-0.891841337775562,-1.26171739206343,-1.55659243357398,0.199835074598625,0.199835074597036,-0.814354198106319,0.814354198104629,-0.58282618806866,1.5411063762192,-0.0847841696824257,NaN,0.420701378926529,-0.734251900917425,-0.216919239289589,-1.285780680214,-1.04721826716841,-1.04721826716648,1.15405090933266,-0.567063763016643,0.904630859462015,-1.45849906004582,0.398828757214077,-1.20310094501589,-1.14455545105907,-0.378108760063822,-0.378108760064338,NaN,-0.578736141001628,-0.685467824034083
557.6704,0.872421343287663,-0.944921126333796,0.317236594095647,-0.634596425594696,0.330732383164152,0.330732383165059,2.55921916864602,NaN,2.56116162701576,0.837489515224008,-0.380671888026057,0.837489515223481,-0.85651852618574,NaN,-0.995900704524929,0.264854240500847,NaN,-0.679875853580391,NaN,1.11130090724606,-0.480579969133039,0.418406108155039,-0.963309460748336,-1.31933787788795,-1.53994144515557,0.203302269751341,0.203302269749743,-0.804472211764997,0.804472211763286,-0.564924622487195,1.5003186411439,-0.122911499320919,NaN,0.404275939841292,-0.707203161318248,-0.209861377144552,-1.27761039021458,-1.08110568507588,-1.08110568507397,1.18251162535948,-0.600052468376513,0.891658060140817,-1.46893336387583,0.384369489292271,-1.22985532780074,-1.18927004698683,-0.338289036089057,-0.33828903608959,NaN,-0.587851937764156,-0.693847716921154
557.7728,0.835213906994303,-0.965635142672402,0.27328651518177,-0.65193541935084,0.324532239691919,0.324532239692861,2.61964539005822,NaN,2.56058916026559,0.7982865113987,-0.37082309763399,0.798286511398154,-0.841268962481773,NaN,-0.988284601717641,0.235495000541769,NaN,-0.71339603559296,NaN,1.12796504754009,-0.484854148038507,0.469936649905403,-1.03596575147772,-1.37663738198458,-1.5226167055454,0.207118452415979,0.207118452414373,-0.794871010628942,0.794871010627211,-0.546333092274876,1.46036168693956,-0.159839641697138,NaN,0.387461099565716,-0.679167625858334,-0.202334908504147,-1.26859274240283,-1.11403251254343,-1.11403251254152,1.2107544375877,-0.633247457217252,0.877932684967131,-1.47863488249728,0.369319126036807,-1.25641479515729,-1.23184178519132,-0.29834930318697,-0.29834930318753,NaN,-0.597109134017546,-0.702162670570966
557.8752,0.798235630660425,-0.984855259725983,0.230288352348085,-0.668692592841777,0.318236943920277,0.318236943921252,2.67915124274127,NaN,2.5586126027004,0.758882626224882,-0.359883387362978,0.758882626224316,-0.826528444143282,NaN,-0.98099145215439,0.20625154762422,NaN,-0.74693808202122,NaN,1.1451791691358,-0.487734398491505,0.522797778481286,-1.10965217150953,-1.43348131120276,-1.50465319430209,0.21127318611981,0.211273186118198,-0.785607922879578,0.785607922877828,-0.527088840496294,1.42131109761167,-0.195484644481007,NaN,0.370245099840914,-0.650175616570225,-0.194378101753629,-1.25875166856412,-1.14596252487684,-1.14596252487493,1.23873707068818,-0.666614445225915,0.86344668065967,-1.48762021816785,0.353755043391167,-1.28271669444862,-1.27223418054743,-0.258307653545202,-0.258307653545791,NaN,-0.606432509040364,-0.710452877205832
557.9776,0.761613226972595,-1.00255099721511,0.188371806100849,-0.684851288042132,0.311886191956647,0.311886191957651,2.73762375765606,NaN,2.55530995750206,0.719386997901696,-0.347881697713085,0.719386997901111,-0.812315614112821,NaN,-0.974030093302503,0.177179548611726,NaN,-0.78039989706059,NaN,1.16291799303222,-0.489145034757566,0.576876121915153,-1.1842051447807,-1.48973507922982,-1.48608382419201,0.215756088894527,0.21575608889291,-0.77673729693709,0.77673729693532,-0.507226615581522,1.38323639266833,-0.229767328108267,NaN,0.352619497175365,-0.620259153060705,-0.186027370314565,-1.2481104129882,-1.17686057984082,-1.17686057983892,1.26641632350844,-0.700116548987127,0.84819524904774,-1.49590718544983,0.337756000089461,-1.30869827108581,-1.31041834399504,-0.218184387858573,-0.218184387859189,NaN,-0.615748197502534,-0.718755983763536
558.08,0.725471051196688,-1.01869414167231,0.147663316471754,-0.700395327993842,0.305519104648851,0.305519104649886,2.79495039117866,NaN,2.55076020320069,0.679908271893233,-0.334849259640216,0.679908271892629,-0.798645499398228,NaN,-0.967406229197779,0.148332339013139,NaN,-0.813681938805215,NaN,1.18115386345222,-0.48901405478721,0.632052842770965,-1.259456380467,-1.54526486518016,-1.46693914495439,0.220556850167543,0.220556850165921,-0.768310005997493,0.768310005995703,-0.48677858006743,1.34620053897814,-0.262613986346723,NaN,0.334579241746921,-0.589451952501963,-0.177317193251315,-1.23669133860263,-1.20669269835523,-1.20669269835334,1.29374790465863,-0.733713994799281,0.832177108807666,-1.50351466992225,0.321401695034748,-1.33429697544481,-1.34637291396504,-0.178001865183563,-0.178001865184203,NaN,-0.624984201157734,-0.727106771226658
558.1824,0.689930424693187,-1.03325887541513,0.108285387410746,-0.715308978964259,0.299173919906053,0.299173919907121,2.85101956250127,NaN,2.54504271286358,0.640554063723844,-0.320819353419498,0.640554063723222,-0.785529491654878,NaN,-0.961122433081798,0.11976070809616,NaN,-0.84668784360667,NaN,1.19985688039045,-0.487273766863735,0.688204166825993,-1.33523367481767,-1.59993833050608,-1.44724703844454,0.225665271921557,0.225665271919936,-0.760373029202783,0.76037302920097,-0.465774216765032,1.31025953941948,-0.293956974212373,NaN,0.316122733150893,-0.557789401177939,-0.168280034372124,-1.22451570413517,-1.23542612274051,-1.23542612273864,1.32068627295287,-0.767363842522975,0.815394737526166,-1.51046251964955,0.304772338248428,-1.35945079196743,-1.38008393428743,-0.13778432330607,-0.137784323306726,NaN,-0.634070844010969,-0.735536864211194
558.2848,0.655109015847179,-1.04622187378621,0.0703559788830953,-0.729576877200312,0.292887728477295,0.292887728478396,2.90572113478066,NaN,2.53823668371107,0.60143045877324,-0.305827060351284,0.601430458772599,-0.772975331298489,NaN,-0.95517814478574,0.0915127136980865,NaN,-0.879324994979166,NaN,1.21899501095717,-0.483861345313855,0.74520191729047,-1.41136169565965,-1.65362528456146,-1.42703240336392,0.231071327610295,0.231071327608673,-0.752969099460839,0.752969099459008,-0.444240232102692,1.27546209567107,-0.323735201167001,NaN,0.297251851831285,-0.525308506420872,-0.158946268698273,-1.21160341473005,-1.26302936657478,-1.26302936657291,1.34718448067114,-0.801019725195549,0.797854589276629,-1.51677146830987,0.287948234102478,-1.38409859057791,-1.41154468333541,-0.0975576623771877,-0.097557662377863,NaN,-0.642941165987492,-0.744074477748779
558.3872,0.621120277097394,-1.05756238619648,0.0339879577356516,-0.74318393007724,0.286696245428442,0.286696245429575,2.95894684531609,NaN,2.53042057349833,0.562641542466392,-0.289909000644811,0.562641542465734,-0.760987095037221,NaN,-0.949569667915782,0.0636335336204927,NaN,-0.911505037086207,NaN,1.23853418681792,-0.478719325050288,0.802914062630835,-1.48766275542273,-1.70619829515792,-1.40631684631684,0.236765227178696,0.23676522717707,-0.746136407557977,0.746136407556123,-0.422200469944779,1.24184933909592,-0.35189454536504,NaN,0.277971964673008,-0.492047843257446,-0.149344130317895,-1.19797276458299,-1.28947227271871,-1.28947227271685,1.37319402137297,-0.834631612445691,0.77956727572934,-1.52246307807019,0.27100936926717,-1.40818049510572,-1.44075546350194,-0.0573491921063884,-0.0573491921070832,NaN,-0.651531248841349,-0.752744199672175
558.4896,0.588072932560714,-1.06726231079164,-0.000711402537120711,-0.756115207396075,0.280633603320955,0.280633603322117,3.01059068232314,NaN,2.52167153937591,0.524288954122922,-0.273103061241417,0.524288954122247,-0.749565191543835,NaN,-0.944290173986294,0.0361653524290526,NaN,-0.943144336160187,NaN,1.25843838965839,-0.471796046922061,0.861205275775747,-1.56395757636103,-1.75753325721406,-1.38511839864637,0.242737477602408,0.242737477600775,-0.739908352446334,0.73990835244446,-0.399675849343944,1.20945462246454,-0.378388194391265,NaN,0.258291905781539,-0.458047504045455,-0.13949968781197,-1.18364019015627,-1.31472608729443,-1.31472608729257,1.39866468990495,-0.868145609692402,0.760547701507618,-1.52755969133897,0.254035000984012,-1.43163826123504,-1.46772335795657,-0.0171873492690294,-0.0171873492697319,NaN,-0.659780473804017,-0.761566802240991
558.592,0.556070508005203,-1.07530626217435,-0.0336408802966846,-0.768355831898062,0.274732156292727,0.27473215629392,3.06054920664299,NaN,2.51206488424478,0.486471463315225,-0.255448121117667,0.486471463314533,-0.738706367172781,NaN,-0.939329715547537,0.00914727761282859,NaN,-0.974164397082875,NaN,1.27866972888131,-0.463046065415077,0.919937489458898,-1.64006604434232,-1.80750994341784,-1.36345126631435,0.248978933892869,0.248978933891229,-0.734313331084024,0.734313331082126,-0.376684328878327,1.17830336976382,-0.403176912613607,NaN,0.238223935793077,-0.423349048268393,-0.129436841419163,-1.16862004013,-1.33876354437055,-1.3387635443687,1.42354446526417,-0.901503800621247,0.740815157963126,-1.5320843909361,0.237103249447843,-1.45441565950296,-1.49246195387433,0.0228986018920209,0.0228986018913005,NaN,-0.667631720319536,-0.770559076648453
558.6944,0.525210895406346,-1.08168162829209,-0.0647057276111656,-0.77989086914692,0.269022293105265,0.269022293106485,3.10872182336523,NaN,2.50167352459152,0.449284575188261,-0.236983779641277,0.449284575187552,-0.728403720691752,NaN,-0.934675246997696,-0.0173847207381244,NaN,-1.00449224218748,NaN,1.2991885177832,-0.452430525147741,0.978970430884079,-1.71580794265822,-1.85601255288598,-1.3413256114811,0.255480839480094,0.255480839478441,-0.729374565459498,0.72937456545758,-0.353240894107549,1.14841298559134,-0.426229241526379,NaN,0.217783682499553,-0.387995446453855,-0.119177333876868,-1.15292436203541,-1.36155895099974,-1.36155895099791,1.44777942424147,-0.934644134579836,0.720393385761959,-1.53606097335588,0.220290702010909,-1.47645886045909,-1.51499102626931,0.0628788688208541,0.0628788688201165,NaN,-0.675031519077985,-0.779733681872738
558.7968,0.495585950140161,-1.08637861714307,-0.0938180575372419,-0.790705218000564,0.26353226301451,0.263532263015753,3.15501101342921,NaN,2.49056749309884,0.412820173121087,-0.217750092002085,0.412820173120365,-0.71864673122359,NaN,-0.930310657512478,-0.043397854090275,NaN,-1.03406075667741,NaN,1.31995334760939,-0.439917509605862,1.03816212675328,-1.79100365642904,-1.90293025519193,-1.31874737103989,0.262234854376192,0.262234854374532,-0.725109966428381,0.72510996642644,-0.329357570495064,1.11979282744872,-0.447521647988391,NaN,0.196990061872124,-0.35203101988865,-0.10874077731911,-1.13656271352308,-1.38308826918586,-1.38308826918404,1.47131368682683,-0.967500359909427,0.699310606059725,-1.53951393419949,0.203672035616771,-1.49771681424297,-1.53533618197169,0.102723415224814,0.102723415224057,NaN,-0.681930164466203,-0.789098999249553
558.8992,0.467281125571626,-1.08939029562995,-0.120897193695013,-0.800783512236832,0.25828801660653,0.258288016607797,3.19932253701656,NaN,2.47881348219613,0.377166200891325,-0.197787317301052,0.377166200890589,-0.709421313365633,NaN,-0.926216830239197,-0.0688625545975649,NaN,-1.06280900137764,NaN,1.34092114756985,-0.425482366532323,1.09736937633641,-1.86547483918492,-1.94815771541114,-1.29571812959956,0.269233068422218,0.269233068420547,-0.721532034131486,0.721532034129525,-0.305043472981851,1.09244424527195,-0.467038634407047,NaN,0.175865175660679,-0.315501386011735,-0.0981447086925557,-1.11954201667409,-1.4033291995297,-1.40332919952789,1.49408938652569,-1.00000200304726,0.677599508952133,-1.54246845835789,0.187319663132064,-1.51814161039183,-1.55352847262499,0.142402227203089,0.142402227202319,NaN,-0.688281783133338,-0.798658991138978
559.0016,0.440375149798083,-1.09071261826638,-0.145869976690328,-0.810110048767182,0.253313057309776,0.253313057311065,3.24156562155679,NaN,2.46647442787979,0.342406378626792,-0.177135687238873,0.342406378626041,-0.700709915351861,NaN,-0.922371743099348,-0.0937525218853921,NaN,-1.09068249260105,NaN,1.36204721928678,-0.409108015256597,1.15644819505583,-1.93904503817604,-1.99159558707144,-1.27223506468323,0.276467997798101,0.276467997796417,-0.718647793631317,0.718647793629337,-0.280304903681804,1.06636068899389,-0.484772814666645,NaN,0.154434183450101,-0.278453418409177,-0.0874046836040665,-1.10186647193915,-1.42226127084314,-1.42226127084134,1.51604665563468,-1.0320743898486,0.65529718891444,-1.54495040879855,0.171303409448349,-1.53768880489086,-1.56960398568091,0.181885562492998,0.181885562492208,NaN,-0.694044359969014,-0.808413071022986
559.104,0.414939744717985,-1.09034444063743,-0.168671024688538,-0.818668751613898,0.248628296711943,0.248628296713257,3.28165314474489,NaN,2.45360912924559,0.308619945510063,-0.155835203536423,0.308619945509296,-0.692491664598725,NaN,-0.918750614282902,-0.118044786673354,NaN,-1.1176334500784,NaN,1.3832852500581,-0.390785237889185,1.21525423860301,-2.0115402842586,-2.03315096521274,-1.24829096861695,0.28393256435034,0.28393256434865,-0.716458762412715,0.716458762410715,-0.255145501650658,1.04152787854091,-0.500724949462259,NaN,0.132725150959637,-0.240935221956654,-0.0765344072780367,-1.08353753526031,-1.43986593458553,-1.43986593458375,1.53712362206135,-1.06363870883987,0.632445021973192,-1.54698631323169,0.155690220414696,-1.55631771045315,-1.58360341500549,0.221144184814806,0.221144184813995,NaN,-0.699179731416535,-0.818355997173404
559.2064,0.39103938531952,-1.08828751263974,-0.189242947562129,-0.826443168911947,0.244251912703156,0.244251912704491,3.31950181432201,NaN,2.44027189777081,0.275881427927067,-0.1339254696983,0.275881427926285,-0.684742549533588,NaN,-0.915326079035512,-0.141719789549888,NaN,-1.14362100826895,NaN,1.40458732095591,-0.370512948945603,1.27364322264165,-2.08278965655473,-2.07273779106929,-1.22387433668031,0.291620060607128,0.291620060605429,-0.714960945539441,0.714960945537423,-0.2295664409804,1.0179240304761,-0.514903929575113,NaN,0.110768878839569,-0.202996114849546,-0.0655458911414171,-1.06455394829988,-1.45612665763127,-1.45612665762949,1.55725642396562,-1.0946121215945,0.609088485618691,-1.54860335215479,0.140543903998483,-1.57399165454936,-1.59557160861178,0.260149588344206,0.260149588343374,NaN,-0.703653552594072,-0.82847779992517
559.3088,0.368731097236815,-1.08454644455923,-0.207536512915193,-0.833416490666705,0.240199217343482,0.24019921734484,3.35503233913351,NaN,2.42651223071095,0.244260437762419,-0.111445558121944,0.244260437761622,-0.677435619245667,NaN,-0.912068376312332,-0.164761459384667,NaN,-1.16861137619958,NaN,1.4259039216775,-0.348298435169692,1.33147134960093,-2.15262582584554,-2.11027719311982,-1.1989695024203,0.299524108906601,0.299524108904892,-0.714144857522675,0.71414485752064,-0.203566669095624,0.995520139554829,-0.52732669554135,NaN,0.0885987167623132,-0.164686604744376,-0.0544496190700366,-1.0449118038933,-1.47102900303809,-1.47102900303633,1.57637924773138,-1.12490791856052,0.585276933904152,-1.54982935493407,0.125924902766203,-1.59067821354082,-1.60555708996485,0.298874220286089,0.298874220285239,NaN,-0.707435234196133,-0.838763744079756
559.4112,0.348064291714381,-1.07912863972137,-0.223510761637667,-0.839571573205793,0.236482543018045,0.236482543019425,3.38816958820428,NaN,2.41237450413295,0.213821507098018,-0.0884339086924499,0.213821507097205,-0.670541184946697,NaN,-0.908945527907462,-0.187157273717263,NaN,-1.19257793230397,NaN,1.44718397770477,-0.324157564239683,1.38859574600814,-2.22088557274236,-2.14569774816889,-1.1735568028813,0.30763862324039,0.30763862323867,-0.713995575062332,0.713995575060281,-0.177143178508748,0.974280314111359,-0.538018091338058,NaN,0.0662503651908616,-0.12605834905458,-0.0432547122172396,-1.02460463135339,-1.48456069197437,-1.48456069197263,1.59442438444551,-1.15443570598077,0.561063346210176,-1.55069281076085,0.111890097326401,-1.60634943089142,-1.61361154800375,0.337291707845968,0.337291707845104,NaN,-0.710497840864827,-0.849194319910435
559.5136,0.329080640594815,-1.07204419509951,-0.237133071316997,-0.844890964648013,0.23311115081775,0.233111150819155,3.41884274341177,NaN,2.39789768356272,0.184623963260756,-0.0649282538480084,0.184623963259929,-0.664027015483096,NaN,-0.905923503911,-0.208898297237664,NaN,-1.21550125609483,NaN,1.46837489509911,-0.298114969918497,1.44487490700588,-2.28741027693088,-2.1789356610739,-1.1476127712664,0.315957774112845,0.31595777411111,-0.714492823559476,0.714492823557411,-0.150291313842257,0.954162163477944,-0.547010662383215,NaN,0.0437616624764363,-0.0871640987603462,-0.0319690942290327,-1.00362350066048,-1.49671165156127,-1.49671165155955,1.61132229693794,-1.18310161200472,0.536504058291248,-1.55122289485517,0.0984926381184265,-1.62098202261478,-1.61978929515152,0.375377092587369,0.37537709258649,NaN,-0.71281794721285,-0.859745254696983
559.616,0.311813997697209,-1.06330577713893,-0.248379165371937,-0.849356939047778,0.23009115870618,0.230091158707609,3.44698545743607,NaN,2.38311505506638,0.156721843031318,-0.0409655680617941,0.156721843030478,-0.657858531045839,NaN,-0.90296638156222,-0.229979208741481,NaN,-1.23736911134648,NaN,1.48942262430603,-0.270204223260283,1.50016914342139,-2.35204638050229,-2.2099348798023,-1.12111037156824,0.324475949845332,0.324475949843584,-0.715611092668144,0.715611092666064,-0.123005123547571,0.935117235289545,-0.554344407982813,NaN,0.0211723532693305,-0.0480576339742241,-0.0205996680723985,-0.981957159970023,-1.5074740611898,-1.50747406118809,1.62700170019176,-1.21080851858019,0.511658468137627,-1.5514495020144,0.0857818017196545,-1.63455756518505,-1.62414670272756,0.413107070670063,0.413107070669173,NaN,-0.714375459125563,-0.870387540557691
559.7184,0.29629037191594,-1.05292847833872,-0.257233065855569,-0.852951553616863,0.227425482982807,0.227425482984258,3.4725360249987,NaN,2.36805398373184,0.130163838263871,-0.0165820406308373,0.130163838263019,-0.651999010527973,NaN,-0.90003651531446,-0.250398329039113,NaN,-1.25817639482637,NaN,1.51027173436683,-0.240467994628706,1.55434103191607,-2.41464583337548,-2.23864716301211,-1.09401929188555,0.333187708993881,0.333187708992121,-0.717319772361779,0.717319772359684,-0.0952777610829011,0.917091496413746,-0.560066490839244,NaN,-0.00147616181925964,-0.0087937016848429,-0.00915251362670146,-0.959592222663186,-1.51684240645989,-1.5168424064582,1.6413896715933,-1.23745634222633,0.486588701697792,-1.55140327855085,0.0738028720582445,-1.64706265555063,-1.62674162913725,0.450460230058418,0.450460230057517,NaN,-0.715153418667843,-0.881087479557501
559.8208,0.282527950799563,-1.04092965768363,-0.263686992589943,-0.85565673815955,0.225113786449708,0.225113786451181,3.49543756513666,NaN,2.35273570702929,0.104993261843184,0.00818693272176206,0.104993261842319,-0.646409828251676,NaN,-0.897094735691365,-0.270157652039721,NaN,-1.27792505580194,NaN,1.53086548768104,-0.208958203450605,1.60725587261324,-2.47506652734841,-2.26503210581775,-1.06630629917926,0.342087721875008,0.342087721873238,-0.719583304300351,0.719583304298241,-0.0671019249097175,0.900025845668447,-0.564230907543787,NaN,-0.0241410896260284,0.0305720391963534,0.00236689520656671,-0.936513408367758,-1.52481354045727,-1.52481354045559,1.65441181205045,-1.26294238780899,0.461359229346034,-1.55111564813238,0.0625970492691491,-1.65848903539503,-1.62763285524288,0.487417270165929,0.487417270165022,NaN,-0.715137810157135,-0.89180674660816
559.9232,0.270537166131122,-1.02732876812662,-0.267741217889964,-0.857454413800339,0.223152430417951,0.223152430419442,3.51563820578709,NaN,2.33717516998733,0.0812480272939744,0.0333067447810957,0.0812480272930985,-0.641050720566722,NaN,-0.894100578541446,-0.289262864949776,NaN,-1.29662398495617,NaN,1.5511459179436,-0.175736143830405,1.65878215720794,-2.53317272039185,-2.28905712108248,-1.03793564053055,0.351170700301645,0.351170700299864,-0.722361348423625,0.7223613484215,-0.0384703121958249,0.883856646350901,-0.566898122915091,NaN,-0.0467785112998643,0.069983070245749,0.0139534677004203,-0.912703827106299,-1.53138674264265,-1.531386742641,1.66599246966543,-1.28716178297557,0.436036438700363,-1.55061882911609,0.0522013826077324,-1.66883368072446,-1.62687954016872,0.523961190401879,0.523961190400969,NaN,-0.714317378226369,-0.902502463678157
560.0256,0.260320790930439,-1.01214717351597,-0.269403887630125,-0.858326626852264,0.221534435144154,0.221534435145667,3.53309126347834,NaN,2.32138090874098,0.0589606445905944,0.0587435601396025,0.0589606445897073,-0.635880065665208,NaN,-0.891012527894029,-0.307723336192007,NaN,-1.31428887135826,NaN,1.57105392441492,-0.140872565734559,1.70879205072734,-2.58883545007096,-2.31069736699258,-1.00886946369277,0.360431316721978,0.360431316720186,-0.725608968799683,0.725608968797545,-0.00937605522432359,0.868516269588174,-0.56813465733484,NaN,-0.0693436428131475,0.109382075766042,0.0256022884599419,-0.888145284275832,-1.53656376060137,-1.53656376059973,1.6760550204384,-1.31000797949927,0.410688179950051,-1.54994584159944,0.0426487194088255,-1.67809886320715,-1.62454070856136,0.560077437757427,0.560077437756522,NaN,-0.712683469023178,-0.913127279907709
560.128,0.251874060871186,-0.995407959011171,-0.268690817002516,-0.858255679385304,0.220249460257995,0.220249460259528,3.54775541644424,NaN,2.3053549870659,0.0381582394045757,0.0844642888860487,0.0381582394036782,-0.630855157774911,NaN,-0.887788254083847,-0.325552061756159,NaN,-1.33094202887064,NaN,1.59052939337019,-0.104447686410942,1.75716189302643,-2.64193293691967,-2.32993560994027,-0.979068229361048,0.369864116122538,0.369864116120736,-0.729276844793204,0.729276844791054,0.0201868850972804,0.853933638674303,-0.568012613914602,NaN,-0.0917910844021504,0.148711025042884,0.0373084381726345,-0.862818583255069,-1.54034882456247,-1.54034882456084,1.68452219099285,-1.33137330119154,0.385383296000444,-1.54913050502225,0.0339676692551505,-1.68629218506699,-1.62067477300387,0.595754004926474,0.595754004925572,NaN,-0.710229908773713,-0.923629465012602
560.2304,0.245184816955272,-0.977135745732893,-0.265625269176759,-0.857224245192048,0.219283815493943,0.219283815495497,3.55959487455583,NaN,2.28909298946146,0.0188625995884478,0.110436555935166,0.018862599587542,-0.625932468331682,NaN,-0.884384842553505,-0.342765580311691,NaN,-1.34661219390457,NaN,1.6095113486338,-0.0665511100336461,1.80377272596666,-2.69235098461861,-2.34676202581764,-0.94849110324574,0.379463421561434,0.379463421559621,-0.733311512533094,0.733311512530932,0.0502233779005026,0.840034764219725,-0.566609152955482,NaN,-0.114075060744499,0.187911274917275,0.0490668413919615,-0.83670381584331,-1.54274863598671,-1.5427486359851,1.69131641307237,-1.35114952866842,0.360191138084253,-1.54820742584068,0.0261825899269,-1.69342658011073,-1.61533908992576,0.630981472810236,0.630981472809337,NaN,-0.706952927241312,-0.933953028273527
560.3328,0.240233666282993,-0.957356522614444,-0.26023772618421,-0.855215474479952,0.218620501856681,0.218620501858256,3.56857954962645,NaN,2.27258407529813,0.00109024700596859,0.136628667570921,0.0010902470050539,-0.621067898017602,NaN,-0.880759019879765,-0.359383873266802,NaN,-1.36133429539696,NaN,1.62793812677026,-0.0272816472364949,1.84851084836313,-2.73998338727451,-2.36117395887069,-0.917096336801012,0.389223229622979,0.389223229621155,-0.737655638261032,0.737655638258857,0.0807368254234472,0.826743267754806,-0.564005934953328,NaN,-0.136149654332826,0.226923686573422,0.0608721335609999,-0.809780647287925,-1.54377233711601,-1.54377233711442,1.69636020749398,-1.36922852078518,0.335181063257834,-1.54721196768483,0.0193135967435594,-1.69952027076514,-1.60858954887589,0.665752996565553,0.665752996564653,NaN,-0.702851119668005,-0.944037865511281
560.4352,0.236994155755089,-0.936097500335593,-0.25256565912621,-0.85221309900915,0.218239274489949,0.218239274491541,3.57468522240067,NaN,2.25581109652548,-0.0151474694501141,0.163009569600832,-0.0151474694510377,-0.616217026347003,NaN,-0.876867383421589,-0.375430253138031,NaN,-1.37514919756636,NaN,1.64574757140445,0.0132529580672401,1.89126839217368,-2.78473234542236,-2.37317565561442,-0.884841651359881,0.399137093187184,0.399137093185349,-0.742248322434822,0.742248322432634,0.111728899397847,0.813980900334978,-0.560288543371496,NaN,-0.157969029592469,0.265688753598269,0.0727185471766798,-0.7820286051066,-1.54343146249534,-1.54343146249378,1.69957659426463,-1.38550286646466,0.310421919845344,-1.54618019608744,0.0133765891394039,-1.7045966787848,-1.60048019513064,0.700064237641147,0.700064237640247,NaN,-0.697925431737535,-0.95381992881179
560.5376,0.235432953561341,-0.913386982892707,-0.24265330013929,-0.848201543644064,0.21811672120697,0.218116721208578,3.57789369506367,NaN,2.2387507764782,-0.0298442610710679,0.189548792939602,-0.0298442610720003,-0.611335361053461,NaN,-0.872666634943152,-0.390931230784079,NaN,-1.38810341490081,NaN,1.66287724102119,0.0549363791732684,1.93194389901134,-2.8265088748726,-2.38277798169813,-0.851684628720958,0.409197996658084,0.409197996656241,-0.747025435899269,0.74702543589707,0.143199308628006,0.801668062775235,-0.555545885420699,NaN,-0.179487642622924,0.304146745154834,0.0845998255962531,-0.753427369682331,-1.54173986564794,-1.54173986564639,1.70088951841322,-1.39986654649232,0.285981541034734,-1.54514880065417,0.00838329205649584,-1.70868429535375,-1.59106287997799,0.73391324514082,0.733913245139923,NaN,-0.692179152550356,-0.963231418350328
560.64,0.23551003679069,-0.889254252755234,-0.230551415602622,-0.843166040522496,0.218226361026545,0.218226361028171,3.57819292007025,NaN,2.22137394536481,-0.0429987633379135,0.216216390819665,-0.0429987633388553,-0.60637858498174,NaN,-0.868113815348908,-0.405916356339494,NaN,-1.40024879551886,NaN,1.67926462154103,0.0976441176380993,1.97044286720031,-2.86523318327114,-2.38999812716514,-0.817583101310994,0.419398234015787,0.419398234013937,-0.751919994074105,0.75191999407189,0.175145599854021,0.789724329883546,-0.549869570713077,NaN,-0.200660434671178,0.342237868472058,0.096509170053868,-0.723957058156341,-1.53871361633507,-1.53871361633354,1.70022428075405,-1.41221558384081,0.26192626813388,-1.54415500379912,0.00434131899687352,-1.71181651355059,-1.58038693008865,0.767300293209122,0.767300293208226,NaN,-0.685617908596411,-0.972201003845326
560.7424,0.237178888604527,-0.863729475223614,-0.216317080277294,-0.837092742862203,0.218538771196386,0.218538771198025,3.57557710350779,NaN,2.20364582995178,-0.054614373544191,0.242982876641934,-0.0546143735451419,-0.601302798721723,NaN,-0.863166540663925,-0.420418037732391,NaN,-1.4116421680835,NaN,1.694847334284,0.141243958048494,2.0066782484394,-2.9008349981743,-2.39485930730002,-0.782495541713173,0.429729294353158,0.429729294351303,-0.756862570932025,0.756862570929797,0.207562985745734,0.778068980211314,-0.543353277929897,NaN,-0.22144301243059,0.379902446388527,0.108439213057976,-0.693598502481641,-1.53437087576236,-1.53437087576085,1.69750797194354,-1.42244867851591,0.238320508149941,-1.54323645879723,0.00125426486751567,-1.71403141770989,-1.56849883375135,0.800227686293228,0.800227686292334,NaN,-0.67824966232534,-0.980654085526262
560.8448,0.24038671045731,-0.836843634845923,-0.200013453832155,-0.829968845006628,0.219021743462982,0.219021743464639,3.57004678260249,NaN,2.18552639740201,-0.064699066924402,0.26981916978887,-0.064699066925361,-0.59606476046877,NaN,-0.857783244025259,-0.434471336927339,NaN,-1.42234495411927,NaN,1.70956333821445,0.185596450451728,2.04057089146917,-2.93325384640948,-2.39739046404161,-0.746381464195201,0.440181748070188,0.44018174806833,-0.761781741910705,0.761781741908466,0.240444185933516,0.766621532071454,-0.536092125651362,NaN,-0.241791819819196,0.417081097928841,0.120382003005738,-0.662333535501919,-1.5287317660702,-1.5287317660687,1.69266991655828,-1.43046784045538,0.215226311981036,-1.54243113241985,-0.00087817037968548,-1.71537152336761,-1.55544195087996,0.832699542838629,0.832699542837744,NaN,-0.670084725678392,-0.988513100601386
560.9472,0.245074651397849,-0.808628513115923,-0.181709562517061,-0.821782719510642,0.219640460164502,0.219640460166177,3.56160887200298,NaN,2.16697075317093,-0.0732652041446511,0.296696552157497,-0.0732652041456194,-0.590622125919458,NaN,-0.851923428688692,-0.448113737769531,NaN,-1.43242275655809,NaN,1.72335113570552,0.230555408468704,2.07204993990837,-2.96243929129939,-2.39762596786507,-0.709201851101021,0.450745122846338,0.450745122844474,-0.766604538005123,0.766604538002872,0.273779272226697,0.755302279752131,-0.528182059880549,NaN,-0.26166430324615,0.453714912601336,0.132328989874829,-0.630145298006096,-1.52181824710896,-1.52181824710749,1.68564213657655,-1.43617903776478,0.192702957044644,-1.5417771670671,-0.002060034192442,-1.71588346934822,-1.54125625635148,0.864721557561352,0.86472155756048,NaN,-0.661135800165753,-0.995697873063132
561.0496,0.251178052570253,-0.779116706814313,-0.161480087365124,-0.812524075124071,0.220357680227853,0.220357680229547,3.55027666948407,NaN,2.14792958792885,-0.0803293420599248,0.323586634227229,-0.0803293420609027,-0.584933688935011,NaN,-0.845547931743562,-0.461384883952011,NaN,-1.4419449337006,NaN,1.73614998878798,0.275968419078026,2.10105319008104,-2.98835113192228,-2.39560531737507,-0.670919604006118,0.461407766286853,0.461407766284981,-0.771256898671126,0.771256898668866,0.307555521696842,0.744032815897722,-0.519719260060115,NaN,-0.28101906818603,0.48974561923065,0.144271014895558,-0.597018565637446,-1.51365400291283,-1.51365400291137,1.67635984179255,-1.43949287028261,0.170806528561845,-1.54131271976971,-0.00229895959386263,-1.71561766918495,-1.52597812544235,0.89630073722135,0.896300737220497,NaN,-0.651418049515709,-1.00212599524501
561.152,0.258626705155047,-0.748341678020006,-0.139405156040014,-0.802184128174654,0.22113393405974,0.221133934061452,3.53606981203534,NaN,2.12834966417766,-0.0859120516273544,0.350461328739804,-0.0859120516283415,-0.578959618850683,NaN,-0.838619190190301,-0.474326292244731,NaN,-1.45098415579281,NaN,1.74790014005875,0.321677370037971,2.12752741193404,-3.01095956336754,-2.39137282767863,-0.631500004821154,0.472156703533099,0.472156703531218,-0.775664122085384,0.775664122083115,0.341757289513472,0.732736526994895,-0.510799554966,NaN,-0.299816022135972,0.525115758506779,0.156198317164095,-0.562940079788521,-1.50426433197482,-1.50426433197338,1.66476194796596,-1.44032526529705,0.149589506758162,-1.54107577792738,-0.00160599507922429,-1.71462792800396,-1.50964017013336,0.927445113345242,0.927445113344402,NaN,-0.640949198919336,-1.00771322624624
561.2544,0.267345121406128,-0.716337824096112,-0.115570132808333,-0.790755771830223,0.221927733901951,0.221927733903682,3.51901417918392,NaN,2.10817433816911,-0.0900377397299213,0.37729283250753,-0.0900377397309167,-0.57266168507243,NaN,-0.831101495340561,-0.486981045991539,NaN,-1.45961593546038,NaN,1.75854302934514,0.367519008021904,2.15142863476875,-3.0302452909614,-2.38497728782421,-0.590911162940327,0.482977502392151,0.482977502390262,-0.779751319033977,0.779751319031695,0.3763659155802,0.721339057831239,-0.501517840967282,NaN,-0.318016499886241,0.559768870391828,0.168100571005261,-0.527898859345711,-1.49367603323796,-1.49367603323653,1.65079161412341,-1.43859817776818,0.129100378184002,-1.54110395705392,4.57464056282428e-06,-1.71297102981392,-1.49227113064138,0.958163442323268,0.95816344232244,NaN,-0.629749645945779,-1.01237389860097
561.3568,0.277252819583193,-0.683140561409815,-0.0900654028029316,-0.778233728556912,0.222695806491609,0.222695806493357,3.49914174916349,NaN,2.08734411990438,-0.0927344692522668,0.404053618645453,-0.0927344692532706,-0.566003460164523,NaN,-0.822961225054424,-0.499393472844312,NaN,-1.46791812904332,NaN,1.76802150801469,0.413325538089219,2.17272239386075,-3.04619958904848,-2.37647157406963,-0.549124427882381,0.493854152375553,0.493854152373653,-0.783443875431714,0.783443875429422,0.411359674902318,0.709768746379253,-0.491967509961579,NaN,-0.335583371354709,0.593649700829516,0.179966957708544,-0.491886475878435,-1.48191728563748,-1.48191728563607,1.6343967840262,-1.43424027050798,0.109383291311552,-1.54143429098905,0.00251542288083855,-1.71070630071436,-1.47389581951566,0.988464899714839,0.988464899714024,NaN,-0.617842566156352,-1.01602133513908
561.4592,0.288264626514175,-0.648786425833157,-0.0629861487216337,-0.764614683061867,0.223393349814612,0.223393349816382,3.4764904172148,NaN,2.06579727422805,-0.0940337739789882,0.430716439730838,-0.0940337739799991,-0.558950502226568,NaN,-0.814167056773554,-0.511608811570453,NaN,-1.47597041215858,NaN,1.7762800602236,0.458925263308363,2.19138392328812,-3.05882429740338,-2.3659122341584,-0.506114765193077,0.504768953598167,0.504768953596261,-0.786667918858105,0.786667918855803,0.446713769654475,0.697957028860192,-0.482239907953689,NaN,-0.352481136485235,0.626704419186365,0.191786259636584,-0.454897293930037,-1.46901753042677,-1.46901753042538,1.6155307146449,-1.42718755329722,0.0904777663302932,-1.54210302041571,0.00590639418898638,-1.70789515034218,-1.45453511580435,1.01835877355229,1.01835877355149,NaN,-0.605253996918988,-1.01856828730238
561.5616,0.300291003563028,-0.613313195590793,-0.0344321175176791,-0.749897407324504,0.223974308405976,0.223974308407765,3.45110378260456,NaN,2.04347046469823,-0.0939704698452819,0.457254338757056,-0.0939704698462985,-0.551470526706001,NaN,-0.804690174881113,-0.52367287030949,NaN,-1.48385373374659,NaN,1.78326503858587,0.504143254871977,2.20739827693258,-3.0681317522949,-2.35335907390994,-0.461861111487141,0.51570240598731,0.515702405985398,-0.789350776523096,0.789350776520785,0.482400349469553,0.685838813328673,-0.472423843887208,NaN,-0.368676012323683,0.658880830583895,0.203546957749399,-0.416928695170138,-1.45500737088045,-1.45500737087908,1.594152472805,-1.41738396588309,0.0724184551461178,-1.54314537300337,0.010154731589465,-1.70460058929431,-1.4342060120461,1.04785416600179,1.047854166001,NaN,-0.592012889732735,-1.01992740922888
561.664,0.313238398202315,-0.57676003579857,-0.00450737476720121,-0.734082892345817,0.224391655670667,0.224391655672479,3.42303090702716,NaN,2.02029943858045,-0.0925824678355745,0.483640662758367,-0.0925824678365968,-0.543533577125786,NaN,-0.794504483463453,-0.535631672602905,NaN,-1.49164975200665,NaN,1.78892491931074,0.548802048259418,2.22076037316228,-3.07414465579463,-2.33887476383093,-0.416346724178798,0.526633092289599,0.526633092287681,-0.791421412952211,0.791421412949892,0.518388547277914,0.67335282034684,-0.462605156414357,NaN,-0.384136014454993,0.690128573454424,0.215237321918494,-0.377981303501352,-1.43991849724869,-1.43991849724735,1.57022738148647,-1.40478189439127,0.0552349396077074,-1.54459532441913,0.015235306308017,-1.7008867226856,-1.41292171692856,1.07695971321495,1.07695971321418,NaN,-0.57815113436037,-1.02001177451858
561.7664,0.327009617131778,-0.539167657784319,0.0266799530630418,-0.717174491811309,0.224597671244482,0.224597671246313,3.39232604272602,NaN,1.9962197413156,-0.0899105937031057,0.509849074565811,-0.0899105937041327,-0.53511219678262,NaN,-0.783586825486559,-0.547531083635762,NaN,-1.49944025506411,NaN,1.79321058168341,0.592722371097523,2.23147497519824,-3.07689589335465,-2.32252446331531,-0.369559525721997,0.53753755589682,0.537537555894898,-0.792810841828412,0.792810841826083,0.554644529062628,0.660441886495949,-0.452866335819634,NaN,-0.398831031077368,0.720399303792839,0.226845497049085,-0.338059211580355,-1.42378363458089,-1.42378363457956,1.5437274039549,-1.38934261585133,0.0389515577499261,-1.54648534084214,0.0211208426231589,-1.69681822825489,-1.39069181140689,1.10568332693833,1.10568332693756,NaN,-0.563703561692371,-1.01873542985977
561.8688,0.341504215878456,-0.500578484217615,0.0590179483451798,-0.69917807027603,0.224544207645113,0.224544207646964,3.35904832582711,NaN,1.9711674423628,-0.0859984153517981,0.53585355961517,-0.0859984153528307,-0.526181594852302,NaN,-0.771917198264167,-0.559416409792873,NaN,-1.50730656790416,NaN,1.79607561613124,0.635723907062004,2.23955662202579,-3.07642830771943,-2.30437544947456,-0.32149242627888,0.548390181758399,0.548390181756475,-0.793452514189202,0.793452514186862,0.591131565697831,0.647053225919944,-0.443286190399952,NaN,-0.412732886737784,0.749646874102376,0.238359594978091,-0.2971701928957,-1.40663650583063,-1.40663650582933,1.51463146176147,-1.37103666923804,0.023587254298526,-1.54884611839925,0.0277821389962117,-1.69245983494984,-1.36752245329637,1.13403196107769,1.13403196107694,NaN,-0.54870791874266,-1.01601397223546
561.9712,0.356618906188371,-0.461036811258883,0.0923911895831315,-0.680102140153243,0.22418295020091,0.224182950202784,3.32326143410294,NaN,1.9450798579858,-0.0808920718778123,0.561628426104679,-0.0808920718788498,-0.516719793180727,NaN,-0.759478946158568,-0.571331968732219,NaN,-1.51532894297613,NaN,1.79747666246951,0.677626087563113,2.2450295167935,-3.07279442758524,-2.28449673229629,-0.272143602229682,0.559163093571183,0.559163093569257,-0.793282692461713,0.793282692459365,0.627810136240601,0.6331386513565,-0.433939541074379,NaN,-0.425815397798057,0.77782751606986,0.249767797943974,-0.255325877308193,-1.38851180309601,-1.38851180309473,1.4829256829211,-1.34984415131148,0.00915545236437934,-1.55170633997783,0.0351882877386967,-1.68787582236004,-1.34341662563012,1.16201141583609,1.16201141583536,NaN,-0.533204791337871,-1.01176513790181
562.0736,0.372247989405076,-0.420588962003127,0.126681066528815,-0.659957973297234,0.223465679900347,0.223465679902247,3.2850332151811,NaN,1.91789625996299,-0.0746400954053077,0.587148298379784,-0.0746400954063501,-0.506707741544614,NaN,-0.746258913815509,-0.583320635959612,NaN,-1.52358592849857,NaN,1.79737377472755,0.718248893511371,2.24792736739646,-3.06605614022225,-2.26295864266886,-0.221516715609334,0.569826080354743,0.569826080352815,-0.792240820301419,0.792240820299061,0.664638062857814,0.618654761346692,-0.424896935768151,NaN,-0.438054430761876,0.804900030716697,0.261058465696291,-0.212541876518628,-1.36944516532841,-1.36944516532715,1.44860357225089,-1.32575493230613,-0.00433605808255116,-1.55509246310458,0.0433068900022335,-1.68312955958379,-1.31837442333284,1.18962619748697,1.18962619748625,NaN,-0.517237444706939,-1.00590939749275
562.176,0.388283824599173,-0.379283430082936,0.161766131607399,-0.638759686037505,0.222344544173691,0.222344544175615,3.24443529230174,NaN,1.88955855643608,-0.0672932232991924,0.61238810364311,-0.0672932233002393,-0.496129401302404,NaN,-0.732247558141231,-0.595423384892896,NaN,-1.53215371359957,NaN,1.79573080341913,0.757413648677968,2.24829316261484,-3.05628429625461,-2.23983240141118,-0.169621078604766,0.580346559637137,0.580346559635209,-0.790269890320165,0.790269890317798,0.701570662318116,0.603563099272457,-0.416224393361539,NaN,-0.449427977948842,0.830825979046754,0.272220225585073,-0.168837865541285,-1.349473168825,-1.34947316882376,1.41166609502351,-1.29876878227223,-0.0168852128882241,-1.55902853900144,0.0521042580514526,-1.6782830920791,-1.29239337164116,1.21687944802041,1.2168794480197,NaN,-0.500851563046906,-0.998370557301189
562.2784,0.404617336304968,-0.337171012512893,0.197522492497503,-0.616524310464217,0.220772330828891,0.22077233083084,3.2015426497989,NaN,1.86001192956559,-0.0589042069682528,0.637323049375332,-0.0589042069693037,-0.484971805960977,NaN,-0.717439027262512,-0.607678839845817,NaN,-1.54110545819278,NaN,1.79251578456379,0.794943787941111,2.24617886873231,-3.04355824414679,-2.21518969555952,-0.116471782072704,0.590689577811606,0.590689577809677,-0.787316802728291,0.787316802725912,0.738560889970072,0.587830285211985,-0.407983192687305,NaN,-0.459916256934663,0.855569858334993,0.2832420262184,-0.124237640719765,-1.32863334122075,-1.32863334121953,1.37212166461582,-1.26889539524728,-0.0284957395402546,-1.56353605100483,0.0615455942181103,-1.67339677448061,-1.26546877257948,1.24377295787798,1.24377295787729,NaN,-0.484094882211822,-0.989076368794291
562.3808,0.421138562381783,-0.294304925556786,0.233824249434449,-0.593271866026268,0.218702736929332,0.218702736931314,3.15643319827031,NaN,1.82920541799659,-0.0495276227966587,0.661928585157632,-0.0495276227977137,-0.473225101230654,NaN,-0.701831208551943,-0.62012285264705,NaN,-1.55051061684544,NaN,1.78770132536126,0.830665587973384,2.24164504903378,-3.02796530482911,-2.18910228070578,-0.0620898051234411,0.600817846525796,0.600817846523867,-0.783332703086478,0.783332703084086,0.775559457974151,0.571428118104566,-0.400229711019168,NaN,-0.469501826700319,0.879099251244357,0.294113150617279,-0.0787691723794592,-1.30696420525916,-1.30696420525796,1.32998602490811,-1.23615429839774,-0.0391771879495212,-1.56863375889874,0.0715951364782221,-1.66852894497602,-1.23759408103108,1.27030727653212,1.27030727653145,NaN,-0.467016714172031,-0.977959143702318
562.4832,0.437737235583423,-0.250740891298031,0.270543977580767,-0.569025435534416,0.216090629250427,0.21609062925244,3.1091873266751,NaN,1.79709243537486,-0.0392196823093887,0.686180340318001,-0.0392196823104475,-0.460882556514917,NaN,-0.685425736951952,-0.632788106256009,NaN,-1.56043426383883,NaN,1.7812649716675,0.864408857500314,2.23476042696408,-3.00960020589973,-2.16164160993083,-0.006502110067982,0.610691817756913,0.610691817754983,-0.778273287785628,0.778273287783222,0.812514923513128,0.554333649248547,-0.393015307191969,NaN,-0.478169703663034,0.901384945621535,0.304823203924102,-0.0324646572547992,-1.28450534415057,-1.28450534414939,1.28528203467893,-1.20057464480478,-0.0489449114368928,-1.5743375455915,0.0822162673890695,-1.66373564069438,-1.20876131032931,1.29648192246527,1.29648192246461,NaN,-0.449667374083564,-0.964956359425042
562.5856,0.454303382863476,-0.206537180128442,0.307553247402069,-0.543811239237148,0.212892298053453,0.212892298055498,3.05988745832479,NaN,1.76363121738443,-0.0280380331775558,0.710054029807756,-0.0280380331786186,-0.447940537087709,NaN,-0.668227951704801,-0.645703749487332,NaN,-1.57093642940408,NaN,1.77318953484311,0.89600759316555,2.22560141877112,-2.98856449643897,-2.13287848287885,0.0502582848629811,0.620269804574769,0.620269804572839,-0.772099071937504,0.772099071935081,0.849373754353892,0.536529235737177,-0.386386244286072,NaN,-0.485907457933762,0.922401035394228,0.315362104528096,0.0146394367909578,-1.2612974644581,-1.26129746445695,1.23803939049652,-1.16219491009873,-0.0578199735258085,-1.58066027647924,0.0933715935376297,-1.65907035810604,-1.17896145818754,1.32229566919178,1.32229566919113,NaN,-0.432097550602753,-0.950011225621886
562.688,0.470727922893315,-0.161754597886748,0.34472317102468,-0.517658694052741,0.209065707515917,0.209065707517999,3.00861762784702,NaN,1.72878519153996,-0.0160415431261098,0.733525326680219,-0.0160415431271767,-0.434398428099885,NaN,-0.650246790906007,-0.658895067905449,NaN,-1.58207145985518,NaN,1.76346335782557,0.925300609268046,2.21425165334332,-2.96496595541179,-2.10288270722744,0.108152270428296,0.629508154021237,0.629508154019308,-0.764775623556936,0.764775623554498,0.886080387987116,0.518002583242537,-0.380383648787394,NaN,-0.492705273892196,0.942125020351188,0.32572011011791,0.0625023507584287,-1.23738242942805,-1.23738242942692,1.18829433659713,-1.1210625276931,-0.0658289628121793,-1.5876116913991,0.105023010046656,-1.65458386530994,-1.14818494139271,1.34774687354753,1.3477468735469,NaN,-0.41435767679933,-0.933073179545147
562.7904,0.486903249426127,-0.116456416032392,0.381924964204856,-0.490600442165008,0.204570747794809,0.204570747796926,2.95546309089958,NaN,1.69252326943721,-0.00329005964476219,0.756569707490018,-0.00329005964583341,-0.420258501139533,NaN,-0.631494614050704,-0.672383191326608,NaN,-1.59388741092007,NaN,1.7520805141081,0.952132147409469,2.20080148402303,-2.93891799441041,-2.07172276416844,0.167134666054206,0.63836147240429,0.638361472402364,-0.756273773756764,0.756273773754312,0.922577306393409,0.498746780519499,-0.375043503540043,NaN,-0.498555968246687,0.960537920634057,0.335887899337343,0.111079059501617,-1.21280324790549,-1.21280324790439,1.1360893973217,-1.07723349762735,-0.0730037205749381,-1.59519834889503,0.11713176730611,-1.65032407013481,-1.11642203974529,1.3728338240474,1.3728338240468,NaN,-0.396497338830728,-0.914098289272545
562.8928,0.502723797474354,-0.0707082555115287,0.419030515855808,-0.462672337281733,0.199369494196405,0.199369494198559,2.90050997689412,NaN,1.65482006991879,0.0101558598159202,0.779162281228552,0.0101558598148445,-0.405525716112372,NaN,-0.611986948232273,-0.686184833299928,NaN,-1.60642547799095,NaN,1.73904094620398,0.976352472730726,2.18534748871289,-2.91053905232422,-2.03946548016351,0.227154303040486,0.646782895066896,0.646782895064973,-0.74656981033107,0.746569810328602,0.958805144323451,0.478760318710781,-0.370396674377502,NaN,-0.503454968840498,0.977624411116492,0.345856710275286,0.160320353392799,-1.18760402048954,-1.18760402048847,1.0814731496188,-1.03077199634035,-0.0793810021567339,-1.60342363060289,0.129658554467532,-1.64633593749346,-1.08366336295334,1.39755509892102,1.39755509892042,NaN,-0.378564729432935,-0.893049562027956
562.9952,0.51808659076056,-0.0245779412289886,0.455912955307943,-0.433913387743861,0.193426473016106,0.193426473018294,2.84384499249589,NaN,1.61565608356966,0.0242352437227357,0.80127761190907,0.0242352437216551,-0.390207461299698,NaN,-0.591742166096531,-0.700312058042205,NaN,-1.61971946595821,NaN,1.72435055252087,0.997818470012446,2.1679919570213,-2.87995199052337,-2.00617572726565,0.288154167230802,0.654724388042236,0.654724388040312,-0.735645653924722,0.735645653922235,0.994702835165728,0.458047080827268,-0.366468976014229,NaN,-0.50740026273335,0.993372969075457,0.355618521458335,0.210172973757341,-1.16182985384005,-1.16182985383899,1.02450004150083,-0.981750002635196,-0.0850020904616958,-1.61228779704504,0.142563604622023,-1.64266144115101,-1.04990035129107,1.42190991925198,1.42190991925138,NaN,-0.360606146181626,-0.869897166303728
563.0976,0.5328917653552,0.0218646623181513,0.492447207443043,-0.404365662908067,0.186708927527884,0.186708927530104,2.7855551774657,NaN,1.5750177798429,0.0388870155896803,0.822889542162246,0.0388870155885948,-0.374313243218933,NaN,-0.570781110490714,-0.714772073342247,NaN,-1.63379530486823,NaN,1.70802122348041,1.01639425643942,2.1488423730214,-2.84728351025777,-1.9719161835292,0.350071593219567,0.662137073555605,0.662137073553681,-0.723489011059058,0.723489011056554,1.03020778731809,0.436616287762642,-0.363281282776585,NaN,-0.51039232129491,1.00777602568303,0.365166259303561,0.260579793656713,-1.13552675120943,-1.1355267512084,0.965230256939736,-0.93024694327958,-0.0899123671408185,-1.62178807849388,0.155806815676754,-1.63933953801756,-1.0151258037149,1.44589847414164,1.44589847414104,NaN,-0.342665540876631,-0.844618577014147
563.2,0.547043064668879,0.068547836491942,0.528510532455673,-0.374074164727985,0.179187082502238,0.179187082504493,2.7257277097219,NaN,1.53289765256173,0.054050306282499,0.843971023494917,0.0540503062814084,-0.357854334881281,NaN,-0.549126673818852,-0.729567050481993,NaN,-1.64867061818277,NaN,1.69007081482128,1.03195182307352,2.12801090827404,-2.81266361435325,-1.93674717305806,0.412838510508062,0.668971582866845,0.668971582864926,-0.710093503107548,0.710093503105021,1.06525608376303,0.414482396583354,-0.360849680646542,NaN,-0.512434006829342,1.0208301176826,0.374494024314221,0.311480042794985,-1.10874147779745,-1.10874147779644,0.903729624993262,-0.876349355591872,-0.0941608402912806,-1.63191878963681,0.169347878684509,-1.63640616108463,-0.979334412283503,1.46952219845934,1.46952219845875,NaN,-0.324784124643346,-0.817198649909968
563.3024,0.560448305103653,0.1153982230346,0.563983053594445,-0.343086656796143,0.170834416221039,0.170834416223329,2.66444975342395,NaN,1.48929420541437,0.0696647705109135,0.86449396089445,0.0696647705098173,-0.340843384130729,NaN,-0.526803331991009,-0.744693975086504,NaN,-1.66435434281685,NaN,1.67052303711836,1.04437171445181,2.10561393756396,-2.77622512563202,-1.90072658781072,0.476381752162176,0.675178447082958,0.675178447081043,-0.695458777845413,0.695458777842861,1.09978270428261,0.391664950227438,-0.359185652119518,NaN,-0.513530463010199,1.03253604023871,0.383597334587708,0.362809584281367,-1.0815213950389,-1.08152139503792,0.840069566238678,-0.820150560568401,-0.0977996284478012,-1.64267146614219,0.183146412486188,-1.63389423008753,-0.942523279584446,1.49278399531747,1.49278399531688,NaN,-0.307000026999732,-0.787629630820984
563.4048,0.573019814030266,0.16234106889541,0.598748275005774,-0.311453441378078,0.161627950297325,0.161627950299649,2.60180834563105,NaN,1.44421188665538,0.0856709128320977,0.884429084221004,0.0856709128309955,-0.323293987244209,NaN,-0.503836639144403,-0.760144534745473,NaN,-1.68084639200129,NaN,1.64940724467864,1.05354375626158,2.08177158302096,-2.73810326702429,-1.86390989053623,0.540623435512146,0.680708530185359,0.68070853018345,-0.679590608261137,0.679590608258558,1.13372177447658,0.368188371047084,-0.358296293619163,NaN,-0.513688991346536,1.04289899825794,0.392473382044858,0.414501249669487,-1.05391426478598,-1.05391426478503,0.774327065457211,-0.761750335958915,-0.100883399953021,-1.65403502572595,0.197162111119339,-1.63183367601952,-0.904692405017481,1.51568840366585,1.51568840366526,NaN,-0.289348006307445,-0.755911105760781
563.5072,0.584674840600494,0.209300490818339,0.632693584882561,-0.279227086750372,0.151548556520627,0.151548556522987,2.53789032911844,NaN,1.39766098875861,0.102010421135913,0.903745861337618,0.102010421134804,-0.305220248478626,NaN,-0.480252709344821,-0.775905047221624,NaN,-1.69813735472235,NaN,1.62675812473931,1.05936782974093,2.05660728165455,-2.69843530224101,-1.82635020676371,0.605481407632994,0.685513492167013,0.685513492165112,-0.662500973148297,0.662500973145693,1.16700684320425,0.344081688946775,-0.358184574239472,NaN,-0.512918916608868,1.05192874318149,0.401121287099679,0.4664852241153,-1.02596803800552,-1.02596803800458,0.706584662496448,-0.701254581668357,-0.103468767248753,-1.66599595099861,0.211354909513406,-1.63025147068688,-0.865845137445374,1.53824171350724,1.53824171350665,NaN,-0.271859211251945,-0.722049902445091
563.6096,0.595335937013024,0.256199743580041,0.665710733733379,-0.246462123786992,0.140581266466646,0.140581266469039,2.47278234867285,NaN,1.3496575369137,0.11862649546813,0.922412464443202,0.118626495467015,-0.286636360438776,NaN,-0.456077728272901,-0.791956428955585,NaN,-1.71620823753654,NaN,1.60261530878548,1.0617546699152,2.03024736001237,-2.65736022540526,-1.78809851372978,0.670869728158546,0.689546257195176,0.689546257193282,-0.644208106038634,0.644208106036006,1.19957118466412,0.31937820643593,-0.358849639064547,NaN,-0.511231443121807,1.05963967546896,0.409542332604399,0.518689456929721,-0.997730650852807,-0.997730650851886,0.63693046201817,-0.638774984157576,-0.105613647276391,-1.6785384798438,0.225685163776795,-1.62917164934027,-0.825988597377222,1.56045202790474,1.56045202790416,NaN,-0.254560995082159,-0.686059963599208
563.712,0.604931305106182,0.302961479661422,0.697696277048252,-0.213214736280131,0.128715564229865,0.128715564232288,2.40657091825765,NaN,1.30022319338753,0.135464157120142,0.940395792868232,0.13546415711902,-0.267556236124248,NaN,-0.431337532371921,-0.808274200559932,NaN,-1.73503026370086,NaN,1.57702294161293,1.0606266538348,2.00282060145368,-2.61501848091704,-1.74920391407246,0.736699158930992,0.692761461792772,0.692761461790885,-0.62473649922452,0.624736499221865,1.23134812299946,0.294115116979712,-0.360287142287935,NaN,-0.508639501770671,1.06605089965804,0.417740165787901,0.571040071539811,-0.969249844619442,-0.969249844618541,0.565458170592618,-0.574428702197587,-0.107376615138543,-1.69164478392191,0.240113834992601,-1.62861531642895,-0.785134071399459,1.58232926275628,1.5823292627557,NaN,-0.237476789299295,-0.647962216849171
563.8144,0.613395101541355,0.349507996262924,0.728551974234831,-0.179542458699779,0.115945647891148,0.115945647893601,2.33934254524969,NaN,1.24938519887952,0.152470528139147,0.957661546534408,0.152470528138019,-0.247993201946529,NaN,-0.406057266439554,-0.8248285257371,NaN,-1.75456474508937,NaN,1.55002924612683,1.05591855230862,1.97445780744358,-2.57155169768393,-1.70971395502338,0.802877647750961,0.695115869120953,0.695115869119073,-0.604116858599572,0.604116858596887,1.26227138685123,0.268333098481251,-0.362489579005181,NaN,-0.505157587534168,1.07118623535545,0.425720971302358,0.623461766246917,-0.94057300960389,-0.940573009603006,0.492267169296151,-0.508338098452582,-0.108816282626653,-1.7052951238335,0.254602666997851,-1.62860063171826,-0.743297378167311,1.60388506539113,1.60388506539056,NaN,-0.220626049714326,-0.60778445909999
563.9168,0.620667695443911,0.395761472174985,0.758185139534894,-0.145503878877534,0.102270656331246,0.102270656333728,2.27118388625167,NaN,1.19717636214559,0.169595079434314,0.974174338111336,0.169595079433179,-0.227959741814283,NaN,-0.380261105883198,-0.841584284383272,NaN,-1.77476303944113,NaN,1.52168611003035,1.047578232402,1.94529136122085,-2.5271024254966,-1.6696749474899,0.869310814726603,0.696568748630834,0.696568748628962,-0.58238601667551,0.582386016672796,1.29227550694749,0.242075900836055,-0.365446585351468,NaN,-0.500801590028692,1.0750741991566,0.433493625953621,0.675878217640234,-0.911747040368109,-0.911747040367246,0.417462619449633,-0.440630526909451,-0.10999072422075,-1.71946798324225,0.269114355801122,-1.629142781785,-0.700499200426766,1.62513263355326,1.6251326335527,NaN,-0.204024285190635,-0.565561262613136
564.0192,0.626695876062347,0.441644198324831,0.786508944622106,-0.111158336138535,0.0876948657030582,0.0876948657055719,2.20218190896356,NaN,1.14363509794929,0.186789850756317,0.989897831632082,0.186789850755176,-0.207467279018922,NaN,-0.35397202386325,-0.858501185616928,NaN,-1.79556660245706,NaN,1.49204870108248,1.03556730488491,1.91545479186621,-2.48181386085714,-1.62913226016448,0.935902455356106,0.697082227041082,0.697082227039218,-0.559586814769933,0.559586814767185,1.32129626080931,0.215389939799386,-0.369145197099719,NaN,-0.495588623017809,1.07774797024179,0.441069840240108,0.728212502877617,-0.882818189970419,-0.882818189969574,0.341155586582069,-0.371438168649678,-0.110956961928024,-1.73414019226149,0.283612713255743,-1.63025394560024,-0.65676537530022,1.6460864364689,1.64608643646835,NaN,-0.187683167321907,-0.521333900571669
564.1216,0.631433012961697,0.487078801638291,0.813442674974474,-0.0765656129144736,0.07222785749844,0.0722278575009864,2.13242403931734,NaN,1.08880549998056,0.204009644677176,1.0047948997336,0.204009644676028,-0.18652599030755,NaN,-0.327211592843295,-0.875533925187092,NaN,-1.8169071381399,NaN,1.46117510689198,1.01986170731544,1.8850823306317,-2.43582955346038,-1.58813058573242,1.00255506050127,0.6966216141678,0.696621614165942,-0.535767960017108,0.535767960014322,1.34927114782347,0.18832390328846,-0.373570076339684,NaN,-0.489536861544858,1.07924534103123,0.448464279194644,0.780387541553635,-0.853831920542575,-0.853831920541749,0.263463159598531,-0.300897898557092,-0.11177051569039,-1.74928704751589,0.298062825826414,-1.63194326155972,-0.612127136624726,1.66676186291352,1.66676186291297,NaN,-0.171610711802271,-0.475150284248003
564.224,0.634839173965449,0.531988458663456,0.838911942961813,-0.0417856301626586,0.0558846519980336,0.0558846520006125,2.06199828204101,NaN,1.03273742449992,0.221212190981909,1.01882779610566,0.221212190980753,-0.165144654449061,NaN,-0.299999821098208,-0.89263238956838,NaN,-1.83870684291235,NaN,1.42912599618803,1.00045220693264,1.85430845560264,-2.38929308970256,-1.54671417918688,1.06917033569322,0.695155702405963,0.695155702404115,-0.510983857362894,0.51098385736007,1.37613986166733,0.160928372538565,-0.378703716736117,NaN,-0.482665396182757,1.07960864528026,0.455694646333928,0.832326540271572,-0.824832756952904,-0.824832756952098,0.184508536865146,-0.229151159254296,-0.112485023325812,-1.76488242879429,0.312431204307668,-1.63421680020954,-0.566621302223453,1.68717482560764,1.68717482560709,NaN,-0.155811524404415,-0.427064906998085
564.3264,0.636881205851692,0.576297098884064,0.862848862135638,-0.00687816002088228,0.0386857982251737,0.0386857982277856,1.99099331010163,NaN,0.97548656137975,0.238358273593575,1.03195834293115,0.238358273592411,-0.143330540009311,NaN,-0.272355028708788,-0.9097419139171,NaN,-1.86087873664901,NaN,1.39596429835711,0.977344806201661,1.82326741611996,-2.3423477419882,-1.50492706068069,1.13564969989305,0.69265703911966,0.692657039117824,-0.485294415161305,0.485294415158444,1.40184472832904,0.133255456771144,-0.384526631525696,NaN,-0.474994111267254,1.0788846546156,0.462781715961064,0.883953421266045,-0.795864153052461,-0.795864153051676,0.104421052087739,-0.156343814382615,-0.113151924237515,-1.78089891062338,0.326685918839006,-1.63707754673854,-0.520290393580932,1.70734134238624,1.7073413423857,NaN,-0.140287106578095,-0.377138798354597
564.4288,0.637532782463224,0.619929604844115,0.885192190482923,0.0280974386461251,0.020657418041118,0.0206574180437628,1.91949851571334,NaN,0.917114482516322,0.255411815895183,1.04414813438405,0.255411815894009,-0.121089333221685,NaN,-0.244293763465888,-0.926803603350019,NaN,-1.88332707602469,NaN,1.361754894827,0.950561038603376,1.79209271685145,-2.29513606004891,-1.46281317100599,1.20189475675312,0.689102174514449,0.689102174512623,-0.458764822582044,0.458764822579144,1.42633109189852,0.105358437965171,-0.391017529091405,NaN,-0.466543587283334,1.07712443747318,0.469749308384431,0.935193227146127,-0.766968377931265,-0.766968377930498,0.0233361214397471,-0.0826259555477515,-0.113820190672035,-1.79730787109004,0.340796715217668,-1.64052540001651,-0.473182673193669,1.72727710838683,1.7272771083863,NaN,-0.125036210315201,-0.325439494972516
564.5312,0.636774425543322,0.662812020678162,0.905887453224443,0.0630824661474926,0.00183121048587169,0.00183121048855008,1.84760400914055,NaN,0.85768866977441,0.272339932722801,1.05535875362961,0.272339932721619,-0.0984250979480964,NaN,-0.215830747282646,-0.943754720158607,NaN,-1.90594784633295,NaN,1.32656431968287,0.920138150991021,1.76091654652334,-2.24779938625476,-1.42041647015865,1.26780774532831,0.684471887767268,0.68447188776545,-0.431465295694114,0.431465295691178,1.44954764398439,0.0772914256618676,-0.398153480790561,NaN,-0.457335019013777,1.07438317781066,0.476624214204937,0.985972503651153,-0.738186425604774,-0.738186425604025,-0.0586049029546517,-0.00815164096727705,-0.114536091010832,-1.81407960280786,0.354735109695355,-1.64455719656911,-0.425352091036922,1.7469970714328,1.74699707143227,NaN,-0.11005522231298,-0.272041031324203
564.6336,0.634593503767783,0.704871777807523,0.924887054468938,0.0980191178729796,-0.0177555750207947,-0.0177555750180828,1.77540055377332,NaN,0.797282525063913,0.289112968218505,1.06555199634025,0.289112968217315,-0.075340252969439,NaN,-0.186978837378732,-0.96052913758243,NaN,-1.92862933100325,NaN,1.29046047367372,0.886129176506514,1.72986915429227,-2.2004772972399,-1.37778097800054,1.33329198012647,0.67875139106535,0.678751391063539,-0.403470787164667,0.403470787161694,1.47144669859019,0.0491090222155234,-0.405910078045907,NaN,-0.447390136600739,1.07071995164687,0.483436078901452,1.0362196638086,-0.709557948694733,-0.709557948694003,-0.141254992382218,0.0669214544354989,-0.115342980055552,-1.83118343110564,0.368474462447194,-1.64916676493625,-0.376858142562241,1.7665150190907,1.76651501909018,NaN,-0.0953385558913979,-0.217023943611824
564.736,0.630984214290727,0.746037935504454,0.942150380478831,0.132850713281228,-0.0380601933499154,-0.0380601933471697,1.70297943669295,NaN,0.735975359954002,0.305704536623965,1.07469009652724,0.305704536622766,-0.0518355567902367,NaN,-0.157748994245929,-0.977057867687112,NaN,-1.95125276695535,NaN,1.25351235455019,0.848602901923033,1.6990781809827,-2.15330698060251,-1.33495076178908,1.39825227923991,0.671930506357319,0.671930506355515,-0.374860651553238,0.374860651550223,1.4919844119328,0.0208659879811335,-0.414261569905904,NaN,-0.436731120948602,1.06619745520295,0.490217250910648,1.08586532858663,-0.681121220211003,-0.68112122021029,-0.224461832798996,0.142432490986462,-0.116281123566629,-1.84858784154495,0.38199003500171,-1.65434500721222,-0.327765652280117,1.78584317851965,1.78584317851914,NaN,-0.0808790412552261,-0.160475271362441
564.8384,0.625947547972633,0.786241421695721,0.957643888309838,0.167521909684613,-0.0590344936528133,-0.0590344936500341,1.63043228090732,NaN,0.673852359787598,0.32209156872454,1.08273595801359,0.322091568723332,-0.0279101019550972,NaN,-0.128150263134491,-0.993269671119905,NaN,-1.97369309746335,NaN,1.21578980582794,0.807643727841738,1.66866794236928,-2.10642254314234,-1.29196986844444,1.46259536506884,0.664003803203659,0.664003803201861,-0.345718254073265,0.345718254070207,1.51112094323622,-0.0073831162402464,-0.423180975130656,NaN,-0.425380512450925,1.06088167438978,0.497002585283123,1.13484262848742,-0.652913134810397,-0.652913134809698,-0.308068358551845,0.218218021595834,-0.117387568792496,-1.86626061153066,0.395259036340605,-1.66007999701173,-0.278144507221044,1.8049918230372,1.8049918230367,NaN,-0.0666683165622647,-0.102488540428114
564.9408,0.619491235326968,0.825415256799227,0.971341168567503,0.201978886430468,-0.0806250600643394,-0.0806250600615271,1.55785080303276,NaN,0.611004516646008,0.338254352526711,1.0896533976066,0.338254352525496,-0.00356132651434449,NaN,-0.0981897813204168,-1.00909174533956,NaN,-1.99581982305708,NaN,1.17736329263869,0.763351418532123,1.63875866178728,-2.05995424338286,-1.24888219070513,1.52623022036687,0.654970683284957,0.654970683283167,-0.316130511002377,0.316130510999275,1.52882055692773,-0.0355843290676222,-0.432640169211888,NaN,-0.41336111464987,1.05484148985739,0.503829196254073,1.18308745034082,-0.624969260145465,-0.624969260144782,-0.391913426284112,0.294112652023272,-0.118696061672902,-1.88416893629438,0.408260656009789,-1.66635708479628,-0.228069369019372,1.82396887978274,1.82396887978225,NaN,-0.0526972199838334,-0.0431637174459018
