time,S1-D1,S1-D8,S1-D9,S1-D15,S2-D1,S2-D2,S2-D3,S2-D9,S3-D1,S3-D2,S3-D16,S4-D2,S4-D3,S4-D5,S5-D3,S5-D4,S5-D5,S6-D2,S6-D5,S6-D17,S7-D6,S7-D7,S8-D6,S8-D7,S8-D18,S9-D3,S9-D4,S9-D9,S9-D11,S9-D19,S10-D8,S10-D9,S10-D10,S10-D11,S11-D8,S11-D10,S11-D20,S12-D10,S12-D11,S12-D12,S13-D4,S13-D11,S13-D12,S14-D10,S14-D12,S14-D21,S15-D13,S15-D14,S16-D13,S16-D14,S16-D22
192.7168,0.919321674328881,-0.00176329972580401,0.868929157817947,2.22916765494019,-0.530310194669465,-0.530310194669389,2.53440157320904,1.34597973678702,2.06488332633976,-0.0663442367599306,0.975388963904126,-0.0663442367581134,1.32272678784239,-1.18883325296292,0.355993806224487,NaN,NaN,0.0176903698629004,-0.0221687787520048,-0.0603814395504067,NaN,NaN,-0.906132715737691,NaN,1.64630010134687,-1.68767014619268,NaN,NaN,1.41628883905405,0.0618417695714773,0.805227304382687,0.547871595169682,1.00309163411622,0.625090770228636,-0.968074914635329,-0.396499134011349,-1.44272935235284,-0.236383911265152,-0.236383911264606,2.62821476324046,NaN,NaN,NaN,-1.20042621872214,-0.0885941731569951,0.677130455298856,-0.701944887870736,-0.701944887871288,0.145581601661211,-0.145581601661234,1.54406854105806
192.8192,0.917935502427349,-0.0133360842771595,0.864550886731755,2.2307746398241,-0.548688072727213,-0.548688072727123,2.55428130634905,1.37047056370555,2.088053113611,-0.0548771477558089,0.977360742969252,-0.0548771477539926,1.32660692435834,-1.19742774505348,0.35062014273833,NaN,NaN,0.0104545650529319,-0.0265390806772672,-0.0513384819173035,NaN,NaN,-0.92702178478379,NaN,1.66368614114014,-1.72862455552014,NaN,NaN,1.41433377045624,0.0633215328247681,0.795092678093396,0.544285585845716,0.991976093557028,0.621810892890474,-0.989690273804955,-0.424666163222838,-1.46134440038895,-0.235710699433952,-0.235710699433407,2.65383181847835,NaN,NaN,NaN,-1.21583250322325,-0.100822253581795,0.691957384802267,-0.720153848951631,-0.720153848952197,0.155256942710609,-0.155256942710647,1.54215928905667
192.9216,0.916083921433282,-0.0253104503378812,0.859626041743087,2.23113452620204,-0.564761685334283,-0.564761685334181,2.57113183267076,1.39455296183963,2.10935559935377,-0.0442103722987812,0.978887322507458,-0.0442103722969679,1.33002573193228,-1.20652215501153,0.343973036718263,NaN,NaN,0.00381419079688683,-0.0323175497297611,-0.0412617044818801,NaN,NaN,-0.947637741674347,NaN,1.67915846890893,-1.76850826949164,NaN,NaN,1.41040556013136,0.0651026044225001,0.785265838214724,0.539096511848614,0.980417330744527,0.617539657809749,-1.01040689658056,-0.452925658192186,-1.47794609754032,-0.233971953737686,-0.23397195373714,2.67839677247913,NaN,NaN,NaN,-1.22999447410946,-0.111623765548587,0.706056151991205,-0.736939360174077,-0.73693936017465,0.165028392950483,-0.165028392950538,1.53772145056291
193.024,0.913774425657334,-0.0376569248707886,0.854169522028744,2.23022805045884,-0.57848681624195,-0.578486816241837,2.58497628437023,1.41825889487213,2.12881947868492,-0.0343810067577758,0.980015218923963,-0.0343810067559665,1.33298766496655,-1.21615365442045,0.336012005806803,NaN,NaN,-0.00219696386198779,-0.0395518955749306,-0.0301207533614064,NaN,NaN,-0.967963917640886,NaN,1.6926473360934,-1.80721782725396,NaN,NaN,1.40446671234234,0.0672108143293723,0.775788446569348,0.532336962680253,0.968469180027328,0.612224496043393,-1.03016629595585,-0.481270251400576,-1.49253914421605,-0.23107585913887,-0.231075859138323,2.70186658070429,NaN,NaN,NaN,-1.24287921226188,-0.120994673966396,0.71943071166251,-0.752270476965692,-0.752270476966268,0.174857322459482,-0.174857322459554,1.5307090632555
193.1264,0.911014285557951,-0.0503449883325858,0.848196292447369,2.228038556244,-0.589831919073736,-0.589831919073616,2.59585038553651,1.44162212234568,2.1464812578643,-0.0254242174658492,0.980790569469807,-0.0254242174640437,1.33549674972553,-1.22635398237079,0.326702795683689,NaN,NaN,-0.00755124706919084,-0.0482846083053273,-0.0178880080063199,NaN,NaN,-0.98798292285338,NaN,1.70408792264214,-1.84465405928961,NaN,NaN,1.39648610166091,0.0696708329825802,0.766699123957317,0.524048842627943,0.956186879456327,0.605815684121964,-1.0489139769451,-0.509693910286105,-1.50513864904505,-0.226933617682015,-0.226933617681466,2.72419682353996,NaN,NaN,NaN,-1.25445889700586,-0.12894055388239,0.732086899034331,-0.766123799576004,-0.766123799576581,0.18470309856104,-0.18470309856113,1.52108326751638
193.2288,0.907810592100194,-0.0633428346113434,0.841721489118099,2.22455214974475,-0.598777794504101,-0.598777794503977,2.60380174695725,1.46467759387362,2.16238456400078,-0.0173733721244327,0.98125878691309,-0.0173733721226329,1.33755666899064,-1.23714929916348,0.316017682310224,NaN,NaN,-0.0122271744787555,-0.0585527606663871,-0.00453875381908361,NaN,NaN,-1.0076767115952,NaN,1.71342054422213,-1.88072265073045,NaN,NaN,1.38643923151562,0.0725059604470527,0.758033387298122,0.514282922101402,0.943626807359758,0.598266791810398,-1.06659979966665,-0.538191846935119,-1.51576956828816,-0.221460286990428,-0.221460286989877,2.74534188632392,NaN,NaN,NaN,-1.26471076796263,-0.135476261556169,0.744032199262085,-0.778483319510998,-0.778483319511572,0.194523243886205,-0.194523243886311,1.50881245693784
193.3312,0.904170292677019,-0.0766171852545333,0.834760502630116,2.21975783861175,-0.605317182953559,-0.605317182953425,2.60888907109549,1.487460834761,2.17657940114739,-0.0102601291706156,0.981464228930399,-0.0102601291688239,1.33917086564817,-1.24856009729452,0.303935728669257,NaN,NaN,-0.0162093883141902,-0.0703878474432653,0.00994864946737569,NaN,NaN,-1.02702666780128,NaN,1.72059084211322,-1.91533464246565,NaN,NaN,1.37430845039233,0.0757379165262861,0.749823627104355,0.503098302923709,0.930846217400763,0.58953513492246,-1.08317828764995,-0.566760360044811,-1.52446606801627,-0.214575536210308,-0.214575536209758,2.7652551499167,NaN,NaN,NaN,-1.27361705803374,-0.140625506583702,0.755275503199726,-0.789340232076849,-0.789340232077417,0.204273628940042,-0.204273628940162,1.49387239538562
193.4336,0.900100214618074,-0.0901331597398957,0.827329034659588,2.21364765600516,-0.609454296769662,-0.609454296769523,2.61118129297474,1.51000733941158,2.18912137510958,-0.00411448116144929,0.981449887705451,-0.00411448115966425,1.34034266521766,-1.26060117362483,0.290442991106167,NaN,NaN,-0.019488544843531,-0.0838156635386257,0.0255926046681939,NaN,NaN,-1.04601370428982,NaN,1.72554995192807,-1.94840686859144,NaN,NaN,1.36008312890868,0.0793866326474897,0.742099123830986,0.490561806076793,0.917902974632528,0.579582226693112,-1.09860888236829,-0.595396617570933,-1.53127082859194,-0.20620430700763,-0.206204307007079,2.78388919813833,NaN,NaN,NaN,-1.28116490079185,-0.144420333524306,0.765826851652526,-0.798692717303428,-0.798692717303988,0.21390869716181,-0.213908697161948,1.47624630359432
193.536,0.895607078681045,-0.103854192273229,0.819443132781177,2.20621677121225,-0.611204318033292,-0.611204318033146,2.61075668166005,1.53235198518629,2.20007090685756,0.00103524208423074,0.981257099357549,0.00103524208600712,1.34107540923049,-1.27328165460941,0.275532674166799,NaN,NaN,-0.0220611407584759,-0.0988562145765014,0.0424081210764638,NaN,NaN,-1.06461837704301,NaN,1.72825465435574,-1.97986232868471,NaN,NaN,1.34375980116325,0.0834700488984782,0.734886092339034,0.476747307439235,0.904855294132127,0.568374214415858,-1.1128561429443,-0.624098393762276,-1.5362343091454,-0.196277378145123,-0.196277378144579,2.80119605302503,NaN,NaN,NaN,-1.28734621474251,-0.146900530265162,0.775697176647538,-0.806545691140376,-0.806545691140928,0.223381717833687,-0.223381717833841,1.4559249210313
193.6384,0.890697508858616,-0.117741989645749,0.811119210912353,2.19746358518893,-0.610592879069274,-0.610592879069124,2.60770192508248,1.55452847824005,2.20949245279888,0.00516239906124788,0.98092527135475,0.0051623990630178,1.34137258485621,-1.2866050569202,0.259205235709821,NaN,NaN,-0.0239292940792965,-0.115523646667063,0.0604066672199648,NaN,NaN,-1.08282101778417,NaN,1.72866751720241,-2.00963049150129,NaN,NaN,1.32534227329865,0.088003921639252,0.728207739236099,0.461735054954847,0.891761483210425,0.555882286590391,-1.1258898874747,-0.652863773087982,-1.53941398902421,-0.184731843163034,-0.184731843162503,2.81712744688942,NaN,NaN,NaN,-1.29215756757653,-0.148112982995158,0.784898054046747,-0.812910532416232,-0.812910532416773,0.232645062460792,-0.23264506246096,1.4329065525093
193.7408,0.885378043137873,-0.13175652819988,0.802374060292725,2.18738980696942,-0.607655534236692,-0.607655534236532,2.6021112178625,1.5765688423325,2.21745374820402,0.00824208564292985,0.980491626216952,0.00824208564468865,1.34123793873922,-1.3005693680925,0.241468444772473,NaN,NaN,-0.0251004913850681,-0.13382618297237,0.079596033977816,NaN,NaN,-1.10060188516935,NaN,1.72675703542549,-2.03764752563505,NaN,NaN,1.30484170069433,0.0930016461980433,0.72208432111922,0.445610991831702,0.878679687216403,0.542083040156988,-1.13768527116749,-0.681690827290604,-1.54087360206925,-0.171511514683641,-0.171511514683115,2.83163513121546,NaN,NaN,NaN,-1.29560002451225,-0.148110996838782,0.793441478711537,-0.817804792488964,-0.817804792489494,0.241650499526221,-0.241650499526402,1.4071971048994
193.8432,0.879655144602092,-0.145856089637974,0.793224850491786,2.1760005069874,-0.602437228580465,-0.602437228580301,2.59408536949391,1.59850296085157,2.22402508843995,0.0102512169471642,0.979990957043986,0.0102512169489142,1.34067557245232,-1.31516714392074,0.222337392677586,NaN,NaN,-0.0255873023176163,-0.153766062802768,0.0999802100786248,NaN,NaN,-1.1179413305516,NaN,1.7224977666542,-2.06385645589504,NaN,NaN,1.28227663396581,0.0984740956922846,0.716533199596122,0.428466090481204,0.865667637226288,0.526958805002762,-1.14822279865216,-0.710577265728362,-1.54068237762619,-0.156567263480174,-0.15656726347966,2.84467121367165,NaN,NaN,NaN,-1.29767898519077,-0.146953597706338,0.801339660767926,-0.821251889812039,-0.821251889812559,0.250349501816602,-0.250349501816792,1.37881010807977
193.9456,0.873535210425718,-0.159997339724213,0.783689117055398,2.16330414381602,-0.594991766344444,-0.594991766344277,2.58373094976219,1.62035818403407,2.22927866327231,0.0111686568323939,0.979455387525419,0.0111686568341337,1.33969002249378,-1.33038562936437,0.20183445297885,NaN,NaN,-0.0254070526755645,-0.175339486501049,0.121559272912672,NaN,NaN,-1.13481997024445,NaN,1.71587045319353,-2.08820725178581,NaN,NaN,1.25767303459427,0.104429474511103,0.711568894806945,0.410395689275786,0.852782397615553,0.510497928603544,-1.15748827237875,-0.739520057968523,-1.5389142996995,-0.13985729305711,-0.13985729305661,2.8561885133254,NaN,NaN,NaN,-1.29840401343757,-0.144704824785559,0.808604829239118,-0.823280783951342,-0.82328078395185,0.258693564187496,-0.258693564187693,1.34776670747419
194.048,0.867024578660082,-0.174135457376715,0.773784733707014,2.14931256016214,-0.58538127823889,-0.585381278238719,2.57115948597888,1.64215901365618,2.23328795838297,0.0109753995858571,0.978914132493204,0.0109753995875862,1.33828632463762,-1.34620690875053,0.179989182706232,NaN,NaN,-0.0245814473697683,-0.198536570688281,0.144329296857499,NaN,NaN,-1.15121885710414,NaN,1.70686212166512,-2.11065685958449,NaN,NaN,1.23106426095595,0.110873186652597,0.707203140605269,0.391498826002674,0.840080113676172,0.492695023277918,-1.1654726822441,-0.768515031679114,-1.53564739270183,-0.121347347821477,-0.121347347820989,2.86614093174625,NaN,NaN,NaN,-1.29778866432659,-0.141433015252574,0.815249027651899,-0.82392562026991,-0.8239256202704,0.266634538651512,-0.266634538651718,1.31409562079787
194.1504,0.86012953312092,-0.188224320097926,0.763529867821278,2.13404094391919,-0.573675683543966,-0.573675683543794,2.55648672019797,1.66392686952522,2.23612723075325,0.0096547950555217,0.97839326449577,0.00965479505723938,1.33647005882147,-1.36260808467855,0.156838160322758,NaN,NaN,-0.0231361435466912,-0.223341315390246,0.168282278940251,NaN,NaN,-1.16711964960796,NaN,1.69546615405072,-2.13116918815133,NaN,NaN,1.20249102365846,0.117807722639427,0.703444944684631,0.371877566743857,0.82761576177391,0.473551175227504,-1.17217204281207,-0.797556453958584,-1.53096303988567,-0.10101085343507,-0.10101085343459,2.87448384845559,NaN,NaN,NaN,-1.29585031351384,-0.137210076654253,0.821283895980285,-0.823225340582155,-0.823225340582629,0.274125000599863,-0.274125000600075,1.27783306224691
194.2528,0.852856304882238,-0.202216746767647,0.752942917484242,2.11750775471369,-0.559952143369908,-0.559952143369734,2.53983192426155,1.68567993091398,2.2378710532988,0.00719280458738096,0.977915501388078,0.00719280458908652,1.33424737491357,-1.3795614849475,0.132424761723294,NaN,NaN,-0.0211002856236747,-0.249731584581943,0.193406080810805,NaN,NaN,-1.18250477903805,NaN,1.68168232737272,-2.14971505389645,NaN,NaN,1.1720013077331,0.125232569685022,0.700300657268796,0.351636330582715,0.815442905612841,0.453074113421546,-1.17758718597958,-0.826636607175953,-1.52494533822614,-0.0788289889473283,-0.0788289889468568,2.88117455058319,NaN,NaN,NaN,-1.29260999308649,-0.13211074261277,0.826720445774159,-0.821223260640017,-0.821223260640471,0.281118655063828,-0.281118655064044,1.23902264149807
194.3552,0.845211068644858,-0.216064794021424,0.742042429503755,2.09973462549079,-0.544294505743812,-0.544294505743641,2.5213172590882,1.70743304052195,2.23859391508393,0.00357827768626716,0.977500036367191,0.00357827768795959,1.33162500941118,-1.39703490472152,0.106798879267897,NaN,NaN,-0.0185060229910322,-0.277679106818975,0.219684386782107,NaN,NaN,-1.19735761370369,NaN,1.66551682528817,-2.1662720850111,NaN,NaN,1.13965025895139,0.13314414933179,0.697774050570339,0.330881213957623,0.803613462411655,0.431278335592863,-1.1817235185065,-0.8557453730552,-1.51768049028171,-0.0547906934063073,-0.0547906934058377,2.88617269372849,NaN,NaN,NaN,-1.2880922354316,-0.126211814080857,0.831568842606778,-0.817966616438906,-0.817966616439339,0.287570778856856,-0.287570778857077,1.19771524232156
194.4576,0.837199931994373,-0.229720098654573,0.730846998496278,2.08074625398894,-0.526792749446857,-0.526792749446686,2.50106716054788,1.72919765904402,2.23836986145787,-0.00119676016761422,0.977162430536219,-0.00119676016593588,1.32861031028422,-1.41499189808855,0.0800165901361767,NaN,NaN,-0.0153880331673559,-0.307149506557767,0.247096676692897,NaN,NaN,-1.21166261835809,NaN,1.64698223028256,-2.1808245807744,NaN,NaN,1.10550003345243,0.141535787813537,0.695866406962166,0.309719324101442,0.792177481374017,0.408185186041888,-1.18459075266128,-0.884869840296203,-1.50925623113554,-0.0288926145799159,-0.0288926145794473,2.88944077792874,NaN,NaN,NaN,-1.28232492259541,-0.119591395737776,0.835838211070909,-0.813506079757282,-0.813506079757688,0.293438686684513,-0.293438686684736,1.15396888461633
194.56,0.828828913996952,-0.243134253193969,0.719375147099416,2.06057029411356,-0.507542436463225,-0.507542436463059,2.47920774179466,1.75098186125389,2.23727216400208,-0.00713682075998893,0.976914573536992,-0.00713682075832446,1.32521128479498,-1.43339212882432,0.0521397824144437,NaN,NaN,-0.0117830658119643,-0.338102374854679,0.275618209695024,NaN,NaN,-1.22540550622607,NaN,1.62609750562017,-2.19336332235139,NaN,NaN,1.06961961515486,0.150397724297496,0.694576608318421,0.28825813594928,0.781182933956255,0.383822880637919,-1.18620261537017,-0.913993947003504,-1.49976128787075,-0.00113901065367834,-0.00113901065321228,2.89094462055097,NaN,NaN,NaN,-1.27533913439303,-0.11232814292857,0.839536474817006,-0.807895244295281,-0.807895244295662,0.298682208031412,-0.298682208031638,1.10784857567824
194.6624,0.820103909764576,-0.256259194279185,0.70764518952072,2.03923724858853,-0.486644183288253,-0.486644183288091,2.45586621172584,1.77279036476286,2.23537301568304,-0.0142426822862506,0.976764701083128,-0.0142426822846044,1.32143666969909,-1.45219177140669,0.023235749337489,NaN,NaN,-0.00772951394171467,-0.370491381286974,0.305220013110835,NaN,NaN,-1.23857337790499,NaN,1.60288797350422,-2.20388533989579,NaN,NaN,1.03208460975988,0.159717157761504,0.693901216270017,0.266604889447128,0.770675514062587,0.358226480692207,-1.18657654246963,-0.943098163524443,-1.48928486892738,0.0284583834325493,0.0284583834330133,2.89065380969251,NaN,NaN,NaN,-1.26716898789935,-0.104500542139192,0.842670239623785,-0.801190090865922,-0.801190090866279,0.30326415866027,-0.303264158660498,1.05942615708857
194.7648,0.811030641199182,-0.269047579343062,0.695675085117197,2.01678036207657,-0.464203160188078,-0.464203160187917,2.43117031192773,1.79462457930628,2.23274324642664,-0.0225111492299403,0.976717455631444,-0.02251114922831,1.31729600373851,-1.47134393402024,-0.00662324089863473,NaN,NaN,-0.00326701639073161,-0.404264421195633,0.335868870833102,NaN,NaN,-1.25115484074921,NaN,1.57738529295503,-2.21239365079574,NaN,NaN,0.992977023604843,0.169478326770615,0.693834536025158,0.244866037747344,0.760698446075458,0.331437822066469,-1.1857333700076,-0.972159222101634,-1.47791618109574,0.0598805132955198,0.0598805132959807,2.88854212073593,NaN,NaN,NaN,-1.25785146656155,-0.0961862529203471,0.845244720388508,-0.793448450115646,-0.79344845011598,0.307150788798892,-0.307150788799122,1.00878014902168
194.8672,0.801614599805815,-0.281453132219811,0.683482292710341,1.9932355161809,-0.440328617063451,-0.440328617063292,2.40524777278348,1.81648266533644,2.22945205386919,-0.03193485252419,0.976773983194893,-0.031934852522577,1.31279967755257,-1.49079907634025,-0.0373604003460553,NaN,NaN,0.00156390607357012,-0.439363789609597,0.367527311003452,NaN,NaN,-1.26314010732074,NaN,1.54962743584726,-2.21889698410906,NaN,NaN,0.95238503093615,0.1796626126086,0.694368662384757,0.223146740662803,0.751292296872456,0.303505404507138,-1.18369703546114,-1.00114990232829,-1.46574397346966,0.0931011756896939,0.0931011756901483,2.88458788008579,NaN,NaN,NaN,-1.24742624404995,-0.087461529999724,0.847263702700775,-0.784729484662089,-0.784729484662395,0.31031219733168,-0.310312197331912,0.955995582805487
194.9696,0.79186099129715,-0.293430950474112,0.671083636741113,1.96864112662447,-0.415133418309271,-0.415133418309115,2.37822578865072,1.83835959891081,2.22556674772753,-0.0425020891580534,0.976932063814136,-0.0425020891564589,1.30795894804627,-1.51050541347063,-0.0688949088247668,NaN,NaN,0.00672218780365663,-0.475726377185766,0.4001536011933,NaN,NaN,-1.27452107682862,NaN,1.51965865156493,-2.22340949664652,NaN,NaN,0.910402725416767,0.190248656940091,0.695493511462775,0.201550387083076,0.742494787680534,0.274484244081601,-1.18049429524912,-1.0300388764109,-1.45285610988731,0.128087196302746,0.128087196303196,2.87877426765219,NaN,NaN,NaN,-1.23593550944957,-0.0784007247356261,0.848729522804667,-0.77509320598162,-0.775093205981901,0.312722712317659,-0.312722712317891,0.901163803193629
195.072,0.781774689731196,-0.304937777829287,0.658495191690936,1.94303804181837,-0.388733567613504,-0.388733567613353,2.35023051117034,1.86024724625707,2.2211525089651,-0.0541966903592132,0.977186275960693,-0.0541966903576391,1.30278591503439,-1.5304093100967,-0.101142441906516,NaN,NaN,0.0121665436154216,-0.513283888167024,0.43370176267849,NaN,NaN,-1.2852914046418,NaN,1.4875294060449,-2.22595047910571,NaN,NaN,0.867129845567188,0.201212487985541,0.697196844291651,0.180178133932693,0.734340605884019,0.244435692852022,-1.17615445937188,-1.05879061054827,-1.43933917306768,0.16479861413611,0.16479861413656,2.87108955972714,NaN,NaN,NaN,-1.22342379778597,-0.0690758530381027,0.849643052065769,-0.764600031516487,-0.764600031516744,0.314361242695593,-0.314361242695825,0.844382225122419
195.1744,0.771360204634761,-0.315932247827465,0.645732186408207,1.9164694453697,-0.361247717259359,-0.361247717259214,2.32138655859791,1.88213445097638,2.21627216407873,-0.0669979039898162,0.977528197642726,-0.0669979039882615,1.29729345927956,-1.55045566789281,-0.134015744416439,NaN,NaN,0.0178557940954385,-0.551963079745594,0.468121609937991,NaN,NaN,-1.29544656366053,NaN,1.45329628484359,-2.22654405258437,NaN,NaN,0.822671467103228,0.212527651852485,0.699464288573543,0.159128458048126,0.726861220990166,0.213427231763696,-1.17070914435253,-1.08736531706056,-1.4252781040865,0.2031888737065,0.203188873706958,2.86152732095692,NaN,NaN,NaN,-1.20993782877902,-0.059556219098971,0.85000367927137,-0.753310381422187,-0.753310381422416,0.315211604136739,-0.315211604136971,0.78575404317887
195.2768,0.760621664466445,-0.326375099874249,0.632808931206527,1.88898076442201,-0.332796660589614,-0.332796660589474,2.29181654256793,1.9040071362739,2.21098597647579,-0.0808802816478707,0.97794664562835,-0.0808802816463365,1.29149514206898,-1.57058830558914,-0.167425248501707,NaN,NaN,0.0237491943024982,-0.59168601781679,0.50335881450909,NaN,NaN,-1.30498390065208,NaN,1.41702185854038,-2.22521886043525,NaN,NaN,0.777137665153206,0.22416534786905,0.702279362249711,0.138496722246513,0.720084708768035,0.181532241362581,-1.16419204628064,-1.11571895413827,-1.41075588018059,0.243205023896983,0.24320502389745,2.85008655454255,NaN,NaN,NaN,-1.19552635694284,-0.049908090963147,0.849809290136014,-0.741284313953612,-0.741284313953817,0.315262817427325,-0.315262817427557,0.725387903177011
195.3792,0.749562821091371,-0.336229362481244,0.619738773527812,1.86061957734773,-0.303502799187768,-0.303502799187635,2.26164062162671,1.92584842722321,2.20535146257234,-0.0958135720966897,0.978427947173849,-0.0958135720951756,1.28540507293004,-1.59075032868368,-0.201279723248374,NaN,NaN,0.0298067654068631,-0.632370342385659,0.539354992414632,NaN,NaN,-1.31390268918777,NaN,1.37877451522608,-2.22200776058661,NaN,NaN,0.730643154015345,0.23609456733877,0.705623500221611,0.118374759997583,0.714035586820086,0.148829749967549,-1.15663873304789,-1.14380327259898,-1.3958532315528,0.284787922247333,0.284787922247813,2.8367718147214,NaN,NaN,NaN,-1.18024003370712,-0.0401944259385949,0.84905624931937,-0.728581200291085,-0.728581200291266,0.314509370651312,-0.314509370651545,0.663397547888184
195.4816,0.738187076039699,-0.345460497780787,0.606534084471039,1.83143550903282,-0.2734895813334,-0.273489581333274,2.23097609362976,1.94763879744178,2.19942324144289,-0.111762635359472,0.978956230771335,-0.111762635357979,1.27903775738203,-1.61088448169732,-0.235486930282228,NaN,NaN,0.0359896269582138,-0.673929539042209,0.576047819825768,NaN,NaN,-1.32220417573993,NaN,1.33862826666022,-2.21694751962492,NaN,NaN,0.683306907283086,0.248282234793033,0.709476086906704,0.0988504870117988,0.708734667887607,0.115404152943954,-1.14808645156875,-1.17156591200404,-1.38064839367158,0.327872448901916,0.327872448902408,2.82159327948715,NaN,NaN,NaN,-1.16413127725635,-0.0304746412762827,0.847739399461595,-0.715259440317125,-0.715259440317289,0.312951429875418,-0.31295142987565,0.599901446876043
195.584,0.726497522825434,-0.354036505668188,0.593206271209868,1.80148010555761,-0.242880926726295,-0.242880926726178,2.19993703353665,1.96935623851941,2.19325292077837,-0.128687398821256,0.979513722398077,-0.128687398819785,1.27240793592388,-1.63093347462361,-0.269954259198181,NaN,NaN,0.0422603264754624,-0.716273215677199,0.613371183617278,NaN,NaN,-1.32989160994018,NaN,1.29666253470623,-2.21007850631005,NaN,NaN,0.63525175296253,0.260693354270785,0.713814502067004,0.0800075519374131,0.704198943408472,0.0813448917070082,-1.13857394274876,-1.19895055067631,-1.3652168886722,0.372387737700346,0.372387737700851,2.80456677760499,NaN,NaN,NaN,-1.1472541398907,-0.0208044224723188,0.845852099701682,-0.701376218431659,-0.701376218431806,0.310594982251874,-0.310594982252106,0.535022420131991
195.6864,0.714496998043896,-0.361927990510492,0.579765807633967,1.77080668670709,-0.211800663271994,-0.211800663271885,2.16863397820003,1.9909764458309,2.18688901684136,-0.146542872886443,0.980081041411294,-0.146542872884995,1.26553042266586,-1.65084028024996,-0.304589326882732,NaN,NaN,0.0485831636060909,-0.759307383895129,0.65125536829044,NaN,NaN,-1.33697024936977,NaN,1.25296192569088,-2.20144438239462,NaN,NaN,0.586603933870806,0.273291171203055,0.71861419136925,0.061925039819977,0.700441514273078,0.0467460791197787,-1.12814125569006,-1.22589711491806,-1.34963132962485,0.418257428979762,0.418257428980281,2.78571376490064,NaN,NaN,NaN,-1.12966415805809,-0.0112355614637182,0.843386321831777,-0.686987289453204,-0.686987289453337,0.30745190141866,-0.307451901418891,0.46888726707292
195.7888,0.702188138147486,-0.369108195120384,0.566222279036673,1.73947017841764,-0.180371994502721,-0.180371994502621,2.13717365900993,2.01247301362401,2.18037690533378,-0.165279234701597,0.980637497021763,-0.165279234700171,1.25841995011096,-1.67054840631371,-0.339300536611415,NaN,NaN,0.0549245038734363,-0.802934748567945,0.689627275387462,NaN,NaN,-1.3434473330106,NaN,1.20761599865509,-2.19109179488704,NaN,NaN,0.537492626163265,0.286037364787524,0.72384877275761,0.0446772349568296,0.697471582168647,0.0117060630438259,-1.11682955703821,-1.25234205202275,-1.333961242166,0.465399944427294,0.465399944427833,2.76506124835264,NaN,NaN,NaN,-1.11141817346865,-0.00181582270771685,0.840332805766883,-0.672146776023262,-0.67214677602338,0.303539935936617,-0.303539935936847,0.401626407674094
195.8912,0.689573443922083,-0.375553004970623,0.552584441972858,1.70752692539823,-0.148716994195545,-0.148716994195455,2.10565878121517,2.03381763322434,2.17375879944799,-0.184841983491321,0.981161389328064,-0.18484198348992,1.2510910230538,-1.69000215114083,-0.373997603637564,NaN,NaN,0.0612530734171829,-0.847055017997272,0.728410675632591,NaN,NaN,-1.34933202161009,NaN,1.16071902373244,-2.17907008289843,NaN,NaN,0.488049412713401,0.298892278628886,0.729490185829473,0.0283334351091215,0.695294504572263,-0.0236730703746058,-1.10468093857592,-1.2782186688264,-1.31827289933262,0.513728780711259,0.51372878071181,2.74264165579396,NaN,NaN,NaN,-1.09257412559751,0.0074111578867848,0.836681262617821,-0.656906966433059,-0.656906966433161,0.298882631807409,-0.298882631807637,0.33337352675646
195.9936,0.676655357842681,-0.381240924183259,0.538860303777725,1.67503447923684,-0.116956100678839,-0.116956100678758,2.07418784681162,2.05498029370252,2.16707375306653,-0.205172166267371,0.981630317472161,-0.205172166265995,1.24355777962521,-1.70914684960832,-0.408592058627477,NaN,NaN,0.067540229635306,-0.891565251548898,0.767526503688142,NaN,NaN,-1.3546353071367,NaN,1.11236971533993,-2.16543101327675,NaN,NaN,0.438407708746926,0.311815183534546,0.73550888627018,0.0129578004396386,0.693911907730284,-0.0592860456643125,-1.09173823041225,-1.30345753513988,-1.30262916993921,0.563152816088202,0.563152816088763,2.71849264837608,NaN,NaN,NaN,-1.07319082503852,0.0164059364118057,0.832420610653788,-0.641318121076789,-0.641318121076881,0.293509200797565,-0.29350920079779,0.264265199001895
196.096,0.663436359720147,-0.386153026362849,0.525057226051041,1.64205135539809,-0.0852075787486085,-0.0852075787485366,2.04285502074894,2.07592949439905,2.16035769367598,-0.226206662969638,0.982021490860419,-0.226206662968286,1.2358338557544,-1.72792910920705,-0.442997733875119,NaN,NaN,0.0737602118808764,-0.936360254809304,0.806893207931558,NaN,NaN,-1.35936989805189,NaN,1.06267092202369,-2.15022854842199,NaN,NaN,0.388702137964866,0.324764558487998,0.741874082204677,-0.00139077507929886,0.693321849095434,-0.0950249911840206,-1.07804482798791,-1.32798695235653,-1.28708938627347,0.61357662520947,0.613576625210045,2.69265688014998,NaN,NaN,NaN,-1.05332771682606,0.0251332858771668,0.827539230110896,-0.625428304478379,-0.625428304478463,0.28745433654734,-0.28745433654756,0.194440473828587
196.1984,0.649919082298824,-0.390272884960416,0.511182052434125,1.60863675525144,-0.0535869374868676,-0.0535869374868029,2.01175004311393,2.09663248262283,2.15364349311843,-0.24787851612782,0.982312036744645,-0.247878516126495,1.22793225109056,-1.74629703122744,-0.477131228780211,NaN,NaN,0.0798903797433157,-0.98133302039222,0.846427163348504,NaN,NaN,-1.36355008817655,NaN,1.01172925996353,-2.13351863995675,NaN,NaN,0.339067856468875,0.337698379572596,0.748554006519723,-0.0146587719122617,0.69351902269039,-0.130780073396975,-1.06364453837596,-1.35173348999695,-1.27170923800347,0.664900801111156,0.664900801111744,2.66518171563356,NaN,NaN,NaN,-1.03304463779016,0.033562181730188,0.822025225909974,-0.609283250366815,-0.609283250366887,0.280757972480671,-0.280757972480887,0.124040409311075
196.3008,0.636106442938588,-0.39358648831976,0.497241255657768,1.57485025508234,-0.0222063184152957,-0.0222063184152393,1.98095818840958,2.11705552271195,2.14696107989191,-0.270117298085371,0.982479303102526,-0.270117298084073,1.21986519706971,-1.76420041392236,-0.51091234967726,NaN,NaN,0.0859114390796958,-1.02637520581841,0.886043153257084,NaN,NaN,-1.36719161065485,NaN,0.9596546850812,-2.11535904385879,NaN,NaN,0.289639818276934,0.350574415128018,0.755516219549571,-0.0267981265666445,0.694495005023902,-0.166440175672129,-1.04858144699745,-1.37462259527752,-1.25654069480223,0.717022288018728,0.717022288019327,2.63611891442051,NaN,NaN,NaN,-1.01240156797496,0.0416657465647021,0.815866695619707,-0.592926250958081,-0.592926250958141,0.273464979121479,-0.27346497912169,0.0532075546086719
196.4032,0.622001784778498,-0.396082144822334,0.483241096181216,1.54075147208964,0.00882611409063055,0.00882611409067835,1.95056027099306,2.13716419301516,2.14033759076329,-0.292849519707702,0.982501157069492,-0.292849519706429,1.21164402998213,-1.78159093924825,-0.544264522034137,NaN,NaN,0.0918076453642538,-1.07137763967819,0.925654924488357,NaN,NaN,-1.37031147002583,NaN,0.906560008119593,-2.0958091591845,NaN,NaN,0.24055198030692,0.363350530474526,0.76272793596608,-0.0377662762268634,0.69623854051011,-0.201893627031661,-1.03289980608513,-1.39657928328542,-1.2416319537158,0.769834732376731,0.769834732377342,2.60552428827673,NaN,NaN,NaN,-0.991458375681492,0.0494211537221986,0.809052008461258,-0.576398050603968,-0.576398050604019,0.265624808606323,-0.265624808606528,-0.0179146066023906
196.5056,0.607609021222573,-0.397750380364526,0.469187786005175,1.50639972366408,0.039406742543624,0.0394067425436643,1.92063269618165,2.15692370370258,2.13379755787501,-0.315999088536695,0.982356270653395,-0.315999088535448,1.20327907197791,-1.79842234564348,-0.577115174001921,NaN,NaN,0.0975669719128408,-1.11623084203706,0.965175811972101,NaN,NaN,-1.37292774481528,NaN,0.852560368018597,-2.07492989138727,NaN,NaN,0.191936462177675,0.375985001997185,0.77015636393059,-0.0475261572583446,0.698735859396764,-0.237028980135972,-1.0166439484349,-1.41752891097699,-1.22702740334861,0.82322885802644,0.823228858027061,2.57345733472833,NaN,NaN,NaN,-0.970274557678143,0.0568094901614624,0.801570105558391,-0.55973672721963,-0.559736727219671,0.257291099897584,-0.257291099897782,-0.0891822233864268
196.608,0.592932778472888,-0.398583822766028,0.455087654102095,1.47185369705417,0.0694369978370435,0.0694369978370745,1.89124755570389,2.1762992297135,2.12736312777084,-0.339487816135557,0.982024380291801,-0.339487816134336,1.19477952156008,-1.8146505842477,-0.609396085886334,NaN,NaN,0.103181239661788,-1.16082553033237,1.0045194087097,NaN,NaN,-1.37505936399321,NaN,0.797772690247991,-2.05278353047488,NaN,NaN,0.143922698006098,0.388436827205605,0.777769035967191,-0.0560461554313869,0.701971009969265,-0.271735823894922,-0.999858226264264,-1.4373980184226,-1.21276759818339,0.87709286370455,0.87709286370518,2.53998085085992,NaN,NaN,NaN,-0.948908977887922,0.0638155803694162,0.793410830236952,-0.542977564055523,-0.542977564055551,0.248521257086442,-0.248521257086632,-0.160451618469488
196.7104,0.577978531075856,-0.398577065641253,0.440947310682424,1.43717114393445,0.098823781290463,0.0988237812904866,1.8624727590442,2.19525625089326,2.12105430372352,-0.363235959879843,0.981486515522018,-0.363235959878647,1.18615335421844,-1.83023395109735,-0.641043695246439,NaN,NaN,0.108646211823271,-1.2050530787593,1.04360023942058,NaN,NaN,-1.37672587225001,NaN,0.742315160656677,-2.02943362692456,NaN,NaN,0.0966366226710702,0.400666007827725,0.785534110257839,-0.0633000160182593,0.705926181388087,-0.305905601036784,-0.982586968617885,-1.45611519662216,-1.19888924076375,0.931312833519821,0.93131283352046,2.50516053369238,NaN,NaN,NaN,-0.927419610649352,0.0704277744969988,0.784565285287891,-0.526152932512408,-0.526152932512425,0.239376011782572,-0.239376011782754,-0.231579776646475
196.8128,0.56275272544686,-0.397726517554656,0.426773803992557,1.40240860971597,0.127479809888091,0.127479809888106,1.83437218205051,2.21376088207162,2.11488919250499,-0.387162777164955,0.980725207184994,-0.387162777163782,1.17740723352116,-1.84513318945795,-0.671999349839017,NaN,NaN,0.113961650709482,-1.2488059226523,1.08233439704632,NaN,NaN,-1.37794719836331,NaN,0.686306733842511,-2.00494485587754,NaN,NaN,0.0501999169468391,0.41263379004742,0.79342063512962,-0.0692667306687597,0.710582002686714,-0.339432394879836,-0.964874448885333,-1.47361193227019,-1.1854251732064,0.9857731496226,0.985773149623246,2.46906457823223,NaN,NaN,NaN,-0.905863298614785,0.0766377072068268,0.77502619574943,-0.509292207960998,-0.509292207960999,0.229918983033823,-0.229918983033997,-0.302424783355712
196.9152,0.547262886812581,-0.396030262840428,0.412574758339385,1.367621201047,0.155323898145257,0.155323898145263,1.80700580971167,2.23178016850243,2.10888423062085,-0.411187068163178,0.979724692314538,-0.411187068162029,1.16854643493563,-1.8593115638489,-0.702209507186953,NaN,NaN,0.119131326048086,-1.29197792901927,1.12064011423297,NaN,NaN,-1.37874343205146,NaN,0.629866675568373,-1.97938287292744,NaN,NaN,0.00472931835533539,0.424302861253617,0.801398789846068,-0.0739304234712202,0.715917819975651,-0.372213652393948,-0.946764855189878,-1.48982338438776,-1.17240438170808,1.04035689775288,1.04035689775353,2.43176328683533,NaN,NaN,NaN,-0.884295536272145,0.0824400440410563,0.764788247479908,-0.492421734327703,-0.492421734327692,0.220216251677101,-0.220216251677266,-0.372846239969215
197.0176,0.531517706221245,-0.393487966955047,0.398358481461705,1.33286239133532,0.182281199423841,0.182281199423839,1.78042985310811,2.24928232480974,2.10305436809427,-0.435227679293369,0.97847112760028,-0.435227679292245,1.15957478836456,-1.87273491474082,-0.73162588368422,NaN,NaN,0.124162967370838,-1.33446476317888,1.15843825249107,NaN,NaN,-1.37913460900555,NaN,0.573114126973527,-1.95281416795411,NaN,NaN,-0.0396639993166861,0.435637513274042,0.809440123870323,-0.0772802564705663,0.721911963342984,-0.404150817234342,-0.928302256738036,-1.50468905550215,-1.15985201895933,1.09494625494125,1.0949462549419,2.39332870166401,NaN,NaN,NaN,-0.862770286966309,0.08783223997328,0.753848381814408,-0.475564850354567,-0.475564850354545,0.210335965185234,-0.21033596518539,-0.442705681741041
197.12,0.515527106349287,-0.390100840882077,0.384134036197693,1.2981838628463,0.208283429972696,0.208283429972686,1.75469682902244,2.26623690844604,2.09741319897768,-0.459203942735334,0.976952811519408,-0.459203942734235,1.15049464336914,-1.88537170337381,-0.760205559556251,NaN,NaN,0.129068165656753,-1.37616426627426,1.19565270237505,NaN,NaN,-1.3791405045025,NaN,0.516167680127009,-1.92530591783877,NaN,NaN,-0.0828749771745265,0.446603784133419,0.817517806128298,-0.0793103613509039,0.728542011175875,-0.435149861001471,-0.909530558803409,-1.5181533359116,-1.14778944951561,1.14942284871415,1.14942284871481,2.35383426594188,NaN,NaN,NaN,-0.841339835662712,0.0928143279599349,0.742206042520042,-0.458741982692172,-0.458741982692144,0.200347981359981,-0.200347981360126,-0.511867006645764
197.2224,0.499302287947732,-0.38587165174003,0.369911281597327,1.26363538070155,0.233269084426371,0.233269084426353,1.72985560374008,2.28261493577607,2.09197304349284,-0.483036043996504,0.975160402286295,-0.483036043995429,1.14130685353761,-1.89719304923423,-0.787911047817741,NaN,NaN,0.133862240022985,-1.4169768357881,1.23221070302798,NaN,NaN,-1.37878044066025,NaN,0.459144963975106,-1.8969258330613,NaN,NaN,-0.124805154268971,0.457169584590628,0.825606878115639,-0.0800197906439849,0.735785049172178,-0.465121721647056,-0.890493441685115,-1.53016592575016,-1.13623432146852,1.20366808642873,1.2036680864294,2.31335451418491,NaN,NaN,NaN,-0.820054672552407,0.097388741617026,0.729863377738278,-0.441970793472439,-0.4419707934724,0.190323548695049,-0.190323548695183,-0.580196906356148
197.3248,0.482855760948589,-0.380804756471125,0.355700893410261,1.22926469203687,0.257183630356265,0.25718363035624,1.70595141463393,2.29838895934184,2.08674499854795,-0.50664532712927,0.973087113524549,-0.506645327128218,1.13201077373082,-1.9081727563209,-0.814710331132918,NaN,NaN,0.138564084276663,-1.45680579150233,1.26804309924616,NaN,NaN,-1.37807311522115,NaN,0.402162246993438,-1.86774199219693,NaN,NaN,-0.165363080459872,0.467304809562973,0.833684498197263,-0.0794124794175627,0.743617916333819,-0.493982668705516,-0.87123428646546,-1.54068216010347,-1.1252006635155,1.25756346574718,1.25756346574786,2.27196479137013,NaN,NaN,NaN,-0.798963398162545,0.10156016731808,0.716825399206756,-0.42526635550727,-0.42526635550722,0.18033501488172,-0.180335014881844,-0.647565281203354
197.4272,0.466201363617851,-0.374906144031874,0.341514371016036,1.19511744489044,0.279979661438227,0.279979661438196,1.68302588802035,2.31353312418569,2.08173897572728,-0.529954557574553,0.970728877324508,-0.529954557573521,1.12260426536935,-1.91828732231439,-0.840576865943634,NaN,NaN,0.14319599883379,-1.49555771612941,1.30308455144403,NaN,NaN,-1.37703645744156,NaN,0.345334064023081,-1.83782266149258,NaN,NaN,-0.204464655803728,0.476981433730204,0.841730167696327,-0.0774972082265141,0.752017433349912,-0.521654611813231,-0.85179609561188,-1.54966326473728,-1.11469900170129,1.31099087886974,1.31099087887042,2.22974100030003,NaN,NaN,NaN,-0.778112641717934,0.105335416587723,0.703100106220689,-0.408641331643646,-0.408641331643585,0.17045555431448,-0.170455554314594,-0.713845619038178
197.5296,0.449354271247598,-0.368183480817788,0.327364033604287,1.16123712314785,0.301617001325446,0.301617001325407,1.66111706775089,2.328023214059,2.07696374011242,-0.552888165945187,0.968084479142906,-0.552888165944175,1.11308370527975,-1.92751592688343,-0.865489555402175,NaN,NaN,0.147783505489613,-1.53314277120171,1.33727370369852,NaN,NaN,-1.37568751145845,NaN,0.288772874318167,-1.8072361002648,NaN,NaN,-0.24203340088642,0.486173593394073,0.849725933322432,-0.0742875548489652,0.760960613962327,-0.548065362252349,-0.832221413051849,-1.5570765585932,-1.1047364880272,1.363832912606,1.36383291260669,2.1867593696734,NaN,NaN,NaN,-0.757546988193715,0.108723307842733,0.688698591079977,-0.392106153852834,-0.392106153852765,0.160758908395823,-0.160758908395925,-0.778915323126742
197.632,0.432330993714095,-0.360646159121183,0.313263005021668,1.12766499551742,0.322062765050251,0.322062765050204,1.64025945680882,2.3418366884721,2.07242695165893,-0.575372488139242,0.965155678904961,-0.575372488138248,1.10344399792822,-1.93584040150302,-0.889432694332749,NaN,NaN,0.152355138303104,-1.56947499554549,1.37055330669615,NaN,NaN,-1.3740423409949,NaN,0.232588757140451,-1.77605035609542,NaN,NaN,-0.278000673492867,0.49485766032007,0.85765656566466,-0.0698018242057001,0.770424863892279,-0.573148853299331,-0.812552242411237,-1.56289560804464,-1.09531703420821,1.41597313877819,1.41597313877889,2.14309623103235,NaN,NaN,NaN,-0.737308912524207,0.111734549101514,0.673635140606212,-0.375669211802172,-0.375669211802098,0.151319136507275,-0.151319136507367,-0.842655985831929
197.7344,0.415149358450455,-0.352305351074929,0.299225183371364,1.09444007730213,0.341291382463838,0.341291382463784,1.62048406283031,2.35495270504877,2.06813520137302,-0.597336004052547,0.961947323691354,-0.59733600405157,1.09367859624265,-1.94324518563243,-0.912395885040199,NaN,NaN,0.156942206424732,-1.60447258962169,1.40287029547609,NaN,NaN,-1.37211594678086,NaN,0.176889145498638,-1.74433305566129,NaN,NaN,-0.312305844649439,0.503012308966216,0.865509714751284,-0.0640629527212582,0.780388169971534,-0.596845326336621,-0.792829961770048,-1.56710033884448,-1.08644144775961,1.4672963953899,1.4672963953906,2.09882779797595,NaN,NaN,NaN,-0.717438720488687,0.114381619775627,0.657927330228417,-0.359337055533324,-0.359337055533243,0.142210375933056,-0.142210375933136,-0.904953621253683
197.8368,0.397828474485642,-0.343174068011246,0.285265191271907,1.06159910425874,0.359284576536081,0.359284576536021,1.60181843793154,2.36735212481673,2.06409403582248,-0.618709571368518,0.958467433806813,-0.618709571367561,1.08377953326041,-1.94971726899667,-0.934373920514623,NaN,NaN,0.161578534703955,-1.63805817740602,1.43417583531676,NaN,NaN,-1.3699221951435,NaN,0.121778588851011,-1.71215119416402,NaN,NaN,-0.34489642755855,0.510618563403008,0.873276036446155,-0.0570983886994284,0.790829272933374,-0.619101491416862,-0.773095236647828,-1.56967711744121,-1.07810757356666,1.51768906755806,1.51768906755877,2.05402995082685,NaN,NaN,NaN,-0.697974495751762,0.116678658084641,0.641596089510274,-0.343114602685482,-0.343114602685394,0.133506605632684,-0.133506605632753,-0.965698882623673
197.9392,0.380388675408293,-0.333267224237438,0.271398305014622,1.02917652156871,0.376031289519273,0.376031289519204,1.58428670678563,2.37901750206298,2.06030796747269,-0.639426646864613,0.954727237270045,-0.639426646863671,1.07373746407385,-1.95524611946149,-0.955366635129578,NaN,NaN,0.166300191865168,-1.67015903588129,1.46442535304904,NaN,NaN,-1.36747376301909,NaN,0.067358530585215,-1.67957092231186,NaN,NaN,-0.375728142001889,0.517659806711085,0.880949283259224,-0.0489399561800872,0.801727814450043,-0.639870663099084,-0.753387933500514,-1.57061880516698,-1.07031044747579,1.56703937455455,1.56703937455526,2.0087780376075,NaN,NaN,NaN,-0.678952053804487,0.118641367911895,0.624665717204238,-0.327005336543157,-0.32700533654306,0.125281409943625,-0.125281409943682,-1.02478728720902
198.0416,0.362851440932959,-0.322601708596679,0.257640361422072,0.997204494036081,0.391527565748518,0.39152756574844,1.56790957490305,2.38993305578736,2.05678046494582,-0.659423478745406,0.950741149858957,-0.659423478744482,1.06354172363351,-1.95982360510816,-0.975378725872736,NaN,NaN,0.171145208463575,-1.70070729456856,1.49357855614115,NaN,NaN,-1.36478210089904,NaN,0.0137270899652749,-1.64665733051031,NaN,NaN,-0.404764911617119,0.524121756443618,0.888526367394471,-0.0396237166683909,0.813064459171193,-0.659112860229766,-0.73374703173744,-1.56992477034951,-1.06304246686187,1.61523765889003,1.61523765889074,1.96314670243672,NaN,NaN,NaN,-0.660404905339602,0.12028695818378,0.607163837860289,-0.311011491577973,-0.311011491577865,0.117607745297639,-0.117607745297685,-1.08211945575881
198.144,0.345239296944223,-0.311196466567443,0.244007641559899,0.965712939736746,0.405776411111531,0.405776411111444,1.55270430906368,2.40008461696541,2.05351391588598,-0.678639252200804,0.946526718737639,-0.678639252199897,1.05318040849145,-1.96344392275585,-0.994419548196535,NaN,NaN,0.176153282825976,-1.72964011493781,1.52159942896896,NaN,NaN,-1.36185740946034,NaN,-0.03902115325688,-1.61347423128925,NaN,NaN,-0.431978810076859,0.529992429040229,0.896007411131108,-0.0291898412915043,0.824821000157935,-0.676794857606406,-0.714210528792846,-1.56760083863889,-1.05629358009826,1.66217666745444,1.66217666745516,1.91720974463117,NaN,NaN,NaN,-0.642364230373377,0.121634117108065,0.589121307232889,-0.29513423328822,-0.2951342332881,0.110557715745979,-0.110557715746017,-1.1376013583599
198.2464,0.327575695756831,-0.299072589354433,0.230516733885984,0.934729582638563,0.418787636612945,0.418787636612851,1.53868469281558,2.40945955511016,2.05050956577712,-0.69701618500533,0.942104544185162,-0.697016185004441,1.04264048254078,-1.96610353711846,-1.01250289167174,NaN,NaN,0.181365478063055,-1.75689985231917,1.54845620123939,NaN,NaN,-1.35870862722374,NaN,-0.0907953651025023,-1.58008393885886,NaN,NaN,-0.457349971593287,0.535262112272254,0.90339578683553,-0.0176824891020555,0.836980451813975,-0.692890188861485,-0.694815337117722,-1.56365917952249,-1.05005149315804,1.70775182201898,1.70775182201971,1.87104000445706,NaN,NaN,NaN,-0.62485885996377,0.122703012034744,0.570572082016429,-0.279373832660785,-0.279373832660657,0.104202358233377,-0.104202358233407,-1.19114454751203
198.3488,0.309884882846109,-0.286253400463438,0.217184385271518,0.904280015924578,0.430577667429866,0.430577667429766,1.5258609753059,2.41804670047917,2.04776745092112,-0.714499589105966,0.937498177450917,-0.714499589105095,1.03190790042054,-1.96780112603941,-1.02964673857233,NaN,NaN,0.18682391559669,-1.78243419038872,1.57412129580117,NaN,NaN,-1.35534343266055,NaN,-0.141508643606468,-1.54654704455726,NaN,NaN,-0.480866468375718,0.539923349345587,0.910698131503136,-0.00514966613889545,0.84952712776801,-0.707379112733147,-0.675597180856109,-1.5581181514574,-1.0443018859987,1.75186149204688,1.7518614920476,1.82470926858528,NaN,NaN,NaN,-0.607915258263418,0.123515300488201,0.551553072105196,-0.263729819750198,-0.263729819750065,0.098611432543255,-0.0986114325432752,-1.24266635223027
198.4512,0.292191760043271,-0.27276452337678,0.204027353688254,0.874387766471931,0.441169291716215,0.441169291716107,1.51423983801167,2.42583628146056,2.04528634883867,-0.731037922444467,0.932733984028625,-0.731037922443615,1.02096774340208,-1.96853752552787,-1.04587300475427,NaN,NaN,0.192571466748279,-1.8061962336063,1.59857126608213,NaN,NaN,-1.3517682683202,NaN,-0.191078175197675,-1.51292219211604,NaN,NaN,-0.502524150308932,0.543970929319404,0.917924316215973,0.00835696540881674,0.862446699340883,-0.72024855974436,-0.65659050313301,-1.5510021370746,-1.03902862804754,1.79440728743462,1.79440728743535,1.77828818419612,NaN,NaN,NaN,-0.591557498171505,0.124094135421562,0.532103992323557,-0.24820109944966,-0.248201099449522,0.0938532079899101,-0.0938532079899222,-1.29209001097327
198.5536,0.274521754561449,-0.258633912859527,0.191062276049539,0.845074353827285,0.450591346693295,0.45059134669318,1.50382439282623,2.43281988568261,2.0430637577556,-0.746582846513635,0.927840968847108,-0.746582846512802,1.00980436465054,-1.96831567275035,-1.06120726485292,NaN,NaN,0.198651438844052,-1.82814455487573,1.62178672562788,NaN,NaN,-1.34798839104607,NaN,-0.239425354870149,-1.47926586193866,NaN,NaN,-0.522326449017873,0.547401881137835,0.925087361564839,0.0227823416784482,0.875726232492875,-0.731492066720047,-0.637828389362554,-1.54234138290795,-1.03421398429186,1.83529437367835,1.83529437367909,1.7318461668265,NaN,NaN,NaN,-0.575807231393997,0.12446414585146,0.512267221425126,-0.232786031500294,-0.232786031500154,0.0899942404866846,-0.0899942404866894,-1.33934473923312
198.656,0.256900696897355,-0.243891842768857,0.178305555973849,0.816359344586356,0.458878367926233,0.458878367926111,1.49461420218342,2.43899043532258,2.04109589529328,-0.76108928565118,0.922850572438908,-0.761089285650363,0.998401542221627,-1.96714055268574,-1.07567847126546,NaN,NaN,0.205107251609692,-1.8482432134983,1.64375226261779,NaN,NaN,-1.34400794271631,NaN,-0.286475869838472,-1.44563217442836,NaN,NaN,-0.540284160671802,0.550215472682881,0.932203307292764,0.0380683030953832,0.889354205430422,-0.741109690108104,-0.619342503779395,-1.53217183035611,-1.02983880881931,1.87443179279945,1.87443179280019,1.68545129162563,NaN,NaN,NaN,-0.560683662880601,0.124651380224727,0.49208766061889,-0.217482496088126,-0.217482496087985,0.0870991379369497,-0.087099137936948,-1.38436575149218
198.7584,0.239354701782768,-0.22857085187396,0.165773265561868,0.788260409485793,0.466070231845621,0.466070231845492,1.48660529707795,2.44434215748001,2.03937769353393,-0.774515469760407,0.917796447774729,-0.774515469759605,0.986742641673974,-1.96501915886275,-1.08931867738214,NaN,NaN,0.211982106940392,-1.86646175982751,1.66445633289692,NaN,NaN,-1.33983003052167,NaN,-0.33215975780716,-1.41207271885268,NaN,NaN,-0.556415219548638,0.552413210306478,0.939291056366432,0.0541539191556468,0.903320510876467,-0.749107883637922,-0.601163032149525,-1.52053491368677,-1.02588272858554,1.9117327686491,1.91173276864985,1.63917016973693,NaN,NaN,NaN,-0.546203539843197,0.124683216479529,0.471612574915365,-0.202287965730024,-0.202287965729873,0.0852303149745075,-0.0852303149745005,-1.4270942709301
198.8608,0.221910042650699,-0.212705651411783,0.153481051182395,0.760793393143449,0.472211801986378,0.472211801986243,1.47979017320228,2.44887053561446,2.03790277259641,-0.786822942780875,0.912714218523016,-0.786822942780087,0.974810793994961,-1.96196047700286,-1.10216276818455,NaN,NaN,0.219318661554183,-1.88277523186954,1.68389113549986,NaN,NaN,-1.33545680671724,NaN,-0.376411458883579,-1.37863640892563,NaN,NaN,-0.570744460019191,0.553998828027878,0.946372214615279,0.070975793940413,0.917616445406936,-0.755499331107772,-0.583318625971593,-1.50747730945203,-1.0223243236167,1.9471149859842,1.94711498598495,1.59306782282939,NaN,NaN,NaN,-0.532381157806677,0.12458825721925,0.450891404252792,-0.187199586524787,-0.187199586524629,0.08444773992784,-0.0844477399278287,-1.46747755193651
198.9632,0.204593014697375,-0.196333003854998,0.141444036103622,0.733972404959579,0.477352570761296,0.477352570761157,1.47415775992672,2.45257223845476,2.03666338802961,-0.797976529750985,0.907641216906463,-0.79797652975021,0.962589095744944,-1.95797549642259,-1.11424819465357,NaN,NaN,0.227158706433251,-1.89716414556658,1.70205247915547,NaN,NaN,-1.33088953895187,NaN,-0.419169874124418,-1.34536936214715,NaN,NaN,-0.583303359716153,0.554978261457886,0.953470939210388,0.0884683296463667,0.932234687907845,-0.760302728829509,-0.565836348592569,-1.49305063166442,-1.01914130772294,1.98050084682027,1.98050084682103,1.54720757219168,NaN,NaN,NaN,-0.519228381672882,0.124396229873615,0.429975540105935,-0.172214259438504,-0.172214259438337,0.0848086793099921,-0.0848086793099775,-1.50546892070479
199.0656,0.18742978821253,-0.179491585916252,0.129676718099387,0.707809931950793,0.481546285593414,0.481546285593269,1.46969336996311,2.45544503137808,2.03565035882863,-0.80794426805617,0.902616202794063,-0.807944268055407,0.950060833822933,-1.95307724807111,-1.12561470721365,NaN,NaN,0.235542848465309,-1.90961448200242,1.71893964347383,NaN,NaN,-1.32612866506687,NaN,-0.460378430723105,-1.31231479712932,NaN,NaN,-0.594129761198271,0.555359608473374,0.960613797009414,0.106563951001997,0.94716926942196,-0.763542518557144,-0.548741625459116,-1.47731107617657,-1.01631070941566,2.01181771465083,2.0118177146516,1.50165095010585,NaN,NaN,NaN,-0.506754679929124,0.124137903351129,0.408918072663942,-0.157328716187076,-0.1573287161869,0.0863674462157942,-0.0863674462157774,-1.54102782695249
199.168,0.170446255761477,-0.162221840596032,0.118192864145117,0.682316965876685,0.484850552830564,0.484850552830415,1.46637864580333,2.45748768205387,2.03485299081051,-0.816697319457454,0.897679067244782,-0.816697319456703,0.937209726613104,-1.94728085751147,-1.13630408504598,NaN,NaN,0.244510191498624,-1.9201176709236,1.7345552372203,NaN,NaN,-1.32117383237129,NaN,-0.49998514607565,-1.27951294197242,NaN,NaN,-0.603267571067072,0.555153077817555,0.967829623972454,0.125193308535243,0.96241553435173,-0.76524858567627,-0.53205819920279,-1.46031903161327,-1.01380905088452,2.04099815651544,2.04099815651622,1.45645762650215,NaN,NaN,NaN,-0.494967167494123,0.123845022314301,0.387773524814935,-0.14253959087692,-0.142539590876733,0.0891751564006283,-0.089175156400611,-1.57411989307417
199.2704,0.153667875554092,-0.144565812361746,0.107005405978822,0.657503135429516,0.487326414822655,0.487326414822502,1.4641915229408,2.45869987556918,2.03425901394792,-0.824209884283123,0.892870526048784,-0.824209884282383,0.924020165890234,-1.94060359401376,-1.14635985945425,NaN,NaN,0.254098021538738,-1.92867056477025,1.74890506033107,NaN,NaN,-1.31602392757953,NaN,-0.537942682698699,-1.2470009494915,NaN,NaN,-0.610766436825318,0.554370927784237,0.975149375916515,0.144285476621055,0.977970091179457,-0.765455946943386,-0.515808089418668,-1.4421386839121,-1.01161252245291,2.06798018938385,2.06798018938463,1.41168533770675,NaN,NaN,NaN,-0.483870647314045,0.123550252287548,0.366597596893401,-0.127843485922178,-0.127843485921982,0.0932794904325871,-0.0932794904325708,-1.60471693749074
199.3728,0.137119515200041,-0.126566956497586,0.0961263428734392,0.63337683557291,0.489037892996407,0.48903789299625,1.46310623193782,2.45908215402531,2.03385455327455,-0.830459137158389,0.888231808966066,-0.830459137157659,0.910477447312013,-1.93306490141231,-1.15582703027633,NaN,NaN,0.264341504895388,-1.93527539422149,1.76199797752555,NaN,NaN,-1.31067710925015,NaN,-0.574208388110894,-1.21481281991613,NaN,NaN,-0.616681404545512,0.553027402198766,0.982605963614862,0.163768155184167,0.993830750210622,-0.764204447507357,-0.50001155904269,-1.4228376387417,-1.00969714812314,2.09270753550251,2.09270753550331,1.3673898098098,NaN,NaN,NaN,-0.47346763992175,0.123287123919609,0.345446940779087,-0.113237024550811,-0.113237024550612,0.0987244558686274,-0.0987244558686127,-1.63279694570566
199.4752,0.120825304503185,-0.108269918974422,0.0855666607711405,0.609945347237379,0.490051489172617,0.490051489172456,1.46309335697509,2.45863589063111,2.0336241480609,-0.835425197574089,0.883804343645283,-0.835425197573366,0.896567984397955,-1.92468640681843,-1.16475177756316,NaN,NaN,0.275273404841483,-1.93993969888022,1.77384580592286,NaN,NaN,-1.30513085389668,NaN,-0.608744312403068,-1.18297933399721,NaN,NaN,-0.62107256206183,0.551138672032244,0.990234064455672,0.183567883627703,1.0099964449665,-0.761538471187939,-0.484687092116693,-1.4024865716775,-1.00803893525893,2.11512989015053,2.11512989015133,1.3236246749692,NaN,NaN,NaN,-0.463758398125156,0.123089961556114,0.32437896406371,-0.0987168843071394,-0.0987168843069317,0.105550143339175,-0.105550143339165,-1.65834397669531
199.5776,0.104808504104229,-0.0897202923255921,0.0753362727648981,0.58721494531841,0.490435649671174,0.490435649671009,1.46411994938162,2.4573632949462,2.03355081676112,-0.839091137941581,0.879629432006049,-0.839091137940865,0.88227950314804,-1.91549191063242,-1.17318117683445,NaN,NaN,0.286923812674375,-1.94267624040616,1.78446321006327,NaN,NaN,-1.29938201370881,NaN,-0.641517194889586,-1.15152799943368,NaN,NaN,-0.624004676797193,0.548722786689223,0.998069905204883,0.203610276519701,1.02646713647078,-0.757506650673471,-0.469851385376166,-1.38115889394922,-1.00661400223567,2.13520319744496,2.13520319744576,1.28044137783005,NaN,NaN,NaN,-0.454740916032966,0.122993782389075,0.303451650277088,-0.0842798218470023,-0.0842798218467892,0.11379247469685,-0.113792474696843,-1.68134801766864
199.68,0.0890913877471329,-0.0709643574968475,0.0654439761815014,0.565190998213844,0.490260214437266,0.4902602144371,1.46614967315275,2.45526743255051,2.0336161467397,-0.841443020712053,0.875747926573418,-0.841443020711343,0.86760121245975,-1.90550736127781,-1.18116292898347,NaN,NaN,0.299319883778076,-1.94350291681086,1.79386759323297,NaN,NaN,-1.29342687143503,NaN,-0.672498419487152,-1.12048301279136,NaN,NaN,-0.625546838600044,0.545799630864468,1.00615101899274,0.223820282563263,1.04324370404403,-0.752161560716321,-0.455519347895495,-1.35893040826722,-1.00539868474077,2.15288991743695,2.15288991743775,1.2378890679662,NaN,NaN,NaN,-0.446410946175395,0.12303416315725,0.282723381367081,-0.0699227149519152,-0.0699227149516984,0.123482948431523,-0.12348294843152,-1.70180481889512
199.7824,0.0736951303521378,-0.0520488226574948,0.0558974159613048,0.543878062369669,0.489595872093183,0.489595872093016,1.46914295789193,2.45235224373705,2.03380038758471,-0.842469954509028,0.872199921334635,-0.842469954508326,0.852523942975897,-1.89476081138172,-1.1887451110184,NaN,NaN,0.312485574998837,-1.94244269218154,1.80207897867788,NaN,NaN,-1.2872611830954,NaN,-0.701663951042261,-1.08986523618072,NaN,NaN,-0.625772106868845,0.542390875155938,1.01451598496515,0.244122455545932,1.06032782534614,-0.745559392360446,-0.441704098457207,-1.33587894081673,-1.00436962927781,2.1681592663172,2.16815926631801,1.19601448014919,NaN,NaN,NaN,-0.438762031184629,0.123247087566219,0.262252754657772,-0.0556426395502266,-0.0556426395500021,0.134648394842585,-0.134648394842587,-1.71971573955111
199.8848,0.0586396964625971,-0.0330205725083677,0.0467030456092714,0.523279973821295,0.488513620840905,0.488513620840739,1.47305714956948,2.44862255747195,2.034082540854,-0.842164164556438,0.869024468523904,-0.842164164555742,0.837040250128694,-1.88328234855611,-1.19597594496046,NaN,NaN,0.326441386778228,-1.93952354493251,1.8091198823222,NaN,NaN,-1.28088021450474,NaN,-0.728994266523481,-1.05969218482869,NaN,NaN,-0.624757150299457,0.538519910305192,1.02320415771493,0.264441220320456,1.07772184459265,-0.737759621063854,-0.428416955387173,-1.31208395787457,-1.00350388349,2.18098742569688,2.1809874256977,1.15486181349998,NaN,NaN,NaN,-0.43178554685824,0.123668794276308,0.242098386764813,-0.0414369710150422,-0.0414369710148181,0.147310754460876,-0.147310754460884,-1.73508761846132
199.9872,0.0439437289425585,-0.0139264354177048,0.037866083657858,0.503399938363065,0.487084222250106,0.487084222249941,1.47784666214591,2.44408410382177,2.03444044952908,-0.840521073643026,0.866259321272071,-0.840521073642338,0.821144486748616,-1.87110400044102,-1.20290357696455,NaN,NaN,0.34120411580414,-1.9347784284795,1.81501518265349,NaN,NaN,-1.27427878588886,NaN,-0.754474285538688,-1.02997802353599,NaN,NaN,-0.622581870212749,0.534211765297138,1.03225538815325,0.284701124947049,1.0954286264528,-0.728824678642493,-0.415667422460635,-1.28762618225579,-1.00277898707946,2.19135772958092,2.19135772958174,1.11447262280767,NaN,NaN,NaN,-0.425470750446236,0.124335635159583,0.222318698642656,-0.0273034802470325,-0.0273034802468056,0.161486884495308,-0.161486884495323,-1.74793266304268
200.0896,0.0296244416375092,0.0051870404692076,0.0293904714993275,0.48424062058687,0.48537764090607,0.485377640905907,1.48346313816678,2.43874352844015,2.0348508934244,-0.837539388704288,0.86394069051505,-0.837539388703607,0.804832854314538,-1.85825961881911,-1.20957586001168,NaN,NaN,0.356786624168285,-1.92824523147167,1.81979199240306,NaN,NaN,-1.26745133537068,NaN,-0.778093295612073,-1.00073357599377,NaN,NaN,-0.619329006762691,0.529493017539556,1.04170972975639,0.304827086476202,1.1134513933669,-0.718819627038184,-0.403463179626319,-1.26258721726329,-1.00217306060222,2.19926083594806,2.19926083594889,1.07488572660036,NaN,NaN,NaN,-0.419804830476029,0.125283936443271,0.202971688241452,-0.0132404015754793,-0.01324040157525,0.17718838785233,-0.177188387852353,-1.7582683353968
200.192,0.0156975208051038,0.0242738171141193,0.0212788411004215,0.465804229883822,0.483462468656002,0.483462468655843,1.48985562773529,2.43260841273158,2.03528969752656,-0.833221194408207,0.862103003988255,-0.833221194407532,0.78810343486841,-1.84478474164261,-1.21604013588723,NaN,NaN,0.3731976284933,-1.91996672301232,1.82347953411099,NaN,NaN,-1.26039200168504,NaN,-0.79984486445955,-0.971966355089556,NaN,NaN,-0.615083730669622,0.524391703081566,1.05160712103354,0.324744647846127,1.13179354568994,-0.707811830306992,-0.391810088658498,-1.23704918555818,-1.0016648859355,2.20469488301053,2.20469488301137,1.0361371241954,NaN,NaN,NaN,-0.414772958094496,0.126549844814678,0.184114710493734,0.000753533116239772,0.00075353311647058,0.194421455978108,-0.19442145597814,-1.76611720945122
200.2944,0.00217703944808906,0.0432886119395758,0.0135324990188053,0.448092600377915,0.481405329329764,0.481405329329609,1.49697079338408,2.42568730481321,2.03573185995488,-0.827572065074111,0.860778660758035,-0.827572065073443,0.770956200324716,-1.83071642673436,-1.22234301317847,NaN,NaN,0.390441509297958,-1.90999047024368,1.82610902358625,NaN,NaN,-1.25309471812174,NaN,-0.819726732018092,-0.943680621347791,NaN,NaN,-0.609933222011539,0.518937226852456,1.06198703961349,0.34438025880227,1.15045846624323,-0.695870630496187,-0.380712223295267,-1.21109440013199,-1.00123397173045,2.20766562939194,2.20766562939279,0.998259907755041,NaN,NaN,NaN,-0.410358342807489,0.128169140108685,0.165804281163407,0.0146790884543624,0.0146790884545961,0.213186717154387,-0.213186717154425,-1.77150678097806
200.3968,-0.0109246123614409,0.0621871653408589,0.00615143141546324,0.43110726334643,0.479270264315645,0.479270264315494,1.50475314084225,2.41798976486569,2.03615170133848,-0.820601205680355,0.859997776947793,-0.820601205679694,0.75339299844942,-1.81609305785027,-1.22853014316967,NaN,NaN,0.408518141084897,-1.89836872162602,1.8277135691987,NaN,NaN,-1.24555331084731,NaN,-0.837740676781954,-0.915877472142294,NaN,NaN,-0.603966238915462,0.513160263560479,1.07288812974742,0.363661579129255,1.1694493101755,-0.683067035155206,-0.370171928500888,-1.18480508131471,-1.00086059988769,2.2081865770101,2.20818657701096,0.961284160315089,NaN,NaN,NaN,-0.406542297860196,0.13017700297401,0.148095900147186,0.0285365371284457,0.0285365371286815,0.233479084143232,-0.233479084143279,-1.77446923434166
200.4992,-0.0235967797190913,0.0809265291674688,-0.000865668883251335,0.414849514294411,0.477118116988231,0.477118116988084,1.51314526338317,2.4095264178582,2.03652302533914,-0.812321614013966,0.859787924295764,-0.812321614013313,0.7354175192935,-1.80095413513297,-1.23464600345823,NaN,NaN,0.427422742867531,-1.88515826308128,1.82832808648271,NaN,NaN,-1.2377616011679,NaN,-0.853892355422553,-0.888554961016873,NaN,NaN,-0.597272685447636,0.507092643483508,1.08434781259413,0.382517788339619,1.18876878166333,-0.669473409234488,-0.360189904416817,-1.15826310667365,-1.00052585366656,2.20627906896853,2.2062790689694,0.925236845553357,NaN,NaN,NaN,-0.403304322496721,0.132607739580956,0.131043871648882,0.0423256754564655,0.0423256754566994,0.255287605791138,-0.255287605791197,-1.7750411912585
200.6016,-0.0358305790411638,0.0994653571294059,-0.00752135960281791,0.399320476607008,0.47500594734596,0.475005947345817,1.52208807930406,2.40030899323434,2.03681926887815,-0.802750234546366,0.860173876041249,-0.802750234545717,0.717035249435089,-1.78534006640805,-1.24073369968051,NaN,NaN,0.447145744289865,-1.87042026520247,1.8279892085906,NaN,NaN,-1.22971351268651,NaN,-0.868191122089135,-0.86170824757905,NaN,NaN,-0.589943192201156,0.500767234106614,1.09640189647793,0.400879884695819,1.20841890572114,-0.655163148119269,-0.350765305138795,-1.13154975657333,-1.00021163114121,2.2019723500384,2.20197235003928,0.890141706930826,NaN,NaN,NaN,-0.400622207411742,0.135494481451867,0.114701102655906,0.0560458321492897,0.0560458321495215,0.278595340208811,-0.278595340208883,-1.77326346855811
200.704,-0.0476189232804337,0.117764173831404,-0.0138194015591663,0.384521158321884,0.472986504309453,0.472986504309314,1.53152104604054,2.39035033107289,2.03701362275887,-0.791908077856814,0.861177379222523,-0.791908077856171,0.698253422395018,-1.76929196959987,-1.2468347865631,NaN,NaN,0.467672660848965,-1.85422013355969,1.82673516922883,NaN,NaN,-1.2214031793951,NaN,-0.880649838302135,-0.835329781177534,NaN,NaN,-0.582068716918395,0.494217834369184,1.10908420291001,0.418680970023984,1.22840080827633,-0.640210314700767,-0.341895845140965,-1.10474542810427,-0.999900648799174,2.19530358156331,2.19530358156419,0.856019187492227,NaN,NaN,NaN,-0.398472164127824,0.138868884369322,0.0991188816255395,0.0696958659522809,0.0696958659525108,0.303379265022592,-0.30337926502268,-1.76918085681537
200.8064,-0.0589565435504918,0.135785616548787,-0.0197647150257615,0.370452494938411,0.471107769405413,0.471107769405279,1.54138234626717,2.37966434857569,2.03707911705604,-0.779820302066646,0.862816963081942,-0.779820302066009,0.679080969916021,-1.75285148568719,-1.25298910101119,NaN,NaN,0.488983978130662,-1.83662735973132,1.82460565016726,NaN,NaN,-1.2128250473598,NaN,-0.89128468210454,-0.809409520339664,NaN,NaN,-0.573740160806565,0.487479085826558,1.12242621532751,0.435856527527106,1.24871451430202,-0.6246892468193,-0.333577910828035,-1.0779293216244,-0.999576440054148,2.18631780906618,2.18631780906707,0.82288636554011,NaN,NaN,NaN,-0.396828972027159,0.142760842970888,0.08434665508721,0.0832741504873853,0.0832741504876084,0.32961022633037,-0.329610226330476,-1.76284191753331
200.9088,-0.0698400104272968,0.15349465975932,-0.0253633403659644,0.357115371690685,0.469412573263731,0.469412573263602,1.55160905354821,2.36826597589716,2.03698867993582,-0.766516264091516,0.865107782737026,-0.766516264090883,0.65952847373492,-1.73606059748733,-1.25923460183208,NaN,NaN,0.511055055724433,-1.81771536454285,1.82164159700944,NaN,NaN,-1.20397396696005,NaN,-0.900114959606879,-0.783935184516697,NaN,NaN,-0.565047991258756,0.480586396581347,1.13645675290349,0.452344694242621,1.26935876695862,-0.608674154814629,-0.325806675879172,-1.05117912051191,-0.999223351378486,2.17506788213761,2.17506788213851,0.790756898107174,NaN,NaN,NaN,-0.39566613345471,0.147198225273639,0.0704318208692279,0.0967785442064041,0.0967785442066164,0.357252920254592,-0.357252920254717,-1.75429878861231
201.0112,-0.0802677489794823,0.170858834727624,-0.0306223940460448,0.344510620321023,0.467938273983512,0.467938273983386,1.56213729683389,2.35617108058293,2.03671519014136,-0.752029549571939,0.868061491365734,-0.752029549571312,0.639608114788697,-1.71896145246223,-1.26560721810165,NaN,NaN,0.533856067049459,-1.79756132360731,1.81788501110884,NaN,NaN,-1.19484528200712,NaN,-0.907162916447809,-0.758892530440259,NaN,NaN,-0.556081863720972,0.473575875825969,1.15120166778389,0.468086520949903,1.2903308629255,-0.59223872504392,-0.318576220882956,-1.024570682467,-0.998826534917043,2.16161432791431,2.16161432791522,0.759640971912739,NaN,NaN,NaN,-0.394956029178437,0.15220661832681,0.0574195497166302,0.11020634756118,0.110206347561383,0.386265900158483,-0.386265900158628,-1.74360698014117
201.1136,-0.0902400374816422,0.187848450705919,-0.035550008788878,0.332638990419901,0.466716473946402,0.466716473946283,1.57290244887949,2.34339640222518,2.03623154772396,-0.736397998962741,0.87168613221409,-0.736397998962117,0.619333616347174,-1.70159618716307,-1.27214070808435,NaN,NaN,0.55735198273019,-1.77624596399743,1.81337873287454,NaN,NaN,-1.18543492520253,NaN,-0.912453541582039,-0.734265646290973,NaN,NaN,-0.546930239015811,0.466484276616728,1.16668355541692,0.483026218185412,1.31162649364337,-0.575455738827379,-0.311879663013987,-0.998177759478143,-0.998371933100792,2.14602518550537,2.1460251855063,0.729545260994677,NaN,NaN,NaN,-0.394670071274985,0.157809066932275,0.0453526410173334,0.123554254028767,0.123554254028962,0.416601602149818,-0.416601602149985,-1.73082513817548
201.216,-0.0997589868308387,0.204436814446278,-0.0401552559263425,0.321501104642218,0.465772754082151,0.465772754082037,1.58383935237721,2.32995950654429,2.03551077519899,-0.719663752122657,0.875986048571844,-0.719663752122037,0.598720177305163,-1.68400674616408,-1.27886652499076,NaN,NaN,0.58150258833206,-1.75385332767089,1.80816623390191,NaN,NaN,-1.17573952059082,NaN,-0.916014354640302,-0.710037261171182,NaN,NaN,-0.537680002040916,0.459348941994601,1.18292146550307,0.497111400070308,1.33323958613939,-0.558396711762099,-0.305709302683762,-0.972071759843989,-0.997846249658741,2.12837580917598,2.12837580917691,0.700472882813264,NaN,NaN,NaN,-0.394778855865263,0.164025790626026,0.0342714137899948,0.136818294465519,0.136818294465704,0.448206384683362,-0.448206384683553,-1.71601476475356
201.3184,-0.108828507299735,0.220600439096367,-0.0444480585899627,0.311097410872927,0.465126425825598,0.46512642582549,1.59488257494802,2.3158787494975,2.03452613956281,-0.701873320132814,0.880961816943397,-0.701873320132198,0.577784389639951,-1.66623468796129,-1.28581368850074,NaN,NaN,0.606262523722149,-1.73047050450804,1.80229142822521,NaN,NaN,-1.16575648639547,NaN,-0.917875174698043,-0.686189069935793,NaN,NaN,-0.528416098282662,0.452207748181438,1.19993060947255,0.510293335789365,1.35516214409379,-0.541131553080237,-0.300056786784788,-0.946321551456195,-0.997236904277955,2.10874863871404,2.10874863871499,0.672423349064946,NaN,NaN,NaN,-0.395252321697275,0.17087387790893,0.0242136284523023,0.149993764540274,0.149993764540454,0.48102058328272,-0.481020583282934,-1.69923990352694
201.4208,-0.117454271218177,0.236319238346943,-0.0484391049601529,0.301428138509566,0.464790316388749,0.464790316388647,1.60596666980462,2.30117323451995,2.03325127398584,-0.683077671785626,0.886610200113834,-0.683077671785013,0.556544134134019,-1.64832097615855,-1.29300866819585,NaN,NaN,0.631581345538245,-1.70618733020056,1.79579850859672,NaN,NaN,-1.15548413608383,NaN,-0.91806787748471,-0.662702073481684,NaN,NaN,-0.519221198243554,0.44509903694573,1.21772206766619,0.522527202409383,1.37738408923989,-0.523728242121995,-0.294913282150476,-0.920993295834588,-0.996531974183923,2.08723292940545,2.0872329294064,0.645392523543368,NaN,NaN,NaN,-0.396059920367177,0.178366966694941,0.015214429321829,0.16307513352574,0.163075133525914,0.514978581762837,-0.514978581763078,-1.68056680938806
201.5232,-0.125643675927792,0.251576705721079,-0.0521397657118393,0.29249325842457,0.464770597811187,0.464770597811092,1.617026420439,2.28586275026779,2.0316602809779,-0.663332308946004,0.892924103299186,-0.663332308945394,0.535018455508444,-1.63030576064448,-1.30047528320961,NaN,NaN,0.657403624611469,-1.68109603517515,1.78873181047104,NaN,NaN,-1.14492177943332,NaN,-0.916626150698034,-0.639556935389872,NaN,NaN,-0.510175382020942,0.438061531633966,1.23630250174087,0.533772325349244,1.39989310201943,-0.506252517695389,-0.290269656206239,-0.896150304750077,-0.995720129238701,2.06392443910711,2.06392443910808,0.619372608274285,NaN,NaN,NaN,-0.397170801548311,0.186514920993313,0.00730629510668412,0.176055950907591,0.176055950907756,0.550008902020851,-0.550008902021117,-1.66006361274531
201.6256,-0.133405807176269,0.26636007388415,-0.055562017171414,0.284292440970146,0.465066664268711,0.465066664268624,1.62799705891433,2.26996768376629,2.02972780875474,-0.642697306606743,0.899892522240169,-0.642697306606137,0.513227423431088,-1.61222815501745,-1.3082346169186,NaN,NaN,0.683669086074202,-1.65529084058336,1.78113569660434,NaN,NaN,-1.13406982194969,NaN,-0.913585254067352,-0.616734354793249,NaN,NaN,-0.501355831285363,0.43113423852528,1.25567388050815,0.54399239973546,1.42267446608558,-0.488767573388616,-0.286116665463921,-0.871852912404471,-0.994790565492056,2.03892507484295,2.03892507484392,0.5943521740619,NaN,NaN,NaN,-0.398554014082252,0.195323515689291,0.000518986800449656,0.188928768550768,0.188928768550924,0.586034322169774,-0.586034322170065,-1.63779998374092
201.728,-0.140751401616262,0.280660443620633,-0.0587183716667658,0.276825003106516,0.465671068535539,0.465671068535457,1.63881446101113,2.25350891229725,2.02742910425837,-0.621237308305166,0.907500495394728,-0.621237308304563,0.491191982968629,-1.59412601382381,-1.31630494616227,NaN,NaN,0.710312792875504,-1.62886751541701,1.77305444868533,NaN,NaN,-1.12292986059705,NaN,-0.90898178910903,-0.594215447486832,NaN,NaN,-0.492836527181805,0.424356339942663,1.27583323021632,0.553155691180641,1.44571092628582,-0.471333755814522,-0.282445147399154,-0.848158354728875,-0.993732940476677,2.01234249837508,2.01234249837607,0.570316239215613,NaN,NaN,NaN,-0.400178719129484,0.204794147797669,-0.00512050994493152,0.201685082155155,0.201685082155301,0.622972038817866,-0.622972038818185,-1.61384680279306
201.8304,-0.147692806890456,0.29447287392341,-0.0616218159017407,0.270089837780469,0.466569530852961,0.466569530852886,1.64941533102658,2.23650768497599,2.02474005533752,-0.599021482996955,0.915729087322029,-0.599021482996355,0.468933795190821,-1.57603571099482,-1.32470168574253,NaN,NaN,0.737265372238995,-1.60192291403125,1.76453215755907,NaN,NaN,-1.1115047784117,NaN,-0.902853483380531,-0.571982117488126,NaN,NaN,-0.484687963274432,0.417767084766558,1.29677242020361,0.561235212142507,1.46898256859395,-0.454008276965886,-0.2792462049247,-0.825120656103753,-0.992537313624379,1.98428968742799,1.98428968742899,0.547246386259975,NaN,NaN,NaN,-0.402014404162428,0.214923594866993,-0.00958804353319629,0.214315289428701,0.214315289428838,0.660733883481656,-0.660733883482002,-1.58827584080353
201.9328,-0.15424393735984,0.307796428741644,-0.0642857566980793,0.26408532770125,0.467741022116577,0.467741022116509,1.6597373878173,2.2189855057273,2.02163723431082,-0.576123452797401,0.924555423765564,-0.576123452796805,0.446475068576722,-1.55799192031151,-1.33343734833589,NaN,NaN,0.764453285060245,-1.57455450833318,1.75561261169084,NaN,NaN,-1.09979884058839,NaN,-0.895238991799751,-0.550017399449649,NaN,NaN,-0.476976884800587,0.411405677564721,1.31847799369161,0.5682088655945,1.49246672735828,-0.436844960150588,-0.276511373850037,-0.802790534426965,-0.991194093447418,1.95488445258676,1.95488445258777,0.5251208987679,NaN,NaN,NaN,-0.404031083718552,0.22570383356442,-0.0128623529916035,0.226808665227198,0.226808665227323,0.699226591052461,-0.699226591052836,-1.56115945040014
202.0352,-0.160420223412036,0.320634173838589,-0.0667239738894846,0.25880925371324,0.469157913202677,0.469157913202615,1.66971955192303,2.20096402095562,2.01809794447259,-0.552621192281812,0.933952785192068,-0.552621192281218,0.423838378932463,-1.5400273989999,-1.34252152440713,NaN,NaN,0.791799134347009,-1.54685992565462,1.74633918528836,NaN,NaN,-1.08781778808011,NaN,-0.886177714753001,-0.52830575925929,NaN,NaN,-0.469766062854673,0.405311162831775,1.34093105349391,0.574059544073408,1.51613792356615,-0.419894026912592,-0.274232767907746,-0.781215326687393,-0.989693990103847,1.92424891391892,1.92424891391994,0.503914907467069,NaN,NaN,NaN,-0.406199481379954,0.237121920070712,-0.0149251270183197,0.239153349240192,0.239153349240308,0.738352112385827,-0.738352112386231,-1.53257027656036
202.1376,-0.166238551935138,0.332993108377171,-0.0689505821614202,0.254258704601514,0.470786185835245,0.470786185835191,1.67930212237738,2.18246490548934,2.01410026007362,-0.528596888544461,0.943890758663087,-0.528596888543872,0.401046472189444,-1.52217277706435,-1.35196089327739,NaN,NaN,0.819222004192824,-1.51893649925937,1.73675472384256,NaN,NaN,-1.07556892045636,NaN,-0.875709632837428,-0.506833347736877,NaN,NaN,-0.463114106363523,0.399522299880866,1.36410721072939,0.57877517295645,1.5399678366077,-0.403201913972303,-0.272403196922821,-0.760438917743764,-0.988027972218162,1.89250894086765,1.89250894086868,0.48360054913488,NaN,NaN,NaN,-0.408491200374807,0.249159930469283,-0.0157610744655778,0.251336331713716,0.251336331713819,0.778007966275196,-0.778007966275629,-1.50258099998494
202.24,-0.171717195081616,0.344884010056512,-0.0709800047303004,0.250429984185615,0.472585710396956,0.472585710396913,1.68842693090699,2.16350973769483,2.00962304846905,-0.504136746950308,0.954335446739505,-0.504136746949723,0.378122045609918,-1.50445635499723,-1.3617592749177,NaN,NaN,0.846637823045251,-1.49088083026575,1.72690142155424,NaN,NaN,-1.0630611624527,NaN,-0.863875160103991,-0.485588205359795,NaN,NaN,-0.457075308016317,0.394077426662398,1.38797659957953,0.582348696185059,1.56392531156897,-0.386811108811867,-0.271016252982826,-0.740501653737274,-0.98618723090402,1.85979355679584,1.85979355679687,0.464147144924559,NaN,NaN,NaN,-0.410878892931862,0.261794967704587,-0.0153580087567168,0.263343421376949,0.263343421377039,0.818087632453891,-0.818087632454354,-1.47126412008932
202.3424,-0.176875727336082,0.356321177257602,-0.0728269632595623,0.247318507589382,0.474510598304764,0.474510598304728,1.69703746754133,2.14411985754972,2.00464596804367,-0.479330732457998,0.965249734612767,-0.479330732457415,0.35508750563908,-1.4869039084877,-1.37191772320015,NaN,NaN,0.87395975150997,-1.46278835573657,1.71682068611844,NaN,NaN,-1.05030511198359,NaN,-0.85071501893205,-0.464560416087122,NaN,NaN,-0.451699518274702,0.389014312982794,1.41250395783911,0.584778013581887,1.58797640599116,-0.370760008534349,-0.270066359618383,-0.721440239670137,-0.984163157932819,1.82623430983021,1.82623430983125,0.445521395922842,NaN,NaN,NaN,-0.413336429715113,0.274999250987057,-0.0137069361906247,0.27515918764733,0.275159187647409,0.858480992506497,-0.858480992506992,-1.43869177479171
202.4448,-0.18173493591553,0.367322065886333,-0.0745064893808326,0.244918684641842,0.476509629699984,0.476509629699957,1.70507897778994,2.12431620558518,1.99914944095483,-0.454272243195699,0.976593621000648,-0.454272243195117,0.331964701402616,-1.46953849421339,-1.38243465457221,NaN,NaN,0.90109859793794,-1.43475291920756,1.7065529902606,NaN,NaN,-1.03731306851713,NaN,-0.83627013971347,-0.443742208008104,NaN,NaN,-0.447032045270251,0.384370004463991,1.43764877430582,0.586065879886028,1.61208448169213,-0.355082818164253,-0.269548779821246,-0.703287634537369,-0.981947346216883,1.79196461171946,1.79196461172051,0.427687589862292,NaN,NaN,NaN,-0.41583906229354,0.288740301680821,-0.0108021335710965,0.286766881149497,0.286766881149561,0.899074826991452,-0.899074826991979,-1.40493559023559
202.5472,-0.18631672949492,0.377906838970109,-0.0760339577561555,0.243223794657497,0.478526752504664,0.478526752504644,1.7124985373807,2.1041191463663,1.99311460581919,-0.429057717406637,0.9883246160835,-0.429057717406055,0.308774634904308,-1.45238025255023,-1.39330600544521,NaN,NaN,0.927963265762686,-1.40686633996281,1.69613771305683,NaN,NaN,-1.02409904519055,NaN,-0.820581587379525,-0.423127999267611,NaN,NaN,-0.443113581726721,0.380180659839385,1.46336550521444,0.586219767809086,1.63621034476334,-0.339809501071796,-0.269459581502309,-0.686072956638782,-0.979531618342922,1.75711904503131,1.75711904503236,0.410607817207804,NaN,NaN,NaN,-0.418363569594935,0.302981228091484,-0.00664120668280993,0.298148347697256,0.298148347697307,0.939753369787763,-0.939753369788322,-1.37006655230348
202.6496,-0.19064404397006,0.388097866547407,-0.0774251295132963,0.242225857947336,0.480501649849609,0.480501649849597,1.71924511797047,2.08354828728794,1.98652326309927,-0.403786179050447,1.00039819418451,-0.403786179049865,0.285537156605783,-1.43544621255425,-1.4045254128825,NaN,NaN,0.954461239739575,-1.37921797894815,1.68561297749186,NaN,NaN,-1.01067877204883,NaN,-0.803690514485513,-0.402714393027211,NaN,NaN,-0.439980157564392,0.376481384523864,1.48960386044606,0.585251690672152,1.66031243240068,-0.324965779346437,-0.26979556671565,-0.66982140380262,-0.976908082743576,1.72183264204162,1.72183264204269,0.394242196730154,NaN,NaN,NaN,-0.420888379638249,0.317681097310967,-0.0012251248661152,0.309283953447071,0.309283953447109,0.980398903358358,-0.98039890335895,-1.33415488912233
202.752,-0.194740738137017,0.397919220529603,-0.0786961874777907,0.241915507260324,0.482370371866673,0.48237037186667,1.72526966155334,2.06262230700509,1.97935783008638,-0.378558732284609,1.01276826869242,-0.378558732284027,0.262270663598052,-1.41875011282736,-1.41608441162365,NaN,NaN,0.980499119576804,-1.35189430707892,1.67501549379088,NaN,NaN,-0.997069691970408,NaN,-0.785638137312648,-0.382500132965867,NaN,NaN,-0.437663112346742,0.373306062333607,1.51630915838465,0.583177979161874,1.68434704302327,-0.310573168160087,-0.270554181295575,-0.654554189500629,-0.974069210272356,1.68624014588281,1.68624014588389,0.378549107888118,NaN,NaN,NaN,-0.42339365809429,0.332795370510553,0.00544177568676022,0.320152534182597,0.320152534182621,1.02089236306068,-1.0208923630613,-1.29726995201443
202.8544,-0.1986314710464,0.407396196813725,-0.0798637468521425,0.242281860597334,0.484066021324001,0.484066021324005,1.73052517633109,2.04135880492626,1.97160131820646,-0.353478020153424,1.02538765314766,-0.353478020152842,0.238991817687229,-1.40230225070809,-1.42797263885164,NaN,NaN,1.00598320061274,-1.3249784880271,1.66438041697421,NaN,NaN,-0.983290941833644,NaN,-0.766465727184537,-0.362486030217359,NaN,NaN,-0.4361890841729,0.37068718833331,1.5434227455329,0.580019010349141,1.70826860519644,-0.296649031187661,-0.271733425262729,-0.640288503429136,-0.971007921006897,1.65047526652033,1.65047526652141,0.363485424125933,NaN,NaN,NaN,-0.425861358167028,0.34827637445364,0.0133518240787853,0.330731376389966,0.330731376389984,1.0611139212985,-1.06111392129915,-1.25948008623039
202.9568,-0.202341555047046,0.416554873149903,-0.080944833427842,0.243312400013238,0.485519473739088,0.485519473739099,1.73496685458377,2.0197741768947,1.96323733550909,-0.32864766424716,1.03820849194475,-0.328647664246578,0.215715293085719,-1.38610936687158,-1.44017804205165,NaN,NaN,1.03082008659286,-1.29854998713462,1.65374122148721,NaN,NaN,-0.969363311673298,NaN,-0.746214605712037,-0.342674862479511,NaN,NaN,-0.435580021339696,0.368655710523427,1.57088247238636,0.57579889294461,1.73202997921977,-0.283206661830296,-0.273331776467864,-0.627037516001069,-0.967717673614386,1.61466993735228,1.61466993735337,0.349006739895497,NaN,NaN,NaN,-0.428275232865799,0.364073788672782,0.0224940706983103,0.34099623388448,0.340996233884487,1.10094354095035,-1.10094354095105,-1.22085249288347
203.0592,-0.205896782760081,0.42542169572993,-0.0819568295309536,0.244992868840098,0.486660106023501,0.486660106023522,1.73855220193603,1.99788351562393,1.95425010780078,-0.304171695650181,1.05118266549741,-0.304171695649599,0.192453556861967,-1.37017456989157,-1.45268709127279,NaN,NaN,1.05491731344429,-1.27268421687439,1.64312959193517,NaN,NaN,-0.955309181630439,NaN,-0.724926134972972,-0.323071241143383,NaN,NaN,-0.43585323016212,0.367240891216138,1.59862321311033,0.570545117906678,1.75558278388655,-0.270255404721341,-0.275348127832656,-0.614810443381062,-0.964192554815546,1.57895357177112,1.57895357177222,0.335067586199121,NaN,NaN,NaN,-0.430620816677648,0.380135138706384,0.0328543422321138,0.350921384261122,0.350921384261117,1.14026150284411,-1.14026150284484,-1.18145309338215
203.1616,-0.209323233067804,0.434023090235728,-0.0829173936390233,0.247307202794651,0.487416506709023,0.487416506709052,1.74124116229377,1.97570052805568,1.9446245058704,-0.280153979727248,1.0642621772536,-0.280153979726665,0.169216682219776,-1.35449730200606,-1.4654849972537,NaN,NaN,1.07818396656795,-1.24745222903886,1.63257533005665,NaN,NaN,-0.941152440824765,NaN,-0.702641703489359,-0.303681452295494,NaN,NaN,-0.437021468543702,0.366470194651588,1.62657741288185,0.564288185692269,1.77887773846857,-0.257800820652968,-0.277781732544019,-0.603612670184857,-0.960427368855028,1.54345232479822,1.54345232479932,0.321621631455533,NaN,NaN,NaN,-0.432885386592449,0.396406289598314,0.0444152810534719,0.36047973188652,0.360479731886502,1.17894891401334,-1.17894891401411,-1.14134641003705
203.264,-0.212647067858255,0.4423851044965,-0.0838443628778079,0.250237502038,0.487717146806322,0.487717146806359,1.74299622365636,1.95323745866052,1.93434606519039,-0.256697637559967,1.07739951830818,-0.256697637559386,0.14601219153653,-1.33907334016508,-1.47855593226531,NaN,NaN,1.10053127722757,-1.22292045961631,1.62210628030713,NaN,NaN,-0.926918391584356,NaN,-0.679402718608322,-0.284513292485521,NaN,NaN,-0.439093082702132,0.366369197906928,1.65467564195762,0.557061220429014,1.80186500502755,-0.245844878423376,-0.280632151964493,-0.593445905420561,-0.956417724550115,1.50828837887199,1.5082883788731,0.308621860910868,NaN,NaN,NaN,-0.435057914164733,0.412831924548634,0.0571563820450356,0.369642958553652,0.369642958553618,1.21688819888036,-1.21688819888116,-1.10059547030919
203.3664,-0.215894330024658,0.450533092280047,-0.0847556458020588,0.253764037675986,0.487491002652675,0.487491002652721,1.74378249692778,1.93050501340672,1.92340099112986,-0.233904471126354,1.09054799706219,-0.233904471125774,0.122844923856462,-1.32389482128229,-1.49188324716709,NaN,NaN,1.12187318513582,-1.19915052420817,1.61174827555331,NaN,NaN,-0.91263364064544,NaN,-0.655250616599701,-0.265575922186173,NaN,NaN,-0.442072173639971,0.366961515721705,1.68284713425157,0.548899581156506,1.82449451490001,-0.234386151616548,-0.283899202640478,-0.584308342934537,-0.952160115528104,1.47357927682867,1.47357927682978,0.29602072514125,NaN,NaN,NaN,-0.437129019458909,0.429355985119629,0.0710540556497186,0.378381711918444,0.378381711918395,1.25396357513898,-1.25396357513981,-1.05926173276695
203.4688,-0.219090743331665,0.458491436925692,-0.0856691063816898,0.257865277586366,0.486668133033214,0.48666813303327,1.74356777091182,1.90751229232914,1.91177615539787,-0.211874399511099,1.10366202310201,-0.211874399510521,0.0997169242678069,-1.30895028302396,-1.50544967738176,NaN,NaN,1.14212685961793,-1.17619905473072,1.60152509984849,NaN,NaN,-0.898325978055542,NaN,-0.630226894979825,-0.24687974383286,NaN,NaN,-0.445958776801206,0.368268731175257,1.71102029302223,0.53984048555848,1.84671627011318,-0.223420012854328,-0.287582901363747,-0.576194816819285,-0.947651990494159,1.43943731629659,1.4394373162977,0.283770259441019,NaN,NaN,NaN,-0.439090931179228,0.445922062757994,0.0860817372154848,0.38666581786189,0.386665817861823,1.29006152235175,-1.29006152235262,-1.01740502806607
203.5712,-0.222261507373246,0.466283306855026,-0.0866024348968951,0.262517916498155,0.485180213909976,0.485180213910044,1.74232255556193,1.88426674881978,1.89945909941217,-0.19070491141888,1.11669733977584,-0.190704911418301,0.0766273592912942,-1.29422471889947,-1.51923753046303,NaN,NaN,1.1612131793278,-1.15411756497643,1.59145846118744,NaN,NaN,-0.884024242433299,NaN,-0.604373164388953,-0.228436291685831,NaN,NaN,-0.450749042332084,0.370310329860018,1.73912315316265,0.529922667069748,1.86848061942814,-0.212938836117904,-0.291683411530752,-0.569096967333495,-0.94289181131919,1.40596901217784,1.40596901217896,0.271822194755584,NaN,NaN,NaN,-0.440937447165919,0.462473759089697,0.102210047283322,0.394464508860375,0.394464508860298,1.32507125428125,-1.32507125428215,-0.975083509350075
203.6736,-0.225431083605169,0.473930443577682,-0.087573001779719,0.267696901680525,0.482961030208061,0.482961030208138,1.74002012576005,1.86077419132896,1.88643805918318,-0.170490540596576,1.12961120439704,-0.170490540595996,0.053572465711622,-1.27969965059204,-1.53322884855516,NaN,NaN,1.17905717488202,-1.13295233356446,1.58156796839154,NaN,NaN,-0.869758167005672,NaN,-0.577731212619804,-0.210258115153061,NaN,NaN,-0.456435412128327,0.373103639253361,1.76708379628821,0.519186082357822,1.88973851320467,-0.202932220359934,-0.296200996791008,-0.56300343893721,-0.937879096476978,1.37327462975507,1.3732746297562,0.260128085746832,NaN,NaN,NaN,-0.44266388283739,0.478955041822001,0.119406999494456,0.401746668844118,0.401746668844022,1.35888519523589,-1.35888519523683,-0.932353607295802
203.776,-0.228622975727939,0.481452989553234,-0.0885976955489991,0.273375453252012,0.479946925579144,0.479946925579233,1.73663656907336,1.83703882941543,1.87270201457662,-0.151322375548991,1.14236252099703,-0.151322375548408,0.0305455346957063,-1.26535321713666,-1.54740554267209,NaN,NaN,1.19558843575217,-1.11274429806073,1.57187111139047,NaN,NaN,-0.855558199091808,NaN,-0.550343071799009,-0.19235864840945,NaN,NaN,-0.463006800762368,0.376663776512449,1.79483072121733,0.507671673583944,1.91044174152404,-0.193387232817139,-0.301135987498868,-0.557900114908437,-0.932614448422512,1.34144778354064,1.34144778354177,0.248639466680077,NaN,NaN,NaN,-0.444266999072315,0.495310601289354,0.137638243536281,0.408481096313006,0.408481096312894,1.39139944104711,-1.39139944104808,-0.889269986050108
203.8784,-0.231859512219529,0.488869353355616,-0.0896927528912851,0.279525083430104,0.476077217227279,0.476077217227381,1.73215083036853,1.81306335135569,1.85824075264513,-0.133287617251501,1.15491193609195,-0.133287617250914,0.00753692427891719,-1.25116027655921,-1.56174950296059,NaN,NaN,1.21074147514126,-1.09352896308398,1.5623832477862,NaN,NaN,-0.841455290814057,NaN,-0.522251081926195,-0.17475207512795,NaN,NaN,-0.470448794178589,0.381003609081699,1.82229317672597,0.495421176834101,1.93054315807968,-0.184288654023728,-0.30648876221722,-0.553770370920589,-0.927099565536393,1.3105750903919,1.31057509039303,0.237308026338096,NaN,NaN,NaN,-0.445744913824052,0.5114861850502,0.156867316095482,0.414636780500643,0.414636780500519,1.42251417630999,-1.42251417631099,-0.845885503752692
203.9808,-0.235161640581476,0.496196097102819,-0.0908735939175713,0.286115622373951,0.471294589302833,0.471294589302946,1.7265447423938,1.78884901375047,1.84304492926104,-0.116469190119946,1.16722190731823,-0.116469190119357,-0.0154659067889041,-1.2370925189866,-1.57624269350508,NaN,NaN,1.22445604610705,-1.07533632980814,1.55311759879582,NaN,NaN,-0.827480667451108,NaN,-0.493497947664468,-0.157453204052138,NaN,NaN,-0.478743875024981,0.386133729746161,1.84940146356805,0.482476962055225,1.94999688968773,-0.175619204031984,-0.31225973938587,-0.550595319080143,-0.921337240978843,1.28073586617986,1.280735866181,0.226085787746448,NaN,NaN,NaN,-0.447097011844711,0.527428885109908,0.177055869934451,0.420183179067301,0.420183179067163,1.45213403479533,-1.45213403479636,-0.802251191295454
204.0832,-0.238548740674475,0.503447832228667,-0.0921546732617737,0.293115257001564,0.465545484106633,0.465545484106756,1.71980303733466,1.76439572871625,1.82710611909587,-0.100945394834439,1.17925675092739,-0.100945394833847,-0.0384783420388249,-1.22311859687586,-1.59086723625562,NaN,NaN,1.23667741324743,-1.05819084654487,1.54408525503293,NaN,NaN,-0.813665584846298,NaN,-0.464126788892684,-0.140477365186246,NaN,NaN,-0.487871668258189,0.392062438640656,1.87608720956194,0.468881891218583,1.96875852891654,-0.167359740167702,-0.318449367897536,-0.548354018831586,-0.915331352177134,1.2520018601575,1.25200186015864,0.214925289887415,NaN,NaN,NaN,-0.448323866339365,0.543087371980279,0.198163866860318,0.425090485492533,0.425090485492382,1.48016841547362,-1.48016841547468,-0.7584162648333
204.1856,-0.242038455769194,0.510637118903072,-0.0935493469653393,0.300490581341914,0.458780504385596,0.45878050438573,1.71191334535519,1.73970214928709,1.81041685755991,-0.0867895855698652,1.190982671214,-0.0867895855692696,-0.0615185214587049,-1.20920427850175,-1.60560548387742,NaN,NaN,1.24735659311328,-1.04211137139466,1.53529518833346,NaN,NaN,-0.800041087813329,NaN,-0.434181188866559,-0.123840324016399,NaN,NaN,-0.497809189058872,0.398795720655199,1.90228362008729,0.454679181681865,1.98678530608575,-0.159489431696213,-0.325058109260367,-0.547023652457753,-0.909086843941675,1.22443702677638,1.22443702677752,0.203779775256123,NaN,NaN,NaN,-0.449427177349286,0.558412086384305,0.220149738024076,0.429329877572616,0.42932987757245,1.50653177407514,-1.50653177407623,-0.714428179007456
204.288,-0.245646533211837,0.517774371203607,-0.0950697469300716,0.308206652747929,0.450954814880876,0.450954814881022,1.70286619135961,1.71476576509023,1.79297068690631,-0.0740698675941902,1.20236777054907,-0.074069867593589,-0.0846072289489531,-1.19531262492305,-1.62044008473438,NaN,NaN,1.25645057110295,-1.02711114331167,1.5267542646724,NaN,NaN,-0.786637781628494,NaN,-0.403705242920117,-0.107558201863771,NaN,NaN,-0.508531079315845,0.406337217001384,1.92792570861309,0.439912259180286,2.00403623785637,-0.151985926224216,-0.332086414279848,-0.546579685110222,-0.902609705078239,1.19809734234884,1.19809734234999,0.192603375540924,NaN,NaN,NaN,-0.450409720832051,0.573355402193656,0.242970522582312,0.432873743361472,0.432873743361294,1.53114389463797,-1.53114389463909,-0.670332714483075
204.3904,-0.249386671718167,0.524867772608609,-0.0967266589037105,0.316227054209368,0.442028513695886,0.442028513696043,1.69265499360462,1.68958301451125,1.77476221160364,-0.0628488259637227,1.21338203570122,-0.0628488259631166,-0.107767762740387,-1.18140418589667,-1.63535404785466,NaN,NaN,1.26392249068564,-1.01319776980182,1.51846725865763,NaN,NaN,-0.773485625236388,NaN,-0.372743604922017,-0.0916473927563898,NaN,NaN,-0.520009834797488,0.414688202464693,1.95295051312581,0.424624589467393,2.02047225289418,-0.144825517306704,-0.33953469914262,-0.546996025512341,-0.895906937214543,1.17303067753441,1.17303067753555,0.181351280787881,NaN,NaN,NaN,-0.451275298568737,0.587871769768511,0.266581995138674,0.435695888985574,0.435695888985385,1.55393013044774,-1.55393013044889,-0.626174083457842
204.4928,-0.253270381961147,0.53192320377239,-0.0985294097818229,0.324513966862666,0.431966959227951,0.43196695922812,1.68127605600812,1.66414940426141,1.75578715395253,-0.0531832930994296,1.22399730086407,-0.0531832930988185,-0.131025792917717,-1.16743721055691,-1.65033080841712,NaN,NaN,1.26974180686103,-1.00037323957658,1.51043687638716,NaN,NaN,-0.760613741717462,NaN,-0.341341525366668,-0.0761244805665374,NaN,NaN,-0.532216035217627,0.423847578382669,1.97729730159764,0.40885949164052,2.03605629892783,-0.137983308122213,-0.347403319099512,-0.548245179536541,-0.888986516675545,1.14927672884652,1.14927672884766,0.169979894891992,NaN,NaN,NaN,-0.45202868560315,0.60191784338523,0.290938787694472,0.437771740454472,0.437771740454265,1.57482160709648,-1.57482160709765,-0.581995036605366
204.5952,-0.257306868990274,0.538944176517068,-0.100485773908058,0.333028250898513,0.420741064533608,0.420741064533789,1.66872854324783,1.63845962214008,1.73604239684908,-0.0451241484622247,1.23418719660033,-0.0451241484616114,-0.154409197270795,-1.15336787097901,-1.66535427911826,NaN,NaN,1.27388440009987,-0.98863395360533,1.50266379226877,NaN,NaN,-0.748050227185145,NaN,-0.309544876418174,-0.061006169404534,NaN,NaN,-0.545118584503905,0.433811878105478,2.0009077646872,0.392659952051294,2.0507534381309,-0.131433359816514,-0.355692536293694,-0.550298379968753,-0.881857350883331,1.1268670026489,1.12686700265003,0.158447000731257,NaN,NaN,NaN,-0.452675579824273,0.615452594219874,0.315994507640996,0.439078546544136,0.439078546543913,1.593755393009,-1.5937553930102,-0.537836962398694
204.6976,-0.26150293925047,0.545931763893083,-0.102601903680044,0.341729529172763,0.408327576342728,0.408327576342919,1.65501443407538,1.61250763729167,1.71552600833111,-0.0387161383160961,1.24392709685902,-0.0387161383154789,-0.177947863333603,-1.13915049962115,-1.68040887169009,NaN,NaN,1.27633264966888,-0.977970758249976,1.49514669861002,NaN,NaN,-0.735821941463864,NaN,-0.27740016135756,-0.0463092330766675,NaN,NaN,-0.558684958241721,0.444575274157243,2.02372619084445,0.376068461070648,2.06453093646825,-0.125148819957609,-0.364402484787561,-0.553125690813637,-0.874529228421129,1.10582484532869,1.10582484532983,0.146711953004635,NaN,NaN,NaN,-0.453222558524003,0.628437410682085,0.341701850852546,0.439595571766521,0.439595571766283,1.61067464575093,-1.61067464575215,-0.493739979004676
204.8,-0.265862928861323,0.552884526117098,-0.104882281353761,0.350576274390321,0.394709340947502,0.394709340947703,1.64013845637824,1.58628679263573,1.69423725218775,-0.0339977136342735,1.25319406784711,-0.0339977136336536,-0.201673454851003,-1.1247378456766,-1.69547949243049,NaN,NaN,1.27707546515887,-0.968368978082028,1.48788236313666,NaN,NaN,-0.723954285489573,NaN,-0.244954508245623,-0.0320504749004417,NaN,NaN,-0.572881450553285,0.456129583134763,2.04569962201486,0.359126874392432,2.07735834608625,-0.119102036834075,-0.373533138404646,-0.556696098927095,-0.867012760605656,1.08616551758564,1.08616551758678,0.134735891752149,NaN,NaN,NaN,-0.453677042060323,0.640836184793156,0.368012705573376,0.439304259562796,0.439304259562546,1.62552873393804,-1.62552873393929,-0.449743026528669
204.9024,-0.270388648250062,0.559798445522766,-0.107329683924667,0.359525909280581,0.379875542358437,0.379875542358648,1.62410801239792,1.55978989693702,1.67217659298501,-0.031000894417979,1.26196681025802,-0.0310008944173562,-0.225619152433809,-1.11008135476901,-1.71055153096809,NaN,NaN,1.27610827782325,-0.959808468085864,1.48086569182805,NaN,NaN,-0.71247098848214,NaN,-0.212255650486774,-0.0182466861684042,NaN,NaN,-0.587673414575795,0.468464275002432,2.0667779940233,0.341876278104153,2.08920757509045,-0.113264669128151,-0.38308428090668,-0.56097760311211,-0.859319314127888,1.06789630989729,1.06789630989843,0.122481951669616,NaN,NaN,NaN,-0.454047262299521,0.652615378520257,0.394878240056818,0.438188358418692,0.43818835841843,1.63827332876768,-1.63827332876895,-0.405883969240555
205.0048,-0.275079341231597,0.566666881987072,-0.109945156244247,0.368534929332032,0.363821897019337,0.363821897019559,1.60693310087115,1.53300931857411,1.64934570025234,-0.0297511662562008,1.27022558730733,-0.0297511662555732,-0.249819379716948,-1.09513146799701,-1.7256108530674,NaN,NaN,1.27343299767118,-0.952263705328206,1.4740897982632,NaN,NaN,-0.70139392254703,NaN,-0.17935189741082,-0.00491460218614235,NaN,NaN,-0.603025495854664,0.481566493855651,2.08691426664578,0.324356844659329,2.10005294352761,-0.107607794583839,-0.393055472695101,-0.565937298150467,-0.851460937434634,1.05101669332671,1.05101669332784,0.109915447462159,NaN,NaN,NaN,-0.454342235636786,0.663744065562441,0.422248968496303,0.436234020539712,0.436234020539436,1.64887046547209,-1.64887046547338,-0.362199711667858
205.1072,-0.279931660865084,0.573480549631574,-0.11272799436308,0.377559050589101,0.346550804077751,0.346550804077984,1.58862623711967,1.50593707802843,1.62574745090267,-0.030267403399316,1.27795214659912,-0.0302674033986833,-0.274309521404168,-1.07983792658701,-1.74064378913413,NaN,NaN,1.26905794426504,-0.945703918459388,1.46754608162559,NaN,NaN,-0.690742946877782,NaN,-0.146292095128011,0.00792913772571206,NaN,NaN,-0.618901857860158,0.495421085780576,2.1060645421814,0.306607690151662,2.10987122920429,-0.10210201522332,-0.403446009315532,-0.571541445678942,-0.84345028561825,1.03551850024646,1.03551850024759,0.0970040347329177,NaN,NaN,NaN,-0.454571743306702,0.674193951387275,0.450074796560693,0.433429885350348,0.433429885350061,1.65728858661026,-1.65728858661158,-0.318726323646683
205.2096,-0.284939666663897,0.580227514921764,-0.115675743396097,0.386553378846524,0.32807145677404,0.328071456774283,1.56920236959338,1.47856493954787,1.60138592929239,-0.0325618062540458,1.28512965188363,-0.0325618062534051,-0.299125637906048,-1.0641500637398,-1.7556371018628,NaN,NaN,1.26299775759996,-0.940093236134211,1.46122431297948,NaN,NaN,-0.680535778672648,NaN,-0.113125573779715,0.0202680254021669,NaN,NaN,-0.635266389138599,0.510010619121634,2.12418816283546,0.288666746860441,2.11864170065033,-0.0967175613194246,-0.414254871503392,-0.577755534087113,-0.835300547056285,1.02138613279448,1.02138613279561,0.0837178552498791,NaN,NaN,NaN,-0.454746319152368,0.683939378057239,0.478305057658718,0.429767151602531,0.429767151602233,1.66350257981745,-1.66350257981879,-0.275499162130804
205.312,-0.290094846172298,0.586893224474107,-0.118784210557213,0.395472595248975,0.308399909792952,0.308399909793205,1.54867879318401,1.45088450857236,1.57626642839212,-0.0366398486988428,1.29174263002058,-0.0366398486981962,-0.324304181906686,-1.04801706968593,-1.77057792291422,NaN,NaN,1.25527329057527,-0.935390838293089,1.45511272784615,NaN,NaN,-0.670787886897398,NaN,-0.0799020748004489,0.0320857218510887,NaN,NaN,-0.652082877377027,0.52531538635513,2.14124777440379,0.270570653519384,2.12634612664333,-0.0914244025486284,-0.425480669927316,-0.584544340453069,-0.827025370578383,1.00859679990661,1.00859679990774,0.0700296698661984,NaN,NaN,NaN,-0.454877237484514,0.692957317760218,0.50688855686391,0.425239636323058,0.425239636322753,1.66749380830512,-1.66749380830648,-0.232552973305705
205.4144,-0.295386160268614,0.593460570117108,-0.122047490757754,0.404271154759528,0.287559093483853,0.287559093484116,1.52707505967194,1.42288733820527,1.55039545391088,-0.0425002413346033,1.29777692602883,-0.042500241333949,-0.349881719586134,-1.03138822723937,-1.78545365903055,NaN,NaN,1.2459114789408,-0.931551106387865,1.4491981254445,NaN,NaN,-0.661512396943736,NaN,-0.0466716539676293,0.0433661036053815,NaN,NaN,-0.669315148568199,0.541313388798106,2.15720934942269,0.252354664611252,2.13296875649425,-0.0861923672284009,-0.437121588181583,-0.591871999553517,-0.81863878903506,0.99712078284133,0.997120782842453,0.0559149799258078,NaN,NaN,NaN,-0.454976491944397,0.701227354543584,0.535773633025798,0.419843819642035,0.419843819641723,1.66925012112735,-1.66925012112872,-0.189921961986204
205.5168,-0.30080011057053,0.59990998293063,-0.125458005425988,0.412903494440354,0.265578782305782,0.265578782306054,1.5044128826433,1.39456503737013,1.52378072622797,-0.0501349160981744,1.30321966021941,-0.050134916097513,-0.375894657145472,-1.01421312230374,-1.80025187409058,NaN,NaN,1.23494518196013,-0.928523772676036,1.4434659758674,NaN,NaN,-0.652719989341132,NaN,-0.0134845629397624,0.0540933116539856,NaN,NaN,-0.686927183177251,0.557980309542126,2.17204216979905,0.234052589309466,2.1384962759519,-0.0809912568736886,-0.449175326486403,-0.599702068431119,-0.810155135878859,0.986921725290043,0.986921725291162,0.0413521431358086,NaN,NaN,NaN,-0.45505676586008,0.708731650558869,0.564908234241286,0.41357887372503,0.413578873724707,1.66876583714888,-1.66876583715027,-0.147639831033127
205.6192,-0.306320828156732,0.606219534654099,-0.12900655953227,0.421324246240187,0.242495543966615,0.242495543966894,1.48071603541746,1.36590937147123,1.49643117473651,-0.0595290287893775,1.30805918910345,-0.0595290287887085,-0.402378972615923,-0.996441835979733,-1.81496015543377,NaN,NaN,1.22241299298846,-0.926254063926153,1.43790053253868,NaN,NaN,-0.644418789167111,NaN,0.0196088812053808,0.064251793761896,NaN,NaN,-0.704883217040458,0.575289473943785,2.1857187705195,0.215696772535413,2.14291774590846,-0.0757909433663772,-0.461639046057086,-0.607997572237708,-0.801588954659724,0.977956944268537,0.977956944269653,0.0263224946251981,NaN,NaN,NaN,-0.455131403348974,0.715454896424976,0.594239993346049,0.406446669344105,0.406446669343772,1.66604171152551,-1.66604171152692,-0.105739810671711
205.7216,-0.311930180494692,0.612365035226701,-0.132682416856835,0.429488447402449,0.218352694008231,0.218352694008518,1.45601024810848,1.33691235871817,1.46835692954146,-0.0706609730056726,1.3122850733247,-0.0706609730049969,-0.429369948451969,-0.97802513075841,-1.82956597384904,NaN,NaN,1.20835903200669,-0.924682838627865,1.43248494549477,NaN,NaN,-0.636614268449133,NaN,0.0525584291492235,0.0738263431246661,NaN,NaN,-0.723147821159179,0.593211794017828,2.19821484541287,0.19731811901687,2.14622452522141,-0.0705614520619221,-0.474509310220746,-0.616721030634929,-0.792954905607744,0.970177762069647,0.970177762070758,0.0108104818365849,NaN,NaN,NaN,-0.4552143865754,0.721384253757697,0.62371629619932,0.398451750697773,0.398451750697437,1.6610848962656,-1.66108489626703,-0.0642546965303348
205.824,-0.317607890645955,0.618320140394401,-0.136473384200112,0.437351745185329,0.193200251780211,0.193200251780504,1.43032311431493,1.30756637599187,1.43956932321829,-0.0835024083886761,1.31588804851967,-0.0835024083879914,-0.456901899396717,-0.958914646995203,-1.84405654987053,NaN,NaN,1.19283273499831,-0.923746738109067,1.42720137463304,NaN,NaN,-0.629309195934918,NaN,0.08531403214646,0.0828021472662702,NaN,NaN,-0.741685951074027,0.611715703650742,2.20950911906034,0.178946144525767,2.14841017426566,-0.0652730502668158,-0.487782019396743,-0.62583448325999,-0.784267675111071,0.963529861094252,0.963529861095358,-0.00519619724487037,NaN,NaN,NaN,-0.455320314094622,0.726509295975833,0.653284345611458,0.389601272147975,0.389601272147635,1.65390889328557,-1.65390889328701,-0.0232168990470418
205.9264,-0.323331664653774,0.624056488664873,-0.140365895552362,0.444870597842434,0.167094863207182,0.167094863207479,1.40368401328194,1.27786428277365,1.41008091010514,-0.098018319201419,1.31885998565442,-0.0980183192007267,-0.485007901126692,-0.939063117167205,-1.85841874351121,NaN,NaN,1.17588864087227,-0.923378389225261,1.42203110367213,NaN,NaN,-0.622503651492407,NaN,0.117825971816393,0.0911648528286919,NaN,NaN,-0.760462965522794,0.630767106572405,2.21958319773242,0.16060902671898,2.14947033868613,-0.0598963616692896,-0.501452344531722,-0.635299542520669,-0.775541890796679,0.957953661491601,0.957953661492703,-0.021706487264622,NaN,NaN,NaN,-0.455464370838826,0.730821940504154,0.682891225868928,0.379904903087547,0.379904903087203,1.64453348611802,-1.64453348611947,0.0173415014333222
206.0288,-0.329077326989292,0.629543864818208,-0.144345096845571,0.452002472936157,0.140099660827228,0.140099660827531,1.37612404512194,1.24779955550471,1.37990549798358,-0.114167119877267,1.32119382781608,-0.114167119876569,-0.513719535421913,-0.918424591934697,-1.87263898194268,NaN,NaN,1.15758616371667,-0.923506684203568,1.41695465292801,NaN,NaN,-0.616195090872028,NaN,0.15004497638344,0.0989006315377576,NaN,NaN,-0.779444624205438,0.650329359758509,2.22842141994738,0.142333630906045,2.14940262136086,-0.0544025107654021,-0.515514666869706,-0.64507748717804,-0.76679204171216,0.953384717970828,0.953384717971924,-0.0387259289389063,NaN,NaN,NaN,-0.455662286450504,0.734316360175812,0.712483968621624,0.369374723382749,0.369374723382401,1.63298464174251,-1.63298464174397,0.0573886949003699
206.1312,-0.33481896682493,0.634750371169181,-0.148394938890023,0.458706038377478,0.112284065939842,0.112284065940149,1.34767597070317,1.21736641472907,1.34905817871017,-0.131900808447024,1.32288350480425,-0.131900808446316,-0.543066661485115,-0.896954665215074,-1.8867032225059,NaN,NaN,1.13798934107968,-0.92405712694384,1.41195188844951,NaN,NaN,-0.610378427458106,NaN,0.181922313606214,0.105996224342371,NaN,NaN,-0.798597078438227,0.670363298331587,2.23601072095908,0.124145510762072,2.14820645596676,-0.0487632803600422,-0.529962525895131,-0.655129379840079,-0.758032403675203,0.949754128937164,0.949754128938256,-0.0562566646107469,NaN,NaN,NaN,-0.455930287389301,0.736988870714475,0.742009620837959,0.358025132810053,0.358025132809702,1.61929438993118,-1.61929438993264,0.0968930782481439
206.2336,-0.340529098495373,0.639642598421036,-0.152498283836259,0.464941337976532,0.0837235574492845,0.0837235574495956,1.3183741472181,1.18655993417763,1.31755534743876,-0.15116515444321,1.32392384142066,-0.151165154442495,-0.573077208186505,-0.874610685577482,-1.90059692779807,NaN,NaN,1.11716655946102,-0.92495220346153,1.40700212779519,NaN,NaN,-0.605046100491637,NaN,0.21340986723987,0.11243895514877,NaN,NaN,-0.817886868464191,0.690827291165831,2.24234050721427,0.106068915444114,2.14588299279138,-0.0429512595652045,-0.544788571139687,-0.665416178185609,-0.749276970530938,0.946988953999033,0.946988954000118,-0.0742974594950558,NaN,NaN,NaN,-0.456285046415403,0.738837805203839,0.771415323608262,0.345872780015658,0.345872780015304,1.60350069171706,-1.60350069171853,0.135823200313765
206.336,-0.346178836380302,0.644185806956377,-0.156637022509212,0.470669943800591,0.0544994210101342,0.0544994210104483,1.28825445488286,1.15537613500978,1.28541470954597,-0.171899915421809,1.32431047500871,-0.171899915421086,-0.603776976722525,-0.851351947729959,-1.91430503030736,NaN,NaN,1.09519026080732,-0.926111737603105,1.40208424464759,NaN,NaN,-0.600188115270396,NaN,0.244460215379213,0.118216725154171,NaN,NaN,-0.837280941027864,0.711677317223991,2.24740252910334,0.0881268332966023,2.14243499963605,-0.036939973162165,-0.55998451531659,-0.675898826810721,-0.740539390071164,0.94501264317786,0.945012643178943,-0.0928437115387722,NaN,NaN,NaN,-0.456743622592355,0.739863389449315,0.800648415159456,0.332936499973334,0.332936499972975,1.58564729651766,-1.58564729651913,0.174147732042483
206.4384,-0.351738083138603,0.648344134407333,-0.16079219740341,0.475855084513317,0.0246984708444841,0.0246984708448022,1.25735421281378,1.12381207030568,1.25265527673633,-0.194039096400198,1.32403978672474,-0.194039096399467,-0.635189448583023,-0.827139870964316,-1.92781188808222,NaN,NaN,1.07213662628069,-0.927453231026371,1.39717677496055,NaN,NaN,-0.595792058310263,NaN,0.275026720901708,0.12331800256932,NaN,NaN,-0.856746697624377,0.732867067562787,2.25119075202784,0.0703410607330097,2.13786677262681,-0.0307039977274301,-0.575541090348185,-0.686538337522513,-0.731832902498529,0.943745483202374,0.943745483203451,-0.111887457261891,NaN,NaN,NaN,-0.457323382686381,0.740067618066006,0.829656562774202,0.319237244844753,0.319237244844395,1.56578357796917,-1.56578357797065,0.211835465143795
206.5408,-0.357175735886894,0.652080837115903,-0.164944133665376,0.480461760980217,-0.0055872746571057,-0.00558727465678545,1.22571208089274,1.09186589570231,1.21929734852128,-0.217511268776438,1.32310884179068,-0.217511268775702,-0.667335596471187,-0.801938182419025,-1.94110125058506,NaN,NaN,1.04808523063894,-0.928892216956643,1.39225802824222,NaN,NaN,-0.591843102613804,NaN,0.305063632122395,0.12773181400326,NaN,NaN,-0.876252073488348,0.754348084963692,2.25370123634518,0.0527322546124423,2.13218404780161,-0.0242190696984724,-0.591448004341733,-0.697295861675813,-0.72317028187013,0.943105062657679,0.943105062658751,-0.131417399850315,NaN,NaN,NaN,-0.458041904111164,0.739454121806079,0.858387917288423,0.304797994406461,0.304797994406103,1.54396434347925,-1.54396434348073,0.248855329198455
206.6432,-0.362459918288439,0.655358562358192,-0.169072586425316,0.484456865352168,-0.0362609774035752,-0.0362609774032529,1.19336794661053,1.05953691962145,1.18536247523842,-0.242239945640435,1.32151533264473,-0.242239945639692,-0.700233694770098,-0.775713119760624,-1.95415624831436,NaN,NaN,1.0231186699828,-0.93034265212034,1.387306206802,NaN,NaN,-0.588324023867033,NaN,0.334526189617378,0.131447738304018,NaN,NaN,-0.895765634190895,0.776069943330479,2.25493203190877,0.0353199416698012,2.12539390676295,-0.01746218375076,-0.607693891998604,-0.708132744213314,-0.714563783575074,0.943006754494926,0.943006754495994,-0.151418971581578,NaN,NaN,NaN,-0.45891686780799,0.738028027568042,0.886791281528165,0.289643636137981,0.28964363613762,1.5202496248107,-1.52024962481218,0.285176418737081
206.7456,-0.36755823787001,0.658139639845722,-0.173156906877304,0.487809309770192,-0.0672214249156509,-0.0672214249153258,1.16036280259936,1.02682563425489,1.15087340632926,-0.268143996229587,1.31925752464004,-0.268143996228837,-0.733899131529892,-0.748433651783669,-1.96695940707118,NaN,NaN,0.997322173185395,-0.931717350778835,1.38229952998956,NaN,NaN,-0.585215247419577,NaN,0.363370735029017,0.134455904395734,NaN,NaN,-0.915256670865989,0.797980458927302,2.25488308555769,0.0181224888139486,2.11750467659652,-0.0104116835600051,-0.624266257873227,-0.719010561071599,-0.706025100436923,0.943364212253909,0.943364212254976,-0.171874425323615,NaN,NaN,NaN,-0.459965950162565,0.735795823007772,0.914816285076297,0.273800814788818,0.273800814788459,1.4947044651157,-1.49470446511718,0.320768026864597
206.848,-0.372438055211832,0.660386382114079,-0.17717621723217,0.490490156563192,-0.0983635328723432,-0.098363532872017,1.12673862506778,0.993733736864141,1.11585403426506,-0.295138088385363,1.31633420676909,-0.295138088384608,-0.768344231742084,-0.720071704915917,-1.97949268543274,NaN,NaN,0.970783203228643,-0.932928456205043,1.37721635403123,NaN,NaN,-0.58249493742637,NaN,0.391554814912469,0.136746998097947,NaN,NaN,-0.934695281261457,0.820025929766921,2.25355616067036,0.00115704862907926,2.10852582976492,-0.0030473577422298,-0.641151425645661,-0.729891169202797,-0.697565327253768,0.944089875686867,0.94408987568793,-0.192762955302975,NaN,NaN,NaN,-0.461206716223569,0.732765231792927,0.942413559533611,0.25729776164163,0.257297761641272,1.46739871099903,-1.4673987110005,0.355599682595136
206.9504,-0.37706675028857,0.662061398568216,-0.181109579356437,0.492472739184997,-0.12957890945903,-0.129578909458703,1.09253826141472,0.960264153668274,1.08032934480696,-0.323133160907535,1.31274464472668,-0.323133160906775,-0.803578099704389,-0.690602389351028,-1.99173753845779,NaN,NaN,0.943591047547009,-0.933887946766862,1.37203527987002,NaN,NaN,-0.580139126680391,NaN,0.419037275805679,0.138312287535496,NaN,NaN,-0.954052435772286,0.842151408916412,2.2509547687169,-0.0155605107417787,2.09846788810238,0.00464944723940141,-0.658334507508821,-0.740736798398868,-0.689194931397855,0.945095483566158,0.945095483567216,-0.214060858935584,NaN,NaN,NaN,-0.462656505362208,0.728945096112966,0.969534914831261,0.240164117261109,0.240164117260754,1.43840679701763,-1.4384067970191,0.389641195017645
207.0528,-0.381411984023013,0.663127939975669,-0.184936150813691,0.493732772564349,-0.160756491567139,-0.160756491566812,1.05780532717064,0.926421071468727,1.04432537625821,-0.352036930869959,1.3084885322678,-0.352036930869191,-0.839606480202164,-0.660004226077027,-2.00367500883453,NaN,NaN,0.915836393166508,-0.934508170959853,1.36673525064761,NaN,NaN,-0.578121872534916,NaN,0.445778355952472,0.139143676011302,NaN,NaN,-0.973300036574636,0.864301016700603,2.24708410810608,-0.0320156838880665,2.08734232990426,0.0126957020407254,-0.675799395392316,-0.751510181446775,-0.680923727095655,0.946292593415806,0.94629259341686,-0.235741745802276,NaN,NaN,NaN,-0.464332295702013,0.724345261620828,0.996133524442539,0.222430757298151,0.222430757297798,1.40780749572337,-1.40780749572484,0.422862719557641
207.1552,-0.385441967190746,0.663550279484531,-0.188635338176804,0.494248459827661,-0.191783255510643,-0.191783255510315,1.02258410414217,0.892209970072514,1.00786917977674,-0.3817544312747,1.30356594445868,-0.381754431273927,-0.87643163277925,-0.628259372867643,-2.01528583503195,NaN,NaN,0.887610881996838,-0.934702394630677,1.36129564615839,NaN,NaN,-0.576415415806334,NaN,0.471739784669532,0.139233783187547,NaN,NaN,-0.992410976202307,0.886418284656643,2.24195100104258,-0.0481954004527956,2.07516149787844,0.0211065756710982,-0.693528767687995,-0.762174694824669,-0.672760851585335,0.947593108205746,0.947593108206798,-0.25777678098162,NaN,NaN,NaN,-0.466250540278644,0.718976466156301,1.02216412788449,0.204129621615187,0.204129621614839,1.37568361448862,-1.37568361449008,0.455234866987501
207.2576,-0.389125749958347,0.663294116432946,-0.19218696381224,0.494000601903472,-0.222544992865593,-0.222544992865265,0.986919431446162,0.857637645534898,0.970988771189781,-0.412188563769582,1.29797730313262,-0.412188563768803,-0.914052211623955,-0.595353842909885,-2.02655055805071,NaN,NaN,0.859006643285047,-0.934385340213621,1.35569637888874,NaN,NaN,-0.5749903280135,NaN,0.496884899090943,0.138576050970055,NaN,NaN,-1.01135918785943,0.908446512805275,2.2355638190595,-0.064088077281051,2.0619385057037,0.0298953365414758,-0.711504110160846,-0.772694493270351,-0.664714741429607,0.948909809621322,0.948909809622371,-0.280134940591915,NaN,NaN,NaN,-0.4684269785438,0.712850239955921,1.04758324929327,0.185293538232243,0.185293538231902,1.34212163903173,-1.34212163903319,0.486728867445449
207.36,-0.392433534860278,0.662326987954271,-0.195571452763937,0.492972711120221,-0.252927138551698,-0.25292713855137,0.950856587293989,0.822712220041686,0.933713071044433,-0.443240655632978,1.29172336425635,-0.443240655632195,-0.952463149021096,-0.561277713156833,-2.03744962024956,NaN,NaN,0.830115802027631,-0.933473716128599,1.34991799164501,NaN,NaN,-0.573815657946108,NaN,0.521178781610766,0.137164872242189,NaN,NaN,-1.03011967219674,0.930329127649341,2.22793239371129,-0.079683653646583,2.04768713842486,0.039073273765838,-0.729705757753262,-0.783034645329916,-0.656793108822449,0.950156895090978,0.950156895092021,-0.3027832730822,NaN,NaN,NaN,-0.470876433715486,0.705978819021498,1.07234941767481,0.165956031649629,0.165956031649292,1.30721133277763,-1.30721133277909,0.517316784359891
207.4624,-0.395337007396444,0.66061868672776,-0.198770034672048,0.491151126472215,-0.282815648022219,-0.282815648021891,0.914441163079511,0.787443136090394,0.896071832575499,-0.474811025661085,1.28480522966879,-0.474811025660298,-0.991655551319355,-0.526025324848118,-2.04796347183296,NaN,NaN,0.801029962818945,-0.931886758133298,1.34394175570396,NaN,NaN,-0.572859105195498,NaN,0.544588411147,0.134995740215568,NaN,NaN,-1.04866850091542,0.952010050725027,2.21906791926303,-0.0949736302203247,2.03242174365452,0.0486496344900297,-0.74811296191789,-0.793161279873773,-0.649002920599567,0.951250512973708,0.951250512974745,-0.325687183982398,NaN,NaN,NaN,-0.473612606384987,0.698375060569217,1.09642337279156,0.146151111920818,0.146151111920482,1.27104529843959,-1.27104529844104,0.546971760216651
207.5648,-0.397809678233521,0.658141686986387,-0.201764954476745,0.4885251304664,-0.31209793019652,-0.312097930196193,0.877718930515227,0.751841129337577,0.858095555180338,-0.506799566693953,1.2772243791292,-0.506799566693161,-1.03161661914577,-0.489595478451748,-2.05807270424017,NaN,NaN,0.771839671603897,-0.929546806505532,1.33774977034543,NaN,NaN,-0.572087240329986,NaN,0.567082815121019,0.132065413205932,NaN,NaN,-1.06698281710805,0.973434099329107,2.20898286140804,-0.109951128538951,2.0161571190641,0.058631574446104,-0.766703978371188,-0.803041740931976,-0.641350383878677,0.952109290420389,0.952109290421421,-0.348810761652919,NaN,NaN,NaN,-0.4766478697686,0.690052352215263,1.11976825360811,0.125913052644335,0.125913052644005,1.23371850697387,-1.23371850697531,0.575668278974013
207.6672,-0.39982723319048,0.654871572213834,-0.204539690035763,0.485087069770975,-0.340663830929565,-0.340663830929238,0.840735702473452,0.715918175246512,0.819815381326151,-0.539106336563896,1.2689827213684,-0.5391063365631,-1.07232959243442,-0.45199162039716,-2.06775820792374,NaN,NaN,0.742633865908631,-0.92637992075377,1.33132506632404,NaN,NaN,-0.571465773623337,NaN,0.588633212662796,0.128372088312231,NaN,NaN,-1.08504084828176,0.994547423925612,2.19769088426324,-0.124610970376057,1.99890840789493,0.0690241180125432,-0.785456165077321,-0.812644743470052,-0.633840941489659,0.952654848650094,0.952654848651121,-0.372117134427907,NaN,NaN,NaN,-0.479993068987842,0.681024523914253,1.14234977804202,0.10527617317575,0.105276173175424,1.19532780654171,-1.19532780654314,0.603382441935401
207.7696,-0.401367884584695,0.650787452789654,-0.207079173692885,0.480832475646734,-0.368406631893474,-0.368406631893146,0.80353719151706,0.679687413250004,0.781262980936126,-0.571632134744493,1.26008266737739,-0.571632134743694,-1.11377370855239,-0.413222014717809,-2.07700132948195,NaN,NaN,0.713499333124549,-0.92231650529759,1.32465171362961,NaN,NaN,-0.570959859780662,NaN,0.609213145712918,0.123915577101553,NaN,NaN,-1.10282192827241,1.01529796041548,2.1852067995455,-0.138949763240395,1.98069101242301,0.0798301230677632,-0.804346082568332,-0.821940526441243,-0.626479278640547,0.952812297902677,0.952812297903699,-0.395568824144166,NaN,NaN,NaN,-0.48365732742437,0.671305779257605,1.16413642131204,0.0842746370299044,0.0842746370295868,1.15597143088986,-1.15597143089128,0.630092258419489
207.872,-0.402412712483542,0.645872366161237,-0.209370008931406,0.47576017196317,-0.395224013110035,-0.395224013109707,0.766168872002088,0.643163060631422,0.742470432590775,-0.604279046798107,1.25052722363054,-0.604279046797306,-1.15592416295475,-0.373299891617268,-2.08578400332911,NaN,NaN,0.68452019656792,-0.917291907938501,1.31771492991387,NaN,NaN,-0.570534415850182,NaN,0.628798596721046,0.118697474002931,NaN,NaN,-1.12030651585523,1.03563586795296,2.17154653109664,-0.152965972332732,1.96152052795725,0.091050249312604,-0.823349591138921,-0.830900998410432,-0.619269338926015,0.952510702004122,0.952510702005141,-0.41912806168955,NaN,NaN,NaN,-0.487647864097766,0.660910648701468,1.18509958995328,0.062942272160643,0.0629422721603369,1.11574852421121,-1.11574852421262,0.655777945719885
207.9744,-0.402945983373612,0.640113654908752,-0.211400671531066,0.469872360846289,-0.421018940235285,-0.421018940234956,0.728675848084578,0.606360326493142,0.703470108014147,-0.63695095401211,1.24032009406121,-0.636950954011308,-1.19875207298573,-0.332243566727066,-2.0940888509353,NaN,NaN,0.655777438349733,-0.911246965165477,1.31050118588452,NaN,NaN,-0.570154427930112,NaN,0.647368092592495,0.112721304733946,NaN,NaN,-1.13747620703243,1.0555139330206,2.1567270810822,-0.166659962382765,1.94141269214035,0.10268293488159,-0.842441939879694,-0.8394998646429,-0.612214344239189,0.951683502316037,0.951683502317053,-0.442757054965989,NaN,NaN,NaN,-0.49196982789639,0.649853947699498,1.20521378096895,0.0413124168909184,0.0413124168906264,1.07475869355591,-1.07475869355731,0.680422222988012
208.0768,-0.402955435482818,0.633503311839451,-0.213161687927743,0.463174683249636,-0.445700462311241,-0.445700462310911,0.691102727066994,0.569295328140963,0.664294560700357,-0.669554011511022,1.2294657786129,-0.66955401151022,-1.24222445237488,-0.29007652794414,-2.10189925428238,NaN,NaN,0.627348459669489,-0.904128487209582,1.30299830657101,NaN,NaN,-0.569785231930369,NaN,0.66490279587412,0.105992645258104,NaN,NaN,-1.15431374780563,1.07488793048786,2.14076648875792,-0.180034007009411,1.9203833421095,0.11472438899646,-0.861597845142704,-0.847712724243827,-0.60531681397161,0.950268891687268,0.950268891688281,-0.466418224611282,NaN,NaN,NaN,-0.496626156408476,0.638150722303192,1.22445671702893,0.019417793389701,0.0194177933894243,1.03310159590499,-1.03310159590638,0.704010579519883
