time,S1-D1,S1-D8,S1-D9,S1-D15,S2-D1,S2-D2,S2-D3,S2-D9,S3-D1,S3-D2,S3-D16,S4-D2,S4-D3,S4-D5,S5-D3,S5-D4,S5-D5,S6-D2,S6-D5,S6-D17,S7-D6,S7-D7,S8-D6,S8-D7,S8-D18,S9-D3,S9-D4,S9-D9,S9-D11,S9-D19,S10-D8,S10-D9,S10-D10,S10-D11,S11-D8,S11-D10,S11-D20,S12-D10,S12-D11,S12-D12,S13-D4,S13-D11,S13-D12,S14-D10,S14-D12,S14-D21,S15-D13,S15-D14,S16-D13,S16-D14,S16-D22
220.8768,0.242863073677535,-1.52174994280876,NaN,0.711499472985911,1.40774683302894,1.40774683302937,NaN,1.96459250044163,1.58802730108036,1.03636470629773,1.15975639760006,1.03636470629782,-0.583598085467568,0.815025308701146,-0.199170638874794,-1.88343145468133,-1.72801912173133,-2.00647518864111,-2.13940292385355,0.754090459370791,-2.13940292385332,NaN,1.35652977147348,2.41946557068014,1.9550166893704,-0.0663411473244552,-0.0663411473263762,-0.918368652708963,0.918368652707546,3.38132821956994,2.68898090980316,-2.24468893894111,1.72588885275251,-0.217211994541443,0.149828557901909,0.000847520882206992,0.60045463073343,0.619293764240215,0.619293764242645,-1.21099008136904,-0.671908900668459,-1.51740739352092,0.173508041388072,-0.792795208098077,-0.631049302912829,0.390864011409329,-2.73048667444628,-2.73048667444728,-0.437605246804396,0.437605246804166,1.06046449430386
220.9792,0.251548365496249,-1.54803441095321,NaN,0.722427458772208,1.41524108987407,1.41524108987448,NaN,1.96393409166989,1.59051183499619,1.0596161885954,1.16154627859279,1.05961618859551,-0.616894165079683,0.836936008929913,-0.226689553780347,-1.87768853816295,-1.74885524035602,-2.00833496097361,-2.13711937140756,0.779847883058902,-2.13711937140733,NaN,1.38038688861237,2.41546558286208,1.98008966457472,-0.0896760843497822,-0.0896760843517,-0.907465733577524,0.907465733576134,3.38467233800963,2.66318946548843,-2.23789559410383,1.69179037290319,-0.185988017341511,0.13260230348962,0.00402598349441231,0.597808079533681,0.609174340558142,0.609174340560593,-1.19953924278203,-0.695010963850199,-1.51306572370804,0.178205898066116,-0.786015653021096,-0.618511379179978,0.405283554267426,-2.710734438108,-2.71073443810897,-0.457554119845495,0.457554119845283,1.06114031743205
221.0816,0.260962228492805,-1.57387066086564,NaN,0.732541657505633,1.42197179732994,1.42197179733034,NaN,1.96231776696397,1.59232696010118,1.08196130278701,1.16352298406884,1.08196130278715,-0.649560631646665,0.858304905506678,-0.25377185847722,-1.87096071144263,-1.76911884155822,-2.00924667208554,-2.13379706119733,0.80434109549953,-2.13379706119709,NaN,1.40418760353241,2.41024351376734,2.00392179551249,-0.114732790766693,-0.114732790768606,-0.896410965816742,0.896410965815378,3.38523808407065,2.63514331759445,-2.22915060123341,1.65632746085198,-0.15490182825087,0.114241728583541,0.00626393613950555,0.594816084326006,0.598591427419408,0.598591427421881,-1.1878818572092,-0.718826445036905,-1.50874653788856,0.181704196625559,-0.778365372793028,-0.60644605480205,0.419713404421095,-2.68915313221903,-2.68915313221997,-0.477027265976982,0.477027265976785,1.06203643044774
221.184,0.271058226133667,-1.59920733608457,NaN,0.741836280415754,1.42792073351454,1.42792073351493,NaN,1.9597604744826,1.59347998372695,1.10336488972344,1.16565523011284,1.10336488972359,-0.681580332621564,0.879076566796386,-0.280432380461312,-1.86328463803091,-1.78879942182745,-2.00923589076174,-2.12947498908893,0.827536729105193,-2.12947498908869,NaN,1.42792490865529,2.40382958463516,2.02647128670829,-0.141485689424303,-0.14148568942621,-0.885169722099379,0.885169722098044,3.3830193913875,2.60489450648702,-2.21847835575081,1.61955619362607,-0.123964463958434,0.0947687936957014,0.00757240462796112,0.591517233534932,0.587520679554456,0.587520679556954,-1.1760271775275,-0.743313625778733,-1.5044455135778,0.183943200638661,-0.769804531835345,-0.594880562123517,0.434147401339776,-2.66577782324758,-2.66577782324849,-0.496017505030132,0.496017505029952,1.06321713163272
221.2864,0.281788713138825,-1.62399474481572,NaN,0.750306836316718,1.43306848158045,1.43306848158082,NaN,1.95628052396486,1.59397837534677,1.12379610227608,1.16791189257471,1.12379610227625,-0.712935645254059,0.89919348165665,-0.306686721601856,-1.8546978834613,-1.80788671165838,-2.00832896533552,-2.12419246355237,0.849404981861629,-2.12419246355213,NaN,1.45159110057707,2.39625513865223,2.0476986932908,-0.169903887905016,-0.169903887906919,-0.873706656749539,0.87370665674823,3.37801489696345,2.5724995006244,-2.20590799019296,1.58153425141845,-0.0931888383149112,0.0742085068296368,0.00796376371396908,0.587949332789458,0.57593850456432,0.575938504566841,-1.16398362476365,-0.768428891694023,-1.50015679866955,0.184867968975613,-0.760297661693425,-0.583841173874514,0.448578948888191,-2.64064764709748,-2.64064764709835,-0.514519909317711,0.514519909317548,1.06474400791736
221.3888,0.293104939720462,-1.648185024285,NaN,0.75795015208187,1.43739450197332,1.43739450197369,NaN,1.95189754234417,1.59382975466407,1.14322848918434,1.17026208846926,1.14322848918453,-0.743608497396169,0.918596340593456,-0.332551099606234,-1.84523885340217,-1.82637065224371,-2.00655296798735,-2.11798900512944,0.869919673979384,-2.11798900512919,NaN,1.47517765002978,2.38755256103815,2.06756713089877,-0.199951271020165,-0.199951271022059,-0.861986056238764,0.861986056237478,3.37022802114046,2.53801912668802,-2.19147325109627,1.54232094987984,-0.0625897641390335,0.0525888767243537,0.00745168987602847,0.584149287259475,0.563822271625339,0.563822271627881,-1.15175887618041,-0.794126908742485,-1.49587316509089,0.184428606667086,-0.749813887432859,-0.5733531508018,0.463001023303086,-2.61380572426052,-2.61380572426136,-0.532531734635818,0.532531734635673,1.06667571161411
221.4912,0.304957171238536,-1.67173230470539,NaN,0.764764381061842,1.44087722078308,1.44087722078343,NaN,1.94663240550798,1.59304186582542,1.16164005406323,1.17267525914077,1.16164005406343,-0.773580407636484,0.937224388087631,-0.358042167055528,-1.83494670650589,-1.84424136964604,-2.00393561844332,-2.11090423380666,0.889058286641787,-2.11090423380641,NaN,1.49867507210942,2.37775518315446,2.08604246521205,-0.231586632907525,-0.231586632909414,-0.849972211823218,0.849972211821955,3.3596670189359,2.50151845044481,-2.17521232097967,1.50197725718533,-0.0321839753722848,0.0299408443825526,0.00605109729205505,0.580152987860362,0.551150514405552,0.551150514408117,-1.13935994081129,-0.820360817281483,-1.49158615513631,0.182580496223102,-0.738327117375888,-0.563440673428592,0.477406180889915,-2.58529903240587,-2.58529903240668,-0.550052331257552,0.550052331257424,1.06906773204018
221.5936,0.317294823892799,-1.69459287398763,NaN,0.770749000798378,1.44349413201381,1.44349413201415,NaN,1.94050714396415,1.59162253441308,1.17901328794226,1.1751212558429,1.17901328794249,-0.802832547381462,0.955015845857544,-0.38317681146125,-1.82386124300782,-1.86148914706201,-2.00050518805566,-2.10297774899458,0.906801985167762,-2.10297774899433,NaN,1.52207282632905,2.36689717129929,2.10309348270176,-0.264763836430751,-0.264763836432625,-0.837629803388625,0.837629803387382,3.34634499815801,2.46306660588137,-2.15716758575185,1.46056579146529,-0.00199014580677877,0.00629820098915468,0.00377806519260866,0.575995192563222,0.537903128087573,0.537903128090157,-1.12679321010515,-0.84708243849551,-1.48728620550895,0.179284518660472,-0.72581619433061,-0.554126745316756,0.49178656650625,-2.55517823654225,-2.55517823654302,-0.567083029571084,0.567083029570972,1.07197216598531
221.696,0.330066605102126,-1.71672534434675,NaN,0.775904806177071,1.44522191453408,1.44522191453441,NaN,1.93354483250913,1.58957961380558,1.19533517353981,1.17757042460197,1.19533517354005,-0.83134582549211,0.971908384622841,-0.407971951849499,-1.81202278195432,-1.87810439978853,-1.99629039578339,-2.09424901295694,0.923135636651262,-2.09424901295669,NaN,1.54535925441843,2.35501340422292,2.11869204674684,-0.299431983721821,-0.299431983723681,-0.82492428138095,0.824924281379725,3.33027991480642,2.42273658653966,-2.13738536753767,1.41815079758058,0.0279710992256095,-0.0183024973730569,0.00064976645147926,0.571709403093109,0.524061562082959,0.524061562085564,-1.11406448767933,-0.874242480974685,-1.48296274917262,0.174507264072285,-0.712265007223648,-0.545433066881192,0.506133929196705,-2.52349749792371,-2.52349749792445,-0.583627005751403,0.583627005751307,1.07543749395959
221.7984,0.343220643366937,-1.73809081746709,NaN,0.780233903871932,1.44603656876564,1.44603656876596,NaN,1.92576947740369,1.58692093163552,1.21059716145052,1.17999368357795,1.21059716145078,-0.859100983394186,0.987839598360321,-0.432444346892361,-1.79947204340181,-1.89407765413482,-1.99132030928092,-2.08475724573957,0.938047826138111,-2.08475724573931,NaN,1.56852154182787,2.34213934583485,2.13281324543296,-0.33553558726403,-0.335535587265871,-0.811822232090518,0.811822232089316,3.3114945592881,2.38060502430034,-2.11591565407722,1.37479810744658,0.0576771813240837,-0.0438220119522681,-0.00331559615988444,0.567327748326721,0.509609008079098,0.509609008081724,-1.10117901061031,-0.90179073497809,-1.47860430401141,0.168221230453552,-0.697662570079932,-0.537379888524718,0.520439654602016,-2.4903142895482,-2.49031428954891,-0.599689137370701,0.599689137370619,1.07950836665444
221.9008,0.356704598624582,-1.75865303997904,NaN,0.783739710115812,1.44591358243362,1.44591358243393,NaN,1.91720591098694,1.58365424592475,1.224795121812,1.18236258624864,1.22479512181227,-0.886078685963725,1.00274743874394,-0.456610423881066,-1.78625004665317,-1.90939952991427,-1.98562425966903,-2.07454133475116,0.951530862815133,-2.07454133475091,NaN,1.59154569164501,2.32831092191892,2.14543553705929,-0.373014735596944,-0.373014735598768,-0.798291715977832,0.798291715976653,3.29001654353681,2.33675197736855,-2.09281184963915,1.33057508979579,0.0871035837797977,-0.0702184995538543,-0.00809884211631061,0.562880892384339,0.494530580753313,0.494530580755958,-1.08814147340357,-0.929676247886188,-1.47419855795112,0.160405007993049,-0.682003082094433,-0.529985860732458,0.534694821259387,-2.45568924105652,-2.45568924105719,-0.615275852599469,0.615275852599403,1.08422540429435
222.0032,0.370465752782832,-1.77837854038257,NaN,0.786426951781387,1.44482813323691,1.4448281332372,NaN,1.90787969736513,1.57978721571908,1.23792927546344,1.18464936806209,1.23792927546373,-0.91225960837145,1.01657060428301,-0.480486132376475,-1.77239802728716,-1.92406073123515,-1.97923177359336,-2.06363976057353,0.963580763391488,-2.06363976057328,NaN,1.61441651670351,2.31356440721403,2.15654089500494,-0.411805250928423,-0.411805250930226,-0.784302579440771,0.784302579439612,3.26587829492606,2.29126072916768,-2.06813054903544,1.28555059027917,0.116223888712729,-0.0974475900322438,-0.0136798529932776,0.558397982066447,0.478813489276233,0.478813489278899,-1.07495606133232,-0.957847482252574,-1.46973245814272,0.151043439281791,-0.665285980278773,-0.523267904201862,0.548890282873176,-2.41968602755166,-2.4196860275523,-0.630394969822191,0.630394969822138,1.08962501378159
222.1056,0.384451085145944,-1.79723674353441,NaN,0.788301670919303,1.44275532467349,1.44275532467377,NaN,1.8978170427135,1.57532738242368,1.25000410284838,1.18682697892121,1.25000410284869,-0.937624525932231,1.02924890998569,-0.5040868144378,-1.75795736706783,-1.93805205122579,-1.97217251965142,-2.05209053619829,0.974197208213292,-2.05209053619803,NaN,1.63711766090241,2.29793631911457,2.16611494569381,-0.451838845745718,-0.4518388457475,-0.769826742459116,0.769826742457981,3.23911705189754,2.24421758147628,-2.04193131600354,1.23979485695156,0.145009834672503,-0.12546247170285,-0.0200376076585772,0.553906633684067,0.462447202046853,0.462447202049535,-1.06162649384483,-0.986252465239158,-1.46519230793724,0.14012774322739,-0.647515987493201,-0.51724111706292,0.563016775260483,-2.38237130373457,-2.38237130373518,-0.645055524314576,0.645055524314536,1.09573922759596
222.208,0.398607339294414,-1.81520006596479,NaN,0.789371232188142,1.43967043611143,1.43967043611169,NaN,1.8870446946873,1.57028215048397,1.26102822148193,1.1888691058576,1.26102822148225,-0.962154404557352,1.04072366363373,-0.52742707126645,-1.74296952521226,-1.9513643872896,-1.96447625910387,-2.03993114853444,0.983383474797795,-2.03993114853418,NaN,1.6596316500209,2.28146330484661,2.17414708746735,-0.493043297561559,-0.493043297563319,-0.754838456766028,0.754838456764917,3.20977484261456,2.19571162598938,-2.01427644774527,1.19337944694759,0.173431388573532,-0.154213997459246,-0.0271502258005888,0.54943294349422,0.445423609291751,0.445423609294451,-1.04815607413942,-1.01483894280607,-1.46056387204143,0.127655595788064,-0.628703149274622,-0.511918720233193,0.577065043977153,-2.34381466273584,-2.34381466273642,-0.659267581871996,0.659267581871969,1.10259556031488
222.3104,0.412881088069455,-1.83224399973416,NaN,0.78964433208237,1.43554916418313,1.43554916418338,NaN,1.87558981657571,1.56465875688249,1.27101422010942,1.19075019047677,1.27101422010976,-0.985830485879787,1.05093805924224,-0.550520611852982,-1.7274759619724,-1.96398875692639,-1.95617279072573,-2.02719848927365,0.991146356493272,-2.0271984892734,NaN,1.6819399603268,2.26418201003724,2.18063058056849,-0.53534266135274,-0.53534266135448,-0.739314529232797,0.739314529231709,3.17789842644503,2.14583449325998,-1.98523072344566,1.14637711523154,0.201456835636221,-0.183650822359412,-0.0349950261082671,0.545001502528018,0.427737180910011,0.427737180912728,-1.0345477410343,-1.04355455130615,-1.45583249002925,0.113631167994117,-0.60886284730084,-0.507312027613637,0.591025984338511,-2.3040885799325,-2.30408857993305,-0.673042040411723,0.673042040411708,1.11021687091484
222.4128,0.427218802820199,-1.84834719211287,NaN,0.78913101015417,1.43036784514848,1.43036784514872,NaN,1.86347983135355,1.55846422671576,1.27997844201649,1.19244544556602,1.27997844201685,-1.00863437111499,1.05983758821216,-0.573380088407669,-1.71151805333317,-1.97591631009358,-1.94729188762709,-2.01392877035033,0.997496077446106,-2.01392877035008,NaN,1.70402309013698,2.24612892646478,2.18556260652565,-0.578657526022443,-0.578657526024158,-0.72323451470806,0.72323451470699,3.14353919069492,2.09468008955142,-1.95486114752069,1.09886168984892,0.229052903349207,-0.213719576685354,-0.0435485937743563,0.540635404793701,0.409385104976293,0.409385104979023,-1.02080412052829,-1.07234701299292,-1.45098319764798,0.0980651243733003,-0.588015776423723,-0.503430423819649,0.604890781441879,-2.26326830581155,-2.26326830581208,-0.686390420776414,0.686390420776409,1.11862122114128
222.5152,0.441566932635625,-1.863491524043,NaN,0.787842662428676,1.42410366577658,1.42410366577682,NaN,1.85074223923028,1.55170531870923,1.28794072001713,1.19393087308155,1.2879407200175,-1.03054811502105,1.06737046544703,-0.596016934672774,-1.69513700068665,-1.98713834432007,-1.93786323097145,-2.00015742779748,1.00244621809653,-2.00015742779723,NaN,1.72586062533274,2.22734022552511,2.1889443015936,-0.622905306456076,-0.622905306457762,-0.706580886213382,0.706580886212335,3.10675300961724,2.04234433382933,-1.92323670045947,1.05090793836489,0.256184935027516,-0.244365071609806,-0.052786846964968,0.536356248992452,0.390367386543188,0.390367386545935,-1.00692757434287,-1.10116435331203,-1.44600085231119,0.0809745841674211,-0.566187877498954,-0.500281338537419,0.61865103901814,-2.22143169549937,-2.22143169549988,-0.699324651058316,0.699324651058322,1.12782173005994
222.6176,0.455871995749341,-1.87766218484432,NaN,0.785792056055199,1.41673487804369,1.41673487804392,NaN,1.83740441755783,1.544388467739,1.29492407399044,1.195183281907,1.29492407399082,-1.05155433729071,1.07348806201509,-0.618441221878481,-1.67837374035861,-1.99764633328163,-1.92791634769217,-1.98591902153275,1.00601365764654,-1.9859190215325,NaN,1.74743129981591,2.2078515869095,2.19078077138377,-0.668000556166656,-0.668000556168316,-0.689339186107147,0.689339186106121,3.06760008124815,1.98892490244803,-1.89042810897208,1.00259142390396,0.282817119442069,-0.27553052915482,-0.0626850924965322,0.532184143614469,0.370686891583893,0.370686891586654,-0.992920243861378,-1.12995513109113,-1.44087025807358,0.0623830491492792,-0.543410229149841,-0.497870216395653,0.632298892482567,-2.17865898185663,-2.17865898185712,-0.71185685295333,0.711856852953347,1.1378264316895
222.72,0.470080677057786,-1.89084773650553,NaN,0.782993346410591,1.40824102774269,1.40824102774291,NaN,1.82349341767398,1.5365197352909,1.3009543811851,1.1961803020405,1.3009543811855,-1.07163635102709,1.07814532777008,-0.640661542802039,-1.66126885973704,-2.00743197894522,-1.91748056059382,-1.97124714171842,1.00821852552009,-1.97124714171817,NaN,1.76871305636931,2.18769803418167,2.19108109320647,-0.713855286109026,-0.71385528611066,-0.671498161363646,0.671498161362641,3.02614476075875,1.93452098105229,-1.85650764346281,0.953988340459884,0.308912776353668,-0.307157824463658,-0.0732180616382726,0.528137727972208,0.350349335890176,0.350349335892952,-0.978784091965943,-1.15866867002828,-1.43557628880905,0.0423203011022238,-0.519718907651805,-0.496200488449972,0.645827105081857,-2.13503250671623,-2.1350325067167,-0.723999139241007,0.723999139241037,1.14863814380466
222.8224,0.484139920378188,-1.90304016044652,NaN,0.779462099904204,1.39860319923725,1.39860319923747,NaN,1.8090357770126,1.52810478167849,1.3060600252293,1.19690039366172,1.3060600252297,-1.09077830237957,1.0813011847983,-0.662684929043808,-1.64386252832606,-2.01648729219184,-1.90658495887232,-1.95617433409081,1.00908415012678,-1.95617433409057,NaN,1.7896831052844,2.16691379157493,2.18985830894153,-0.76037927996377,-0.760379279965382,-0.653049890349666,0.653049890348684,2.98245540692338,1.8792330180079,-1.82154894012884,0.905175321388473,0.334434689568199,-0.339187729247526,-0.0843599219078188,0.524234213423552,0.329363235638254,0.329363235641041,-0.964520948476705,-1.18725528115504,-1.43010401215745,0.020822266530271,-0.495154821181523,-0.495273554638547,0.659229143004614,-2.09063643178597,-2.09063643178643,-0.735763426570186,0.735763426570227,1.16025435772991
222.9248,0.497997010227264,-1.91423488397717,NaN,0.775215321136512,1.38780427510898,1.38780427510919,NaN,1.7940573615908,1.519148870505,1.31027153169073,1.19732285328683,1.31027153169115,-1.10896531244906,1.08291887816055,-0.684516799218427,-1.62619444778266,-2.02480469750722,-1.89525839089067,-1.94073205107063,1.0086370014925,-1.94073205107039,NaN,1.81031796632303,2.14553217206483,2.18712940669743,-0.807480403775726,-0.807480403777314,-0.63398990796769,0.63398990796673,2.93660425118612,1.82316247877857,-1.78562683707719,0.856229232759087,0.359345465196606,-0.371560150632533,-0.0960842721357052,0.520489436972698,0.307739844554834,0.307739844557633,-0.950132562550083,-1.2156664705853,-1.4244388158808,-0.00206915211244094,-0.469763521781622,-0.495088781545116,0.672499221459631,-2.04555645198248,-2.04555645198293,-0.747161262052219,0.747161262052272,1.17266716150664
223.0272,0.511599650869312,-1.92443078971999,NaN,0.770271476762466,1.37582920803586,1.37582920803607,NaN,1.77858324671902,1.50965690887718,1.31362120431309,1.19742782272123,1.31362120431353,-1.12618361684951,1.08296628273672,-0.706160933037294,-1.60830381771633,-2.0323771521917,-1.88352947376486,-1.92495062634679,1.00690662903858,-1.92495062634656,NaN,1.83059348129038,2.12358549642969,2.1829152886086,-0.855064911797273,-0.85506491179883,-0.614317331654225,0.614317331653288,2.88866729184425,1.76641160815143,-1.74881721443013,0.807226974795349,0.383607888329827,-0.404214362587193,-0.108364132681254,0.516917914134606,0.285493099332181,0.285493099334991,-0.935620661258645,-1.24385513128176,-1.41856653537063,-0.0263062694064657,-0.443594997757987,-0.495643507613725,0.685632312738848,-1.99987951865935,-1.99987951865979,-0.758203662058667,0.758203662058731,1.18586320696483
223.1296,0.524896057761647,-1.93363021407952,NaN,0.764650507806609,1.36266530021707,1.36266530021728,NaN,1.76263763892736,1.49963352246159,1.31614277918531,1.19719630699014,1.31614277918575,-1.1424207105755,1.08141618240284,-0.727619470248759,-1.5902293107122,-2.03919827370163,-1.87142661267467,-1.90885926748653,1.00392559236788,-1.9088592674863,NaN,1.85048480236216,2.10110503809245,2.17724072577825,-0.903037747000148,-0.903037747001675,-0.59403499058053,0.594034990579612,2.83872421311036,1.70908320322774,-1.71119682679239,0.758245310017815,0.40718526458649,-0.437089224375489,-0.121171933645122,0.513532879384781,0.262639585305008,0.262639585307825,-0.920987014851733,-1.27177571784117,-1.41247358249827,-0.0518358247370864,-0.416703445378535,-0.496933043735616,0.698624108688595,-1.95369356181357,-1.95369356181399,-0.768900963552203,0.768900963552279,1.19982372515511
223.232,0.537835075212692,-1.94183893932998,NaN,0.758373823597571,1.3483024851218,1.34830248512201,NaN,1.74624383994025,1.48908316248375,1.31787111376494,1.19661020406839,1.3178711137654,-1.15766551404194,1.07824655081813,-0.748892935173251,-1.57200904984842,-2.04526247328621,-1.85897802405626,-1.89248606343447,0.999729380094238,-1.89248606343424,NaN,1.86996637804196,2.0781209911079,2.17013430574027,-0.951302832464868,-0.951302832466359,-0.573149562021033,0.573149562020132,2.78685832826804,1.65128039032419,-1.67284311269213,0.709360725196584,0.430041746700023,-0.470123379645538,-0.13447949609985,0.510346305868207,0.239198522914118,0.239198522916945,-0.906233513059111,-1.29938440142538,-1.40614707947619,-0.0785992086326266,-0.389147012932167,-0.498950666298548,0.711470933762104,-1.90708719398241,-1.90708719398282,-0.779262686413003,0.779262686413089,1.21452459077397
223.3344,0.550366328647941,-1.94906618046684,NaN,0.751464268882311,1.33273361179011,1.33273361179033,NaN,1.72942425070585,1.47801023918121,1.31884192530722,1.19565234483103,1.31884192530769,-1.1719085691186,1.07344085730746,-0.769980282508819,-1.553680581746,-2.05056509476461,-1.84621175685885,-1.87585800489812,0.994356313593516,-1.87585800489789,NaN,1.88901195547939,2.05466245972922,2.16162837856393,-0.999763353137208,-0.999763353138662,-0.551671712981204,0.551671712980321,2.73315654397578,1.5931063958546,-1.63383396947549,0.660649324586795,0.452142646051195,-0.503255435303748,-0.148258005736924,0.507368903341653,0.215191765524651,0.215191765527485,-0.891362254532761,-1.32663920185029,-1.39957499894547,-0.106532720889716,-0.360987507456372,-0.501687607805282,0.724169611165108,-1.86014937923178,-1.86014937923217,-0.789297403858119,0.789297403858214,1.22993643801383
223.4368,0.562440410773885,-1.95532456478619,NaN,0.74394605646265,1.31595474109435,1.31595474109458,NaN,1.71220041044628,1.46641927379801,1.31909158546373,1.19430653902868,1.31909158546421,-1.18514225656548,1.06698839550471,-0.79087895512291,-1.53528084018453,-2.05510255521791,-1.83315570698137,-1.85900101530599,0.987847436154132,-1.85900101530576,NaN,1.90759459810518,2.03075746574116,2.15175900364908,-1.04832202793446,-1.04832202793587,-0.529616233980163,0.529616233979296,2.67770933879445,1.53466430169584,-1.59424749027789,0.612186742934565,0.473454721481873,-0.536424123753579,-0.162477985686969,0.504610104037565,0.190643796773818,0.190643796776661,-0.876375643820586,-1.35350009430697,-1.39274630346328,-0.135567870003091,-0.332290057574989,-0.505133049178024,0.73671729451764,-1.81296905836206,-1.81296905836244,-0.799012621497143,0.799012621497249,1.24602483195914
223.5392,0.574009088691571,-1.96063010058681,NaN,0.73584466646701,1.297965464477,1.29796546447724,NaN,1.6945930660548,1.45431506272587,1.3186569646729,1.19255762255355,1.3186569646734,-1.19736101407571,1.05888460413631,-0.811584947772912,-1.51684610163368,-2.05887248245737,-1.81983762437837,-1.84193999247429,0.980246390375112,-1.84193999247406,NaN,1.92568670125158,2.0064329712076,2.14056589410168,-1.09688136785861,-1.09688136785999,-0.507002149233626,0.507002149232777,2.62061074818548,1.47605677412112,-1.55416166472792,0.564048058425536,0.493946437531621,-0.569568450529693,-0.177109274186162,0.502078051412154,0.165581722074589,0.165581722077431,-0.861276487291186,-1.37992908786212,-1.38565107428677,-0.165631711860605,-0.303122737172173,-0.509274116349692,0.749111285850483,-1.76563474264014,-1.7656347426405,-0.808414669069969,0.808414669070085,1.2627504948304
223.6416,0.58502551079043,-1.96500213153686,NaN,0.727186722940011,1.27876924367982,1.27876924368007,NaN,1.67662227006678,1.44170285318927,1.31757530828981,1.19039150188962,1.31757530829032,-1.2085615338234,1.04913133619105,-0.832092878938014,-1.49841194045308,-2.06187384523829,-1.80628511768849,-1.82469886648048,0.971599285518622,-1.82469886648026,NaN,1.94325998482994,1.98171492124227,2.1280923523409,-1.14534391730693,-1.14534391730827,-0.48385279776372,0.483852797762886,2.56195835226181,1.41738575900002,-1.51365405033049,0.516307685364806,0.513588196658082,-0.602627829157117,-0.192121006099057,0.499779604534357,0.140035255046435,0.140035255049278,-0.846068085579278,-1.40589027547093,-1.37828062677524,-0.196647215098537,-0.273556169083794,-0.514095886697301,0.761348853131966,-1.71823410861667,-1.71823410861703,-0.817508607622797,0.817508607622922,1.28006957838612
223.744,0.595444396378872,-1.9684632733844,NaN,0.717999856974027,1.25837375626352,1.25837375626378,NaN,1.65830750377159,1.42858853201798,1.31588412479091,1.18779519320177,1.31588412479143,-1.21874292095818,1.03773703752091,-0.852396072994914,-1.48001318990656,-2.0641070740324,-1.79252566054163,-1.8073006796488,0.961954551810341,-1.80730067964858,NaN,1.96028544777721,1.95662831394912,2.11438518712217,-1.1936124878607,-1.193612487862,-0.460195888709967,0.460195888709148,2.5018532630669,1.35875214893141,-1.47280143081482,0.469039236466935,0.532352559764793,-0.635542212504045,-0.207481597885512,0.49772036666456,0.114036697297014,0.114036697299859,-0.830754326861247,-1.43134986263511,-1.3706276194213,-0.228533639119115,-0.243663131509746,-0.519581412957653,0.773427040002625,-1.670853624364,-1.67085362436435,-0.826298151236788,0.826298151236922,1.2979339717128
223.8464,0.605222205158794,-1.97103932964612,NaN,0.708312554274044,1.23679122757357,1.23679122757385,NaN,1.63966781614528,1.41497882386498,1.3136210765784,1.18475685582379,1.31362107657894,-1.22790679405577,1.02471681123022,-0.872486644364864,-1.46168390611576,-2.06557416774692,-1.77858659587856,-1.78976768554718,0.951362774335673,-1.78976768554696,NaN,1.97673327926837,1.93119729671414,2.09949459957545,-1.24159040547858,-1.24159040547983,-0.43606352902801,0.436063529027209,2.44040010101584,1.30025543949889,-1.43167948285996,0.422315357380506,0.550214460712698,-0.668252237896264,-0.223158746255028,0.495904740952156,0.0876209029986483,0.0876209030014994,-0.815339784027488,-1.4562761886115,-1.3626861644997,-0.261206921086026,-0.213518176898869,-0.525711770596703,0.785342452105909,-1.62357821815909,-1.62357821815942,-0.834785601507122,0.834785601507265,1.3162916419793
223.9488,0.614317291072947,-1.9727591833415,NaN,0.698153978436732,1.21403873299331,1.2140387329936,NaN,1.62072197077088,1.40088149304639,1.31082387268632,1.18126582124089,1.31082387268687,-1.23605731246563,1.01009235888063,-0.892355570570038,-1.44345732924113,-2.06627877930556,-1.76449513163423,-1.77212145747104,0.939876499006277,-1.77212145747081,NaN,1.99257273012421,1.90544528239771,2.08347402812747,-1.28918179021575,-1.28918179021698,-0.411492211114676,0.411492211113887,2.37770694619445,1.24199339049203,-1.39036246447046,0.376207543559691,0.567151406941935,-0.700699401049994,-0.239119456160526,0.494336008632576,0.0608252182872974,0.0608252182901553,-0.79982981394766,-1.48063975397205,-1.35445194310184,-0.294580083413892,-0.183197254568258,-0.532466132772057,0.797091013154117,-1.57649098768822,-1.57649098768855,-0.842971794799197,0.842971794799349,1.33508701774374
224.0512,0.622690038614946,-1.97365466145617,NaN,0.687553767220212,1.19013846008227,1.19013846008258,NaN,1.60148860096574,1.38630554656255,1.30753016044481,1.17731261790947,1.30753016044537,-1.24320112770431,0.99389179826762,-0.911992750770528,-1.42536584346978,-2.06622627606652,-1.75027832779465,-1.75438300047972,0.927550007694259,-1.7543830004795,NaN,2.00777195597652,1.87939508354815,2.06637994758235,-1.33629187297251,-1.3362918729737,-0.386522745594933,0.386522745594163,2.31388525654475,1.18406170034634,-1.34892292713609,0.330785950441192,0.583143656453133,-0.732826261905478,-0.255330105601567,0.493016417889806,0.033689394488826,0.0336893944916882,-0.784230656472228,-1.50441326141902,-1.34592232439249,-0.32856367996984,-0.152777320385279,-0.53982187645021,0.808667696559785,-1.52967294945379,-1.52967294945411,-0.850856063725191,0.85085606372535,1.35426142454474
224.1536,0.63030297470464,-1.97376036857575,NaN,0.67654181045335,1.16511792642761,1.16511792642794,NaN,1.58198637245636,1.37126143277105,1.30377741017048,1.17288899112211,1.30377741017105,-1.24934727020844,0.97614936868461,-0.931387056852232,-1.40744094157958,-2.06542377447683,-1.73596307917231,-1.73657286261711,0.914439065403846,-1.73657286261689,NaN,2.02229785997479,1.85306906338465,2.04827162478817,-1.38282733767804,-1.3828273376792,-0.361200130971882,0.361200130971124,2.24904975265517,1.12655370463108,-1.3074314584325,0.286119206714702,0.598174362610215,-0.764576671759105,-0.271756543596062,0.491947265603903,0.00625548768428178,0.00625548768714996,-0.768549532832411,-1.52757166765247,-1.33709648798087,-0.363066285594218,-0.122335929493625,-0.547754720786038,0.820066254721767,-1.48320283423802,-1.48320283423834,-0.858436216286347,0.858436216286514,1.37375356423954
224.256,0.63712085479417,-1.97311348909982,NaN,0.66514802607507,1.13901014846763,1.13901014846797,NaN,1.56223414384218,1.35576122232265,1.29960279070708,1.16798791778631,1.29960279070767,-1.254506990804,0.956905048630312,-0.950526385036254,-1.38971319645085,-2.06388014875048,-1.72157609569666,-1.71871123744809,0.900600640606565,-1.71871123744787,NaN,2.03611597669411,1.82648929452853,2.02921084259092,-1.42869666872696,-1.42869666872809,-0.335573359493654,0.33557335949291,2.18331826959364,1.06956011988455,-1.26595647705065,0.24227423934797,0.612229679478768,-0.795896002041937,-0.288364210095872,0.491128953500214,-0.0214322379133439,-0.021432237910472,-0.752794741753703,-1.55009223687557,-1.32797554441409,-0.397995006343432,-0.0919508330672956,-0.556238893666916,0.831278979170064,-1.43715693680176,-1.43715693680208,-0.865708539901781,0.865708539901958,1.39350000953655
224.3584,0.643110728132975,-1.97175356197579,NaN,0.653402151887318,1.1118537476503,1.11185374765067,NaN,1.54225111391615,1.33981875980362,1.29504303738301,1.16260361799327,1.29504303738361,-1.25869357374086,0.936204112646833,-0.969397711685928,-1.37221223953351,-2.06160601558505,-1.70714388084129,-1.70081805408803,0.886092589438657,-1.70081805408781,NaN,2.04919043006398,1.79967771504402,2.00926160820478,-1.47381048426526,-1.47381048426635,-0.309695164209839,0.309695164209109,2.11681157335957,1.01316885212516,-1.22456410523564,0.199316112241201,0.625298831266419,-0.826731354390464,-0.305118260396502,0.490561010290538,-0.0493273955707057,-0.049327395567832,-0.736975747304527,-1.57195458297378,-1.31856264302456,-0.433255974121381,-0.0616996112095001,-0.56524731813077,0.842296511576775,-1.39160902364861,-1.39160902364892,-0.872667838209746,0.872667838209931,1.41343568553778
224.4608,0.648241984169804,-1.96972223257548,NaN,0.64133356648527,1.08369297647685,1.08369297647724,NaN,1.52205695396185,1.32344978540383,1.29013431301489,1.15673156549598,1.2901343130155,-1.26192213130988,0.91409664597245,-0.987987153645855,-1.35496674859604,-2.05861370193137,-1.69269271215795,-1.68291306227867,0.870973289802491,-1.68291306227845,NaN,2.06148397204583,1.77265627881197,1.9884898560851,-1.51808184232502,-1.51808184232609,-0.283621720526257,0.283621720525538,2.04965313951745,0.957464872358528,-1.18331812835305,0.157307870735941,0.637374161331564,-0.857031737402161,-0.32198367475322,0.490242087319839,-0.0773815591649544,-0.0773815591620767,-0.721103251562525,-1.59314068716148,-1.30886305528115,-0.468754804989145,-0.0316593562765166,-0.574751809708801,0.853107700055091,-1.34663029250514,-1.34663029250545,-0.879307503027143,0.879307503027335,1.43349432846587
224.5632,0.652486371397574,-1.96706298195355,NaN,0.628971147943832,1.05457765509923,1.05457765509963,NaN,1.5016719306724,1.30667203328378,1.2849120591624,1.15036849580905,1.28491205916302,-1.26420938804558,0.890637031308264,-1.0062800337926,-1.33800445138428,-2.05491720483522,-1.67824863187583,-1.66501592544387,0.855301219652895,-1.66501592544365,NaN,2.07295808853346,1.74544710230988,1.96696314656718,-1.5614265130991,-1.56142651310014,-0.257412326384486,0.25741232638378,1.9819688954278,0.902530148705033,-1.14228003290417,0.116310385339669,0.64845117458124,-0.886748201324485,-0.338925339261083,0.49016994548919,-0.10554435889355,-0.105544358890671,-0.705189250462078,-1.61363487995031,-1.2988842281153,-0.504397028377265,-0.00190639199363586,-0.584723277691916,0.863699485402239,-1.3022893704845,-1.30228937048481,-0.885619617601646,0.885619617601844,1.45360892689527
224.6656,0.655817973261599,-1.96382082970945,NaN,0.616343174208258,1.02456301825734,1.02456301825777,NaN,1.48111702382522,1.28950531177764,1.27941083203619,1.14351240663412,1.27941083203683,-1.26557346095659,0.865883414510218,-1.02426095543152,-1.32135215357992,-2.05053214810515,-1.66383745560481,-1.64714632878778,0.839134484792967,-1.64714632878755,NaN,2.08357315299171,1.71807260810057,1.94475035791459,-1.60376321743451,-1.60376321743553,-0.231129084289402,0.231129084288708,1.91388692943558,0.848443624423875,-1.10150910368392,0.0763822001102923,0.65852857624098,-0.915833928044209,-0.355908094419946,0.490341450941758,-0.133763600153686,-0.133763600150808,-0.689247077861428,-1.63342378241198,-1.28863581087818,-0.540088507113633,0.0274839958190596,-0.595131927963139,0.874056808135247,-1.25865234219967,-1.25865234219998,-0.891595086874334,0.891595086874537,1.47371215237822
224.768,0.658213133225077,-1.96004200850793,NaN,0.603477262425495,0.993709474620724,0.993709474621178,NaN,1.46041403357004,1.27197156262063,1.27366411753708,1.13616254558121,1.27366411753773,-1.26603363676088,0.839897146011766,-1.04191388886866,-1.30503579326755,-2.04547573305129,-1.64948480003446,-1.6293240964429,0.822530309745222,-1.62932409644267,NaN,2.09328861346627,1.69055565829389,1.92192136770947,-1.64501384306589,-1.64501384306689,-0.204836593286029,0.204836593285346,1.84553716409288,0.795281232333357,-1.06106255594141,0.0375793989006204,0.66760830073519,-0.94424428463813,-0.372896760989766,0.490752588071997,-0.161985409429633,-0.16198540942675,-0.673291445190695,-1.65249621358448,-1.27812966609172,-0.575735859702354,0.0564378258911558,-0.605947471188746,0.884162535190877,-1.21578280557243,-1.21578280557273,-0.897223793952478,0.897223793952687,1.49373677995551
224.8704,0.659650336677466,-1.95577361408455,NaN,0.590400337577334,0.962082279644353,0.962082279644832,NaN,1.43958566412015,1.25409488894813,1.2677041242596,1.12831938455644,1.26770412426026,-1.26561014575915,0.812742200292604,-1.05922226817488,-1.28908051301474,-2.03976667573894,-1.63521612033704,-1.61156930001593,0.805544510169546,-1.61156930001569,NaN,2.10206321141757,1.66291966403858,1.89854671736659,-1.6851036591305,-1.68510365913147,-0.178601648077402,0.178601648076731,1.77705098228956,0.743115932350142,-1.02099567743827,-4.45023658438906e-05,0.675695521457899,-0.971936858589186,-0.389856161826742,0.491398486909218,-0.190154408371912,-0.190154408369033,-0.65733848083059,-1.67084308077277,-1.26737987410188,-0.611246883792408,0.0848826796376493,-0.617139341308052,0.893997410412417,-1.17374195084423,-1.17374195084452,-0.902494781272145,0.902494781272361,1.51361609421569
224.9728,0.660110064048265,-1.95106323682639,NaN,0.577138618952251,0.929751121278548,0.92975112127905,NaN,1.41865557391631,1.23590154284798,1.26156155887466,1.11998458333491,1.26156155887533,-1.26432393738892,0.784484592150893,-1.07616909216592,-1.27351073741645,-2.03342512494444,-1.62105674596223,-1.59390234247276,0.788230961419966,-1.59390234247251,NaN,2.10985524027132,1.63518865935883,1.87469725429168,-1.72396154537072,-1.72396154537166,-0.152492944267819,0.152492944267157,1.70856079819621,0.692017755533425,-0.98136195912611,-0.0364386392298273,0.682798634524046,-0.998871490248167,-0.406751155248007,0.492273455522014,-0.218213918424304,-0.218213918421428,-0.641405769302778,-1.68845726707725,-1.25640273658968,-0.646530979642886,0.11274795020128,-0.628676923556615,0.903540032672793,-1.13258865198417,-1.13258865198445,-0.907396451311583,0.907396451311805,1.5332842803068
225.0752,0.659574622716792,-1.94595857810387,NaN,0.563717615667224,0.896789617762927,0.896789617763454,NaN,1.39764839301959,1.21741987030159,1.2552653892593,1.11116094443096,1.25526538925998,-1.26219646686997,0.755191816298881,-1.09273702402075,-1.25835025073215,-2.02647255924271,-1.60703191012711,-1.57634401514237,0.770641066696889,-1.57634401514211,NaN,2.11662284736959,1.60738733743855,1.85044374823587,-1.76152024087338,-1.7615202408743,-0.12658079415993,0.126580794159278,1.64019957390406,0.642053838267203,-0.942213196284578,-0.0715548631942953,0.688929211517985,-1.02501030657908,-0.423546685627776,0.493371007805359,-0.246106199589709,-0.246106199586834,-0.625512390503909,-1.70533352066725,-1.24521678072154,-0.681499580066127,0.139965094799366,-0.640529786507462,0.912766859367201,-1.09237955649511,-1.09237955649538,-0.91191678590175,0.911916785901977,1.55267680821428
225.1776,0.658027959666751,-1.94050705425239,NaN,0.550162123831178,0.863274735686559,0.863274735687114,NaN,1.37658971320682,1.19868021543427,1.24884259945871,1.10185236087935,1.2488425994594,-1.25924949991909,0.724932329613048,-1.10890848562142,-1.24362227269986,-2.01893166204458,-1.59316677113657,-1.55891553460033,0.752823223538867,-1.55891553460007,NaN,2.12232436957261,1.57954105091689,1.82585647958008,-1.79771660924288,-1.79771660924378,-0.10093685591493,0.100936855914287,1.57210028490987,0.593288434166135,-0.903599545545118,-0.105347790139386,0.694101916167197,-1.05031775340638,-0.44020785175374,0.494683879537879,-0.273772725412733,-0.273772725409859,-0.609678959528113,-1.72146834555621,-1.23384276443612,-0.716066591827252,0.166467901133025,-0.652667912598794,0.921652226907754,-1.05316915815203,-1.05316915815231,-0.916043591644411,0.916043591644643,1.57173081955835
225.28,0.655455462007318,-1.93475539752604,NaN,0.536496217695071,0.829286154553038,0.829286154553618,NaN,1.35550605380089,1.1797147876741,1.24231794452379,1.09206375938663,1.24231794452449,-1.25550493421175,0.693775076229914,-1.12466574482402,-1.22934952584918,-2.01082617378978,-1.57948642004947,-1.54163856340822,0.734822298217924,-1.54163856340796,NaN,2.12691867837963,1.55167577513137,1.80100480304424,-1.83249190983005,-1.83249190983094,-0.0756338697924832,0.075633869791849,1.50439534379703,0.545782902557218,-0.86556953883351,-0.137774835761689,0.698334382769301,-1.07476062328362,-0.456699991877183,0.496204030689571,-0.301154490852444,-0.301154490849564,-0.593927662763891,-1.73685989360072,-1.22230367818106,-0.750148838600217,0.192192762623713,-0.665061921201654,0.930168378612167,-1.01500983835169,-1.01500983835196,-0.919764774782789,0.919764774783026,1.59038551174462
225.3824,0.651843760039468,-1.92874927017847,NaN,0.522743231026476,0.794905616603165,0.794905616603773,NaN,1.33442480597638,1.16055749996055,1.23571372044828,1.08180104186678,1.23571372044899,-1.25098463358667,0.661789046556197,-1.13999099648848,-1.21555428439573,-2.00218072846924,-1.56601586909828,-1.5245352137211,0.716679133949345,-1.52453521372083,NaN,2.13036550411337,1.52381803646564,1.77595670338455,-1.86579205444963,-1.86579205445049,-0.0507453935484266,0.0507453935478005,1.43721600920168,0.499595682581873,-0.828170069293274,-0.1687962411759,0.701647063784793,-1.09830807463192,-0.472988778240871,0.497922639662972,-0.328192343171602,-0.32819234316872,-0.57828227948312,-1.75150785512009,-1.21062473073662,-0.783666480314178,0.217078944530609,-0.677683273975965,0.938285495332115,-0.977951867619594,-0.977951867619867,-0.923068632512991,0.923068632513233,1.60858249634619
225.4848,0.647180548037088,-1.92253290930508,NaN,0.508925734534545,0.76021629495975,0.760216294960386,NaN,1.3133741629903,1.14124379204526,1.22904956676736,1.0710710288946,1.22904956676808,-1.2457102856703,0.629042886368696,-1.15486644008042,-1.20225840005972,-1.99302069418485,-1.55278002322941,-1.50762803345754,0.698430122611977,-1.50762803345726,NaN,2.1326257231613,1.49599481698064,1.75077837357359,-1.89756782488549,-1.89756782488633,-0.0263455433720668,0.026345543371447,1.37069181470336,0.454782255122724,-0.791446350231196,-0.198375086312977,0.704063066879343,-1.12093163345536,-0.489040303799534,0.499830103875674,-0.354827324801108,-0.354827324798222,-0.562768174743739,-1.76541334197698,-1.19883330194069,-0.816543381962513,0.241068825970953,-0.690504447114887,0.945971732420172,-0.942043364199414,-0.942043364199686,-0.925944139255222,0.92594413925547,1.62626610973077
225.5872,0.641454432162594,-1.91614881570596,NaN,0.495065523287812,0.725302196345601,0.725302196346261,NaN,1.29238304772888,1.1218104552561,1.22234231424553,1.05988140848316,1.22234231424625,-1.23970331024932,0.595604598901863,-1.16927436006177,-1.18948331076295,-1.9833720418212,-1.53980364679523,-1.49093998031277,0.680106857750796,-1.49093998031249,NaN,2.13366161921111,1.4682334523415,1.7255338506718,-1.92777503459231,-1.92777503459314,-0.00250875976463203,0.00250875976401584,1.30495003936158,0.411395082986336,-0.755441827643459,-0.226477283620261,0.705608006651551,-1.14260516783836,-0.504821140408896,0.501916066137128,-0.381001020330089,-0.3810010203272,-0.547412252128417,-1.77857875732583,-1.18695884812826,-0.84870741861774,0.264108116203557,-0.703499056881972,0.953193271674082,-0.907330209586726,-0.907330209587007,-0.928381213342633,0.928381213342886,1.64338367421598
225.6896,0.634654807695273,-1.90963749072678,NaN,0.481183623638044,0.690247601154411,0.690247601155097,NaN,1.27148104345813,1.10229546831931,1.2156058797795,1.04824069109027,1.21560587978023,-1.23298483465396,0.561541358434869,-1.18319721738013,-1.1772500414209,-1.97326125095202,-1.52711133542034,-1.47449438942386,0.661735871007629,-1.47449438942358,NaN,2.13343713577203,1.44056153469259,1.70028472822416,-1.9563746341809,-1.95637463418171,0.0206903898394228,-0.0206903898400352,1.2401152228556,0.369483526835636,-0.720198040020076,-0.253071548659817,0.706309883816664,-1.16330483385148,-0.520298360738688,0.504169479579747,-0.406655902918233,-0.406655902915347,-0.532242865143434,-1.79100765255714,-1.17503275921332,-0.880090721378929,0.286146050345368,-0.716641938479423,0.959914392879663,-0.8738559249693,-0.873855924969582,-0.930370957010851,0.93037095701111,1.6598857180572
225.792,0.626771763090048,-1.90303721575269,NaN,0.467300310186204,0.655136536738773,0.655136536739481,NaN,1.25069831619066,1.08273783608274,1.208851199972,1.03615816956224,1.20885119997273,-1.22557572215656,0.526919407787207,-1.19661775256628,-1.16557919169195,-1.96271523341511,-1.51472748302953,-1.45831492632678,0.643338446098393,-1.45831492632649,NaN,2.13191811555354,1.41300681294911,1.67508992658019,-1.98333277853887,-1.98333277853966,0.0431773794409921,-0.0431773794416003,1.17630870888473,0.329093746507248,-0.685754444604357,-0.278129354675585,0.70619897990431,-1.18300900829852,-0.53543954198197,0.506578706207175,-0.431735683253659,-0.431735683250779,-0.517289696433979,-1.80270458187977,-1.16308818070753,-0.910629877751537,0.307135564009726,-0.729909194380052,0.966097558903644,-0.84166151336499,-0.841661513365274,-0.931905860226245,0.931905860226511,1.6757261485611
225.8944,0.617796007551868,-1.89638386663738,NaN,0.453435106293097,0.620052278340359,0.620052278341092,NaN,1.23006550251693,1.06317740723177,1.20208619026517,1.02364388374907,1.20208619026591,-1.21749662866099,0.491804009980498,-1.20951908885719,-1.15449088826345,-1.95176123688377,-1.50267621492603,-1.44242550057664,0.624930506228694,-1.44242550057635,NaN,2.12907250596015,1.38559706568525,1.65000547271339,-2.00862088254801,-2.00862088254878,0.064877881115888,-0.0648778811164917,1.1136481857211,0.290268591074641,-0.652148225521736,-0.301624883983442,0.70530773840972,-1.20169823476314,-0.550212786844712,0.509131629698901,-0.45618567462398,-0.456185674621107,-0.502583615994604,-1.81367497090791,-1.15115981813617,-0.940266096962663,0.327033437676883,-0.743278233895033,0.971703503757151,-0.810785269987589,-0.810785269987883,-0.932979955119686,0.932979955119956,1.69086235853465
225.9968,0.607718819229684,-1.88971075852171,NaN,0.439606742799093,0.58507687726243,0.585076877263186,NaN,1.20961354278178,1.04365464965221,1.19531572068181,1.0107085907652,1.19531572068256,-1.20876807253856,0.456259443293748,-1.22188482335778,-1.14400468220022,-1.94042669800247,-1.49098126233365,-1.42685011837365,0.606522573036323,-1.42685011837335,NaN,2.12487051776749,1.35835992695065,1.62508424645586,-2.03221568256109,-2.03221568256184,0.0857179285231902,-0.0857179285237921,1.05224719853646,0.253047471976574,-0.619414085212958,-0.323534987183984,0.703670607749956,-1.21935520259745,-0.564586789769994,0.511815762758427,-0.47995318626421,-0.479953186261346,-0.488156526755376,-1.82392501173382,-1.13928373701263,-0.968945345044148,0.345800397084188,-0.756727823942321,0.97669131944259,-0.781262570726316,-0.781262570726616,-0.933588910711483,0.93358891071176,1.70525525477695
226.0992,0.596532011553942,-1.88304851905603,NaN,0.425833063413767,0.550290723589964,0.550290723590743,NaN,1.18937345890026,1.02421037777099,1.18854160774896,0.997363740501544,1.18854160774972,-1.19941050210444,0.420349010743453,-1.23369910575512,-1.13413938901609,-1.92873903388477,-1.4796657731429,-1.41161266955477,0.588119788962799,-1.41161266955446,NaN,2.11928473740965,1.33132266473744,1.60037567962728,-2.05409930252502,-2.05409930252575,0.105624112609313,-0.105624112609912,0.992214629352793,0.217466220634969,-0.587584028613519,-0.343839159109561,0.701323837962336,-1.23596476216189,-0.578530955155703,0.514618338931557,-0.502987943181809,-0.502987943178953,-0.474041202968235,-1.83346158728102,-1.1274971650956,-0.996618453208567,0.363401157914623,-0.770238167381841,0.9810185448555,-0.753125659123542,-0.753125659123843,-0.933730064326682,0.933730064326966,1.71886921699165
226.2016,0.584227916822673,-1.87642498957572,NaN,0.412130880180245,0.515772152399812,0.515772152400613,NaN,1.16937608928173,1.0048854391856,1.18176262800952,0.983621454645874,1.18176262801028,-1.18944434108922,0.384135011079342,-1.24494671461676,-1.12491288050949,-1.91672537710626,-1.4687520675266,-1.39673665710444,0.569721988522952,-1.39673665710413,NaN,2.11229019686997,1.30451192305099,1.57592542225566,-2.07425931226719,-2.0742593122679,0.124523834705273,-0.124523834705872,0.933654156838741,0.183556940783775,-0.556687161194138,-0.362519539924486,0.698305237042843,-1.25151396723347,-0.592015557521911,0.517526389507853,-0.525242519377145,-0.5252425193743,-0.46027112164663,-1.84229221913533,-1.11583829522704,-1.02324120236385,0.379804412978401,-0.783791014098429,0.984641264064456,-0.726403445825661,-0.726403445825961,-0.933402394162024,0.933402394162317,1.73167200177646
226.304,0.570799387402489,-1.86986515577289,NaN,0.398515796022353,0.481597096217113,0.481597096217938,NaN,1.14965179780335,0.985720375748444,1.17497455895245,0.969494508408339,1.17497455895321,-1.1788900088444,0.347678647797509,-1.25561314260719,-1.11634184172452,-1.90441227385639,-1.45826135492218,-1.3822448850952,0.551323805835537,-1.38224488509489,NaN,2.10386440661022,1.2779534407526,1.55177500625122,-2.09268876148428,-2.09268876148497,0.142345617845194,-0.142345617845791,0.876663717619441,0.151347861832948,-0.526749512440336,-0.379560944818378,0.694653901722146,-1.26599212817918,-0.605011923316242,0.52052681470278,-0.546672769723259,-0.546672769720424,-0.446880282149892,-1.85042502731429,-1.1043460796055,-1.0487743821105,0.394982771355318,-0.797369792989431,0.98751422333238,-0.701121320172443,-0.701121320172741,-0.932606447465775,0.932606447466074,1.74363459923513
226.4064,0.556239813701057,-1.86339110887067,NaN,0.385002019086798,0.447838778970196,0.447838778971043,NaN,1.13023017625253,0.966755079670725,1.16817025024929,0.954996315173278,1.16817025025006,-1.16776793318771,0.311039905391704,-1.26568469396424,-1.10844151072188,-1.89182537513558,-1.44821343539525,-1.36815912884866,0.53291480911363,-1.36815912884834,NaN,2.09398736460154,1.25167176326172,1.52796153896927,-2.10938617535416,-2.10938617535484,0.159019446944336,-0.159019446944928,0.821334997182883,0.120863191183884,-0.497793877303401,-0.394950916810191,0.690409940885641,-1.2793908577737,-0.617492610943916,0.523606462866797,-0.56723824703492,-0.567238247032097,-0.433903011284667,-1.85786868912596,-1.09306000833232,-1.0731838183227,0.408912662274573,-0.810959744641774,0.989590972274951,-0.677300974631861,-0.677300974632158,-0.931344245345915,0.931344245346222,1.75473104967684
226.5088,0.540543156700394,-1.8570220335155,NaN,0.371602190930707,0.414567441293147,0.414567441294018,NaN,1.11113975852085,0.948028464238945,1.16133972350808,0.940140913708717,1.16133972350885,-1.15609857090718,0.274277431333474,-1.27514858785268,-1.10122542144509,-1.87898914901567,-1.43862640987,-1.35449981393042,0.514479653658256,-1.35449981393011,NaN,2.08264155984171,1.22568996515554,1.50451744729934,-2.12435550817682,-2.12435550817748,0.174477105275087,-0.174477105275674,0.767752975010996,0.0921229637222539,-0.469839665326052,-0.408679793306122,0.685614206650432,-1.29170409894862,-0.62943157295373,0.5267522267781,-0.586902589167073,-0.586902589164266,-0.421373759568301,-1.86463238965537,-1.08201987570522,-1.09644036269755,0.421574212633292,-0.824548037719646,0.990824026598153,-0.654960254115691,-0.654960254115979,-0.929619183848298,0.929619183848611,1.76493823745806
226.6112,0.523703995038358,-1.85077421354928,NaN,0.358327242398573,0.381850086022166,0.381850086023059,NaN,1.09240775734886,0.929578159980685,1.15447029508819,0.924942957289556,1.15447029508896,-1.1439024303972,0.237448426962113,-1.28399305854776,-1.09470516603153,-1.86592663109243,-1.42951641729415,-1.3412857225895,0.495998248394032,-1.34128572258918,NaN,2.0698119836954,1.20002939733375,1.48147027887138,-2.13760606237942,-2.13760606238007,0.188652500612438,-0.188652500613021,0.715995534113543,0.0651428982897338,-0.442902768745801,-0.420740783836044,0.680308040537201,-1.30292813391633,-0.640804296055513,0.52995115365929,-0.605633860909261,-0.605633860906476,-0.409326897185122,-1.87072576486817,-1.07126554367682,-1.11851983658212,0.432951102553859,-0.838123855563165,0.991165051509242,-0.63411304100675,-0.634113041007043,-0.927435946825753,0.927435946826075,1.77423568098687
226.7136,0.505717591020798,-1.84466104644075,NaN,0.345186282706881,0.349750240342313,0.349750240343229,NaN,1.07405982457442,0.911440236684864,1.14754671720971,0.909417705120254,1.14754671721048,-1.13120007813513,0.200608520601234,-1.29220744695391,-1.08889018364898,-1.85265921824005,-1.42089740585839,-1.32853373183059,0.477445936728069,-1.32853373183026,NaN,2.05548615751653,1.17470946265205,1.4588425608741,-2.14915238255553,-2.14915238255616,0.201482000429532,-0.201482000430108,0.666133129404854,0.0399342805993227,-0.416995482777303,-0.431130066658129,0.674533033120563,-1.31306157790376,-0.651587922292591,0.533190556242937,-0.623404843158901,-0.623404843156136,-0.397796511957465,-1.87615884390877,-1.06083670718435,-1.13940292098456,0.443030400616887,-0.85167844193081,0.990565078434945,-0.614769172132183,-0.614769172132484,-0.924800440817213,0.924800440817544,1.78260532959912
226.816,0.486579980285074,-1.83869306155527,NaN,0.332186519849054,0.318327739638623,0.318327739639562,NaN,1.05611983025487,0.89364894663682,1.14055133503905,0.893581016370581,1.14055133503982,-1.11801211509421,0.163811600259996,-1.29978228083169,-1.08378757507481,-1.83920650137481,-1.41278093634352,-1.31625857687457,0.458793692499333,-1.31625857687424,NaN,2.03965418632542,1.14974741547601,1.43665171576254,-2.15901413086864,-2.15901413086925,0.212904797057105,-0.212904797057672,0.61822850147356,0.016503887298285,-0.392126503084111,-0.439846909956629,0.668330791773108,-1.32210536039992,-0.661761356414437,0.536458111500173,-0.640193271145678,-0.640193271142936,-0.38681620664469,-1.88094199809031,-1.05077266103728,-1.15907499316849,0.451802380515571,-0.865205104515905,0.988974772972118,-0.596934376473391,-0.596934376473703,-0.921719751505539,0.921719751505877,1.79003137237535
226.9184,0.466288083446231,-1.83287794145485,NaN,0.319333206745682,0.287638536274512,0.287638536275471,NaN,1.03860965740405,0.876236485625935,1.13346425750393,0.877449344496561,1.13346425750471,-1.10435912153448,0.127109606307647,-1.30670934151588,-1.07940193994579,-1.82558612977671,-1.40517601290708,-1.30447263160944,0.440008324218118,-1.30447263160911,NaN,2.02230884312181,1.12515817987101,1.41491003270627,-2.16721594663662,-2.16721594663722,0.222863304697021,-0.22286330469758,0.572336426907382,-0.00514604463596274,-0.36830099825588,-0.446893808186944,0.661742716815027,-1.33006269659143,-0.671305361332978,0.539741938279567,-0.655982024405545,-0.655982024402824,-0.37641889556874,-1.885085899728,-1.04111206943201,-1.17752592379259,0.459260326032128,-0.878699185129366,0.986344758725164,-0.580610227926829,-0.580610227927157,-0.918202112384731,0.918202112385079,1.79650006156839
227.0208,0.444839831423882,-1.82722054625672,NaN,0.306629610434715,0.257734529818105,0.257734529819085,NaN,1.02154901268779,0.859232770566677,1.12626353926512,0.861039727404697,1.1262635392659,-1.09026157920017,0.0905523038256879,-1.31298171554402,-1.07573523437571,-1.81181370406891,-1.39808893861544,-1.29318570037909,0.421052679294059,-1.29318570037875,NaN,2.00344567523882,1.10095418561013,1.39362469363326,-2.17378728711918,-2.17378728711977,0.231303570411129,-0.231303570411677,0.528503509154936,-0.0250178045524071,-0.345520740222497,-0.452276615513246,0.65480979352714,-1.33693904873905,-0.680202637564941,0.543030652672868,-0.670759267870243,-0.670759267867546,-0.366636603801238,-1.88860148525225,-1.03189273964736,-1.19474985217255,0.465400337766308,-0.892158002769964,0.98262598747451,-0.565794113200235,-0.565794113200582,-0.9142568797259,0.91425687972626,1.80199954655486
227.1232,0.42223429558371,-1.82172294255367,NaN,0.29407700769549,0.228663414155637,0.228663414156634,NaN,1.00495525500178,0.842665234470891,1.11892537346142,0.844369771143758,1.1189253734622,-1.07573978526833,0.0541870620223124,-1.31859383126089,-1.07278664832864,-1.7979027018446,-1.39152319646024,-1.28240482135505,0.401885852425581,-1.2824048213547,NaN,1.98306311891708,1.07714522435843,1.37279785116791,-2.17876223907648,-2.17876223907705,0.238175673363209,-0.238175673363745,0.486768022715926,-0.0431181564319589,-0.323784275181693,-0.456004664749458,0.647572409742378,-1.34274207177405,-0.688437877188959,0.546313409659697,-0.684518546201343,-0.684518546198671,-0.357500270366426,-1.89149991002948,-1.02315139719801,-1.21074495089768,0.470221156771982,-0.905580766662504,0.977770141771263,-0.552479216260183,-0.552479216260542,-0.909894518601412,0.909894518601782,1.80651970914203
227.2256,0.39847181604814,-1.816384441036,NaN,0.281674713980476,0.200468539811803,0.200468539812816,NaN,0.988843245621378,0.82655864400807,1.11142429639887,0.827457628498715,1.11142429639965,-1.06081377053441,0.0180586594739554,-1.32354148378763,-1.07055250662258,-1.78386444312525,-1.38547936109579,-1.27213409017292,0.382463413107644,-1.27213409017257,NaN,1.96116261493283,1.05373832980256,1.35242675411043,-2.18217929108695,-2.18217929108751,0.243434092248662,-0.243434092249188,0.447159821187125,-0.0594582550099291,-0.303087123210905,-0.458090867809196,0.640070209949258,-1.34748153621562,-0.695997781306252,0.549579947367883,-0.697258840927063,-0.697258840924419,-0.34903955576301,-1.89379248378357,-1.01492345899529,-1.22551318740157,0.473724016793356,-0.918968455781287,0.971730052090136,-0.540654520684239,-0.540654520684611,-0.905126611105814,0.905126611106196,1.8100519970767
227.328,0.373554123037962,-1.81120164585166,NaN,0.26942015086283,0.173188790330178,0.173188790331207,NaN,0.973225225538366,0.81093494874835,1.1037334028596,0.810321973694939,1.10373340286038,-1.04550322887963,-0.01779088513017,-1.32782185743678,-1.06902620273651,-1.769708100634,-1.37995505002118,-1.26237451746811,0.362737663905956,-1.26237451746775,NaN,1.93774872616279,1.03073768641384,1.33250391740884,-2.18408106816767,-2.18408106816822,0.247038034640192,-0.247038034640711,0.409700309603963,-0.0740535293648023,-0.2834220042929,-0.458551794387969,0.632341995858764,-1.35116922774687,-0.702871035282266,0.552820647827505,-0.70898460035503,-0.708984600352413,-0.34128265757951,-1.89549058509357,-1.0072428080156,-1.23906009083628,0.475912530483229,-0.932323668859337,0.964460106901564,-0.530304827928817,-0.5303048279292,-0.899965897529659,0.899965897530051,1.81258926421261
227.4304,0.347484450280367,-1.80616851635438,NaN,0.257308951049828,0.146858468738496,0.146858468739541,NaN,0.95811072459367,0.795813168721475,1.0958245689014,0.792981972330075,1.09582456890218,-1.02982746563332,-0.0533224592679081,-1.33143355681778,-1.06819817417824,-1.75544075381764,-1.37494492075482,-1.25312393015038,0.342657933834188,-1.25312393015002,NaN,1.91282926060217,1.00814457091421,1.31301733516947,-2.18451404046246,-2.184514040463,0.248951730478953,-0.248951730479462,0.374402473836817,-0.0869235327719514,-0.264779088645014,-0.457407724400494,0.624425673110251,-1.35381882970332,-0.70904824672637,0.556026611944097,-0.719705740530746,-0.719705740528158,-0.334256140786582,-1.89660556222535,-1.00014157895045,-1.2513945325012,0.476792610469752,-0.945650453507557,0.955916640401845,-0.521410783628818,-0.521410783629199,-0.894426353571524,0.894426353571928,1.81412563103013
227.5328,0.320267645638958,-1.80127644442711,NaN,0.245335093503629,0.121507188614796,0.12150718861586,NaN,0.943506504670498,0.781209320850826,1.08766868238392,0.775457247069317,1.0876686823847,-1.01380538027831,-0.0884999569822356,-1.33437665102967,-1.06805592171833,-1.74106748179148,-1.37044071433641,-1.24437691799271,0.322170909793793,-1.24437691799235,NaN,1.88641540067211,0.985957328135618,1.29395073516137,-2.18352821646204,-2.18352821646258,0.249144686004985,-0.249144686005487,0.341270961138831,-0.0980917673460136,-0.247146254485753,-0.454682668035081,0.616358229431304,-1.35544579419251,-0.714521858283717,0.559189729721716,-0.72943760370491,-0.729437603702351,-0.327984787990548,-1.89714862858432,-0.993649963278713,-1.26252852766754,0.47637242889228,-0.958954119704528,0.946058296722117,-0.513948901539199,-0.513948901539575,-0.888523291648841,0.888523291649256,1.81465637556964
227.6352,0.291910285042466,-1.79651435305267,NaN,0.233491059668529,0.0971597688986947,0.0971597688997767,NaN,0.929416537034228,0.767136380412367,1.07923588380944,0.757767842817889,1.07923588381021,-0.997455501027043,-0.123290292470705,-1.33665272611597,-1.06858406846547,-1.72659149298816,-1.36643134131895,-1.23612482146367,0.301221008947114,-1.2361248214633,NaN,1.85852183643003,0.96417137903323,1.27528387274565,-2.18117682523351,-2.18117682523404,0.247591887353522,-0.247591887354012,0.310302208087395,-0.107585498228889,-0.230509327790189,-0.450404347265114,0.608175725445148,-1.35606720237621,-0.719286045502646,0.562302725745198,-0.738200861861583,-0.738200861859057,-0.32249147217127,-1.8971307586269,-0.987796038430145,-1.27247706414672,0.474662422481656,-0.972241036415381,0.934846380873923,-0.507891577910658,-0.507891577911024,-0.882273463030784,0.88227346303121,1.81417785940949
227.7376,0.262420790955171,-1.79186881734505,NaN,0.22176800443369,0.073836139998517,0.0738361399996166,NaN,0.915842010755568,0.753604271758816,1.0704958168685,0.739934194541995,1.07049581686927,-0.980796075703437,-0.15766330597307,-1.33826493763708,-1.06976445165411,-1.71201429213119,-1.36290300484477,-1.22835575534239,0.27975079140886,-1.22835575534201,NaN,1.82916690104634,0.94277925514458,1.25699286015604,-2.17751598935765,-2.17751598935818,0.244273949568797,-0.244273949569274,0.281484608754098,-0.115435568034573,-0.214852289753424,-0.444604139335836,0.59991328749182,-1.35570161277,-0.723336604474299,0.565359170718612,-0.74602136214704,-0.746021362144546,-0.317797051409312,-1.8965625890233,-0.982605622141415,-1.28125795293568,0.471675342322107,-0.985518406852751,0.922245208345697,-0.503207094957834,-0.503207094958197,-0.875695141356123,0.87569514135656,1.81268749147987
227.84,0.231809553019807,-1.78732420403558,NaN,0.210155935481053,0.0515512741727928,0.0515512741739091,NaN,0.902781367264052,0.740619882855154,1.06141788649086,0.721977096555885,1.06141788649163,-0.963845205914337,-0.191591576959611,-1.33921805683218,-1.07157623875045,-1.6973358817693,-1.35983935337173,-1.22105466317386,0.25770141136678,-1.22105466317348,NaN,1.79837270806111,0.921770654372772,1.23905052352907,-2.17260438872034,-2.17260438872087,0.239177216931546,-0.239177216932006,0.254798716951897,-0.121676214423004,-0.200157454810167,-0.437316990315069,0.591605100912071,-1.35436889899386,-0.726670831154647,0.568353460160962,-0.752929919714889,-0.752929919712425,-0.313920281792719,-1.89545432764246,-0.978102148822352,-1.2888916845787,0.46742633380346,-0.998794018677642,0.908222455594573,-0.499859614746046,-0.499859614746397,-0.868808181293654,0.868808181294102,1.81018373225541
227.9424,0.200089048774085,-1.78286282655185,NaN,0.198643890722207,0.0303151537181488,0.0303151537192846,NaN,0.890230357026098,0.728187099570068,1.05197152629436,0.703917668865243,1.05197152629513,-0.946621007617212,-0.22505017275022,-1.33951850758633,-1.07399605845584,-1.68255498884841,-1.35722165274489,-1.21420339658162,0.2350131096692,-1.21420339658122,NaN,1.76616528707036,0.901132515773225,1.22142677842889,-2.16650291364746,-2.16650291364799,0.232293821147514,-0.232293821147957,0.230217486552125,-0.126344891055579,-0.186405626635319,-0.428581307960748,0.583284404213257,-1.35209008115015,-0.729287395346249,0.571280770676084,-0.758962072175932,-0.758962072173503,-0.310877742713535,-1.89381566860308,-0.974306561172318,-1.29540127465059,0.461933027328941,-1.01207597035171,0.892749503623273,-0.497809164884942,-0.497809164885284,-0.861634055274796,0.861634055275256,1.80666613572819
228.0448,0.16727396337128,-1.77846511637883,NaN,0.187220103662212,0.0101327889787793,0.0101327889799324,NaN,0.878182115299849,0.716306856247355,1.04212648069287,0.685777317256706,1.04212648069364,-0.929141791535572,-0.258016346337534,-1.33917439500871,-1.0769981367286,-1.6676693037028,-1.35502896600265,-1.20778081149552,0.211625753788066,-1.20778081149512,NaN,1.73257471075485,0.880849111773261,1.20408901629759,-2.15927430534353,-2.15927430534407,0.223621697828201,-0.223621697828626,0.207706561512813,-0.129482099710768,-0.173576227891906,-0.41843884158788,0.574983482906269,-1.34888715570717,-0.731186213708471,0.574137013635357,-0.764157818077997,-0.764157818075604,-0.308683769125389,-1.89165570839103,-0.971237209569259,-1.30081209263428,0.455215623489924,-1.02537238410845,0.875801766791139,-0.497011624340859,-0.497011624341187,-0.854195872850238,0.854195872850711,1.80213541552341
228.1472,0.133381308578516,-1.77410981188573,NaN,0.17587215340265,-0.00899570381015273,-0.00899570380898556,NaN,0.86662725291437,0.704977198974967,1.03185310496157,0.667577687023617,1.03185310496234,-0.911426262750566,-0.290469185558807,-1.33819552618569,-1.08055442849893,-1.65267572146042,-1.35323833053989,-1.20176287369066,0.187479424804475,-1.20176287369026,NaN,1.69763520472222,0.860902155219408,1.18700249641394,-2.15098278414392,-2.15098278414446,0.213164557651466,-0.213164557651876,0.187224621487275,-0.131131247084846,-0.161647389951994,-0.406934554658405,0.56673366387874,-1.34478292959754,-0.73236832571294,0.576918807229215,-0.768561362682443,-0.768561362680087,-0.307350387414133,-1.88898285979857,-0.968909754564935,-1.30515167712965,0.447296959818202,-1.0386911224549,0.857359001902814,-0.497418728189422,-0.497418728189738,-0.846518385093269,0.846518385093754,1.79659351417139
228.2496,0.0984305453499504,-1.76977416363716,NaN,0.164587100374682,-0.0270749593087177,-0.0270749593075374,NaN,0.85555395638739,0.694193358327348,1.02112268200449,0.649340612686244,1.02112268200526,-0.893493727427551,-0.322389232708581,-1.33659342049461,-1.0846347364115,-1.63757057927343,-1.35182492381292,-1.19612276717033,0.162515040064801,-1.19612276716992,NaN,1.66138523521161,0.841270917364425,1.17013073748842,-2.14169367419071,-2.14169367419125,0.200931814543199,-0.200931814543595,0.16872377295381,-0.131338527669214,-0.150596002769721,-0.394116492583267,0.558565313786254,-1.33980086782952,-0.732835777837002,0.579623475367863,-0.77222088130115,-0.77222088129883,-0.30688725356335,-1.88580476873016,-0.967337072797009,-1.30844954090089,0.438202550415146,-1.05203952138133,0.837405591989606,-0.498978107326646,-0.498978107326946,-0.838627974142177,0.838627974142675,1.79004365870816
228.352,0.0624437179058805,-1.76543415302934,NaN,0.153351606281154,-0.044114158626524,-0.0441141586253297,NaN,0.844948093548831,0.683947830588273,1.00990775197829,0.63108806801878,1.00990775197905,-0.875364279053715,-0.353758119888058,-1.33438130446444,-1.08920681051611,-1.62234988441244,-1.35076221129752,-1.1908310005243,0.136674989133938,-1.19083100052387,NaN,1.62386758037818,0.821932353203927,1.15343590216533,-2.13147304080496,-2.13147304080551,0.186938487947992,-0.186938487948378,0.152149965955966,-0.130152814872334,-0.140397749304213,-0.380035645615925,0.550507838578832,-1.33396496440886,-0.732591525005775,0.582249064672568,-0.775188287362737,-0.775188287360452,-0.307301593604583,-1.8821282459986,-0.966529170425817,-1.3107369704263,0.427960599250052,-1.06542414483592,0.815930799884578,-0.501633363905718,-0.501633363906003,-0.83055262867603,0.83055262867654,1.78249039915212
228.4544,0.0254456032989561,-1.76106471835197,NaN,0.142152035032893,-0.0601267793507548,-0.060126779349545,NaN,0.834793326529895,0.674230469638487,0.998182450091293,0.61284212103723,0.998182450092047,-0.85705893630462,-0.384558264870451,-1.33157408550499,-1.0942364301352,-1.60700952977734,-1.35002207661152,-1.18585551099819,0.109903751593481,-1.18585551099775,NaN,1.58512939819376,0.802861233466433,1.13687917041169,-2.12038735365412,-2.12038735365467,0.1712051054961,-0.171205105496474,0.137443421680582,-0.127625539019101,-0.131027153045898,-0.364745805881856,0.542589671996652,-1.32729963806097,-0.731639356799547,0.584794361936553,-0.777518977950518,-0.777518977948261,-0.308598148082091,-1.87795922286515,-0.966493108911029,-1.31204682969157,0.416601997671504,-1.07885056065956,0.792928991608344,-0.505324174788673,-0.50532417478895,-0.82232190994996,0.822321909950481,1.77393963851949
228.5568,-0.0125361293041441,-1.75663997794579,NaN,0.130974536126799,-0.0751303209604089,-0.0751303209591865,NaN,0.825071235619546,0.665028590766292,0.985922846044048,0.594624895673012,0.985922846044797,-0.838599720606842,-0.414772645084301,-1.32818830104802,-1.09968747671907,-1.59154549311752,-1.34957493958444,-1.18116176991039,0.0821484655169043,-1.18116176990994,NaN,1.54522229816622,0.78403028414956,1.12042110196816,-2.10850317563743,-2.10850317563798,0.15375762493693,-0.153757624937293,0.12453906524894,-0.123810544881853,-0.122457650401701,-0.348303420524068,0.534838243546054,-1.31982964445431,-0.72998384704697,0.587258898586136,-0.779271541033366,-0.779271541031137,-0.310779122796542,-1.87330272828778,-0.967232944847121,-1.31241337480744,0.404160314801335,-1.09232313649105,0.768399836818832,-0.50998641875082,-0.509986418751085,-0.813966914903559,0.813966914904091,1.7643986624758
228.6592,-0.0514707599677658,-1.75213343985098,NaN,0.119805117627363,-0.0891460237468802,-0.0891460237456444,NaN,0.8157614525346,0.656327082976466,0.973107277793103,0.576458538343264,0.973107277793845,-0.820009679559391,-0.444384639693189,-1.32424204427363,-1.10552200738045,-1.57595401317551,-1.34938986780837,-1.1767128920097,0.0533594299994093,-1.17671289200924,NaN,1.50420241501461,0.765410333257421,1.10402198993034,-2.09588686565515,-2.0958868656557,0.134627377739195,-0.134627377739549,0.113366961251907,-0.118763935551513,-0.114661684427073,-0.330767447919858,0.527279928005212,-1.31157999382217,-0.727630317231077,0.589642940608985,-0.780507435609431,-0.780507435607226,-0.313844144444387,-1.86816287737023,-0.968749678815661,-1.31187207350182,0.390671779636497,-1.10584485000031,0.742348496575378,-0.515552325709283,-0.515552325709538,-0.805520237919183,0.805520237919727,1.75387616608393
228.7616,-0.0913243673955691,-1.74751819435564,NaN,0.108629717420969,-0.102198595018124,-0.10219859501688,NaN,0.806841798768396,0.64810852581199,0.959716674141419,0.558365186638096,0.959716674142155,-0.801312868670892,-0.473377922715976,-1.31975487089742,-1.11170033414249,-1.56023173510376,-1.3494346832831,-1.17246974960784,0.0234905415542852,-1.17246974960737,NaN,1.46213047940091,0.74697046527255,1.08764220782886,-2.08260428303932,-2.08260428303988,0.113851027869642,-0.113851027869984,0.103852749342194,-0.112543908263454,-0.107610815286239,-0.312199220653763,0.519939986171244,-1.30257586530874,-0.724584801978253,0.591947471559216,-0.781290668989335,-0.781290668987157,-0.317790214654649,-1.8625428597781,-0.971041202520365,-1.31045941870177,0.37617525075256,-1.11941710529764,0.71478580052325,-0.52195064386932,-0.52195064386956,-0.797015923627232,0.797015923627788,1.74238226790514
228.864,-0.13205969286817,-1.74276709137749,NaN,0.0974342797575902,-0.114315951560072,-0.114315951558818,NaN,0.798288427810535,0.640353311849371,0.94573486150849,0.540366937643517,0.94573486150922,-0.782534299286097,-0.501736401341969,-1.31474769308915,-1.11818111020093,-1.54437582249912,-1.34967606436517,-1.16839109485035,-0.00750033295652089,-1.16839109484988,NaN,1.41907187657063,0.728678187358436,1.0712425518635,-2.06872049062437,-2.06872049062493,0.0914705393829169,-0.0914705393832485,0.0959180773049442,-0.105210577781808,-0.101275847336582,-0.29266230793194,0.51284250798287,-1.29284251289596,-0.720854006857378,0.594174177906188,-0.781687486387317,-0.781687486385164,-0.3226116557697,-1.8564449216692,-0.974102234929965,-1.30821273420288,0.360712174305755,-1.13303955247417,0.685728401288358,-0.529106820897353,-0.529106820897575,-0.7884894000023,0.788489400002867,1.72992850356598
228.9664,-0.173636029237787,-1.73785290375251,NaN,0.0862048406143322,-0.125528977474038,-0.125528977472778,NaN,0.790075973489303,0.633039779973816,0.931148849132735,0.522485812691833,0.931148849133458,-0.763699856845346,-0.529444200973774,-1.30924266674642,-1.12492142475929,-1.52838404018464,-1.35007964550652,-1.16443369754176,-0.0396510489505781,-1.16443369754128,NaN,1.3750966744127,0.710499611827469,1.05478457663112,-2.05429946207531,-2.05429946207586,0.0675331446912859,-0.0675331446916094,0.089481031391892,-0.0968257790015302,-0.0956269754245384,-0.27222236687576,0.506010366104505,-1.28240516232212,-0.716445253800595,0.596325445977421,-0.781766075297673,-0.781766075295546,-0.328300049367458,-1.8498703398593,-0.977924248056248,-1.30516998266485,0.344326535392602,-1.14670991679667,0.65519888562645,-0.53694319842752,-0.536943198427724,-0.779977387667738,0.779977387668315,1.71652779693563
229.0688,-0.216009146438731,-1.73274847595391,NaN,0.0749276211111974,-0.135871287813086,-0.135871287811821,NaN,0.782177706396432,0.626144363154101,0.915949086376072,0.504743714418828,0.915949086376785,-0.744836194275149,-0.556485691155077,-1.30326307432445,-1.13187690950158,-1.51225481534398,-1.35061011951235,-1.16055250513815,-0.0729949413436567,-1.16055250513767,NaN,1.33027959862088,0.692399655495668,1.03823091769225,-2.03940380313277,-2.03940380313333,0.0420913021521107,-0.0420913021524247,0.0844565665075627,-0.0874528399084719,-0.0906339592973762,-0.250946978804024,0.499465181084333,-1.27128890469648,-0.711366417928814,0.59840437865338,-0.781596281050639,-0.781596281048531,-0.334844178982464,-1.84281939151868,-0.982495395683717,-1.30136959135867,0.327064807252497,-1.16042385067274,0.623225826564381,-0.545379221389542,-0.545379221389736,-0.771517788138366,0.771517788138952,1.70219441249196
229.1712,-0.259131257741317,-1.72742685829482,NaN,0.0635891253240128,-0.145378992767079,-0.145378992765806,NaN,0.774565697918124,0.619641749610245,0.900129687700647,0.487162373367716,0.900129687701352,-0.725970605578205,-0.582845537381665,-1.29683319974598,-1.13900185814581,-1.49598728473508,-1.35123134581234,-1.15670082479341,-0.107560634992367,-1.15670082479293,NaN,1.28469994326841,0.674342252053,1.0215455920379,-2.02409449691981,-2.02409449692037,0.0152026366567734,-0.0152026366570793,0.0807569371331356,-0.0771563162729296,-0.0862663380716088,-0.228905470612831,0.493227291886161,-1.2595185974992,-0.705625867214141,0.600414830786674,-0.781249326211437,-0.781249326209347,-0.342229991410044,-1.83529132620551,-0.987800462675532,-1.29685030444138,0.308975897358346,-1.17417481952697,0.589843777234365,-0.554331661988939,-0.554331661989128,-0.763149553280831,0.763149553281427,1.68694389706204
229.2736,-0.302951020678019,-1.72186142793917,NaN,0.052176236438183,-0.154090468498658,-0.154090468497375,NaN,0.767210989872357,0.613505052235079,0.883688625832097,0.469763284799786,0.883688625832792,-0.707130879974637,-0.608508770563845,-1.28997819042532,-1.14624935546681,-1.47958133276127,-1.35190646337077,-1.15283052025651,-0.143371891178814,-1.15283052025602,NaN,1.23844142292604,0.656290572290796,1.00469427037667,-2.0084306800417,-2.00843068004226,-0.013070129880231,0.0130701298799335,0.0782921262430328,-0.0660016857871832,-0.0824936865343986,-0.20616871962313,0.487315722881496,-1.24711878386198,-0.699232417990923,0.602361450295176,-0.780797524417895,-0.780797524415821,-0.350440583160683,-1.82728434788645,-0.993820844445698,-1.291651058026,0.290111085233381,-1.1879540226898,0.555093222188548,-0.563714850182328,-0.56371485018251,-0.754912535167446,0.75491253516805,1.67079302133113
229.376,-0.34741356110407,-1.71602600154446,NaN,0.0406763018586864,-0.162046142015244,-0.162046142013957,NaN,0.760083768433533,0.60770598177473,0.866627898674459,0.452567639053172,0.866627898675144,-0.688345130282905,-0.633460882178012,-1.28272390374253,-1.15357140848039,-1.46303762070635,-1.35259800259283,-1.14889221534341,-0.180447476541993,-1.14889221534291,NaN,1.19159198064245,0.63820724865393,0.987644520301577,-1.99246945210135,-1.99246945210191,-0.0426592439720952,0.0426592439718071,0.0769702691920629,-0.0540550044835603,-0.079285905037475,-0.182808936724938,0.481748143380603,-1.23411363735123,-0.692195313898705,0.604249709224569,-0.780313981959348,-0.780313981957291,-0.359456209477753,-1.81879561363567,-1.00053455611684,-1.28581086782258,0.270523948921667,-1.20175034070998,0.519020496525017,-0.573440894263414,-0.573440894263593,-0.746847316105488,0.746847316106098,1.65375972925701
229.4784,-0.392460512331336,-1.70989494815053,NaN,0.0290771988845221,-0.169288288853084,-0.169288288851793,NaN,0.753153542666045,0.602215023927778,0.848953675635106,0.43559624857402,0.848953675635781,-0.669641591465516,-0.657687952781237,-1.27509673787987,-1.16091907562168,-1.4463576062317,-1.35326799268043,-1.14483550241369,-0.218801051445809,-1.14483550241319,NaN,1.14424355757212,0.620054602254076,0.970366023587548,-1.97626571894935,-1.97626571894991,-0.0734919792604283,0.0734919792601488,0.0766980705717635,-0.0413825265630535,-0.0766135341530725,-0.158899419153555,0.476540825849499,-1.22052693280853,-0.684524225460155,0.606085913777919,-0.779872286270221,-0.779872286268182,-0.369254311273669,-1.80982125109237,-1.00791626712546,-1.27936872218353,0.250270283898629,-1.21555029683949,0.481677660745372,-0.583419875080177,-0.583419875080347,-0.738995020527498,0.738995020528114,1.63586309947126
229.5808,-0.438030070909109,-1.70344330820167,NaN,0.0173673813004996,-0.175860836834364,-0.175860836833073,NaN,0.746389328245131,0.59700162346026,0.830676423308025,0.41886947225775,0.83067642330869,-0.651048394724184,-0.681176806489917,-1.26712344893762,-1.16824259783592,-1.42954355331126,-1.35387806756704,-1.14060916279479,-0.258441086962001,-1.14060916279428,NaN,1.09649181579817,0.601794871222659,0.95283077291568,-1.95987206599492,-1.9598720659955,-0.105490705968693,0.10549070596842,0.0773812124294696,-0.0280502904517666,-0.0744480842850765,-0.134514265830475,0.471708614823802,-1.20638203531031,-0.676229257922463,0.607877187632727,-0.779546185154383,-0.77954618515236,-0.379809557369839,-1.80035638752504,-1.01593735606174,-1.27236347921541,0.229408022496058,-1.22933802267694,0.443122308490076,-0.593560006970647,-0.593560006970825,-0.731397108147658,0.731397108148281,1.61712331723938
229.6832,-0.484057077160665,-1.69664691851985,NaN,0.00553591392683853,-0.18180916632105,-0.18180916631976,NaN,0.739759836965927,0.592034377955945,0.811811006510988,0.402407136444114,0.811811006511643,-0.632593326958555,-0.703915178246408,-1.25883095802695,-1.17549153888357,-1.41259853164404,-1.35438957586943,-1.13616140783065,-0.299370820915831,-1.13616140783014,NaN,1.04843579918522,0.583390439811131,0.935013251401669,-1.94333865230294,-1.94333865230352,-0.138572994781538,0.138572994781274,0.0789247558073126,-0.0141236817060448,-0.0727623647843545,-0.109728054246195,0.467264913284721,-1.19170189488829,-0.66732095435642,0.609631430835844,-0.779409263664372,-0.779409263662366,-0.391093899754202,-1.79039517787159,-1.02456597901915,-1.26483376805991,0.207997155557918,-1.24309522628767,0.403417294165806,-0.603767775190467,-0.603767775190653,-0.724095144889422,0.724095144890051,1.59756164810199
229.7856,-0.530473127882659,-1.68948254224882,NaN,-0.00642750206422046,-0.187179892022412,-0.187179892021124,NaN,0.733233675254743,0.587281244225889,0.792376764395111,0.38622845351258,0.792376764395754,-0.614303585519171,-0.72589188102064,-1.2502461523961,-1.18261493737335,-1.39552640317956,-1.35476369610683,-1.13144014481276,-0.341588252840489,-1.13144014481224,NaN,1.00017751710534,0.564804068664961,0.916890591888874,-1.92671311501891,-1.9267131150195,-0.172651770635787,0.172651770635529,0.0812335441623508,0.000333011750645657,-0.0715307919664239,-0.0846154796826954,0.463221681740531,-1.17650903792493,-0.657810289551253,0.611357266534675,-0.779534627397526,-0.779534627395532,-0.403076639634875,-1.77993082260145,-1.03376714597927,-1.25681789319473,0.186099646344207,-1.25680117194333,0.362630375495743,-0.613948071664651,-0.613948071664848,-0.7171305503396,0.717130550340236,1.57720040236802
229.888,-0.577206726611751,-1.68192800212165,NaN,-0.0185325179036467,-0.192020613553731,-0.192020613552447,NaN,0.726779555447518,0.582709760348875,0.772397564586592,0.370351940376816,0.772397564587224,-0.596205535285941,-0.74709696058622,-1.24139568132029,-1.18956146704715,-1.37833179285801,-1.35496155357323,-1.12639326841157,-0.385086176636504,-1.12639326841105,NaN,0.951821436555306,0.545999127958399,0.898442704707251,-1.9100404807395,-1.9100404807401,-0.207635525194936,0.207635525194682,0.0842126172122657,0.0152570402961545,-0.0707296595704126,-0.0592509564184106,0.459589438821123,-1.16082555490264,-0.647708660325327,0.613063990507827,-0.779994597390662,-0.779994597388685,-0.415724505917484,-1.76895557356814,-1.04350280634229,-1.24835374341311,0.163779322866877,-1.27043268788747,0.32083376338373,-0.624004348060299,-0.624004348060518,-0.710544323527178,0.710544323527819,1.55606288525841
229.9904,-0.624183474907496,-1.67396230948556,NaN,-0.0307881480789922,-0.196379635662646,-0.19637963566137,NaN,0.720366516148908,0.578287279735686,0.751901833774546,0.354795337734244,0.751901833775167,-0.57832446156869,-0.767521841475284,-1.23230574093631,-1.19627959871682,-1.3610200353529,-1.35494433117261,-1.12096897393376,-0.429852263572447,-1.12096897393324,NaN,0.903473870034536,0.526939834144072,0.87965235800493,-1.89336309300051,-1.89336309300113,-0.243428591102998,0.243428591102751,0.0877676334079923,0.0305876302223551,-0.070337374519175,-0.0337081826209951,0.456377252372668,-1.14467309475351,-0.637027885868403,0.614761527952169,-0.780860412432313,-0.780860412430353,-0.429001753559268,-1.75746073412774,-1.05373195366911,-1.23947871157263,0.141101738293374,-1.2839642200341,0.278103576354405,-0.633838795169711,-0.633838795169943,-0.704376747013104,0.704376747013751,1.53417333000527
230.0928,-0.671326300657036,-1.66556578032957,NaN,-0.0432028129757292,-0.200305668769084,-0.200305668767813,NaN,0.713964138073613,0.573981203459383,0.730922559007447,0.339575529535072,0.730922559008056,-0.560684300609174,-0.787159486795231,-1.22300183998843,-1.2027177545658,-1.34359708058909,-1.3546733616625,-1.11511607798741,-0.475869211828895,-1.11511607798688,NaN,0.855242255813479,0.507591485475821,0.860505198690157,-1.87672057265014,-1.87672057265077,-0.279931470573855,0.279931470573614,0.0918052886743535,0.0462664252543126,-0.0703346748434059,-0.00805967761599963,0.453592709156992,-1.12807288195857,-0.625780236711439,0.616460385648317,-0.782201927172914,-0.782201927170974,-0.442870290111623,-1.74543666823187,-1.06441076348002,-1.23022962847043,0.118133990472631,-1.29736794485963,0.234519217381671,-0.643352552138893,-0.643352552139141,-0.698667065598565,0.698667065599217,1.51155680739178
230.1952,-0.718555710505521,-1.65672013742431,NaN,-0.0557844220056269,-0.203847520441837,-0.203847520440579,NaN,0.707542737114017,0.569759191978193,0.709497255120245,0.324708464420343,0.709497255120841,-0.543307344082321,-0.806004582561673,-1.21350854895091,-1.20882444346777,-1.32606934090635,-1.3541101871636,-1.10878432052001,-0.523114957607557,-1.10878432051948,NaN,0.807234348829366,0.487920681808887,0.840989710053817,-1.86014982190948,-1.86014982191012,-0.317041206819053,0.317041206818816,0.0962337122111961,0.0622379134556791,-0.070704824747506,0.017623684154831,0.451241848743495,-1.11104576839703,-0.613978509063698,0.618171579961961,-0.784087296327502,-0.784087296325577,-0.457289831773219,-1.73287283720375,-1.07549277187296,-1.22064270809403,0.0949444919854767,-1.31061394732801,0.19016271322734,-0.652445952140681,-0.652445952140928,-0.693453136159577,0.693453136160233,1.4882391046235
230.2976,-0.765790054405075,-1.64740860360246,NaN,-0.0685404974316328,-0.207053788009716,-0.207053788008468,NaN,0.701073517269475,0.565589339294706,0.687667892773939,0.310209084416984,0.687667892774522,-0.526213943381871,-0.824053724411213,-1.20384925044273,-1.21454836865147,-1.30844347665501,-1.35321657814725,-1.10192462244433,-0.571562916326458,-1.1019246224438,NaN,0.759557363377949,0.467895506903382,0.821097105360809,-1.84368506987793,-1.84368506987858,-0.354651797100095,0.354651797099862,0.100962813491259,0.0784497827856834,-0.0714337430756651,0.0432731017626185,0.449329049088946,-1.09361232150166,-0.601636152262019,0.61990652656179,-0.786582645790358,-0.786582645788445,-0.472218082584679,-1.71975787864047,-1.08692909308801,-1.21075350392934,0.0716026885142117,-1.32367046579413,0.145118064001238,-0.661018819973648,-0.661018819973898,-0.688771050340579,0.68877105034124,1.46424657242124
230.4,-0.812945800402973,-1.63761598887992,NaN,-0.0814783288001139,-0.209972561953484,-0.209972561952248,NaN,0.694528672488718,0.561440299378626,0.665480778036979,0.296091265662087,0.665480778037549,-0.509422245515504,-0.84130557625971,-1.19404591100148,-1.21983850708197,-1.2907261318324,-1.35195451495429,-1.09448928723504,-0.621182219040816,-1.0944892872345,NaN,0.712317114359449,0.447485655610466,0.800821156921797,-1.82735794921396,-1.82735794921463,-0.392654655266607,0.392654655266378,0.105904555650013,0.0948531500948902,-0.0725100218171034,0.0688222003209981,0.447856860516,-1.07579294173067,-0.588767445705759,0.621676887639148,-0.789751741199474,-0.789751741197578,-0.487610929609998,-1.70607973169336,-1.09866866984592,-1.20059688484755,0.0481787331659006,-1.33650420572307,0.0994706381150827,-0.668970840930666,-0.668970840930915,-0.684654737326545,0.684654737327211,1.43960594586198
230.5024,-0.859937825459367,-1.62732876867601,NaN,-0.0946051440447176,-0.212651144378389,-0.212651144377164,NaN,0.68788143738535,0.557281364341391,0.642986376793971,0.282367771829068,0.642986376794527,-0.492947970845491,-0.857760995064658,-1.18411888326392,-1.22464416821928,-1.2729236356063,-1.35028614270107,-1.08643215137209,-0.671937932311847,-1.08643215137155,NaN,0.66561719398671,0.426662502645071,0.780157965784476,-1.81119759136684,-1.81119759136752,-0.430939127720529,0.430939127720304,0.110973145634437,0.111402651688067,-0.0739248346004096,0.0942072880578719,0.446825799778511,-1.05760799926151,-0.575387711424549,0.6234943804298,-0.793655665604031,-0.793655665602152,-0.503422650283037,-1.69182580242119,-1.11065855025032,-1.19020704019927,0.0247431280555532,-1.34908072149073,0.0533066268275785,-0.676202011074882,-0.676202011075137,-0.681135554521643,0.681135554522314,1.41434414794676
230.6048,-0.90667972752012,-1.61653514812814,NaN,-0.107928284399476,-0.215135778366087,-0.215135778364871,NaN,0.681106096832179,0.553082503252714,0.620239086642227,0.26905021830474,0.620239086642767,-0.476804228991654,-0.873423131783469,-1.17408674054751,-1.22891504412724,-1.25504168300025,-1.34817371302782,-1.07770869777224,-0.723791276702028,-1.0777086977717,NaN,0.619558208069321,0.405399123007719,0.759105688682457,-1.79523072607988,-1.79523072608058,-0.469393060621412,0.469393060621194,0.116085150897962,0.128056416592245,-0.0756717634945586,0.119367518790939,0.446234129336214,-1.03907797969225,-0.561513541292885,0.625370558248646,-0.798352511207901,-0.798352511206042,-0.519606128962709,-1.6769831564474,-1.1228441837686,-1.17961751192812,0.00136634004121238,-1.36136485650981,0.00671255984030433,-0.682613163903067,-0.682613163903316,-0.678241872034492,0.678241872035167,1.38848808616166
230.7072,-0.953084159547772,-1.60522511032216,NaN,-0.121455370855643,-0.217471376871675,-0.217471376870472,NaN,0.674177970715224,0.548814377676696,0.597296967216041,0.25614904573919,0.597296967216568,-0.461001377597471,-0.888297506063235,-1.16396614813096,-1.23260126397637,-1.23708500853002,-1.34557952714179,-1.06827614968607,-0.776699866607706,-1.06827614968552,NaN,0.574237082855664,0.383670281454809,0.737664248634495,-1.77948177119517,-1.77948177119589,-0.507903412791544,0.507903412791332,0.121159564418647,0.14477594508466,-0.0777465620508283,0.14424497534759,0.446077649326504,-1.02022362803789,-0.547163016284993,0.627316581812424,-0.803897080174557,-0.803897080172718,-0.536113077166257,-1.66153872524728,-1.13516972575873,-1.16886123852892,-0.0218816068872642,-1.3733212215258,-0.0402251208252375,-0.688106560509123,-0.688106560509372,-0.675998659264661,0.675998659265341,1.3620644543569
230.8096,-0.999063182133557,-1.59339045077216,NaN,-0.135194449248546,-0.219701242800174,-0.219701242798984,NaN,0.667073391187915,0.544448352983347,0.574221439780897,0.24367350275874,0.574221439781408,-0.445546933730352,-0.902392045194826,-1.15377177731429,-1.23565346408736,-1.2190570716735,-1.34246589467526,-1.05809356143687,-0.830617975436696,-1.05809356143631,NaN,0.529746442386145,0.361452410782228,0.715835055193419,-1.76397290607271,-1.76397290607345,-0.546356899571279,0.546356899571074,0.12611784125911,0.161525911103633,-0.0801468616012544,0.168784696037938,0.446349519283034,-1.00106608148892,-0.532355901536869,0.629343000528382,-0.810340584778815,-0.810340584776993,-0.55289424848989,-1.64547951677367,-1.14757833781432,-1.15797059428531,-0.0449315574107014,-1.38491468653869,-0.0874204361994082,-0.692586529754119,-0.692586529754371,-0.674427087817407,0.674427087818092,1.33509955394951
230.912,-1.04452862668344,-1.58102480242724,NaN,-0.14915410362163,-0.221866787399145,-0.221866787397968,NaN,0.659769682328972,0.539956518905136,0.55107696020934,0.231631638255258,0.551076960209836,-0.430445536546611,-0.915717090529782,-1.1435162626356,-1.23802287691607,-1.20095977455034,-1.33879511725503,-1.04712191402494,-0.885496800721766,-1.04712191402439,NaN,0.486174051630119,0.338723593665322,0.693620747666637,-1.74872413509419,-1.74872413509495,-0.584640643944951,0.584640643944755,0.130883922073509,0.178273909989337,-0.0828718350800254,0.192934662276283,0.447040110494882,-0.981626988263344,-0.517113814704288,0.631459558490842,-0.817730343928947,-0.817730343927143,-0.569899637116251,-1.62879282917052,-1.16001247168632,-1.14697741315739,-0.0677156572232518,-1.39611086185062,-0.134788207410396,-0.69596013867611,-0.695960138676373,-0.673544165583314,0.673544165584004,1.3076191447741
231.0144,-1.08939245621816,-1.56812365596144,NaN,-0.163343534753764,-0.224007267070471,-0.224007267069309,NaN,0.652245139555682,0.53531172041136,0.527930663938952,0.220030305361833,0.527930663939432,-0.415698952203711,-0.928285376209214,-1.13321019407923,-1.23966143219399,-1.1827932260525,-1.33452949580876,-1.035324212373,-0.941284690372006,-1.03532421237244,NaN,0.44360232029972,0.315463550805233,0.671024959627678,-1.73375335606624,-1.73375335606701,-0.622642815044251,0.622642815044067,0.135384246078137,0.194990169180595,-0.0859218357493015,0.216645755488263,0.44813687839491,-0.961928617765617,-0.501460377168992,0.633675029035385,-0.82610948077588,-0.826109480774092,-0.587078650119213,-1.61146647280911,-1.17241412813817,-1.13591298915271,-0.0901677781888152,-1.40687654440784,-0.182244365258935,-0.698137860413413,-0.698137860413692,-0.673362410597062,0.673362410597755,1.27964832876544
231.1168,-1.13356711184703,-1.55468438014449,NaN,-0.177772605321752,-0.226159556515764,-0.226159556514613,NaN,0.644478999971166,0.530487591828565,0.504851979272773,0.208875180994163,0.504851979273237,-0.401306117804367,-0.940111971321724,-1.12286213439112,-1.24052186226273,-1.16455555885625,-1.3296313573244,-1.02266557743729,-0.99792730312449,-1.02266557743673,NaN,0.402107861183546,0.291653629551544,0.64805209839759,-1.71907644454892,-1.71907644454969,-0.660253243190452,0.66025324319028,0.139547747055156,0.211647230902853,-0.089298024574502,0.239871681718098,0.449624243649402,-0.941993966713877,-0.485421357598293,0.635997069887646,-0.835516622998889,-0.835516622997114,-0.60438025033385,-1.59348900572802,-1.18472508902,-1.12480804625496,-0.112223926286043,-1.41718011092139,-0.229706234509542,-0.699034206274286,-0.699034206274567,-0.673889569456048,0.673889569456744,1.25121146520889
231.2192,-1.17696584178049,-1.54070624325433,NaN,-0.192451850569714,-0.228357965006155,-0.228357965005017,NaN,0.636451400789877,0.525458589903773,0.481912204776371,0.198170803383888,0.481912204776819,-0.387263229322373,-0.951214172049759,-1.1124786589017,-1.2405578135902,-1.14624280172548,-1.32406310335903,-1.00911333208901,-1.0553676992436,-1.00911333208844,NaN,0.361761096054575,0.2672767903035,0.62470713797252,-1.7047073548578,-1.7047073548586,-0.697364005218868,0.697364005218707,0.143305830216187,0.228219616337911,-0.0930020049672143,0.26256885717475,0.45148347853976,-0.92184685780325,-0.46902480701763,0.638432086979365,-0.845985601256244,-0.845985601254485,-0.621753077327169,-1.57484998212404,-1.19688713046387,-1.11369267847218,-0.133822624894882,-1.42699185060488,-0.277092786470659,-0.698568308430813,-0.698568308431088,-0.675128387173604,0.675128387174303,1.22233211568267
231.3216,-1.21950301918576,-1.52619042996813,NaN,-0.207392448829333,-0.23063409506797,-0.230634095066844,NaN,0.628143333592731,0.520200029296571,0.459184048831474,0.187920626128701,0.459184048831906,-0.373563883420877,-0.961611335913343,-1.10206442514791,-1.23972397600387,-1.12784880903238,-1.3177872899406,-0.994637087411407,-1.11354637469022,-0.994637087410837,NaN,0.322625908510181,0.242317596942046,0.600995428432352,-1.69065822906181,-1.69065822906261,-0.733869980181206,0.733869980181054,0.146592340870566,0.244683485373456,-0.0970354876116701,0.284696250732422,0.453692607548275,-0.901512021290694,-0.45230117336553,0.640985102681075,-0.857545143823114,-0.85754514382137,-0.639145562167078,-1.55554020741985,-1.20884223171116,-1.10259626895516,-0.154905264497631,-1.43628423850713,-0.324324852569741,-0.696664459388872,-0.696664459389132,-0.677076437039367,0.677076437040068,1.19303301889384
231.424,-1.26109446224499,-1.51114004585516,NaN,-0.222606144466124,-0.233016742067935,-0.233016742066821,NaN,0.619536607799745,0.514688129301971,0.436741131956564,0.178127084492763,0.436741131956979,-0.360199284767477,-0.971324655410132,-1.09162228512774,-1.23797624400313,-1.10936524984152,-1.31076675085272,-0.979208842619976,-1.17240125679063,-0.979208842619401,NaN,0.284759350330886,0.216762222981254,0.57692252537338,-1.67693949919756,-1.67693949919836,-0.769669385537608,0.769669385537469,0.149343542321428,0.261016303543539,-0.101399996913737,0.30621518863988,0.456226341697161,-0.88101514939102,-0.435283377545831,0.643659635633972,-0.870218569445758,-0.870218569444034,-0.656506050907234,-1.53555198921188,-1.22053279181887,-1.09154739686073,-0.175416411428435,-1.44503215173569,-0.37132529994722,-0.693252618431086,-0.693252618431326,-0.67972601819709,0.679726018197792,1.16333609905272
231.5264,-1.30165777318149,-1.49556010511533,NaN,-0.238105118755126,-0.235531832798917,-0.235531832797816,NaN,0.610613836683135,0.508900082401019,0.414657454059785,0.168791668898909,0.414657454060182,-0.347158524231025,-0.980376875439367,-1.08115344984893,-1.23527192243527,-1.09078165751275,-1.30296477423718,-0.962803115008479,-1.23186767828218,-0.962803115007901,NaN,0.248211402559653,0.190598486119213,0.55249404192487,-1.66355996906732,-1.66355996906814,-0.804664305933097,0.80466430593297,0.15149811609002,0.277196521591709,-0.106096614114149,0.327089136225985,0.459056065589116,-0.860382916529064,-0.418006835722345,0.646457604474435,-0.884023476736664,-0.884023476734958,-0.673782945692856,-1.51487937243159,-1.23190185976104,-1.08057373787764,-0.195304073423537,-1.45321303305055,-0.418019181228155,-0.68826889076794,-0.688268890768148,-0.683064127048786,0.68306412704949,1.1332625137768
231.6288,-1.34111270117883,-1.47945750293111,NaN,-0.2539018141983,-0.238202397071028,-0.238202397069941,NaN,0.601358454319624,0.50281415124766,0.393006838757961,0.159915001543843,0.393006838758341,-0.334428921112903,-0.988791965746807,-1.07065770493508,-1.23156997815645,-1.07208553686696,-1.29434533288356,-0.945397108455561,-1.29187834578261,-0.945397108454981,NaN,0.21302478544559,0.163815919232935,0.527715526547976,-1.65052687218235,-1.65052687218319,-0.838761216348955,0.838761216348839,0.152997190465899,0.293203267861543,-0.11112574225157,0.347283474573571,0.462149883074503,-0.839642965011858,-0.400509424416762,0.649379264493517,-0.898971431167006,-0.898971431165321,-0.690924865989144,-1.49351835000681,-1.24289337762855,-1.06970196781708,-0.214519918503131,-1.46080700905149,-0.464333873652221,-0.681655973646787,-0.681655973646972,-0.687072500871343,0.687072500872048,1.10283274537783
231.7312,-1.37938150480635,-1.46284097982177,NaN,-0.270008730969277,-0.241048560190276,-0.241048560189205,NaN,0.591754760307641,0.496409788263452,0.371862385669604,0.151496915701322,0.371862385669965,-0.321996412849413,-0.996594759561492,-1.06013366377806,-1.2268313184661,-1.05326252135181,-1.28487335081456,-0.926970910029551,-1.3523633121247,-0.926970910028968,NaN,0.179234819511751,0.136405872688716,0.50259237130997,-1.63784591293469,-1.63784591293554,-0.871871489496522,0.871871489496419,0.15378439709271,0.309016048761285,-0.116486876060253,0.366765284525003,0.465472713479106,-0.818823864486552,-0.382831399040951,0.65242317649888,-0.915067668154376,-0.915067668152708,-0.707880822015039,-1.47146704633355,-1.25345242758502,-1.05895767782134,-0.233019439840103,-1.46779696513769,-0.510199213353187,-0.673363545160239,-0.673363545160397,-0.691727716841595,0.691727716842303,1.07206673129083
231.8336,-1.41638926942441,-1.44572108948464,NaN,-0.286438219671604,-0.244087540736186,-0.244087540735128,NaN,0.581787977471314,0.489667760201289,0.351295968645846,0.143536541834808,0.35129596864619,-0.309845970498007,-1.00381056831345,-1.04957903743301,-1.22101906222713,-1.03429656956014,-1.27451497615657,-0.907507689836624,-1.41324994834589,-0.907507689836038,NaN,0.146869351135776,0.108361628710268,0.477129753779383,-1.62552129838395,-1.62552129838482,-0.903911873098032,0.90391187309794,0.153805949813895,0.324614452854225,-0.122178366851681,0.385503142590013,0.468986427036018,-0.79795505861321,-0.365015282095404,0.655586196008084,-0.93231084022404,-0.93231084022239,-0.724600381233022,-1.44872587706257,-1.26352546338441,-1.04836529629472,-0.250762065269528,-1.47416857017138,-0.555547619111495,-0.663348563839422,-0.663348563839553,-0.69700132306506,0.697001323065769,1.04098402117561
231.936,-1.45206414751837,-1.42811018048708,NaN,-0.303202287888901,-0.247333641710964,-0.247333641709918,NaN,0.571444307793398,0.482570261680676,0.331377801694174,0.136032405447943,0.3313778016945,-0.297962020275956,-1.01046478035294,-1.038990901621,-1.21409877765532,-1.01517018964346,-1.26323783637238,-0.886993881986694,-1.47446290177343,-0.886993881986102,NaN,0.115948751875787,0.0796785052065333,0.451332611896947,-1.61355576128773,-1.61355576128862,-0.934804924907697,0.934804924907617,0.153010737454055,0.339977862163337,-0.128197183453064,0.403466933348138,0.472650014560749,-0.777066808502193,-0.347105730943895,0.658863468084618,-0.9506928270253,-0.950692827023669,-0.7410338107708,-1.42529769082879,-1.27306051013273,-1.0379480033273,-0.267711219544414,-1.47991024290784,-0.600314199470482,-0.65157545988765,-0.65157545988776,-0.702859991820695,0.702859991821405,1.00960394835907
232.0384,-1.48633752010315,-1.41002239710616,NaN,-0.320312428175143,-0.250798229275696,-0.250798229274662,NaN,0.560710983003789,0.475101014232087,0.31217607318545,0.128982537353315,0.312176073185758,-0.286328864993073,-1.01658243823549,-1.02836594951554,-1.20603868264082,-0.995864680723259,-1.25101126927839,-0.86541933748309,-1.5359240267644,-0.865419337482494,NaN,0.0864859873677117,0.0503539347631902,0.425205649200287,-1.60195057197033,-1.60195057197124,-0.96447939763066,0.964479397630595,0.151350425139987,0.355085178588016,-0.134538671051111,0.420627689063381,0.476419789207124,-0.756190132988028,-0.32914938635275,0.662248420998165,-0.970198616943269,-0.970198616941657,-0.75713219493695,-1.40118789518873,-1.28200733217141,-1.02772763322839,-0.283834345499079,-1.48501306159013,-0.644436847511795,-0.6380162177494,-0.638016217749508,-0.709265704425305,0.709265704426019,0.977945813075513
232.1408,-1.51914409616062,-1.39147369890021,NaN,-0.337779471273498,-0.254489694649127,-0.254489694648106,NaN,0.549576316321806,0.4672453569035,0.293756641972951,0.122384591713144,0.293756641973242,-0.274931113746962,-1.02218777701857,-1.01770072931404,-1.1968098166454,-0.976360381306292,-1.23780653389092,-0.84277744847649,-1.59755228172119,-0.842777448475895,NaN,0.058486746313524,0.020387517011138,0.398753367094394,-1.59070553829671,-1.59070553829765,-0.992870571507762,0.99287057150771,0.148779566413408,0.369914564963016,-0.141196299468877,0.436957465828947,0.480249611343354,-0.735356739545134,-0.311194701749253,0.665732761471812,-0.99080626413246,-0.99080626413087,-0.772847541103812,-1.37640456374956,-1.29031758218767,-1.01772457789191,-0.299102880596803,-1.48947062771088,-0.687856334583817,-0.6226503613538,-0.622650361353892,-0.716175980868258,0.716175980868974,0.946029085560442
232.2432,-1.55042196846267,-1.37248189286641,NaN,-0.355613467211909,-0.258413394679433,-0.258413394678426,NaN,0.538029761372077,0.458990333209519,0.276182791075598,0.116235964947288,0.276182791075873,-0.263754126627416,-1.02730371908669,-1.0069918721416,-1.18638619126255,-0.956636916507738,-1.22359700415974,-0.819065244147068,-1.6592635989268,-0.819065244146474,NaN,0.0319496243061273,-0.0102189489897332,0.371980120097926,-1.57981899348529,-1.57981899348623,-1.01992053904177,1.01992053904173,0.145255732892974,0.384443190218963,-0.148161388732232,0.452429253458394,0.484091122655202,-0.714598940384,-0.29329175630004,0.669306478540915,-1.01248691856045,-1.01248691855888,-0.788132886912258,-1.35095851858823,-1.29794494333758,-1.00795770801603,-0.31349218194566,-1.49327889635329,-0.730516407290746,-0.605464856273087,-0.605464856273166,-0.723544157080931,0.723544157081651,0.913873635693523
232.3456,-1.58011263882542,-1.35306666842892,NaN,-0.373823593125611,-0.262571569024,-0.262571569023012,NaN,0.52606197679169,0.450324772293294,0.259515034686743,0.11053391039845,0.259515034687001,-0.252784467505321,-1.03195134669729,-0.996236315493962,-1.17474491922961,-0.936673440947867,-1.20835834446555,-0.794283458265964,-1.72097074600617,-0.794283458265373,NaN,0.00686635719748499,-0.0414614459473291,0.34489019048271,-1.56928777098381,-1.56928777098477,-1.04557845148059,1.04557845148057,0.140739664607584,0.398646971100497,-0.155422810751347,0.467016908182202,0.487893980687479,-0.693949551536554,-0.275492054738401,0.672957864784243,-1.03520492618186,-1.03520492618032,-0.802942410974794,-1.324863382847,-1.30484526496164,-0.998444318892955,-0.326981398105556,-1.4964359791111,-0.772363881660668,-0.58645394031798,-0.586453940318051,-0.731319706381622,0.731319706382347,0.881499982468075
232.448,-1.6081610217809,-1.3332496271385,NaN,-0.392418082233668,-0.266963236916794,-0.266963236915826,NaN,0.513664891902743,0.441239360163323,0.243810971415451,0.105275647751051,0.243810971415693,-0.242010352592507,-1.03614937892602,-0.985431524247283,-1.16186631923126,-0.916448881883234,-1.19206866618669,-0.768436570637679,-1.78258320023425,-0.768436570637088,NaN,-0.0167779087723523,-0.0733337317174775,0.31748787958585,-1.55910716900105,-1.55910716900202,-1.06980073654697,1.06980073654696,0.135195439079029,0.412500313595623,-0.16296667777564,0.480695100618683,0.491606092603542,-0.673441774810662,-0.257848314488221,0.676673565315122,-1.05891800252696,-1.05891800252544,-0.81723154221775,-1.29813560270579,-1.31097668644833,-0.989200096278669,-0.339553293630379,-1.49894192063426,-0.813348729247016,-0.565618893438178,-0.565618893438246,-0.739448605348553,0.73944860534928,0.848929547447235
232.5504,-1.63451543207912,-1.31305430404507,NaN,-0.411404168729341,-0.271584083280265,-0.271584083279318,NaN,0.500831770900941,0.431726699661298,0.229125174594038,0.100458470021292,0.229125174594264,-0.231422089409389,-1.03991366273994,-0.974575708875097,-1.14773399521169,-0.895942189389694,-1.17470866641191,-0.74153282387661,-1.84400705326616,-0.741532823876022,NaN,-0.0390043235967668,-0.105827348070232,0.289777611518529,-1.54927091470525,-1.54927091470622,-1.09255128968247,1.09255128968247,0.128590654028283,0.425975861034825,-0.170776028937385,0.493439276929936,0.495173848122171,-0.653109066334465,-0.240414242953862,0.680438660542772,-1.08357747953382,-1.08357747953233,-0.83095706537191,-1.27079444490479,-1.31629974869143,-0.980239092604932,-0.351194039587374,-1.50079845143908,-0.853424155049619,-0.542967761306692,-0.542967761306757,-0.74787374434988,0.747873744350611,0.816184900502074
232.6528,-1.65912755342821,-1.2925061811245,NaN,-0.430788050153352,-0.276426344166854,-0.276426344165924,NaN,0.48755727089772,0.421781355458232,0.21550911448298,0.0960798528586715,0.215509114483191,-0.221012504035761,-1.04325667523598,-0.963668036251389,-1.13233488569634,-0.875132592474878,-1.15626174492421,-0.713584209923278,-1.90514496288446,-0.713584209922693,NaN,-0.0598400165037255,-0.138931652541825,0.261764042172628,-1.53977114267772,-1.53977114267872,-1.1138016313748,1.11380163137481,0.120896613421792,0.439044251341674,-0.178830520017728,0.505225631110175,0.498542346694939,-0.632985000853046,-0.223244314577196,0.684236779137953,-1.10912861607432,-1.10912861607286,-0.844077222719883,-1.24286198086764,-1.32077749701061,-0.97157370154835,-0.361892985857731,-1.50200871971198,-0.892546664563907,-0.5185150439019,-0.518515043901967,-0.756535372756477,0.756535372757212,0.78328999281419
232.7552,-1.68195237888611,-1.27163269239443,NaN,-0.450574874874768,-0.281478694229572,-0.28147869422866,NaN,0.473837485109757,0.411399875133021,0.203011114506188,0.092137570236746,0.203011114506383,-0.210777350220426,-1.04618703854863,-0.952708825940655,-1.11565927462944,-0.853999851216918,-1.13671408976269,-0.684606415076267,-1.96589616684085,-0.684606415075687,NaN,-0.0793177411521875,-0.172633882737736,0.233452167030543,-1.53059839758938,-1.53059839759039,-1.13353102004162,1.13353102004164,0.112088504201027,0.451673879959843,-0.187106116716023,0.516031082387963,0.501655611674506,-0.61310314002595,-0.206393557775347,0.688050235670374,-1.13551096721453,-1.1355109672131,-0.856551810860769,-1.21436306584487,-1.32437557707581,-0.963214622726454,-0.371642422551075,-1.5025770002896,-0.930676114155167,-0.492281348092948,-0.492281348093018,-0.765371565314993,0.765371565315731,0.750270371824744
232.8576,-1.70294811950174,-1.25046321747902,NaN,-0.470768758540509,-0.286726138209897,-0.286726138208997,NaN,0.459669966617254,0.400580781131912,0.191676341814204,0.0886298172077874,0.191676341814385,-0.200715691830418,-1.04870906153024,-0.941699730516771,-1.09770076223117,-0.832524494473449,-1.11605472699216,-0.654618717272578,-2.02615656457199,-0.654618717272002,NaN,-0.0974754737168533,-0.206919255592849,0.204847425546567,-1.52174166029342,-1.52174166029446,-1.1517265135807,1.15172651358073,0.102145556449669,0.463830662836224,-0.195574794106077,0.525833245354419,0.504456790702873,-0.593496904974432,-0.189917352353722,0.691860193160437,-1.16265881696035,-1.16265881695894,-0.868342270958809,-1.18532531396652,-1.3270623225055,-0.955170819043472,-0.38043732681247,-1.5025083798265,-0.96777574284724,-0.464292998179112,-0.464292998179186,-0.774318707518116,0.774318707518858,0.717153370234253
232.96,-1.72207609238888,-1.2290290583758,NaN,-0.49137282244413,-0.292149915929293,-0.292149915928408,NaN,0.445053736347435,0.389324537935448,0.181546820571681,0.0855553350910407,0.181546820571847,-0.190830246997412,-1.05082233653459,-0.930643903868584,-1.07845620709662,-0.810688035384795,-1.09427554111313,-0.623643842025474,-2.0858188580512,-0.623643842024903,NaN,-0.114355972984241,-0.241771091298196,0.175955801690643,-1.51318838943325,-1.51318838943432,-1.16838297254778,1.16838297254782,0.0910511855772221,0.475477800554433,-0.204204258101733,0.534610375770151,0.506888349150979,-0.574199449635091,-0.173871231178147,0.69564684820867,-1.19050167078551,-1.19050167078414,-0.879411770914904,-1.15577906582299,-1.32880883132813,-0.947449475488157,-0.38827509461367,-1.50180842789156,-1.00381218412292,-0.434581611990082,-0.434581611990153,-0.783312001905299,0.783312001906042,0.68396826211676
233.0624,-1.73930060568939,-1.20736339466526,NaN,-0.512389240332143,-0.297727431760089,-0.297727431759219,NaN,0.429989280732958,0.37763350178665,0.172661449302506,0.0829135298645994,0.172661449302659,-0.181127674838821,-1.05252142753053,-0.919546157221751,-1.05792565372162,-0.788473157138333,-1.0713712749444,-0.591707792509256,-2.14477273299637,-0.591707792508691,NaN,-0.130006323949033,-0.277170943061462,0.14678391682432,-1.50492457249811,-1.5049245724992,-1.1835029929416,1.18350299294166,0.0787931158781214,0.48657555762253,-0.212957717270456,0.542341281218156,0.508892263903482,-0.555243537066859,-0.158310683926806,0.699389623706943,-1.21896478650387,-1.21896478650254,-0.889725276470971,-1.12575734658332,-1.32958902744756,-0.940055964764891,-0.395155271923513,-1.50048287530754,-1.03875545075313,-0.403183669451787,-0.403183669451862,-0.792285980899273,0.792285980900019,0.650746381840245
233.1648,-1.75458885401667,-1.18550121530351,NaN,-0.533819283169545,-0.303432212983289,-0.303432212982435,NaN,0.414478541107308,0.365511857109554,0.165056008917603,0.0807045736769324,0.165056008917742,-0.171618785692043,-1.05379567613116,-0.908413096348576,-1.03611225266147,-0.765863862770865,-1.04733951273266,-0.558839668659966,-2.20290506364676,-0.558839668659407,NaN,-0.144477487034534,-0.313098716267432,0.117339107355692,-1.49693478609405,-1.49693478609515,-1.19709675937814,1.19709675937821,0.065363484271289,0.497081079187972,-0.221793730013075,0.549005203248921,0.510410222912333,-0.536661425773259,-0.143290965485181,0.703067350275769,-1.24796972245202,-1.24796972245072,-0.899249609417769,-1.09529581418383,-1.3293797050063,-0.932993821704849,-0.401079305033186,-1.49853732272437,-1.07257888914367,-0.370140104160193,-0.370140104160263,-0.801174997554917,0.801174997555666,0.6175212027891
233.2672,-1.76791083480787,-1.16347922633476,NaN,-0.555663356853551,-0.30923389866575,-0.309233898664908,NaN,0.398524894668039,0.352965541735976,0.158763156701869,0.0789294818906895,0.158763156701994,-0.162318665039532,-1.05462913493959,-0.897253233777645,-1.01302217598226,-0.742845586732437,-1.02218064788125,-0.525071485060705,-2.26010013792425,-0.525071485060153,NaN,-0.157823869900589,-0.349532770047176,0.0876294799546422,-1.48920226794642,-1.48920226794753,-1.20918181971478,1.20918181971485,0.0507589221309943,0.506948267533313,-0.230666141217419,0.554581690784781,0.511383835539157,-0.518484769186307,-0.128866908761361,0.706658431861417,-1.2774349002228,-1.27743490022153,-0.907953494687224,-1.06443269488597,-1.328160556625,-0.926264732094366,-0.406050318276815,-1.49597699458103,-1.1052591135214,-0.335495935172494,-0.335495935172552,-0.809913672486971,0.809913672487723,0.584328374364356
233.3696,-1.77923929494509,-1.14133573055228,NaN,-0.577921030082844,-0.315098265516433,-0.315098265515608,NaN,0.382133124931132,0.340002161729511,0.153812404374898,0.077590161387691,0.153812404375011,-0.153246704715972,-1.05500063315765,-0.886077071185655,-0.988664531182535,-0.719405267890583,-0.995897837694135,-0.490437993061385,-2.3162399158328,-0.490437993060838,NaN,-0.170102930452078,-0.386450002805561,0.0576639391015908,-1.48170900492373,-1.48170900492485,-1.21978278422903,1.21978278422911,0.034980608499236,0.516127735746117,-0.239524117603568,0.559050482259428,0.511754854187718,-0.500744526026086,-0.11509273990921,0.710141007418877,-1.3072761900746,-1.30727619007336,-0.915807600300617,-1.03320870221196,-1.32591418838974,-0.919868545018449,-0.410072914968547,-1.4928065445844,-1.13677593610422,-0.299299942285077,-0.299299942285123,-0.81843729137863,0.818437291379385,0.551205718317516
233.472,-1.78854971071754,-1.11911047346306,NaN,-0.60059105227533,-0.320987302001661,-0.320987302000853,NaN,0.365309376228672,0.326630892334586,0.150230078323601,0.0766894296063761,0.150230078323703,-0.14442653105995,-1.05488398184366,-0.874897143810623,-0.9630512737397,-0.695531383011985,-0.968496944962159,-0.45497650653354,-2.37120434178855,-0.454976506532997,NaN,-0.181374811103965,-0.423825928246821,0.0274521820661515,-1.47443584620556,-1.4744358462067,-1.22893094723532,1.22893094723541,0.0180342817936313,0.524566848128575,-0.248312286105848,0.562391406965466,0.511465401329282,-0.483470883062092,-0.102021900218321,0.713493119666566,-1.33740752047419,-1.33740752047299,-0.922784575248626,-1.00166694014633,-1.32262612729267,-0.91380331263596,-0.413152996637317,-1.48902991207042,-1.1671123009282,-0.261604380319893,-0.261604380319911,-0.826682156466293,0.826682156467052,0.518193186063832
233.5744,-1.79582029472972,-1.09684445517154,NaN,-0.623671364422802,-0.32685934357507,-0.326859343574276,NaN,0.348061086868832,0.312862359177818,0.148039262641439,0.0762310077630829,0.148039262641529,-0.135885824365226,-1.05424831686127,-0.863728018494064,-0.936197112999351,-0.671213943178345,-0.939986462996308,-0.418726726236697,-2.42487172800095,-0.418726726236157,NaN,-0.191701997641747,-0.461634748065536,-0.00299534217563041,-1.46736265085976,-1.4673626508609,-1.23666382899079,1.23666382899089,-6.98022991678659e-05,0.532209851735084,-0.256970972953239,0.564584315571662,0.510458200893218,-0.466693198916647,-0.0897068818233057,0.716692886760476,-1.36774150374161,-1.36774150374043,-0.928859091371666,-0.969852796694279,-1.31828482965501,-0.908065353531213,-0.415297599103709,-1.48465022326729,-1.19625422024389,-0.222464722602686,-0.22246472260267,-0.834585897580059,0.834585897580821,0.485332777325816
233.6768,-1.80103202080023,-1.07457971311813,NaN,-0.64715910290262,-0.332669283359339,-0.332669283358557,NaN,0.330396900667065,0.29870849809003,0.147259727134224,0.0762194934734257,0.147259727134303,-0.127656036866993,-1.05305856614263,-0.852586245671534,-0.908119407700151,-0.646444463698102,-0.910377424425729,-0.381730561782081,-2.47711921719435,-0.381730561781545,NaN,-0.201148988189606,-0.499849419865658,-0.0336675081538942,-1.46046846949818,-1.46046846949932,-1.24302463524526,1.24302463524537,-0.0193169702391431,0.538998104280312,-0.265436544023955,0.56560904769937,0.508676826997843,-0.450439974781819,-0.0781990749265004,0.719718661504437,-1.39819006882824,-1.3981900688271,-0.934007893884285,-0.937813831520476,-1.31288169674113,-0.902649331004209,-0.41651474599848,-1.47966972811019,-1.22419071241281,-0.181939422972238,-0.181939422972188,-0.842087747875887,0.842087747876653,0.45266841905361
233.7792,-1.80416866249834,-1.05235907958666,NaN,-0.671050592641542,-0.33836886874914,-0.338368868748373,NaN,0.312326560080092,0.284182397095069,0.147907840348799,0.0766603161682439,0.147907840348867,-0.119772020794122,-1.05127603154509,-0.841490273440508,-0.87883805258978,-0.621215919694261,-0.879683298625288,-0.344031954953597,-2.52782332453893,-0.344031954953064,NaN,-0.209781953876762,-0.538441711944826,-0.0645526162091847,-1.45373175062072,-1.45373175062187,-1.24806162802403,1.24806162802414,-0.0396882819443664,0.544870401327975,-0.273641852341562,0.565445434333054,0.506065985673358,-0.434738848600997,-0.0675486156909251,0.722549161882237,-1.42866509171999,-1.42866509171887,-0.938209860654116,-0.905599656030076,-1.30641109712459,-0.897548331893236,-0.41681332554234,-1.47408976206809,-1.25091374261498,-0.140089689663463,-0.140089689663377,-0.849128784622484,0.849128784623252,0.420245801092364
233.8816,-1.80521684351577,-1.0302259169179,NaN,-0.695341329716747,-0.343907076848672,-0.343907076847918,NaN,0.29386078485783,0.269298125573653,0.149996468739266,0.0775596761467074,0.149996468739323,-0.112271578692083,-1.04885907675274,-0.830460333452762,-0.84837535875966,-0.595522691515554,-0.847919881102685,-0.305676706677897,-2.57686054742414,-0.305676706677369,NaN,-0.217668379361605,-0.577382240034355,-0.095638513255271,-1.44713055837526,-1.44713055837641,-1.25182741280704,1.25182741280716,-0.0611607229552444,0.549763390354017,-0.281516785605002,0.564073323234168,0.502571830401814,-0.419616603176606,-0.0578042270695685,0.725163561586025,-1.45907900513717,-1.45907900513608,-0.941446066011963,-0.873261802744358,-1.29887039024097,-0.892753929493737,-0.416203000109439,-1.46791072398124,-1.27641816424843,-0.0969792698926602,-0.0969792698925488,-0.855652130282635,0.855652130283405,0.388112166791032
233.984,-1.80416609577948,-1.0082238375511,NaN,-0.720025956677752,-0.349230540281205,-0.349230540280469,NaN,0.27501114337526,0.254070557684413,0.153534870170388,0.078924468184439,0.153534870170437,-0.105194959777482,-1.04576389306499,-0.819518310042403,-0.816755932224941,-0.569360499494543,-0.815105178252588,-0.266712310432992,-2.62410802046085,-0.266712310432473,NaN,-0.224876679217605,-0.616640489625366,-0.126912719714624,-1.44064278450087,-1.44064278450204,-1.25437817248185,1.25437817248198,-0.083707421770132,0.553612042944299,-0.288988884675888,0.561472614966367,0.498142299151163,-0.405099174818763,-0.04901304878349,0.727541539009233,-1.4893453614815,-1.48934536148043,-0.943699842494547,-0.840853580098035,-1.29025994278745,-0.8882562236127,-0.414694151046038,-1.46113206446021,-1.30070165228957,-0.0526742482611872,-0.0526742482610425,-0.861603114273806,0.861603114274579,0.356316068320832
234.0864,-1.801008918436,-0.986396420824212,NaN,-0.745098228242404,-0.354283987718876,-0.354283987718157,NaN,0.255789929503478,0.238515202834328,0.158528596420557,0.0807621924287771,0.158528596420598,-0.0985843379450858,-1.0419452929644,-0.808687604508769,-0.784006560961377,-0.542726334510397,-0.781259297466801,-0.227187800385352,-2.66944419267488,-0.227187800384836,NaN,-0.231475789561847,-0.656184829209295,-0.158362540277019,-1.43424633608808,-1.43424633608926,-1.25577288659265,1.25577288659278,-0.107297874019766,0.556350160800679,-0.295984002501206,0.557623306080089,0.492727465066396,-0.39121164558723,-0.0412204475832594,0.72966329693489,-1.51937932959085,-1.51937932958982,-0.944956831083472,-0.808429905226009,-1.28058312539867,-0.884043863291048,-0.412297847499703,-1.45375227944415,-1.32376462108,-0.0072428556978908,-0.00724285569771666,-0.866929410441719,0.866929410442495,0.324907108473064
234.1888,-1.79574083005221,-0.964786940529692,NaN,-0.770550957599864,-0.359010670853937,-0.35901067085323,NaN,0.236210062111783,0.222648061814109,0.164979420766916,0.083080855987798,0.164979420766948,-0.0924833050678525,-1.03735748134336,-0.797993003972237,-0.750156123661329,-0.515618402103524,-0.746404358434218,-0.187153625315024,-2.71274950903599,-0.187153625314513,NaN,-0.237534739486951,-0.695982513125308,-0.189975126579367,-1.42791928606175,-1.42791928606295,-1.25607255946315,1.25607255946329,-0.131898154106296,0.557910910957592,-0.302426991259969,0.552505546474089,0.486279905420161,-0.377978201991517,-0.0344697922649935,0.731509574826841,-1.54909812018405,-1.54909812018305,-0.945205007743655,-0.776047104381448,-1.26984627309624,-0.880104061464707,-0.409025821005424,-1.44576890048391,-1.34561012776831,0.0392447252843326,0.0392447252845199,-0.871581173531803,0.871581173532582,0.293935692172482
234.2912,-1.78836040920946,-0.943438114536083,NaN,-0.796375934176751,-0.363352761997427,-0.363352761996737,NaN,0.216285023829843,0.206485526653375,0.172885302015778,0.085888866706861,0.172885302015802,-0.0869364000420061,-1.03195478007268,-0.787460564572195,-0.715235530853293,-0.488036100825479,-0.710564440306692,-0.14666155627994,-2.75390707769402,-0.146661556279431,NaN,-0.243122209694512,-0.735999666890114,-0.22173746497856,-1.42163998079115,-1.42163998079237,-1.25533946515575,1.25533946515589,-0.157471095986938,0.558227396502758,-0.308242419241477,0.546099719433253,0.478755095483304,-0.365422049648989,-0.0288021819126158,0.733061674044055,-1.57842134154272,-1.57842134154174,-0.944434678412671,-0.743762673628509,-1.2580585986575,-0.876422608730416,-0.404890434951814,-1.43717847862096,-1.36624376655939,0.0867165630860711,0.0867165630862687,-0.875511188805208,0.875511188805989,0.263452803559775
234.3936,-1.77886932583563,-0.922391878574152,NaN,-0.822563813643373,-0.367251722142341,-0.367251722141666,NaN,0.196028845080638,0.190044329963327,0.182240383897835,0.089194917213404,0.18224038389785,-0.0819886742346823,-1.02569231936261,-0.777117518672158,-0.679277701458634,-0.459980042591423,-0.673765569517278,-0.105764627772984,-2.7928033034257,-0.105764627772479,NaN,-0.248306083198623,-0.776201253105099,-0.253636289730711,-1.41538710854539,-1.41538710854663,-1.2536364072727,1.25363640727284,-0.183976436202278,0.557233265615442,-0.313355320970996,0.538386544758881,0.470111823293335,-0.353565287849997,-0.0242561324971429,0.734301504161682,-1.60727129031226,-1.60727129031131,-0.942638447849664,-0.711635002198263,-1.24523206547275,-0.872983894118469,-0.39990465218897,-1.42797657441237,-1.38567355901138,0.13509916866821,0.135099168668408,-0.878675031414272,0.878675031415054,0.233509809915998
234.496,-1.76727237207217,-0.901689176993228,NaN,-0.849103993633648,-0.370648654915427,-0.370648654914765,NaN,0.17545612053838,0.173341530273233,0.193035014536904,0.0930078559557027,0.193035014536911,-0.0776852773751639,-1.01852672819044,-0.766992207187068,-0.642317565981382,-0.431452101034634,-0.636035737061418,-0.0645171010455439,-2.82932847773611,-0.0645171010450431,NaN,-0.253152997714712,-0.816551030195666,-0.285657956657215,-1.40913974333246,-1.40913974333372,-1.25102598333118,1.25102598333133,-0.211370933824471,0.554863353123985,-0.317691979681812,0.529347196580037,0.460312610430992,-0.342428762758397,-0.0208672439730643,0.735211642016991,-1.63557319214861,-1.63557319214768,-0.939811178866394,-0.679723070521635,-1.2313812415612,-0.869770942871664,-0.394082010840159,-1.41815777620705,-1.40390985262155,0.184317659900251,0.184317659900449,-0.881031222053909,0.881031222054693,0.204158273798451
