time,S1-D1,S1-D8,S1-D9,S1-D15,S2-D1,S2-D2,S2-D3,S2-D9,S3-D1,S3-D2,S3-D16,S4-D2,S4-D3,S4-D5,S5-D3,S5-D4,S5-D5,S6-D2,S6-D5,S6-D17,S7-D6,S7-D7,S8-D6,S8-D7,S8-D18,S9-D3,S9-D4,S9-D9,S9-D11,S9-D19,S10-D8,S10-D9,S10-D10,S10-D11,S11-D8,S11-D10,S11-D20,S12-D10,S12-D11,S12-D12,S13-D4,S13-D11,S13-D12,S14-D10,S14-D12,S14-D21,S15-D13,S15-D14,S16-D13,S16-D14,S16-D22
735.4368,1.7657118996473,-0.816233604179619,1.56549443898414,-0.88027427431156,-0.438579954295721,-0.438579954298636,1.27511790580264,1.06589593690222,1.35578624535253,1.16325770109128,2.27693604866414,1.16325770109204,2.30467085972629,NaN,1.21285053815989,1.66204595271543,NaN,3.51924053834407,1.34002109841743,0.267221302634105,1.34002109841516,-0.8050149471084,2.46644425263315,1.99997253607453,-1.00591190029468,0.662043667148212,NaN,-0.107484294015146,0.107484294013793,-0.366154353595998,1.27863718808763,-0.0082780896593191,2.12281102495826,-1.69735791398321,0.622467353274582,-0.935564670186158,-1.20896560787632,-1.35026426170274,-1.35026426170292,1.76718729185109,-2.19440606656936,0.901740802020263,NaN,0.203445540208813,0.501867306637709,-1.43849601799577,0.0581604287074844,0.0581604287047169,-3.40055270821063,3.40055270820785,-1.57380439951655
735.5392,1.84167576157017,-0.855938123543124,1.62980955590127,-0.924694564340619,-0.427170978453617,-0.427170978456484,1.23707754526327,1.03482917736863,1.31570722672578,1.16569730585257,2.32599443620981,1.16569730585334,2.30811206063883,NaN,1.21014457969029,1.6306597965744,NaN,3.47952809189938,1.28652538804654,0.230095504144367,1.28652538804419,-0.799474049447146,2.49196411175716,2.03005195326497,-1.00889517659578,0.647313325567562,NaN,-0.125021964001254,0.125021963999907,-0.429765028232916,1.34010860059028,-0.0293857453853473,2.19850830619507,-1.69299966483115,0.634124557804979,-0.926705689778451,-1.22034006368518,-1.31853676859543,-1.31853676859568,1.77514434668473,-2.1948031164024,0.910312339679594,NaN,0.142410412956409,0.513500805128274,-1.45536820818394,0.0201484504913545,0.0201484504885524,-3.42112813508462,3.42112813508206,-1.56848516290269
735.6416,1.91602307465611,-0.895375351082576,1.69237396017241,-0.968345861315901,-0.416420127425995,-0.416420127428821,1.1984951967121,1.00169126301536,1.27423858218593,1.16630923600214,2.37305769858633,1.16630923600291,2.30857604565898,NaN,1.205001688979,1.59673515528363,NaN,3.4363619212784,1.23092012171308,0.193230233504777,1.23092012171064,-0.794607825320503,2.51550106205618,2.05762896889196,-1.01084910112235,0.631352854340027,NaN,-0.141101372347475,0.141101372346136,-0.492038309805982,1.39900534929667,-0.0491645666620343,2.2716011640139,-1.68784040977064,0.644739012517329,-0.917770042024668,-1.23007820503139,-1.28641280921504,-1.28641280921535,1.78193771139327,-2.19368213909911,0.918324814729314,NaN,0.0805621525683678,0.523583099509814,-1.47179868770401,-0.0185293345895952,-0.0185293345924199,-3.43794371851858,3.43794371851627,-1.56251978666367
735.744,1.98868460334367,-0.934538341624168,1.75310969196561,-1.01118604197157,-0.40635453691032,-0.406354536913098,1.15954098981136,0.966539198473041,1.23151837281785,1.1652059004547,2.41811133877445,1.16520590045548,2.30622843485884,NaN,1.1975865969241,1.56040205614079,NaN,3.38988346170867,1.1733643649358,0.156715403194616,1.1733643649333,-0.790348654808389,2.53705224389154,2.08274639126199,-1.01181197342624,0.614252372239474,NaN,-0.155630893819167,0.155630893817831,-0.55288744197534,1.45531202532696,-0.0676931774044577,2.34196382022968,-1.68183922705997,0.654348483076391,-0.908709465651185,-1.23818346122903,-1.25391240308853,-1.2539124030889,1.78760656087321,-2.19105734331229,0.925814598262809,NaN,0.0179303069273749,0.532204160285817,-1.48781135548633,-0.0578816077246105,-0.0578816077274455,-3.45097541158753,3.45097541158555,-1.55598265200961
735.8464,2.05959908229369,-0.973420321269638,1.81194818150595,-1.05317625230235,-0.396998139124831,-0.396998139127586,1.12038341214515,0.929431590240094,1.18768440890881,1.16250292528908,2.46114734883068,1.1625029252899,2.30124417809939,NaN,1.18807262403432,1.5217944851815,NaN,3.34023920765526,1.11402369217603,0.120637381870446,1.1140236921735,-0.786631318193105,2.55662188640042,2.10545271822898,-1.01182218001876,0.596103641713976,NaN,-0.168523440468975,0.168523440467647,-0.612230678912671,1.50902308368284,-0.0850601624830674,2.40947427620655,-1.6749608397837,0.662992889212597,-0.899478769855224,-1.2446611007929,-1.22105402966873,-1.22105402966916,1.79219067762282,-2.18694458251547,0.932817947889259,NaN,-0.0454522517132281,0.539458853166018,-1.50343113323532,-0.0979124492893786,-0.0979124492922243,-3.46021008207879,3.4602100820771,-1.54894953484301
735.9488,2.12871308131326,-1.01201450421216,1.86883020917598,-1.09428083916227,-0.388371559823493,-0.388371559826224,1.08118827002468,0.8904288173238,1.14287366743591,1.15831850254112,2.50216395713555,1.15831850254195,2.29380662593523,NaN,1.17664073562769,1.48104989580383,NaN,3.28758013357056,1.05306963268055,0.0850786759893044,1.05306963267798,-0.783393412609415,2.57422120009576,2.12580174443635,-1.01091798546426,0.576999455810372,NaN,-0.179696568549267,0.179696568547947,-0.669991393466483,1.56014287189251,-0.101363776360239,2.47401473148547,-1.66717569137168,0.670714090728932,-0.890035993656504,-1.24951829470992,-1.18785493546991,-1.1878549354704,1.79573030656199,-2.18136121339875,0.939370915256068,NaN,-0.10954919245602,0.54544664596849,-1.51868378829579,-0.138621047022993,-0.138621047025808,-3.46564552485808,3.46564552485668,-1.54149725037968
736.0512,2.1959807774399,-1.05031391467782,1.92370575152815,-1.13446725860645,-0.380492045596677,-0.38049204559936,1.04211766444943,0.849593253531351,1.09722174526214,1.15277271086661,2.54116533612236,1.15277271086752,2.28410655121361,NaN,1.16347854033003,1.43830870254967,NaN,3.23206109994623,0.990679042041303,0.0501176191594208,0.990679042038714,-0.780575773088818,2.58986821819359,2.14385211268543,-1.00913735220612,0.557033084850772,NaN,-0.189072567206678,0.189072567205365,-0.726098147866002,1.60868560010603,-0.116711555521074,2.53547202717151,-1.65845998082231,0.67755569054021,-0.880342527543736,-1.25276421243038,-1.15433142084117,-1.15433142084172,1.79826600458885,-2.17432596903371,0.945509240751101,NaN,-0.174320595557211,0.550271264829633,-1.53359574352963,-0.180001444777177,-0.180001444779972,-3.46729042152718,3.46729042152606,-1.53370327962591
736.1536,2.26136364058485,-1.08831121311542,1.97653372141891,-1.17370596002609,-0.373373428078201,-0.373373428080831,1.00332898748814,0.806989539118037,1.05086235027397,1.1459868125747,2.57816126542608,1.14598681257567,2.27234111469611,NaN,1.14877922881905,1.39371376652299,NaN,3.17384024331023,0.927033414914376,0.0158280520717056,0.927033414911839,-0.778122892204105,2.6035875789972,2.15966680543703,-1.00651779030466,0.536297775449547,NaN,-0.196578537216523,0.196578537215224,-0.780484736473524,1.65467523806015,-0.131219830386599,2.59373809524054,-1.6487956644819,0.683562848138862,-0.870363205634178,-1.25441014318227,-1.12049909466946,-1.12049909467008,1.79983848727375,-2.16585884470984,0.951268239025433,NaN,-0.239722834639091,0.554040281287841,-1.54819386834524,-0.22204235509277,-0.222042355095522,-3.46516422815798,3.4651642281571,-1.52564536948436
736.256,2.32483003749089,-1.12599852801961,2.02728160701884,-1.21197024781637,-0.367026133124776,-0.367026133127364,0.964973948362767,0.76268489903671,1.00392683504473,1.13808252778307,2.61316675531094,1.1380825277841,2.2587127668985,NaN,1.13274045235104,1.34740988107551,NaN,3.11307835438888,0.862318156842619,-0.0177210249556456,0.862318156840109,-0.775983337593374,2.61541025047048,2.17331257810227,-1.0030962365999,0.514886300402223,NaN,-0.202146478631399,0.202146478630111,-0.833090204809838,1.69814531873132,-0.145013119030304,2.64871040259512,-1.63817043208239,0.688782097206181,-0.860066377027155,-1.25446963396698,-1.08637308693926,-1.08637308693994,1.80048847511098,-2.15598099455966,0.956682678897327,NaN,-0.305708472460709,0.556864622030035,-1.56250524836392,-0.264727034162474,-0.264727034165176,-3.45929696667301,3.45929696667238,-1.51740110364163
736.3584,2.38635476356162,-1.16336729611616,2.07592501928917,-1.24923612718634,-0.361457236321606,-0.361457236324142,0.927197646026342,0.716749498083065,0.956543778943525,1.129181293807,2.64620164998493,1.12918129380811,2.24342809070913,NaN,1.11556315497534,1.29954326463682,NaN,3.04993825916614,0.79672183226222,-0.0504658251773195,0.796721832259776,-0.774110163417475,2.62537321195434,2.18485935222138,-0.998908960138481,0.492890564094069,NaN,-0.205713407612619,0.205713407611347,-0.883858843154966,1.73913863211249,-0.15822337870668,2.70029239276809,-1.62657766069629,0.693261162501001,-0.849423961393107,-1.25295863635032,-1.05196822091792,-1.05196822091866,1.80025653844755,-2.14471463349855,0.961786659271143,NaN,-0.372226162971114,0.558858013071002,-1.57655693661143,-0.308033199948959,-0.308033199951631,-3.4497289132951,3.44972891329474,-1.50904745529708
736.4608,2.44591852198603,-1.20040811489877,2.12244716844594,-1.28548214509797,-0.356670551515826,-0.356670551518288,0.890137712061577,0.66925681452871,0.908838624759025,1.11940353256536,2.67729023689929,1.11940353256655,2.22669661123421,NaN,1.09745039216047,1.25026106435487,NaN,2.98458422283417,0.730435400441637,-0.0823481405591232,0.730435400439261,-0.772461298305919,2.63351911382692,2.19437960179674,-0.99399148924502,0.470401272904393,NaN,-0.207221509081652,0.207221509080397,-0.932740149548294,1.77770680987995,-0.170989107426801,2.74839393643479,-1.61401634353569,0.697048775674937,-0.838411486725983,-1.24989565750618,-1.01729916839668,-1.01729916839749,1.79918293318912,-2.13208293682046,0.966613476017642,NaN,-0.439220553909472,0.560136383346278,-1.59037569384073,-0.351932982018982,-0.351932982021596,-3.43651020685166,3.43651020685152,-1.50066034527734
736.5632,2.50350736608082,-1.23711061567773,2.16683828300043,-1.32068923797409,-0.352666731248945,-0.352666731251339,0.853923548042364,0.620284019431349,0.86093337892431,1.10886795254707,2.70646088183571,1.10886795254836,2.20872960942141,NaN,1.07860617198191,1.19971087198925,NaN,2.91718139226425,0.663651445164882,-0.11331565090309,0.663651445162587,-0.770999889764449,2.63989593070734,2.201947762427,-0.988378560104502,0.447507681248622,NaN,-0.20661832183127,0.206618321830025,-0.97968875693259,1.81390982041533,-0.183454310374617,2.79293180438207,-1.60049098419041,0.700194496722723,-0.827008099127781,-1.24530192121113,-0.98238062723425,-0.982380627235116,1.79730741427445,-2.1181099375157,0.971195465461821,NaN,-0.506632194153209,0.560817245583566,-1.60398772535967,-0.396392912921268,-0.396392912923803,-3.41970041947647,3.4197004194766,-1.49231422687728
736.6656,2.55911210518551,-1.2734633692739,2.20909496374918,-1.35484059437823,-0.34944336494494,-0.349443364947262,0.818675672519159,0.569912361456359,0.812946385009113,1.09769090000173,2.7337456978005,1.0976909000031,2.18973896293963,NaN,1.05923433813988,1.14804025278933,NaN,2.84789528448577,0.596563403306546,-0.143322143422511,0.596563403304299,-0.769694597510576,2.64455661404178,2.20763967436463,-0.982104093664055,0.424297417433674,NaN,-0.203856956222666,0.20385695622143,-1.02466432628238,1.84781539823484,-0.195767352840398,2.83383017547499,-1.58601144467186,0.702748550627973,-0.815196531477458,-1.23920155495461,-0.947227551044037,-0.947227551044954,1.79466901879577,-2.10282043217715,0.975563810366494,NaN,-0.574397454647053,0.561019057805736,-1.61741841812953,-0.441373973341818,-0.441373973344278,-3.39936813650169,3.39936813650208,-1.48408170524
736.768,2.61272767156532,-1.30945383330424,2.24921946376286,-1.38792153524316,-0.346995073649726,-0.346995073651981,0.784505178544314,0.518227557322054,0.764992171125057,1.08598576089356,2.75918024649443,1.08598576089499,2.16993601858418,NaN,1.03953749554623,1.09539628530468,NaN,2.77689132132969,0.529364796677714,-0.172327634332553,0.529364796675533,-0.768519831931572,2.64755873963985,2.21153205749938,-0.975201207127576,0.400856382026572,NaN,-0.198896348395009,0.198896348393786,-1.06763141840442,1.87949842506286,-0.208079722844017,2.87102117888733,-1.57059274024633,0.70476168282778,-0.802963024099172,-1.23162181411842,-0.911855430703255,-0.911855430704226,1.79130582465184,-2.08623990654571,0.979748309636156,NaN,-0.642448467711886,0.560860568912849,-1.63069208053769,-0.486831684664549,-0.486831684666955,-3.37559057980907,3.37559057980979,-1.47603318899698
736.8704,2.6643524581133,-1.34506834098042,2.28721890610021,-1.41991940808358,-0.345313608963027,-0.345313608965213,0.751513291278862,0.465320182078144,0.717181361607577,1.07386241097431,2.78280326543819,1.07386241097582,2.14953049391245,NaN,1.01971597311353,1.04192510579813,NaN,2.70433440483313,0.46224846642147,-0.200298403013273,0.462248466419329,-0.76745592255068,2.64896413720985,2.21370201513308,-0.96770225865571,0.377268701558855,NaN,-0.191701549383002,0.191701549381795,-1.10855935974366,1.9090402727517,-0.220544734736583,2.9044454477943,-1.5542547827048,0.706285027409784,-0.790297201596276,-1.22259333590708,-0.876280603682423,-0.876280603683442,1.78725470218802,-2.06839448323512,0.983777129749166,NaN,-0.710713086818639,0.560460160250682,-1.64383168799466,-0.532716234362662,-0.532716234364986,-3.34845328267264,3.34845328267368,-1.46823656939548
736.9728,2.7139876445071,-1.38029212399564,2.32310446520991,-1.45082348731387,-0.344387966783129,-0.344387966785257,0.719791011276098,0.411286052321847,0.669620640245021,1.06142671389627,2.80465641085212,1.06142671389783,2.12872940896424,NaN,0.9999668200046,0.987771452445462,NaN,2.6303885258213,0.395405810951039,-0.227206956774667,0.395405810948982,-0.766489200929924,2.64883848800047,2.21422656274961,-0.959638918182091,0.353616713872236,NaN,-0.182244035287393,0.182244035286206,-1.14742211204441,1.93652811691282,-0.233316212409264,2.934052650154,-1.53702207918892,0.707369975134321,-0.777191917334393,-1.21215040292339,-0.840520562043537,-0.840520562044602,1.78255107614061,-2.04931088540416,0.98767655994863,NaN,-0.779114872892386,0.559935191879311,-1.65685863638077,-0.578972634841383,-0.578972634843647,-3.31804979970736,3.31804979970868,-1.46075692236872
737.0752,2.76163652909996,-1.41510935856828,2.35689053985332,-1.48062487333116,-0.344204524322757,-0.34420452432483,0.689418830252705,0.356226591889764,0.622412751314473,1.04878007271541,2.82478400800759,1.04878007271701,2.10773605296518,NaN,0.980482835876999,0.933078214191535,NaN,2.55521639911121,0.329026042343629,-0.253031940668136,0.329026042341693,-0.765612002546884,2.64725088378062,2.21318217172664,-0.951042255692405,0.329980959751357,NaN,-0.170502013997347,0.170502013996179,-1.18419815255943,1.96205423005347,-0.246547190543639,2.95980196233192,-1.51892339334956,0.708068028679141,-0.763643076657923,-1.20033119457273,-0.804594233961417,-0.80459423396253,1.77722870428032,-2.02901640176218,0.991470785183727,NaN,-0.847573119981259,0.559401350430411,-1.66979250315951,-0.62554093812809,-0.62554093813027,-3.28448142481054,3.28448142481215,-1.45365623163339
737.1776,2.8073038838539,-1.44950322349204,2.38859394556071,-1.50931638868088,-0.344747201813461,-0.344747201815489,0.660466510870545,0.300249165985215,0.575656525915432,1.03601904489526,2.84323280732848,1.03601904489694,2.08674899472893,NaN,0.961451644072166,0.877985999207064,NaN,2.47897912151286,0.263295484140582,-0.277757997354431,0.263295484138753,-0.764822602417559,2.6442733469552,2.21064431778404,-0.94194283759847,0.306440166567351,NaN,-0.156460710507436,0.156460710506288,-1.21887036959711,1.98571525251428,-0.260388655644847,2.98166245505357,-1.49999137452987,0.708430642835155,-0.749649444100551,-1.18717800719097,-0.768522223609233,-0.768522223610388,1.77131946543989,-2.00753883410294,0.995181677694339,NaN,-0.91600293583956,0.558971991834842,-1.68265081680273,-0.672356538995852,-0.67235653899795,-3.24785689621293,3.24785689621483,-1.4469931374608
737.28,2.85099534932836,-1.48345596286397,2.41823315175381,-1.53689247589034,-0.345997641303665,-0.345997641305642,0.632992931873403,0.243467378125145,0.529446931643023,1.02323502994199,2.86005175118086,1.02323502994372,2.06596114800849,NaN,0.943054824582464,0.822632741150284,NaN,2.40183585449616,0.198396921511829,-0.301375575925365,0.198396921510104,-0.764125081861086,2.63998031513053,2.2066870393502,-0.932370822902272,0.283071233587758,NaN,-0.140112638374347,0.140112638373221,-1.25142596914658,2.00761142593869,-0.274988316184303,2.99961337979391,-1.48026216422833,0.708509062346559,-0.735212435161423,-1.17273742880842,-0.732327011387462,-0.732327011388674,1.76485314454398,-1.98490641679383,0.998828598635661,NaN,-0.984315384779376,0.558757481120632,-1.69544883897454,-0.719350585374072,-0.719350585376135,-3.20829208811542,3.2082920881176,-1.44082272121234
737.3824,2.89271687940277,-1.51694894980164,2.44582757751466,-1.56334910263686,-0.347935389608682,-0.347935389610607,0.607046009144355,0.186001334332205,0.483875154619815,1.01051402924183,2.87529175633412,1.01051402924361,2.04555890147097,NaN,0.925467122138239,0.767153360047522,NaN,2.3239435434541,0.134509001402084,-0.323880694090057,0.134509001400434,-0.763529109186308,2.63444810101616,2.20138252873142,-0.922356055212934,0.259949246228221,NaN,-0.121457881354314,0.12145788135321,-1.28185637402438,2.0278457834474,-0.290489375666036,3.01364437920982,-1.4597749942537,0.708354177584484,-0.720335893331451,-1.15706046336747,-0.696033130293501,-0.696033130294767,1.75785721328853,-1.96114771455081,1.00242820524218,NaN,-1.05241768073451,0.558864547744942,-1.70819936662908,-0.766450476907573,-0.766450476909556,-3.16590970256204,3.16590970256445,-1.43519633318833
737.4848,2.93247423163841,-1.54996274643808,2.47139694423464,-1.58868367560921,-0.350538074532324,-0.3505380745342,0.582662701976092,0.127977872913388,0.439028719028354,0.997936464931778,2.88900551095218,0.997936464933612,2.02572131864831,NaN,0.908855735317891,0.711679492012508,NaN,2.24545669457425,0.0718056872701987,-0.345274668837536,0.0718056872686412,-0.763049631100805,2.62775434878781,2.19480078004455,-0.911928151219507,0.237147541226525,NaN,-0.1005043975154,0.100504397514312,-1.31015708982944,2.04652331777977,-0.307029299379572,3.02375566884719,-1.43857178805478,0.708016413019551,-0.705025853460068,-1.14020260935869,-0.659667334394593,-0.659667334395904,1.75035662299238,-1.93629151538397,1.00599427369054,NaN,-1.12021340164802,0.559395689142254,-1.72091256069847,-0.813580396656819,-0.813580396658748,-3.12083896730786,3.12083896731054,-1.430161463663
737.5872,2.97027249132481,-1.58247715429797,2.49496067478925,-1.61289495996944,-0.35378157046793,-0.353781570469769,0.559869104264253,0.0695307446579162,0.394991636333868,0.985577042254219,2.90124727995468,0.985577042256116,2.00661941091772,NaN,0.89337968473605,0.656339293234149,NaN,2.16652722651091,0.0104557838166144,-0.365563827257485,0.0104557838151398,-0.762706493922095,2.61997750827913,2.18700930304758,-0.901116587994378,0.214737823351262,NaN,-0.0772683330351022,0.0772683330340263,-1.3363275227316,2.06375015663522,-0.324738585131425,3.02995822579689,-1.41669676449156,0.70754565140604,-0.689290289508682,-1.12222390228787,-0.623258766749783,-0.623258766751133,1.74237363136155,-1.91036673220077,1.00953755518031,NaN,-1.1876026998685,0.560448652037751,-1.73359580526223,-0.860661820190574,-0.86066182019248,-3.07321533174933,3.07321533175226,-1.42576165301616
737.6896,3.00611562574918,-1.61447125241803,2.51653733685594,-1.63598299936613,-0.357640155400578,-0.357640155402403,0.538680611992172,0.0108007263559463,0.351844570051753,0.97350465184596,2.91207271090228,0.973504651847894,1.98841548720986,NaN,0.879189255582447,0.601257305820035,NaN,2.08730439335244,-0.0493774641432171,-0.384759194541192,-0.0493774641446265,-0.762524018454527,2.61119633656815,2.17807289658914,-0.889950790895683,0.192790313877946,NaN,-0.0517743129471704,0.051774312946114,-1.36037075695024,2.07963276027963,-0.34373955775244,3.03227398423802,-1.39419603579174,0.706991186974857,-0.673138843930251,-1.10318892606392,-0.586839126915933,-0.586839126917324,1.73392767489727,-1.88340231749433,1.01306567604236,NaN,-1.25448250512288,0.562116000190799,-1.74625359778777,-0.907613979421715,-0.907613979423567,-3.02318015075581,3.023180150759,-1.42203643697748
737.792,3.04000608141914,-1.64592342491134,2.53614414442892,-1.65794903084654,-0.362086664881009,-0.36208666488281,0.519102155234873,-0.0480643422872173,0.309665003500261,0.961782318437234,2.92153863294811,0.961782318439261,1.9712625815231,NaN,0.866425507368835,0.546554359811847,NaN,2.00793475311937,-0.107536716338226,-0.402876158972636,-0.107536716339586,-0.762530546520643,2.60148942622171,2.16805346874351,-0.878460222006321,0.171373902187707,NaN,-0.0240556681264684,0.0240556681254291,-1.38229331449143,2.09427715308915,-0.364145225595798,3.03073600870511,-1.37111719953934,0.70640169729061,-0.656582543602101,-1.0831667909621,-0.550442832691016,-0.550442832692451,1.72503528934847,-1.855427192011,1.01658308409239,NaN,-1.32074673562537,0.564484759807371,-1.75888746883069,-0.954354292212491,-0.954354292214269,-2.97088034724764,2.97088034725102,-1.41902132105636
737.8944,3.07194444268776,-1.67681138119112,2.5537965374026,-1.67879539018415,-0.367092651423326,-0.36709265142514,0.501128484194342,-0.10690960565928,0.268527400115424,0.950467197242738,2.92970284568128,0.950467197244879,1.95530394945311,NaN,0.855219838442525,0.492347490787419,NaN,1.92856214986786,-0.163870849045248,-0.419934134968278,-0.163870849046592,-0.762757973774898,2.59093475736439,2.15700989080923,-0.866674467205788,0.150556275131811,NaN,0.0058454318542609,-0.00584543185528004,-1.40210491786312,2.10778821212509,-0.386058256223197,3.02538861081136,-1.34750893767534,0.705825222217993,-0.639633517413192,-1.06223107204448,-0.514107162574298,-0.514107162575775,1.71571007927777,-1.82647018882538,1.02009104172759,NaN,-1.3862865376201,0.567636129326739,-1.77149592843259,-1.00079878010159,-1.0007987801033,-2.91646804234632,2.91646804234984,-1.41674777457201
737.9968,3.10192916345251,-1.70711217028748,2.56950785219229,-1.69852540716735,-0.372628556149923,-0.372628556151739,0.484744500361,-0.165573334047122,0.228503345134781,0.939610608980262,2.93662390011789,0.939610608982467,1.9406726158188,NaN,0.845693588782048,0.438749865350399,NaN,1.84932768534386,-0.218235249137699,-0.435956250579755,-0.21823524913904,-0.763241274519621,2.57960927047547,2.14499787810575,-0.854623318680527,0.130404005002797,NaN,0.0378779481438107,-0.0378779481448081,-1.41981826916806,2.1202690352434,-0.409570119952289,3.01628738502498,-1.32342063703505,0.70530913685982,-0.622304732506024,-1.04045970130698,-0.477872358356511,-0.477872358358031,1.70596273855883,-1.79656001035465,1.02358766894118,NaN,-1.45099056985519,0.571645240063776,-1.78407443618258,-1.04686249056891,-1.04686249057055,-2.86010014540927,2.86010014541283,-1.4152432353789
738.0992,3.12995637753216,-1.73680218658353,2.58328909184201,-1.71714329514515,-0.378663891670833,-0.378663891672683,0.469925622531537,-0.223887176027018,0.189661654110561,0.929258104318704,2.94236087585231,0.929258104320994,1.9274909591839,NaN,0.837957670488849,0.385870709829954,NaN,1.7703696668933,-0.270492096754685,-0.450969066809203,-0.270492096756051,-0.764018003726688,2.5675884547604,2.13206990226394,-0.842336847958699,0.110982580670712,NaN,0.0719820407575714,-0.0719820407585424,-1.43544885256784,2.13182039533748,-0.43476041928668,3.00349915157157,-1.29890203875288,0.704900105859264,-0.604609760663787,-1.01793480594642,-0.441781668321605,-0.441781668323171,1.69580112329945,-1.76572518865946,1.02706804249275,NaN,-1.51474534197893,0.576580960710194,-1.79661539475854,-1.09245993102399,-1.09245993102558,-2.80193790295353,2.80193790295708,-1.41453112417258
738.2016,3.15601979005364,-1.76585716321886,2.59514880088204,-1.7346540406315,-0.385167430420473,-0.385167430422347,0.45663817898522,-0.281676537857203,0.15206843440611,0.919449556709181,2.94697316076213,0.919449556711524,1.91587033592296,NaN,0.832112233612628,0.333815234789776,NaN,1.69182353035698,-0.32051063904644,-0.465002320675202,-0.320510639047839,-0.765127749432223,2.5549459468623,2.11827514776759,-0.829845463175325,0.0923563778251261,NaN,0.108089233106389,-0.108089233107335,-1.44901475579785,2.14254027493809,-0.461696392391338,2.98710181189107,-1.27400291911051,0.704644012611441,-0.586562579867541,-0.994742486132232,-0.405881319739587,-0.405881319741188,1.68523037680871,-1.73399403987346,1.03052435516973,NaN,-1.57743560767202,0.582505755086576,-1.80910817218042,-1.13750551804393,-1.13750551804551,-2.74214639988068,2.74214639988423,-1.41463087717094
738.304,3.18011064332353,-1.79425215583998,2.6050930353831,-1.75106329593183,-0.392107395933094,-0.392107395935023,0.444839826505862,-0.338761094900829,0.115787097590043,0.910219287053393,2.95052024477714,0.910219287055768,1.90591076241024,NaN,0.82824639203451,0.282684551232216,NaN,1.61382174923697,-0.368167449400735,-0.478088685810998,-0.368167449402118,-0.766611521670346,2.54175313948008,2.10365952166028,-0.817179946086012,0.074588584867873,NaN,0.146122665528189,-0.146122665529109,-1.46053649324114,2.1525234723204,-0.49043255968961,2.96718414124184,-1.24877280118072,0.704585866633161,-0.568177408967878,-0.970972532104004,-0.370220419328745,-0.370220419330386,1.67425310128756,-1.70139461469282,1.03394612836407,NaN,-1.63894481104587,0.589475609998534,-1.82153915950752,-1.18191404864092,-1.18191404864247,-2.68089399133463,2.68089399133814,-1.41555800838082
738.4064,3.20221773984631,-1.82196152545308,2.61312540174354,-1.7663772744531,-0.399451656999472,-0.399451657001418,0.434480004709398,-0.394955425459199,0.0808783330042344,0.901596220506826,2.95306153853309,0.90159622050923,1.89770067438097,NaN,0.826438033439221,0.232575580874621,NaN,1.53649374610075,-0.413346654282992,-0.490263549787624,-0.413346654284419,-0.768511084169985,2.52807880501419,2.08826571748947,-0.804371468631581,0.0577411094887485,NaN,0.18599742062434,-0.185997420625239,-1.47003681134494,2.16186127076003,-0.521010479909047,2.94384554736421,-1.22326069129751,0.704769697837368,-0.549468566853905,-0.946718088977896,-0.334850787522337,-0.334850787524014,1.66286956748288,-1.66795465505828,1.03732046349923,NaN,-1.69915558396587,0.597540040912909,-1.83389186618754,-1.22560119818015,-1.22560119818169,-2.61835164336338,2.61835164336685,-1.41732420640745
738.5088,3.22232750216212,-1.84895892640439,2.6192471359873,-1.78060264805134,-0.407167921950098,-0.407167921952057,0.425500431076092,-0.450069757757524,0.0474000506311296,0.893604070690293,2.95465621970924,0.893604070692722,1.8913167693982,NaN,0.826753722553964,0.183580965103584,NaN,1.45996581530277,-0.455940105152839,-0.501564804751883,-0.45594010515432,-0.770868242528458,2.51398874020019,2.07213333035675,-0.791451591526603,0.0418744783763334,NaN,0.227620905931741,-0.227620905932615,-1.47754046806177,2.17064116172424,-0.553458591405666,2.91719581059354,-1.19751483063411,0.705238444204468,-0.53045034586494,-0.922075281848093,-0.299826732148625,-0.299826732150337,1.65107795696726,-1.63370156241948,1.04063232386742,NaN,-1.75795028235628,0.606742177578855,-1.8461470511825,-1.26848403235872,-1.26848403236022,-2.55469218165746,2.55469218166087,-1.41993746542777
738.6112,3.2404240573707,-1.87521730046659,2.62345720845756,-1.79374644578677,-0.415223930347378,-0.415223930349357,0.417835634153423,-0.503910831789785,0.0154072907730019,0.886261546942285,2.95536310269814,0.886261546944701,1.88682392808902,NaN,0.82924869487249,0.135788974179587,NaN,1.38436105250799,-0.495847484649518,-0.512032641586229,-0.495847484651018,-0.773724104728686,2.4995454351255,2.05529901584057,-0.778452246766588,0.027047723359339,NaN,0.270893295419594,-0.270893295420451,-1.48307399254666,2.17894661431506,-0.587792133101869,2.88735479981355,-1.17158245402777,0.706033831963441,-0.511136894139426,-0.897142810544952,-0.265204761186387,-0.265204761188128,1.63887463841917,-1.59866237477176,1.04386484972694,NaN,-1.81521154286067,0.617118934977462,-1.85828288822213,-1.31048150735139,-1.31048150735284,-2.49008946308501,2.49008946308833,-1.42340224866548
738.7136,3.25648935182193,-1.90070887711903,2.62575246038346,-1.80581595115356,-0.423587644943277,-0.423587644945254,0.411413517569742,-0.556282885290308,-0.0150479088483072,0.879582586771537,2.95524052274303,0.87958258677398,1.88427520938653,NaN,0.833966933918711,0.0892834125628681,NaN,1.30979927277233,-0.532976355356082,-0.521709337960274,-0.532976355357646,-0.777118331287161,2.48480776622155,2.03779668067216,-0.7654057034762,0.0133182296642503,NaN,0.315708049128471,-0.315708049129312,-1.48666544555154,2.18685689545845,-0.624013173339768,2.85445213572696,-1.14550955554326,0.707196237401737,-0.491542111830472,-0.872021514498611,-0.231043229436411,-0.231043229438189,1.62625448365177,-1.56286374839502,1.04699971492443,NaN,-1.87082285325391,0.628701270907773,-1.87027516513724,-1.35151494337354,-1.35151494337494,-2.4247174766863,2.42471747668951,-1.42771968018173
738.816,3.27050331522482,-1.92540518005185,2.6261277952545,-1.81681859409956,-0.43222745152241,-0.432227451524412,0.406155946384625,-0.606988773766882,-0.0439166990144767,0.873576619049699,2.95434622377008,0.873576619052145,1.88371191403905,NaN,0.840941321955544,0.0441435146346878,NaN,1.23639689627871,-0.567242169023337,-0.530639040982002,-0.567242169024935,-0.781088387098084,2.46983070810955,2.01965769171574,-0.752344514330849,0.000741513792034767,NaN,0.361952534129915,-0.361952534130745,-1.48834420869857,2.19444695269867,-0.662110794655843,2.81862676013003,-1.11934066905782,0.708764514889008,-0.471679574741798,-0.846813900708652,-0.197401911363138,-0.197401911364961,1.61321122803576,-1.52633194188903,1.05001753130077,NaN,-1.92466914712499,0.641514517712231,-1.88209751656081,-1.39150847852673,-1.39150847852807,-2.35874937304844,2.35874937305158,-1.43288775744768
738.9184,3.28244408888533,-1.9492770413713,2.62457644156577,-1.82676183852708,-0.441112375553856,-0.441112375555847,0.401979353667438,-0.655831224672128,-0.0711536593511621,0.868248856709738,2.95273724515513,0.868248856712206,1.88516370387586,NaN,0.850193850733454,0.00044383428874197,NaN,1.16426679764499,-0.598568250619248,-0.538867556997427,-0.598568250620913,-0.78566879942698,2.45466505700006,2.00091109270783,-0.739301440435497,-0.0106290831987739,NaN,0.40950874527709,-0.40950874527791,-1.48814082412584,2.20178734869063,-0.70206144194695,2.78002638348511,-1.09311867663236,0.710775786707822,-0.451562496846381,-0.821623629291273,-0.164341494483012,-0.164341494484875,1.59973787155547,-1.48909280112011,1.05289829739939,NaN,-1.97663743456969,0.655578764312118,-1.8937216856563,-1.4303895161685,-1.43038951616973,-2.29235644005885,2.29235644006188,-1.43890157736391
739.0208,3.29228831700724,-1.97229462985972,2.62109028146066,-1.83565307208861,-0.450212321481796,-0.450212321483809,0.398795379524408,-0.702614204236582,-0.0967170744317537,0.863600610465129,2.9504698124524,0.863600610467597,1.88864876134293,NaN,0.861735879385449,-0.0417458549429724,NaN,1.0935181365608,-0.626885766001913,-0.546442160247733,-0.626885766003637,-0.790890421175497,2.43935716013586,1.98158382366468,-0.726309357123043,-0.0207427655832803,NaN,0.458254088982473,-0.458254088983279,-1.48608689047792,2.20894420398036,-0.743829370289067,2.73880681948789,-1.0668846559176,0.713265210147134,-0.431203732369191,-0.796554961231047,-0.131923002813984,-0.13192300281588,1.5858271047901,-1.45117174722741,1.05562187316038,NaN,-2.02661746926259,0.670909260019901,-1.90511780618743,-1.46808916931156,-1.46808916931271,-2.22570707491141,2.22570707491435,-1.44575357056696
739.1232,3.30001148827831,-1.9944275000015,2.61566022559714,-1.84349950723614,-0.459498328869317,-0.459498328871339,0.396511559210323,-0.747144352121641,-0.120569212405997,0.859629619219483,2.94759923625686,0.85962961922191,1.89417398104186,NaN,0.87556842922034,-0.0823606319570946,NaN,1.02425618874886,-0.652133683711607,-0.553411416279681,-0.652133683713367,-0.79677969295688,2.42394864744419,1.961700943374,-0.713401148981672,-0.0295516776086416,NaN,0.508062191664945,-0.508062191665738,-1.48221500946456,2.2159791102921,-0.787367107240821,2.69513125199047,-1.04067777295501,0.716265748637938,-0.410615809030917,-0.771712185149407,-0.100207179290127,-0.100207179292052,1.57147173635997,-1.41259377275603,1.05816845236199,NaN,-2.07450244135567,0.687516808150126,-1.91625469355162,-1.50454269884318,-1.50454269884425,-2.15896582030914,2.158965820312,-1.45343373820512
739.2256,3.30558830988567,-2.01564466041778,2.60827661384399,-1.85030810035634,-0.46894282382983,-0.468942823831887,0.395032059696545,-0.789232428789228,-0.142676578859361,0.85633040124875,2.94417981155417,0.856330401251104,1.90173519429675,NaN,0.891682505511821,-0.121340469470608,NaN,0.956582177117027,-0.674258746812167,-0.559825000788861,-0.674258746813972,-0.80335789200539,2.40847615966438,1.94128585715971,-0.700609604778124,-0.0370112952712658,NaN,0.558803729369379,-0.558803729370159,-1.47655877308247,2.22294901715734,-0.832615886449051,2.64916949397252,-1.01453522034126,0.719807970649614,-0.389810980876822,-0.74719904674918,-0.0692538568525901,-0.0692538568545337,1.55666510017577,-1.37338344705804,1.06051900841708,NaN,-2.12018967646191,0.705408117678911,-1.92710013382606,-1.53968994269503,-1.53968994269599,-2.09229252648589,2.09229252648869,-1.46192988288278
739.328,3.30899309517203,-2.03591465403648,2.59892962447979,-1.85608549442764,-0.478519837809963,-0.478519837812071,0.394258443002299,-0.828694730069055,-0.163010136973094,0.853694627797372,2.94026470438085,0.85369462779966,1.91131742853749,NaN,0.91005943497968,-0.158630254895525,NaN,0.890593089614717,-0.693215469446881,-0.565733496307603,-0.693215469448683,-0.810640356755861,2.39297106493135,1.92036054920034,-0.687967320200917,-0.0430807999184546,NaN,0.610347297349176,-0.61034729734994,-1.46915278168001,2.22990612252241,-0.879506058198423,2.60109728249495,-0.988492194322652,0.723919889490621,-0.368801289592998,-0.723118202000636,-0.0391213305368064,-0.0391213305387707,1.54140143115294,-1.33356492627505,1.06265570327162,NaN,-2.16358131252141,0.724586094304777,-1.93762116412115,-1.5734757250407,-1.57347572504159,-2.02584166704628,2.02584166704896,-1.47122782643363
739.4304,3.31020014797098,-2.05520564509253,2.58760967491488,-1.86083799174221,-0.48820517383086,-0.488205173833001,0.394090429241826,-0.865354440607954,-0.181545497145524,0.851711507280785,2.93590582251254,0.851711507282977,1.92289519633914,NaN,0.930671206275315,-0.194179801429098,NaN,0.82638147691875,-0.708966163190872,-0.571188167173545,-0.708966163192671,-0.818635692782191,2.37745916246658,1.89894581416014,-0.675506612032525,-0.0477234175595808,NaN,0.66256032085324,-0.662560320853991,-1.46003268288689,2.23689779696015,-0.927957506315029,2.55109562163338,-0.962581901404254,0.728626847065106,-0.347598625952013,-0.699570706430284,-0.00986572942148313,-0.00986572942345233,1.5256762084327,-1.29316196480809,1.06456225982177,NaN,-2.20458492572383,0.745050072698966,-1.94778434218224,-1.60585021996245,-1.60585021996325,-1.95976179242364,1.95976179242621,-1.48131161085093
739.5328,3.30918412868646,-2.07348551459837,2.57430779504345,-1.86457156173631,-0.497976516476232,-0.497976516478392,0.394426641067036,-0.899042908125236,-0.198263078770053,0.850368156793235,2.93115368150689,0.850368156795323,1.9364328004297,NaN,0.953480799045788,-0.227943853946057,NaN,0.76403523632715,-0.721480991542295,-0.576240731763961,-0.72148099154407,-0.827344992752276,2.36196038874643,1.87706148189115,-0.663259444613348,-0.050906706467557,NaN,0.715309974109001,-0.715309974109739,-1.44923521915644,2.24396655612685,-0.977880101707828,2.49935015927556,-0.936835588077148,0.733951438632723,-0.326214788158239,-0.676655544992198,0.0184596144090863,0.0184596144071068,1.50948646856107,-1.25219793220606,1.06622429867812,NaN,-2.24311408748759,0.766796002271334,-1.95755600371151,-1.63676924203519,-1.63676924203594,-1.89419508429792,1.89419508430032,-1.4921636793975
739.6352,3.30592039296143,-2.09072196797115,2.55901595987174,-1.86729188136343,-0.507813498057024,-0.507813498059218,0.395165322867206,-0.929600827312118,-0.213148242828261,0.849649938689787,2.92605728081914,0.849649938691765,1.95188463538682,NaN,0.978442487704803,-0.259882090933804,NaN,0.70363738970126,-0.730738053308103,-0.580943156139813,-0.730738053309852,-0.836761114033808,2.34648855269236,1.85472663306581,-0.65125736660126,-0.0526027868034407,NaN,0.768464057616696,-0.768464057617432,-1.43679827172638,2.25115007050843,-1.0291742004333,2.4460505694668,-0.91128259439805,0.739913471466661,-0.30466154108894,-0.654469199327124,0.0458048007778858,0.0458048007758907,1.49283108950155,-1.21069584118711,1.06762963752317,NaN,-2.27908884961896,0.789816594482627,-1.96690250429343,-1.66619444907065,-1.66619444907133,-1.82927698188462,1.82927698188688,-1.5037650325026
739.7376,3.30038531082328,-2.1068826532465,2.54172739186556,-1.8690043973297,-0.517697739341735,-0.517697739343956,0.396205032579427,-0.95687933370841,-0.226191396845832,0.849540754518539,2.92066399409153,0.849540754520386,1.96919547305362,NaN,1.00550211481518,-0.289959125720549,NaN,0.645265853006057,-0.736723495917821,-0.585347485374799,-0.736723495919541,-0.846868046126808,2.33105112123739,1.83195980599853,-0.639531450926449,-0.0527885256332316,NaN,0.821891799431946,-0.821891799432682,-1.42276089604542,2.2584811795689,-1.08173117162499,2.39138990408973,-0.885950436775914,0.746529943621072,-0.282950687056298,-0.633105236702879,0.0721239957357566,0.0721239957337532,1.47571104325824,-1.16867838514937,1.06876855139615,NaN,-2.31243616674841,0.814101431007575,-1.9757904442098,-1.69409345887809,-1.69409345887873,-1.76513585573765,1.7651358557397,-1.51609535340543
739.84,3.29255659522458,-2.12193528153068,2.52243687301987,-1.86971439846123,-0.527612873285675,-0.527612873287927,0.397445301533056,-0.98074101963051,-0.23738808122364,0.85002330681387,2.91501946633165,0.850023306815602,1.98830074135281,NaN,1.03459734616213,-0.31814451353739,NaN,0.588993188181148,-0.739431649186094,-0.589505715734322,-0.739431649187786,-0.857640387114384,2.31564906642708,1.80877919318183,-0.628112226738245,-0.0514457011277728,NaN,0.875464580630125,-0.875464580630867,-1.40716335181483,2.26598788934016,-1.13543395236766,2.33556388262275,-0.860864922490865,0.753815023214775,-0.261094159476795,-0.612653893659489,0.0973760486212762,0.0973760486192651,1.45812961082768,-1.1261679766822,1.06963399102708,NaN,-2.34309027409179,0.839637029536512,-1.98418687903226,-1.72043990069515,-1.72043990069576,-1.70189269998674,1.7018926999886,-1.52913310462522
739.9424,3.2824136730388,-2.1358477419086,2.50114111121663,-1.86942709147481,-0.537544544410963,-0.537544544413243,0.398787257806949,-1.00106088335511,-0.246739045483521,0.851079347907919,2.90916751028574,0.851079347909507,2.00912682840811,NaN,1.06565793394036,-0.344412770207484,NaN,0.534886333030366,-0.738865160537092,-0.593469696815784,-0.738865160538741,-0.869042941576106,2.30027678204017,1.78520282735429,-0.617029594915599,-0.048561159903479,NaN,0.929056608575549,-0.929056608576298,-1.39004712893913,2.27369336799267,-1.19015765357509,2.27877011361436,-0.836050292136702,0.761780013095895,-0.239104144040626,-0.593201631386432,0.121525062876876,0.121525062874849,1.44009255075538,-1.08318678257566,1.07022175175729,NaN,-2.37099304566318,0.866406867320421,-1.99205952218441,-1.74521344043894,-1.74521344043959,-1.63966082877949,1.63966082878118,-1.54285560324246
740.0448,3.26993810897946,-2.14858821099324,2.47783917323073,-1.86814767880974,-0.547480370681468,-0.547480370683769,0.400134210947968,-1.01772720424204,-0.254250312134556,0.852689928029333,2.90315000222106,0.852689928030775,2.03159144139644,NaN,1.09860601203896,-0.368743402669098,NaN,0.483006313915622,-0.735035116097659,-0.597291042721971,-0.735035116099271,-0.881030446207797,2.28492207470924,1.7612487580138,-0.606312728218404,-0.0441269635614663,NaN,0.982545556568948,-0.982545556569706,-1.37145496172095,2.28161596391945,-1.24577023436834,2.22120726653547,-0.811529381651642,0.770433299848325,-0.21699322180442,-0.574830661204968,0.144540888542339,0.1445408885403,1.42160821315298,-1.0397567614825,1.07053058115242,NaN,-2.39609435622581,0.894391363409757,-1.99937694405322,-1.76839982066323,-1.76839982066387,-1.57854559664655,1.57854559664807,-1.55723908384296
740.1472,3.25511405853167,-2.16012526528719,2.45253295046857,-1.86588144124786,-0.557409861794503,-0.557409861796855,0.401392195819856,-1.03064231869892,-0.259933216979184,0.85483563828967,2.89700678538831,0.854835638291001,2.05560402247065,NaN,1.13335642932916,-0.39112094714542,NaN,0.433407950182324,-0.727961144510014,-0.601021032070182,-0.727961144511598,-0.89354742615023,2.26956622509671,1.73693521175829,-0.595989965840011,-0.0381405105308742,NaN,1.03581316166426,-1.03581316166504,-1.35143082043283,2.28976924368247,-1.30213322335105,2.16307421708249,-0.78732379158973,0.779780298114487,-0.194774519849573,-0.557618462904389,0.166399513737381,0.166399513735315,1.4026875925529,-0.995899716279837,1.07056221228527,NaN,-2.41835245280676,0.923567818385967,-2.00610876723924,-1.78999093186575,-1.78999093186639,-1.51864417473591,1.51864417473724,-1.57225875378226
740.2496,3.23792870780162,-2.17042800720512,2.4252276000732,-1.86263383061565,-0.567324298043529,-0.567324298045945,0.402470475627752,-1.03972327637178,-0.263804415467207,0.85749683178263,2.89077559195969,0.857496831783867,2.08106620019559,NaN,1.16981711087751,-0.411535013541636,NaN,0.386139558682704,-0.717671513390501,-0.604710486888568,-0.717671513392072,-0.906528183560033,2.25418410674476,1.71228072264211,-0.586088713625564,-0.0306046170817963,NaN,1.08874574924104,-1.08874574924184,-1.33001987548172,2.29816202467038,-1.35910243890548,2.10456918490317,-0.763454049232392,0.789823403461796,-0.17246185255364,-0.541637329367541,0.187083350287409,0.18708335028532,1.38334431630425,-0.951637370953198,1.07032131438681,NaN,-2.43773431777349,0.953910314019909,-2.01222585383967,-1.80998489753719,-1.80998489753786,-1.4600453938049,1.46004539380606,-1.58788884144808
740.352,3.21837266718124,-2.17946621160286,2.39593191739735,-1.85841057689221,-0.577216578622278,-0.577216578624736,0.403282009735361,-1.04490237471072,-0.265885850555262,0.860653806339267,2.88449198905067,0.860653806340455,2.10787225339683,NaN,1.20788943387136,-0.429980338595779,NaN,0.341242664268791,-0.70420323490121,-0.608409632374723,-0.704203234902783,-0.919896917003082,2.23874435148923,1.68730422204619,-0.576635356378706,-0.0215275432012554,NaN,1.14123465542935,-1.14123465543017,-1.3072684361383,2.30679838305119,-1.41652866804055,2.04588888285624,-0.739939754648023,0.800561961415834,-0.150069843271829,-0.526953962688869,0.20658142419327,0.206581424191158,1.36359457053526,-0.906991475171904,1.069815361588,NaN,-2.45421599268419,0.985389583096054,-2.01770047999274,-1.82838613353541,-1.82838613353611,-1.40282964216933,1.40282964217033,-1.60410263526536
740.4544,3.19644030577965,-2.18721049189378,2.36465862489407,-1.8532178098955,-0.587081047237499,-0.587081047239991,0.403743892877199,-1.04612757909759,-0.266204681438272,0.86428693988806,2.87818934496118,0.86428693988916,2.13590957420443,NaN,1.24746860730614,-0.446456846189158,NaN,0.298751717974134,-0.687602192661217,-0.612167947025521,-0.687602192662762,-0.933567973167487,2.22320955905519,1.66202508459082,-0.567655182690678,-0.0109229561119014,NaN,1.19317654018048,-1.19317654018131,-1.28322386645437,2.31567762897969,-1.4742582861891,1.98722768679452,-0.716799712521726,0.811992252874812,-0.12761402765382,-0.513629128023994,0.22488948525492,0.224889485252781,1.34345696781281,-0.861983932064241,1.06905442643595,NaN,-2.46778283731702,1.01797285912672,-2.02250649356638,-1.84520534120227,-1.84520534120299,-1.34706880159968,1.34706880160049,-1.62087250843803
740.5568,3.17213002931463,-2.1936324781347,2.33142458567518,-1.84706219179051,-0.59691330129597,-0.596913301298519,0.403777765419247,-1.0433628295919,-0.264793173906898,0.868376777411665,2.87189880365905,0.868376777412712,2.16505912340584,NaN,1.28844404543419,-0.460969707229934,NaN,0.258693821274344,-0.667923291174893,-0.616034013875841,-0.667923291176456,-0.947446239216802,2.20753655604566,1.6364631298376,-0.559172318354435,0.00119016489466363,NaN,1.24447360399854,-1.2444736039994,-1.25793447890084,2.32479423951691,-1.53213381812101,1.92877680973773,-0.694052058897897,0.824107490489746,-0.105110947906521,-0.50171735316154,0.242010044716632,0.242010044714473,1.32295235904416,-0.816636937587427,1.06805090650785,NaN,-2.47842971413249,1.05162370728,-2.02661945203872,-1.86045940974023,-1.86045940974097,-1.29282620659467,1.2928262065953,-1.63816992416852
740.6592,3.1454445157144,-2.19870499505316,2.296250966684,-1.83995105467735,-0.606709992331639,-0.606709992334223,0.403310183147583,-1.03658823085727,-0.261688558011478,0.872904077972941,2.86564925368814,0.872904077973926,2.19519587789192,NaN,1.33069973118105,-0.473529394068441,NaN,0.221088456134313,-0.645230616880546,-0.62005537946804,-0.645230616882065,-0.961427677980395,2.19167670655944,1.61063858060051,-0.551209660563511,0.0147876688876137,NaN,1.29503373242064,-1.29503373242151,-1.23144940778766,2.33413773614112,-1.5899944477598,1.87072344863229,-0.671714390493402,0.836897816169343,-0.0825782483849984,-0.491266651496077,0.25795234871921,0.257952348717028,1.30210359303705,-0.770973114251722,1.06681919608403,NaN,-2.48616110305479,1.08630183645721,-2.03001674033679,-1.87417123142768,-1.87417123142845,-1.24015661539564,1.24015661539608,-1.65596542157127
740.7616,3.11639092884389,-2.20240222816938,2.25916338365879,-1.83189253720131,-0.616468625762252,-0.616468625764863,0.402272931033544,-1.0258001292652,-0.25693286504231,0.877849839351636,2.85946728420369,0.877849839352542,2.2261892833891,NaN,1.37411458151718,-0.484151732130827,NaN,0.185947224412133,-0.619597590540913,-0.624278417763434,-0.619597590542442,-0.975399987991904,2.17557626513451,1.58457198044084,-0.543788803593528,0.0298404039369014,NaN,1.34477059434065,-1.34477059434153,-1.20381846757669,2.34369250498524,-1.64767649168197,1.81324988177593,-0.649803894158206,0.850350288843774,-0.0600347760360396,-0.482318248148612,0.272732297353371,0.272732297351157,1.28093523023424,-0.72501562379743,1.06537531738109,NaN,-2.49099116186356,1.12196290062832,-2.03267767243709,-1.88636946490888,-1.88636946490965,-1.18910619210696,1.18910619210714,-1.67422859146107
740.864,3.08498112382792,-2.20469987505777,2.22019204590586,-1.82289571532517,-0.626187362810604,-0.626187362813228,0.400603277947703,-1.01101108766113,-0.250572751043811,0.883195318018698,2.85337713099338,0.88319531801958,2.2579037353697,NaN,1.41856283907413,-0.492857954697046,NaN,0.153273602089777,-0.591107089391888,-0.628748186632479,-0.59110708939342,-0.989243356618794,2.1591767562093,1.55828407552635,-0.536929952205448,0.0463144125851616,NaN,1.39360371172559,-1.39360371172649,-1.17509199868809,2.35343758388347,-1.70501386308494,1.75653252299616,-0.62833746373745,0.864448859339226,-0.0375006779252541,-0.474906304119471,0.286372309585799,0.286372309583551,1.25947321726772,-0.678788258331767,1.06373651889524,NaN,-2.49294375371675,1.15855830189656,-2.03458358226956,-1.89708829739028,-1.89708829739104,-1.13971251703223,1.13971251703212,-1.69292805405262
740.9664,3.05123183914321,-2.20557528998058,2.17937188967981,-1.81297072459566,-0.635864823220652,-0.635864823223282,0.398244184240946,-0.992249765139916,-0.242659302891088,0.888922049832404,2.84740062319584,0.888922049833241,2.29019910288429,NaN,1.46391450796986,-0.499674761384449,NaN,0.123062715233317,-0.559851523411465,-0.633508267206852,-0.559851523412979,-1.00283127886205,2.14241536852219,1.53179566746365,-0.530651828415498,0.0641711562028496,NaN,1.44145850162634,-1.44145850162725,-1.14532069829007,2.36334646052125,-1.76183855255614,1.70074097297022,-0.607331792325371,0.879174342006711,-0.0149974823855807,-0.469057653388552,0.298901124023363,0.298901124021098,1.23774452826705,-0.632315525036025,1.0619208402021,NaN,-2.49205245617861,1.19603500553714,-2.03571790635862,-1.90636723946664,-1.90636723946735,-1.09200464933742,1.09200464933708,-1.71203144338508
741.0688,3.01516485427154,-2.20500763240388,2.13674266793288,-1.80212887383023,-0.645499890175536,-0.645499890178153,0.395144471634686,-0.969560706698309,-0.23324782330374,0.895011860768614,2.84155714451178,0.895011860769434,2.32293128918549,NaN,1.51003583220635,-0.504634372152656,NaN,0.0953011470319499,-0.525932855948221,-0.638600588143009,-0.52593285594971,-1.01603142919223,2.12522536046374,1.50512744154096,-0.524971581521819,0.0833677685162048,NaN,1.48826627527158,-1.48826627527251,-1.114555434771,2.37338691999311,-1.81798112755626,1.64603712916145,-0.586803436890454,0.894504399227747,0.0074518462704584,-0.464791580059818,0.310353533170277,0.310353533167985,1.21577678035185,-0.585622738809726,1.05994664455838,NaN,-2.48836054596801,1.23433537572399,-2.03606625619002,-1.91425095118004,-1.91425095118074,-1.04600325850276,1.04600325850225,-1.73150539572839
741.1712,2.97680708604901,-2.2029780249392,2.09234896073378,-1.7903827526687,-0.655091521019072,-0.655091521021697,0.391258952584614,-0.943004048109135,-0.222397599306951,0.901446849123105,2.83586361920888,0.90144684912395,2.35595280859883,NaN,1.55678980058142,-0.507774565855767,NaN,0.069966784734829,-0.489462564626125,-0.644065239611068,-0.489462564627529,-1.02870658918045,2.10753647834743,1.47829977054268,-0.519904709126542,0.103857330573255,NaN,1.53396417272943,-1.53396417273037,-1.08284704995995,2.38352095395825,-1.87327122493019,1.59257440740253,-0.566768855712529,0.910413552412734,0.0298228857857436,-0.462119662350764,0.320770059540432,0.320770059538121,1.19359783071005,-0.538736126327424,1.0578321258013,NaN,-2.4819209390658,1.27339703950969,-2.03561647712202,-1.92078907453405,-1.92078907453473,-1.00172082996391,1.00172082996321,-1.75131553884834
741.2736,2.93619060269447,-2.19946972219889,2.04624008031261,-1.77774633601553,-0.664638565152239,-0.664638565154853,0.386548511007462,-0.912655138251544,-0.210171660478699,0.908209324777401,2.83033452519387,0.908209324778272,2.38911336078529,NaN,1.60403666156365,-0.509138695565913,NaN,0.04702871056595,-0.450561546755552,-0.649940275789147,-0.450561546756907,-1.04071564107994,2.08927539313022,1.4513324929704,-0.515464993513181,0.125589160313566,NaN,1.57849501873724,-1.57849501873819,-1.05024615705374,2.39370472609458,-1.92753800515125,1.54049710611431,-0.547244415603832,0.926873227416213,0.0520897728102225,-0.461045702352778,0.330196580707513,0.330196580705186,1.17123536167543,-0.491682939052579,1.05559479777517,NaN,-2.47279606521246,1.31315278561492,-2.03435869217499,-1.92603604198914,-1.92603604198981,-0.959161935700965,0.959161935700052,-1.77142648082077
741.376,2.89335254979527,-2.19446828996873,1.99846986430355,-1.76423508605491,-0.674139590569827,-0.67413959057242,0.380980129190686,-0.878604080621359,-0.196636531180952,0.915281701827476,2.82498192936787,0.915281701828362,2.42226039351809,NaN,1.6516344374934,-0.508775674570184,NaN,0.0264471345630748,-0.409359980382667,-0.656261504860363,-0.409359980383976,-1.05191462980825,2.0703661597905,1.42424466835339,-0.511664454456776,0.148509113510245,NaN,1.62180710147132,-1.62180710147228,-1.01680294724084,2.40388859202718,-1.98061055729647,1.48993992412025,-0.528246365594643,0.943851836053825,0.0742252618127544,-0.461565749476158,0.338683909308363,0.338683909306015,1.14871646140099,-0.444491570925686,1.05325097668525,NaN,-2.46105766154055,1.35353050338423,-2.03228532984165,-1.93005083354461,-1.93005083354527,-0.918323544615616,0.918323544614521,-1.7918017958328
741.4784,2.84833500170408,-2.18796179131049,1.94909637546772,-1.74986605000251,-0.683592723401927,-0.683592723404519,0.37452686234184,-0.840955204604875,-0.181861981157776,0.922646350391264,2.81981553536876,0.922646350392197,2.45523965251175,NaN,1.69943943000497,-0.506739928334508,NaN,0.00817336075970204,-0.365997154544434,-0.663062274125361,-0.365997154545694,-1.06215788119521,2.05073069966908,1.39705431817569,-0.50851331521168,0.172559890961112,NaN,1.66385389394275,-1.66385389394371,-0.982567024087059,2.41401717930259,-2.03231827610875,1.441027614171,-0.50979078078811,0.961314889853367,0.0962008214652261,-0.46366821254652,0.346287338355996,0.346287338353629,1.12606720782594,-0.397191671689647,1.05081526915329,NaN,-2.44678647749438,1.39445316117296,-2.02939113435387,-1.93289666444097,-1.93289666444166,-0.879195347138798,0.879195347137467,-1.81240400222024
741.5808,2.80118476833225,-2.17994097259487,1.89818154827865,-1.7346579517129,-0.69299550492155,-0.692995504924152,0.367167766788856,-0.799826484576018,-0.165920779712696,0.930285419921515,2.81484272938439,0.930285419922513,2.48789571986359,NaN,1.74730670898121,-0.503091313039512,NaN,-0.00785022568398416,-0.320621279415521,-0.670373267403917,-0.320621279416743,-1.0712991589473,2.0302893061223,1.36977816465561,-0.506019974070222,0.197681340906583,NaN,1.70459374914673,-1.70459374914769,-0.947587286932473,2.42402953212535,-2.08249125601658,1.39387472293925,-0.49189349048284,0.979225139525592,0.117986755036753,-0.467334043293679,0.353066162988119,0.353066162985737,1.1033122623855,-0.349814240292841,1.04830008047648,NaN,-2.43007189128754,1.43583881791265,-2.02567315701749,-1.93464059670928,-1.93464059670997,-0.841760082536983,0.841760082535465,-1.83319452819871
741.6832,2.75195319389109,-2.17039944051307,1.84579083187383,-1.71863127664495,-0.702344768576162,-0.702344768578772,0.358887785201076,-0.755348919440665,-0.148888457643603,0.938180649481417,2.81006861029917,0.938180649482502,2.52007254337813,NaN,1.79509058146199,-0.497895002989114,NaN,-0.0216901577575916,-0.273389275136463,-0.678222336256946,-0.273389275137647,-1.07919284627145,2.00896117576803,1.34243137924347,-0.504190971536094,0.223810739165433,NaN,1.74398959374727,-1.74398959374823,-0.911911881516709,2.43385931894764,-2.13096074444924,1.34858536041289,-0.474570009368834,0.99754273267743,0.139552327430532,-0.472536967742634,0.359083186811059,0.359083186808663,1.08047447900144,-0.302391679936265,1.04571515795536,NaN,-2.41101144482069,1.4776006636441,-2.02113072923135,-1.93535307599288,-1.93535307599358,-0.805993865278107,0.805993865276379,-1.85413366422005
741.7856,2.70069597406001,-2.15933382290376,1.79199286568196,-1.70180835057071,-0.711636538836541,-0.71163653883915,0.349677588618128,-0.707665874851923,-0.130843078190004,0.946313177570025,2.80549600067973,0.94631317757118,2.551613959641,NaN,1.84264504508686,-0.491221344445216,NaN,-0.0334218679321197,-0.224466521565447,-0.686634381052904,-0.224466521566584,-1.08569514165491,1.98666496622479,1.3150273488737,-0.503030945471971,0.250883031647031,NaN,1.78200862294306,-1.78200862294402,-0.875588226028088,2.4434350912178,-2.17755966823409,1.3052529616289,-0.457835482745092,1.01622538219953,0.160865887186994,-0.479243746887106,0.364404219892003,0.36440421988959,1.057574530648,-0.254957800701449,1.04306717850726,NaN,-2.38971030821582,1.51964709032188,-2.01576541961495,-1.93510740414591,-1.93510740414658,-0.771866507343027,0.771866507341057,-1.87518050722169
741.888,2.64747299627715,-2.14674390977258,1.73685919572146,-1.68421341282001,-0.720865952660437,-0.720865952663052,0.339533377653144,-0.656932386780059,-0.111865014809071,0.954663358469451,2.80112544917699,0.954663358470676,2.58236421629147,NaN,1.88982423816473,-0.483145674171498,NaN,-0.0431296404186786,-0.174026543317822,-0.695631285583488,-0.174026543318922,-1.09066526472617,1.96331938146729,1.2875774638881,-0.502542574833335,0.278831040333028,NaN,1.81862198388528,-1.81862198388623,-0.838663103830512,2.45268057524441,-2.22212321506623,1.26396003356532,-0.44170464281937,1.03522854138534,0.181894983677852,-0.487414463163827,0.369097576430419,0.369097576427984,1.03463055329805,-0.207547765764756,1.04035938225014,NaN,-2.36628068552727,1.56188180115322,-2.009580977962,-1.93397916585536,-1.93397916585605,-0.739341843063766,0.739341843061551,-1.89629290850844
741.9904,2.59234818842042,-2.13263277305649,1.68046401496151,-1.66587268575172,-0.730027202715617,-0.730027202718249,0.328456648386166,-0.603314424669604,-0.0920367313449214,0.963210588228508,2.79695524151438,0.963210588229779,2.6121684994002,NaN,1.93648289828962,-0.473748108539729,NaN,-0.0509065262853982,-0.122250610483968,-0.705231899486449,-0.122250610485012,-1.09396667498009,1.93884378877952,1.26009092985431,-0.502726521445966,0.307585650684486,NaN,1.85380443733149,-1.85380443733243,-0.801182801209693,2.46151498181248,-2.26448943902023,1.22477790105168,-0.426191764912318,1.05450558835958,0.202606488904595,-0.497002844634912,0.373233580674076,0.37323358067162,1.01165780969576,-0.160197985682636,1.03759125261712,NaN,-2.34084116865055,1.60420397244566,-2.00258326790178,-1.9320456231669,-1.93204562316758,-0.708378079813829,0.708378079811384,-1.9174274388563
742.0928,2.5353893542715,-2.11700686486915,1.62288390215644,-1.64681444320314,-0.73911350103516,-0.739113501037793,0.316453925252322,-0.546988109226572,-0.0714425606174037,0.971933140256577,2.79298143317874,0.97193314025785,2.6408734669173,NaN,1.9824768329607,-0.46311331018952,NaN,-0.0568542180404042,-0.0693272475525115,-0.715452058762698,-0.0693272475535105,-1.09546829738307,1.91315886679178,1.23257460679904,-0.503581381188298,0.337076001173506,NaN,1.88753399552672,-1.88753399552766,-0.763193270251953,2.46985332689358,-2.3044998641022,1.18776647368374,-0.411310611573457,1.07400802579367,0.222966735565328,-0.507956643575738,0.376884087521995,0.376884087519519,0.988668379058118,-0.112945966808828,1.03475824683662,NaN,-2.31351603927544,1.6465084805432,-1.9947801894012,-1.92938507608543,-1.92938507608612,-0.67892820113396,0.67892820113131,-1.93853938043982
742.1952,2.476667981018,-2.0998760944063,1.56419754145421,-1.62706907967015,-0.748117062560313,-0.748117062562956,0.303536457165636,-0.488138878448267,-0.0501684806370564,0.980808008968885,2.78919790737539,0.980808008970181,2.66832778458786,NaN,2.02766339824491,-0.451330232874803,NaN,-0.0610828801898839,-0.0154516492692702,-0.726304632296936,-0.0154516492702785,-1.09504573028223,1.88618727390148,1.20503288144703,-0.505103650920212,0.367229688225388,NaN,1.91979154055969,-1.91979154056064,-0.724740308164315,2.47760676571768,-2.34200007180372,1.15297405539312,-0.397074354954373,1.09368569955853,0.242941680214597,-0.520218078264599,0.380122020736443,0.380122020733947,0.965670881013777,-0.0658301170540587,1.0318515843985,NaN,-2.28443451263683,1.68868620215411,-1.98618159269532,-1.92607617197494,-1.92607617197561,-0.650940434750177,0.650940434747338,-1.95958274947499
742.2976,2.4162590147185,-2.08125388234879,1.50448541868839,-1.60666917814124,-0.757029109777879,-0.757029109780523,0.289719873055089,-0.426960598966616,-0.0283018894326734,0.989810760378954,2.78559645270106,0.989810760380261,2.694382658504,NaN,2.07190197933208,-0.438491843725963,NaN,-0.0637109322409929,0.0391749994388785,-0.737799582782971,0.0391749994378286,-1.09258240773981,1.85785432247979,1.17746757627019,-0.507287711395154,0.39797299260066,NaN,1.95056043030445,-1.9505604303054,-0.685869751510203,2.4846829438126,-2.37684027084068,1.12043720500103,-0.383495471818603,1.11348703592664,0.262497095428759,-0.533724332480256,0.383020933173932,0.383020933171416,0.942670243025591,-0.0188895101002327,1.028858103157,NaN,-2.25372991487478,1.73062439148247,-1.97679918556588,-1.92219714089792,-1.92219714089854,-0.624358783386055,0.62435878338304,-1.98051034895312
742.4,2.35424060428739,-2.06115718930572,1.4438294973044,-1.58564957099411,-0.765839900474698,-0.765839900477355,0.27502380174992,-0.363654624937382,-0.00593137643870593,0.998915388780642,2.78216685016176,0.998915388781975,2.71889235709157,NaN,2.11505446639938,-0.424694828091907,NaN,-0.0648647829822278,0.0943463024569309,-0.749944036655253,0.094346302455891,-1.08797070035997,1.82808864695183,1.14987789383819,-0.510125823018311,0.429231130490983,NaN,1.97982609982819,-1.97982609982915,-0.64662768122269,2.49098636108893,-2.40887585648366,1.09018063178512,-0.370585611456157,1.13335929517385,0.281598789734537,-0.548408094670833,0.385654599195656,0.385654599193124,0.919667515490831,0.0278363913740339,1.02576018742297,NaN,-2.2215387918384,1.7722071241005,-1.96664643378988,-1.91782494919313,-1.91782494919375,-0.599123606662241,0.599123606659063,-2.00127384736813
742.5024,2.29069381761531,-2.03960651359207,1.3823128813442,-1.56404738785188,-0.774538777238507,-0.774538777241161,0.25947147175196,-0.298428810713116,0.0168535164140551,1.00809418225965,2.77889696045508,1.00809418226102,2.74171472155981,NaN,2.15698572259739,-0.410039285368402,NaN,-0.064678512134061,0.149851528345517,-0.762742364534711,0.149851528344482,-1.0811129474661,1.79682285708071,1.12226039235894,-0.513608130603786,0.460928533342508,NaN,2.00757567123574,-2.00757567123671,-0.607060627141497,2.49641874054968,-2.43796796938427,1.06221709940409,-0.358355442607198,1.1532488387934,0.300212849487694,-0.564198111919155,0.388096646556609,0.38809664655408,0.896659726649379,0.0743080532067431,1.02253575926229,NaN,-2.18799996373181,1.8133157788858,-1.95573845127228,-1.91303440326782,-1.91303440326843,-0.575172229977506,0.575172229974183,-2.02182387875239
742.6048,2.22570233972228,-2.01662585664499,1.32001947841115,-1.54190208581235,-0.783114231089507,-0.783114231092177,0.243089309159193,-0.231496485763082,0.0399625513957613,1.01731760634794,2.7757728088808,1.01731760634932,2.76271167608684,NaN,2.19756404811225,-0.394628420976411,NaN,-0.0632934883524642,0.205476571613688,-0.77619627395168,0.205476571612685,-1.0719224141047,1.76399417079142,1.09460899097939,-0.517722673911692,0.492989157262338,NaN,2.03379759184777,-2.03379759184876,-0.567215759048376,2.50087940058952,-2.46398405718753,1.03654733226535,-0.34681448809187,1.17310140566902,0.318305894087921,-0.581019735059256,0.390420220614881,0.390420220612347,0.873639761734498,0.120486223897933,1.0191583139102,NaN,-2.15325355958708,1.85382952319972,-1.94409187636849,-1.90789727295866,-1.90789727295924,-0.55243954905728,0.552439549053837,-2.04211016271837
742.7072,2.15935216477749,-1.99224266273784,1.25703367232172,-1.51925546000329,-0.791553966434745,-0.79155396643741,0.225906544719037,-0.1630754049489,0.0633050699336014,1.02655421332807,2.7727786716415,1.02655421332947,2.78174974937797,NaN,2.23666164438007,-0.378568235848488,NaN,-0.0608579145664691,0.261004974177595,-0.790304910143495,0.261004974176587,-1.06032416210002,1.72954502205929,1.06691500752194,-0.522455402120328,0.525336807729909,NaN,2.05848131970429,-2.05848131970528,-0.527141058802996,2.50426564392449,-2.4867984328826,1.0131599537911,-0.335970953692353,1.19286239032971,0.335845336402584,-0.598795442828898,0.392697663613981,0.392697663611447,0.850596258974925,0.166332309900586,1.01559698379707,NaN,-2.11744007268993,1.89362577982848,-1.93172473631723,-1.90248150057055,-1.90248150057111,-0.530858611109088,0.530858611105511,-2.06208164546183
742.8096,2.0917312875018,-1.96648774735141,1.1934400025231,-1.49615163593409,-0.799844953049914,-0.799844953052558,0.207954831979439,-0.0933866968955199,0.0867902756620956,1.03577057278501,2.76989717020697,1.03577057278642,2.79870060331182,NaN,2.27415507300786,-0.361967213538233,NaN,-0.0575263048964342,0.316218972902612,-0.805064954377339,0.316218972901612,-1.04625581948363,1.69342363614349,1.03916723129943,-0.5277901928713,0.557895446991534,NaN,2.08161706648184,-2.08161706648283,-0.48688547798199,2.50647318473091,-2.50629282104364,0.992031503847691,-0.325831552959818,1.21247711547526,0.352799643373976,-0.617445348766844,0.395000195446092,0.395000195443556,0.827513531391239,0.211808746074977,1.01181662867174,NaN,-2.08069946905628,1.9325806732373,-1.9186563083463,-1.89685052027499,-1.89685052027554,-0.510361175440075,0.510361175436345,-2.08168666009078
742.912,2.02292939260312,-1.93939522855674,1.12932283917381,-1.47263704715158,-0.807973455437103,-0.807973455439727,0.189267874649425,-0.022653836989235,0.110327511016815,1.04493121089379,2.76710938217283,1.04493121089522,2.81344155070091,NaN,2.3099256970483,-0.344936005823571,NaN,-0.0534589079354103,0.370900542404,-0.820470707134108,0.370900542403044,-1.02966823486713,1.65558456162517,1.01135202922338,-0.533708879602099,0.590589451070242,NaN,2.10319559525332,-2.10319559525431,-0.446499087168615,2.50739663067231,-2.52235688555386,0.973126571320528,-0.316401326203661,1.23189109209326,0.369138594828091,-0.636887703012299,0.39739759099133,0.397397590988795,0.804371530185723,0.256879337407303,1.00777795784869,NaN,-2.04317036576918,1.97056946364327,-1.90490698792588,-1.89106267341053,-1.89106267341106,-0.490878264224438,0.490878264220519,-2.10087310183386
743.0144,1.95303753925375,-1.91100246821233,1.06476604582072,-1.44876039932602,-0.815925038436616,-0.815925038439214,0.169881059529059,0.048898339405427,0.133826517193349,1.05399854905142,2.76439497560173,1.05399854905287,2.82585604523602,NaN,2.34386009424522,-0.327587121446588,NaN,-0.0488210918585076,0.424832409651005,-0.83651414834692,0.424832409650071,-1.01052601318072,1.61598915291293,0.983453481087465,-0.540191291689406,0.623343803684849,NaN,2.12320806133499,-2.12320806133599,-0.406033216576089,2.50693002436388,-2.53488873552885,0.956398053604745,-0.307683451873374,1.25105026467574,0.384833540577564,-0.657039398688463,0.399957855525212,0.39995785552268,0.781145861536926,0.301509560560201,1.00343769214359,NaN,-2.00498928069444,2.00746698246613,-1.89049817125158,-1.88517069369493,-1.88517069369544,-0.472340703083261,0.472340703079169,-2.11958861455064
743.1168,1.88214783863325,-1.88135002112574,0.999852628540538,-1.42457261711553,-0.823684552778515,-0.823684552781084,0.149831089430707,0.121044584408088,0.157197674335762,1.06293283983183,2.76173236497661,1.06293283983331,2.83583413540948,NaN,2.37585043640676,-0.31003462684623,NaN,-0.0437827039351953,0.477799021823003,-0.853184975496423,0.477799021822108,-0.988807937350877,1.57460600302495,0.955453540735045,-0.547215309388751,0.656084234111009,NaN,2.14164588908337,-2.14164588908438,-0.365540582258136,2.50496744187179,-2.54379541123782,0.941787536713721,-0.299679049969038,1.26990124341202,0.399857656998319,-0.677816484984045,0.40274690407372,0.402746904071184,0.757807862549468,0.345666823970792,0.998748771218186,NaN,-1.96628994468663,2.04314808187483,-1.87545215362781,-1.87922124657172,-1.8792212465722,-0.454679638334391,0.454679638330107,-2.13778078574853
743.2192,1.8103531238384,-1.85048158590968,0.934664374858983,-1.4001267677482,-0.831236103775694,-0.831236103778235,0.129155612350269,0.193560157074387,0.180352225233764,1.07169210320899,2.75909887894189,1.07169210321048,2.84327287992149,NaN,2.40579483132249,-0.29239386627394,NaN,-0.0385174154412918,0.529587456161415,-0.87047062471276,0.529587456160533,-0.964507283920622,1.53141132565566,0.927332216671128,-0.554756933209321,0.688737307004647,NaN,2.15850069020486,-2.15850069020588,-0.325075392573944,2.50140364346366,-2.54899335917123,0.929225776380099,-0.29238697847775,1.28839152265087,0.414186202007814,-0.699134681629276,0.405828250638278,0.405828250635736,0.73432473522722,0.389320688704361,0.993660606138181,NaN,-1.92720267014724,2.07748809717976,-1.85979203990988,-1.87325452542488,-1.87325452542539,-0.437827014204583,0.437827014200116,-2.15539734482176
743.3216,1.73774661600926,-1.81844395053845,0.869281491663825,-1.37547795596072,-0.83856300791956,-0.838563007922099,0.107892850039516,0.266221726705986,0.20320249052091,1.08023206930609,2.75647093197665,1.08023206930762,2.84807672271072,NaN,2.43359762499034,-0.274781199591872,NaN,-0.0332020587517504,0.579988275067209,-0.888356280821098,0.579988275066343,-0.937632042721261,1.48638928176017,0.899067760359727,-0.562790366862785,0.721230460638787,NaN,2.17376423096783,-2.17376423096886,-0.284693431606647,2.4961347654485,-2.55040891030965,0.918633243638633,-0.285803627074468,1.30646967671948,0.427796761010356,-0.720909882435763,0.409262709336227,0.409262709333682,0.710659732281328,0.432443054868217,0.98811937261668,NaN,-1.88785378181094,2.11036330398993,-1.84354165954813,-1.86730392310271,-1.86730392310318,-0.421715994028046,0.421715994023442,-2.17238635727991
743.424,1.66442159935462,-1.7852869266102,0.803782261198753,-1.3506831867045,-0.845647748361557,-0.845647748364089,0.0860812380750171,0.338808262236952,0.225662084267184,1.08850613648366,2.75382419804027,1.08850613648522,2.85015782514055,NaN,2.45916966509671,-0.257313741502922,NaN,-0.0280159508702797,0.628796347222851,-0.906824886304746,0.628796347221992,-0.908205046585455,1.43953224718084,0.870636854567564,-0.571288111156971,0.753491987222602,NaN,2.18742843971726,-2.1874284397183,-0.244452116239105,2.48905903179628,-2.54797876707849,0.90992069235511,-0.279922718404752,1.32408552156023,0.440669470658681,-0.74305862860818,0.413108108894566,0.413108108892025,0.686772392261988,0.475008320453756,0.982068345445152,NaN,-1.84836512117059,2.14165135404037,-1.82672548067623,-1.86139580010458,-1.86139580010501,-0.406281312427355,0.406281312422615,-2.18869641193539
743.5264,1.59047112476914,-1.75106326812829,0.738242741388364,-1.32580119509079,-0.85247194211875,-0.852471942121267,0.0637590950223958,0.411101897185972,0.247646136000241,1.09646535601117,2.75113378640403,1.09646535601276,2.84943635622785,NaN,2.48242853359655,-0.240109074066721,NaN,-0.023140181574496,0.675811663972893,-0.925857163044951,0.67581166397205,-0.876264003678491,1.39084102140672,0.842014806870879,-0.580221062979376,0.785450962066895,NaN,2.19948542858787,-2.19948542858892,-0.204410524312935,2.48007745972339,-2.54165048013527,0.902989729628515,-0.27473513005856,1.34119023698554,0.452787208331809,-0.765498530204618,0.417419024232347,0.417419024229796,0.662618830438125,0.516993516933745,0.97544828324377,NaN,-1.80885362907329,2.1712316948307,-1.80936852450404,-1.85554936097047,-1.85554936097085,-0.391459556497656,0.39145955649282,-2.20427680743805
743.6288,1.51598775956563,-1.71582857080415,0.672736534031596,-1.30089224704225,-0.859016322932353,-0.85901632293488,0.04096433286987,0.482888754503355,0.269071519106915,1.10405845794198,2.74837441855877,1.10405845794364,2.84584074939854,NaN,2.5032987630699,-0.223284908972253,NaN,-0.0187568409362859,0.720840171086478,-0.945431654787906,0.720840171085688,-0.84186141546027,1.34032497636181,0.813175758681739,-0.589558613464452,0.817037138965186,NaN,2.20992750557794,-2.20992750557899,-0.164629395672211,2.46909454078437,-2.53138287968812,0.897733403197147,-0.270228744270275,1.35773645239703,0.464135743581209,-0.78814862231768,0.422246526339147,0.422246526336577,0.638152094668209,0.558378421696007,0.968197873745345,NaN,-1.76943100019946,2.1989859965405,-1.79149628623825,-1.84977663867783,-1.84977663867818,-0.377189389315677,0.377189389310742,-2.21907775041499
743.7312,1.44106338756043,-1.67964114699142,0.607334629151868,-1.27601791524899,-0.865260734324561,-0.865260734327065,0.0177342068122857,0.553959720856372,0.289857079125057,1.11123193069897,2.74552060307053,1.1112319307007,2.83930793598339,NaN,2.52171204890484,-0.206958697911909,NaN,-0.0150481784784824,0.763694612179218,-0.965524783108984,0.763694612178439,-0.805064365163239,1.28800213833719,0.784092912918699,-0.599268743913959,0.848180823551123,NaN,2.21874716669971,-2.21874716670076,-0.125171110620933,2.45601888705333,-2.51714642977499,0.894036828650999,-0.266388324354377,1.37367830395256,0.474703856156825,-0.81092965821496,0.427637945949155,0.42763794594657,0.613322589235195,0.599145645861237,0.960254242195585,NaN,-1.7302033966771,2.2247986097008,-1.77313466796396,-1.84408257811653,-1.84408257811685,-0.363411734665509,0.363411734660542,-2.23305057401947
743.8336,1.36578904857501,-1.64256187330204,0.542105314413552,-1.25124083217251,-0.871184129406958,-0.871184129409462,-0.00589490701319344,0.62411116924078,0.309923854036283,1.11793015570921,2.74254680513163,1.11793015571102,2.82978355661307,NaN,2.53760745766611,-0.191247208775997,NaN,-0.0121957098791921,0.8041953547841,-0.986110898391486,0.804195354783347,-0.765954165767135,1.23389919342335,0.754738777828663,-0.609318122590816,0.878812728168983,NaN,2.22593706369225,-2.22593706369331,-0.0860996457768818,2.44076382997887,-2.49892347881744,0.891777869699184,-0.263195416494513,1.38897147299756,0.484483426403497,-0.833764353050279,0.433636646644968,0.433636646642365,0.588078562088522,0.639280696031113,0.951553517161131,NaN,-1.6912712069406,2.24855706692096,-1.75430992610068,-1.83846520285906,-1.83846520285937,-0.350069936596254,0.350069936591262,-2.24614797809431
743.936,1.29025480435248,-1.60465401058705,0.477114134312556,-1.22662441893281,-0.876764580440222,-0.876764580442715,-0.0298877186566647,0.693145631877638,0.329195279302061,1.12409559115927,2.73942760803782,1.12409559116115,2.81722214493391,NaN,2.55093162428636,-0.176266087491145,NaN,-0.0103792960704907,0.842171164074356,-1.00716231221464,0.842171164073634,-0.72462586101459,1.17805141085341,0.725085425562002,-0.619672205930385,0.908863813421324,NaN,2.23148995030952,-2.23148995031056,-0.0474805026702511,2.4232479628526,-2.47670838567325,0.890827882819271,-0.260628279366453,1.40357321287648,0.493469499683587,-0.856577591247724,0.440281810786556,0.44028181078394,0.562366648992979,0.678772009199176,0.942031446223409,NaN,-1.65272883964228,2.27015263550975,-1.73504863452089,-1.83291585076844,-1.83291585076873,-0.337109901731523,0.33710990172655,-2.25832428739084
744.0384,1.21454962834055,-1.56598299458084,0.412423897227863,-1.20223258828413,-0.881979300484779,-0.881979300487275,-0.0542102306934761,0.760872421871683,0.347597367653439,1.12966900387584,2.7361378617867,1.12966900387779,2.80158728184453,NaN,2.56163893209572,-0.162129416894178,NaN,-0.00977621255210504,0.877459908312167,-1.02864931342618,0.877459908311476,-0.68118758282791,1.12050248307911,0.695104762011583,-0.630295344899687,0.938265123390154,NaN,2.2353986249768,-2.23539862497784,-0.0093806073892599,2.40339563711068,-2.45050752574524,0.891052537538243,-0.258661845068684,1.41744236568355,0.50166032304998,-0.879296602568896,0.44760825120687,0.447608251204245,0.53613247086784,0.717610962703623,0.931624058360435,NaN,-1.61466455064365,2.28948092418276,-1.71537766262499,-1.82741947682138,-1.82741947682165,-0.324480226303214,0.324480226298216,-2.26953572249505
744.1408,1.13876132292211,-1.52661619317703,0.348094737269983,-1.17812942016267,-0.88680467612515,-0.886804676127648,-0.0788299589146167,0.82710820351621,0.365058853837715,1.1345897536328,2.73265281168649,1.1345897536348,2.78285172190551,NaN,2.56969167176908,-0.148949277006286,NaN,-0.0105602174853892,0.909909201446647,-1.05054018174949,0.909909201446013,-0.635759775199548,1.06130428098369,0.664768799452867,-0.641150895256484,0.966947616742759,NaN,2.23765589078169,-2.23765589078273,0.0281318166691135,2.3811374361398,-2.42033921253237,0.892312706802511,-0.257267715437429,1.43053936764809,0.509057350558664,-0.901851105345304,0.45564626691881,0.45564626691617,0.509321282578709,0.755791863723419,0.920268373245148,NaN,-1.57716030989819,2.30644253773227,-1.6953241644901,-1.82195503538507,-1.8219550353853,-0.312132302671339,0.312132302666294,-2.27974067649746
744.2432,1.06297646215116,-1.48662262844289,0.28418422986347,-1.15437880894663,-0.891216313397363,-0.891216313399861,-0.103716172341156,0.891677519079198,0.381511305063119,1.1387961300014,2.72894820134349,1.13879613000348,2.76099748995125,NaN,2.57506017336009,-0.136835306692525,NaN,-0.012900621972681,0.93937699431708,-1.07280121596175,0.939376994316474,-0.588474294734131,1.00051652347513,0.634049924317376,-0.652201330987093,0.994841993021112,NaN,2.23825454113723,-2.23825454113824,0.0649874039835741,2.35641063957254,-2.38623357612572,0.8944653962782,-0.256414200171561,1.44282624265306,0.515665212287172,-0.924173413335403,0.464421556812527,0.464421556809868,0.481878667697719,0.793311921892005,0.907903153122287,NaN,-1.54029171943668,2.32094375870825,-1.67491557208064,-1.81649595714726,-1.81649595714743,-0.300020400954791,0.300020400949706,-2.28889998832849
744.3456,0.987280351458737,-1.44607266823394,0.220747547670054,-1.13104408513143,-0.895189105353392,-0.895189105355886,-0.128840135883854,0.954413284846855,0.396889214289405,1.14222573441925,2.72500034898838,1.14222573442146,2.73601594362385,NaN,2.57772290510716,-0.125894260694144,NaN,-0.0169613605614431,0.965732125978133,-1.09539679116137,0.96573212597759,-0.539473405378037,0.938206372195768,0.6029211593093,-0.663408361666027,1.02187851989366,NaN,2.23718736814127,-2.23718736814227,0.101115834869276,2.32915967130571,-2.34823242307692,0.897364670202729,-0.256066400087991,1.45426658528142,0.521491645314923,-0.94619850345601,0.473955191560197,0.473955191557511,0.45375126620551,0.830171205286082,0.894469683044321,NaN,-1.50412798985887,2.33289722652671,-1.65417958458901,-1.81101072255526,-1.81101072255543,-0.288101730091796,0.288101730086625,-2.2969772036964
744.448,0.911756997600809,-1.40503770029731,0.157837640305905,-1.10818762076791,-0.898697330799403,-0.898697330801876,-0.154175321854952,1.01515726640505,0.411130103112799,1.14481589703352,2.72078620052353,1.14481589703582,2.70790780114025,NaN,2.5776665366189,-0.116229551221362,NaN,-0.0229000547650509,0.988854848866522,-1.11828945016062,0.988854848866075,-0.488908698759964,0.874447979679334,0.571356427831498,-0.674733055358834,1.04798687863639,NaN,2.23444718972403,-2.23444718972501,0.136446056290121,2.29933651930861,-2.30638908487344,0.900862544669514,-0.256186328428129,1.46482553875069,0.526547394442895,-0.967864045985386,0.484263633465759,0.484263633463047,0.424887518168224,0.866372578311038,0.879912560083901,NaN,-1.4687319709911,2.34222259043116,-1.63314414876048,-1.80546350978784,-1.80546350978799,-0.276336486213283,0.276336486208047,-2.30393881858926
744.5504,0.836489086936654,-1.36358980674451,0.0955054237476939,-1.08587043111683,-0.901714790346254,-0.901714790348721,-0.179697560264277,1.07376053521836,0.424174654616661,1.14650411784306,2.71628336477212,1.14650411784544,2.67668313544081,NaN,2.57488596608075,-0.107940769145978,NaN,-0.0308670668424492,1.00863733538748,-1.14144002113192,1.00863733538712,-0.436939972537633,0.809322024244469,0.539330833144339,-0.686135968884593,1.07309604834399,NaN,2.23002689309695,-2.23002689309791,0.170906526279599,2.2669011229791,-2.26076825213304,0.904809844944114,-0.256733057500198,1.47446977707704,0.530846096483045,-0.989110405804568,0.495358796151512,0.495358796148769,0.395238408163043,0.901921619376515,0.864180473756429,NaN,-1.43416022323549,2.34884712452205,-1.61183743009941,-1.79981487845776,-1.79981487845791,-0.264687895252525,0.264687895247237,-2.30975450449896
744.6528,0.761557970608574,-1.32180145685907,0.0337999658404958,-1.06415178106455,-0.904214982235047,-0.904214982237541,-0.20538511681361,1.13008390086183,0.435966880479715,1.14722852201122,2.71147013554975,1.14722852201364,2.64236133209401,NaN,2.56938430708194,-0.101123193404959,NaN,-0.0410045562552691,1.02498415510342,-1.16480774603421,1.02498415510315,-0.383734084239848,0.742915249583854,0.506820958951577,-0.697577287459115,1.09713424048461,NaN,2.22391948871827,-2.22391948871922,0.204425469225589,2.23182172824074,-2.21144578414193,0.909057040339034,-0.257662883237509,1.4831674978856,0.534404156657942,-1.00988062712323,0.507248140062092,0.507248140059325,0.364758198278724,0.936826513392008,0.847226961886509,NaN,-1.40046311923977,2.35270629765828,-1.59028777894901,-1.79402244965685,-1.794022449657,-0.253122262905287,0.253122262900004,-2.31439731459783
744.7552,0.687043653691242,-1.27974523236539,-0.0272313449311455,-1.0430887999746,-0.906171315658388,-0.906171315660895,-0.231218700156165,1.18399830887157,0.446454316290599,1.14692832035756,2.70632550211381,1.14692832036,2.60497100593352,NaN,2.56117282641118,-0.0958673007181512,NaN,-0.0534455621501395,1.03781269898835,-1.18835040590532,1.03781269898814,-0.329463780511825,0.675320005459079,0.473805187771867,-0.709016976019043,1.12002888832485,NaN,2.2161181680473,-2.21611816804824,0.236931132623718,2.19407521069063,-2.15850848340741,0.913455070310763,-0.258929506354723,1.4908884247046,0.537240617506435,-1.03012041308195,0.519934797380049,0.519934797377263,0.333405139073438,0.971097911594882,0.829011126666164,NaN,-1.36768497291855,2.35374428902293,-1.5685236962163,-1.78804155224572,-1.78804155224591,-0.241609050461826,0.241609050456501,-2.31784386765879
744.8576,0.61302478385536,-1.23749359174262,-0.0875426570758011,-1.02273610662588,-0.907557354629245,-0.907557354631802,-0.257181400605461,1.23538519418938,0.455588238624956,1.14554426736686,2.70082914635198,1.14554426736932,2.56454987449439,NaN,2.55027082499146,-0.092258278128938,NaN,-0.0683131337413854,1.04705353142727,-1.21202443859028,1.04705353142711,-0.274306486707743,0.606633772257116,0.440264029492781,-0.72041494413795,1.14170670091542,NaN,2.20661636825233,-2.20661636825326,0.268352043688814,2.15364737237201,-2.10205383902029,0.917856166248638,-0.260484230460251,1.49760381597899,0.539377018687366,-1.04977810902901,0.533417719907258,0.53341771990445,0.301142148086825,1.00474875572515,0.809498298031812,NaN,-1.33586419126761,2.35191443894237,-1.54657380022308,-1.78182581647451,-1.78182581647472,-0.230120980923628,0.230120980918293,-2.32007450439974
744.96,0.539578633179186,-1.19511867073863,-0.147089545840907,-1.00314544434651,-0.908347085952037,-0.908347085954605,-0.283258564875907,1.28413678591551,0.463323898784013,1.14301910841691,2.69496142451546,1.14301910841941,2.52114458928323,NaN,2.5367054566482,-0.0903755350425746,NaN,-0.0857195241985524,1.05265065951055,-1.2357850576763,1.05265065951045,-0.218443033215151,0.536958647888438,0.406180453885111,-0.731731225208745,1.16209379918202,NaN,2.19540786120432,-2.19540786120523,0.29861727586927,2.11053322470768,-2.0421897616027,0.92211466088328,-0.262276182477485,1.50328648323454,0.540837244959147,-1.068804694544,0.547691849443235,0.547691849440408,0.267937445193543,1.03779407400267,0.788660636111615,NaN,-1.30503343801133,2.34717962548232,-1.52446679126451,-1.77532770737198,-1.77532770737221,-0.218634154219196,0.218634154213824,-2.32107340898733
745.0624,0.466781066495051,-1.15269210959745,-0.205828936682157,-0.984365324236353,-0.908515210298823,-0.908515210301428,-0.309437618601577,1.33015636710356,0.469620767517533,1.13929800664551,2.68870333404749,1.13929800664802,2.47481052247637,NaN,2.52051147929283,-0.0902922154033237,NaN,-0.105765458198813,1.05456171321143,-1.25958638962864,1.05456171321135,-0.162056304057861,0.466400778966446,0.371540218224356,-0.742926169125817,1.18111594524861,NaN,2.18248688556157,-2.18248688556247,0.327656742166851,2.06473726372668,-1.97903433394361,0.926087764870063,-0.264252568790245,1.50791082207488,0.54164735433781,-1.08715378307814,0.562748314617851,0.562748314615015,0.233765134200144,1.07025076205303,0.76647766732939,NaN,-1.27521980215851,2.33951255510383,-1.50223140746887,-1.76849900473779,-1.76849900473802,-0.207128142250389,0.207128142245026,-2.32082868696096
745.1648,0.394706489576863,-1.11028489517254,-0.263719062615174,-0.966440671582145,-0.908037459512382,-0.908037459515011,-0.335707848614067,1.37335849814518,0.474442787323138,1.13432894284568,2.68203646759363,1.13432894284818,2.42561150120888,NaN,2.50173093368867,-0.0920747150485002,NaN,-0.128539478083484,1.05275803448234,-1.28338164306943,1.05275803448233,-0.105329814850513,0.395069727124235,0.33633217579896,-0.753960646277354,1.19869885949722,NaN,2.16784832545247,-2.16784832545334,0.355401527433434,2.01627372727581,-1.9127155808419,0.929636288868814,-0.26635898106696,1.5114528542113,0.541835375372589,-1.10478162162779,0.578574657256699,0.578574657253838,0.198605721579332,1.10213735587158,0.742936747511397,NaN,-1.24644497808033,2.32889595322588,-1.47989636595908,-1.7612912477493,-1.76129124774953,-0.195586051680515,0.195586051675135,-2.3193323933184
745.2672,0.323427770865567,-1.0679672063586,-0.320719455314008,-0.949412470356301,-0.90689094012448,-0.906890940127127,-0.362060149741539,1.41366921331221,0.477758634068646,1.12806309007445,2.67494295355856,1.12806309007698,2.37361948612255,NaN,2.48041275379827,-0.0957822089393309,NaN,-0.154117366999172,1.04722468188666,-1.30712331366142,1.04722468188669,-0.0484462430944925,0.32307777495244,0.300548554373899,-0.764796258570569,1.21476861377365,NaN,2.15148792168054,-2.1514879216814,0.381784262024966,1.96516682026257,-1.84337124499057,0.932625304596031,-0.268539755948469,1.5138902765955,0.541431068570476,-1.12164707990621,0.595155085912282,0.595155085909401,0.162446566940591,1.1334737938102,0.718033444615951,NaN,-1.21872546937617,2.31532265197677,-1.4574902875989,-1.75365615838008,-1.75365615838031,-0.183994561757685,0.183994561752349,-2.31658051335983
745.3696,0.253016138804139,-1.02580825415563,-0.376790961741971,-0.933317409327925,-0.905054491559127,-0.905054491561814,-0.388486737581206,1.45102619619406,0.479541989887893,1.12045517364155,2.66740538146116,1.12045517364412,2.31891420546288,NaN,2.4566123295425,-0.10146618942674,NaN,-0.182561637544192,1.03796036913935,-1.3307634163443,1.03796036913939,0.00841404801196819,0.250539199675069,0.264185205757306,-0.775395551019217,1.22925209037648,NaN,2.13340249035731,-2.13340249035815,0.406739526751083,1.91145090250861,-1.77114855341932,0.934924755511879,-0.27073837698581,1.51520251800784,0.540465660617361,-1.13771162144859,0.612470746224153,0.612470746221246,0.125282264481998,1.1642811640188,0.69177183855686,NaN,-1.19207282258799,2.29879559374417,-1.43504160910218,-1.74554604949513,-1.74554604949532,-0.172343948644073,0.172343948638782,-2.31257290930255
745.472,0.183541069777171,-0.983876111768523,-0.431895765393942,-0.918187546529699,-0.90250903472869,-0.902509034731376,-0.414980832447013,1.4853789297591,0.479771821857697,1.11146383185211,2.65940671554047,1.11146383185469,2.26158276533975,NaN,2.43039105492786,-0.109170014184469,NaN,-0.213921067284689,1.02497736570883,-1.35425372598266,1.02497736570887,0.0650744285022437,0.177569565702966,0.227241836094806,-0.785722217715477,1.24207748672363,NaN,2.11359011790334,-2.11359011790416,0.430204264183919,1.85517063001876,-1.69620395070556,0.936410032078573,-0.272897891769602,1.51537080504228,0.538971572089215,-1.15293925709917,0.630499993313918,0.63049999331099,0.0871149569373397,1.19458144355421,0.664164742742801,NaN,-1.16649389150783,2.27932777691498,-1.41257848764376,-1.73691422740868,-1.73691422740884,-0.16062810245031,0.160628102445059,-2.30731324932105
745.5744,0.115070182997858,-0.942237531667563,-0.485997390631381,-0.904050012709714,-0.899237883827834,-0.899237883830517,-0.441536324487878,1.51668880719036,0.478432653066607,1.10105199023674,2.65093020563561,1.10105199023932,2.20171925045283,NaN,2.40181588898566,-0.118928466386967,NaN,-0.248230269394274,1.00830138334973,-1.37754600024898,1.00830138334976,0.121363306847886,0.104285081764484,0.189722225834614,-0.79574129977754,1.25317483220579,NaN,2.09205030400501,-2.0920503040058,0.452118167116069,1.79638102455092,-1.61870276003158,0.936962519226686,-0.274961314082557,1.51437823517373,0.536982159543497,-1.16729648934517,0.649218654646266,0.649218654643308,0.047954583254882,1.22439724305098,0.635233855303838,NaN,-1.14199113221485,2.25694215954212,-1.39012870060689,-1.72771540079461,-1.72771540079474,-0.148844537194422,0.148844537189285,-2.30080893096244
745.6768,0.0476691470936561,-0.900957746992011,-0.539060682712321,-0.890926766853854,-0.895227003709604,-0.895227003712292,-0.468147430507319,1.54492918904979,0.47551481204193,1.08918725291994,2.64195930343804,1.0891872529225,2.13942431573071,NaN,2.37095893798983,-0.130767337052281,NaN,-0.285509302819455,0.987971453163156,-1.40059215930273,0.98797145316321,0.177115303622066,0.0308020365154501,0.151634441647067,-0.805419377048329,1.26247648568294,NaN,2.06878403859579,-2.06878403859656,0.472424025859706,1.73514744504331,-1.53881873943752,0.936470113465175,-0.276871994363786,1.5122098526613,0.534531482118734,-1.18075225943312,0.668600277267392,0.668600277264404,0.007819061027958,1.25375156935511,0.60500984702687,NaN,-1.11856292506046,2.23167152451997,-1.36771954147668,-1.71790608983237,-1.71790608983251,-0.13699439010679,0.136994390101741,-2.29307100338441
745.7792,-0.0185984062599402,-0.86010025716553,-0.591051768975422,-0.878834407652292,-0.890465208636784,-0.890465208639476,-0.494808349412567,1.57008540055763,0.471014652956462,1.07584230559169,2.63247758650229,1.07584230559425,2.07480476233769,NaN,2.33789705262759,-0.144703039892038,NaN,-0.325763335560365,0.964039781686308,-1.42334441032495,0.964039781686372,0.232172300034774,-0.0427636983657747,0.112991033296365,-0.814724755683032,1.26991759951665,NaN,2.04379381706413,-2.04379381706487,0.491068028357607,1.671545454755,-1.45673353311796,0.934827699577894,-0.278573957771438,1.50885272712553,0.531654093083983,-1.19327790708482,0.688616355963018,0.688616355959998,-0.0332655965168963,1.28266761323424,0.57353238917016,NaN,-1.09620391298581,2.20355830454256,-1.34537771181459,-1.70744501121822,-1.70744501121834,-0.125082406048087,0.125082406043118,-2.2841140867375
745.8816,-0.0836709672315579,-0.819726599243195,-0.641938008828985,-0.8677840386211,-0.884944307063541,-0.884944307066241,-0.521512920949132,1.59215467298479,0.464934745630311,1.06099532035493,2.62246868773917,1.06099532035745,2.00797309253326,NaN,2.30271143051169,-0.160742263254577,NaN,-0.368982375239377,0.936571572990334,-1.44575532627812,0.936571572990409,0.286384362024737,-0.116297112147153,0.0738092009173065,-0.823627650542909,1.27543655353157,NaN,2.01708360773781,-2.01708360773854,0.508000012902739,1.60566059757376,-1.37263604690794,0.93193757225845,-0.280012215117597,1.50429603644284,0.528384853289702,-1.20484714603285,0.709236543371864,0.709236543368816,-0.0752652329253071,1.31116856600308,0.540850118633307,NaN,-1.07490534649452,2.17265435928979,-1.32312920617072,-1.69629342346822,-1.6962934234683,-0.113116904238163,0.113116904233333,-2.27395628218614
745.984,-0.147489234465109,-0.779896106252702,-0.69168793721142,-0.857781181398444,-0.878659201514419,-0.878659201517135,-0.548254293410675,1.61114603925475,0.45728403674393,1.0446303529694,2.61191622759228,1.0446303529719,1.9390470381802,NaN,2.26548721519269,-0.178881662112832,NaN,-0.415141080275159,0.90564481190178,-1.46777790128756,0.905644811901925,0.339610529716412,-0.189684454867504,0.0341109167293591,-0.832100359684359,1.27897536928493,NaN,1.98865878744318,-1.98865878744388,0.523173675196535,1.53758809990199,-1.28672178340281,0.927709784951961,-0.281133052515671,1.49853115146157,0.524758761042046,-1.21543605196168,0.730428853725001,0.730428853721928,-0.118137576220152,1.3392774675392,0.507020535156927,NaN,-1.05465543317874,2.139020688232,-1.30099918432043,-1.68441544118534,-1.68441544118542,-0.101109726516286,0.101109726511602,-2.26261906294808
746.0864,-0.209996205502484,-0.740665654129844,-0.740271205028744,-0.84882573115148,-0.871607956522754,-0.871607956525477,-0.575024606945586,1.62708019549116,0.44807798390351,1.02673772554722,2.60080375009431,1.02673772554969,1.86814905599158,NaN,2.22631308528033,-0.199107596585827,NaN,-0.464198659981726,0.871350015288068,-1.48936560403191,0.871350015288283,0.391719464566988,-0.262813598593506,-0.00607700975937379,-0.840117429948878,1.2804801166175,NaN,1.95852606198528,-1.95852606198596,0.53654673254404,1.46743250243455,-1.19919215591721,0.922062408657174,-0.281884308704961,1.49155171886302,0.52081079006687,-1.22502305767901,0.752159885320522,0.752159885317418,-0.161832343973564,1.36701708774023,0.472109829252424,NaN,-1.03543968966808,2.10272706370907,-1.27901182670956,-1.67177834100292,-1.67177834100301,-0.0890761631010812,0.0890761630964639,-2.25012713900241
746.1888,-0.271137272937883,-0.702089400122709,-0.787658520783657,-0.840911948532827,-0.863791849813028,-0.863791849815766,-0.601814698108952,1.63998933742894,0.437338663408759,1.00731439028529,2.58911467149294,1.00731439028775,1.79540578646615,NaN,2.18528083666809,-0.221395926074563,NaN,-0.51609886002927,0.833789966022483,-1.51047244437452,0.83378996602278,0.442589960331539,-0.335574365745634,-0.0467229247267589,-0.847655812748578,1.27990132542673,NaN,1.92669338414477,-1.92669338414543,0.548081051606195,1.39530720817832,-1.11025377071605,0.914921691364029,-0.282215650872357,1.48335374344835,0.516575728291133,-1.23358895198415,0.774395091098779,0.774395091095646,-0.206291420948905,1.39440984261366,0.436192646709521,NaN,-1.01724128425697,2.0638515910018,-1.25719017422134,-1.65835287976179,-1.65835287976188,-0.0770348415690022,0.0770348415645123,-2.2365082974653
746.2912,-0.330860323005032,-0.664218520314022,-0.833821594522116,-0.834028485004983,-0.855215416368804,-0.855215416371556,-0.628613827536462,1.64991696861277,0.425094848970119,0.9863642699384,2.57683225572201,0.986364269940875,1.72094748839145,NaN,2.14248497401023,-0.245711868534462,NaN,-0.570770020857973,0.793079436415417,-1.53105306069394,0.793079436415777,0.492111336280162,-0.407858829175003,-0.087790373546181,-0.854695005274503,1.27719440981369,NaN,1.893169870651,-1.89316987065164,0.557742750140878,1.32133393167548,-1.02011765296376,0.906222124287108,-0.282078852407389,1.47393567398159,0.512088016945302,-1.24111687954393,0.797099105773894,0.797099105770723,-0.251449100503979,1.42147774192505,0.399351797917196,NaN,-1.00004135225867,2.02248022900449,-1.23555596065763,-1.64411362912808,-1.64411362912815,-0.0650075652722686,0.0650075652678557,-2.22179323030858
746.3936,-0.389115822127614,-0.627100961742787,-0.878733077083898,-0.828158442471869,-0.845886482086279,-0.845886482089071,-0.655409428436965,1.65691766100183,0.411382053114463,0.963898569808232,2.56393962738787,0.963898569810703,1.64490747873834,NaN,2.0980223330784,-0.272009933864224,NaN,-0.628125201201846,0.749344887122416,-1.55106282378246,0.74934488712288,0.540183732508294,-0.479561587042977,-0.129238184553029,-0.861217169322003,1.27232009986368,NaN,1.85796571727994,-1.85796571728056,0.565502280263745,1.24564205994963,-0.928998412649167,0.895906437209181,-0.281428062682716,1.46329849386077,0.507381597837672,-1.2475923392168,0.820236100107874,0.820236100104675,-0.297232383631773,1.44824235820741,0.361677913889263,NaN,-0.983819272046978,1.97870630957497,-1.21412945174796,-1.62903931002128,-1.6290393100213,-0.0530191066440932,0.0530191066397681,-2.20601536203463
746.496,-0.445856874495921,-0.590781225185526,-0.922366485084511,-0.823279469417672,-0.835816174486965,-0.835816174489792,-0.682186874292048,1.66105674287194,0.396242519694563,0.939936056473941,2.55041982209697,0.939936056476377,1.56742160954919,NaN,2.05199174876177,-0.300233938702177,NaN,-0.688062371980094,0.702724112252299,-1.57045794346024,0.702724112252868,0.58671831967217,-0.550580016429795,-0.171020588773981,-0.867207221485921,1.2652448702794,NaN,1.82109211913753,-1.82109211913812,0.571334493342754,1.16836795739893,-0.837113368522586,0.883925553743126,-0.28022005160028,1.45144581511594,0.502489780665663,-1.25300318036566,0.843770113971136,0.843770113967915,-0.343561336462576,1.47472480368969,0.323269041693302,NaN,-0.968552902255733,1.93263007406203,-1.19292930319017,-1.61311310301504,-1.61311310301498,-0.0410969743058203,0.0410969743016076,-2.1892106832605
746.5984,-0.501039246657485,-0.555300184620197,-0.964696110828386,-0.819363893328963,-0.825018901018127,-0.825018901020976,-0.708929268642225,1.66240989493847,0.379725156061445,0.91450329881437,2.53625586718529,0.914503298816763,1.48862779571138,NaN,2.00449377143502,-0.330317108267051,NaN,-0.750464694692854,0.653365802761181,-1.58919556471974,0.653365802761821,0.631637424900006,-0.620814511447277,-0.213087380392823,-0.872652892249652,1.25594135700909,NaN,1.78256120710775,-1.78256120710832,0.575218683620856,1.08965424147634,-0.744681641686147,0.870238536477811,-0.278414415221763,1.4383839751013,0.49744514004111,-1.2573396008489,0.867665334939655,0.867665334936406,-0.390349510282931,1.50094570733465,0.284230171102973,NaN,-0.954218786742915,1.88435822623033,-1.17197244328877,-1.59632291837357,-1.59632291837341,-0.0292711671031899,0.0292711670990379,-2.17141759023368
746.7008,-0.554621365594913,-0.520694939036219,-1.00569692200292,-0.816378886793245,-0.813512295091631,-0.813512295094484,-0.735617264143245,1.66106264270077,0.361885394248538,0.887634867523584,2.52143088761064,0.887634867525918,1.40866559085474,NaN,1.95563042696215,-0.362182270185881,NaN,-0.815200899667907,0.601429012143552,-1.60723385008028,0.601429012144312,0.674874564842617,-0.690168711476232,-0.255384129866619,-0.87754475349058,1.2443887528341,NaN,1.74238601342024,-1.74238601342079,0.577138607942989,1.00964904389279,-0.651923222257172,0.854812542240898,-0.275973737061485,1.4241221349374,0.492279445726349,-1.26059415187323,0.891886316356302,0.891886316353037,-0.437504424284491,1.52692519388643,0.244672693143244,NaN,-0.940792331525661,1.83400349620722,-1.15127397927357,-1.57866161979363,-1.57866161979342,-0.0175739179245583,0.0175739179205319,-2.15267672778764
746.8032,-0.606564293604667,-0.486998687785971,-1.0453444492819,-0.814286663875718,-0.801317134368456,-0.801317134371314,-0.762228920381543,1.65710973877138,0.342784971930486,0.859373492250627,2.50592823404632,0.859373492252932,1.32767580459949,NaN,1.90550501384741,-0.395742144882775,NaN,-0.882125778339378,0.547082519438246,-1.62453205573737,0.547082519439067,0.716374369279492,-0.758549722701184,-0.297852464188177,-0.881876213985244,1.23057317038805,NaN,1.70058048222161,-1.70058048222215,0.577082477395981,0.928505267568654,-0.559058022775123,0.837622787140178,-0.272863705060577,1.40867237415706,0.487023623366086,-1.26276175134943,0.916398147747763,0.916398147744465,-0.484928106535469,1.55268287290259,0.204713799284119,NaN,-0.928247955093066,1.78168421085901,-1.13084712257402,-1.56012720483324,-1.56012720483298,-0.00603942204163263,0.00603942203770984,-2.13303083089807
746.9056,-0.656831680335705,-0.45424061906127,-1.08361465537616,-0.813044704631139,-0.788457232286227,-0.788457232289081,-0.788739608048406,1.65065443766151,0.322491629511749,0.829770176329744,2.48973162747233,0.829770176332021,1.24580015243417,NaN,1.85422192883117,-0.430899737437886,NaN,-0.951080801671039,0.490504090817344,-1.64105061565136,0.490504090818286,0.756092379931792,-0.825868333300649,-0.340430425050661,-0.885643483589386,1.21448796438007,NaN,1.6571595344399,-1.65715953444042,0.575042917002794,0.846379839465203,-0.46630493837415,0.818652496119916,-0.26905318617546,1.39204977357979,0.481707740419221,-1.26383970403136,0.941166598148264,0.941166598144942,-0.532517689275449,1.57823784774232,0.164475830319563,NaN,-0.916559211326656,1.7275238607584,-1.11070312512866,-1.54072294992678,-1.54072294992647,0.00529646217000887,-0.00529646217383249,-2.11252455686966
747.008,-0.705389698372358,-0.422445799967678,-1.12048378551983,-0.812606009397045,-0.774959298898883,-0.774959298901729,-0.81512196158779,1.6418076757698,0.301078728392289,0.798884265086849,2.47282531120303,0.798884265089103,1.16318092225272,NaN,1.80188650856071,-0.467548835878467,NaN,-1.02189486946831,0.431879650148792,-1.65675125031572,0.43187965014982,0.793994721516697,-0.89203922408672,-0.383052908771982,-0.888845509696262,1.19613401107123,NaN,1.61213917970157,-1.61213917970207,0.571016894518602,0.763432939303101,-0.373880917457926,0.797892798918924,-0.264514262047453,1.37427248329463,0.476361013240967,-1.26382772741189,0.966158249800713,0.966158249797372,-0.580166058086006,1.6036087556843,0.12408558073942,NaN,-0.905698878911129,1.67165064654017,-1.09085121633495,-1.52045752593036,-1.52045752592998,0.0163965525095324,-0.0163965525132293,-2.09120429884287
747.1104,-0.752206975686845,-0.391635058076461,-1.15592820858739,-0.812919389042179,-0.760852764845292,-0.760852764848133,-0.841345876133829,1.63068717379063,0.278624801754983,0.766783459723081,2.4551942032055,0.766783459725346,1.07996063635647,NaN,1.74860487552637,-0.505574617080294,NaN,-1.09438518358482,0.371402384158386,-1.67159711679631,0.37140238415948,0.830057656643193,-0.956981181357661,-0.425652187107463,-0.891483891314058,1.17551994542138,NaN,1.56553665037099,-1.56553665037147,0.565005623321462,0.679827166779688,-0.282000018458446,0.775342541128508,-0.259222229532773,1.35536177941596,0.471011834341794,-1.26272798525793,0.991340630232046,0.991340630228676,-0.627762555007169,1.62881384960328,0.0836735634782222,NaN,-0.895639004265087,1.6141969896406,-1.07129853147738,-1.49934508172673,-1.49934508172632,0.0272227307046373,-0.0272227307082508,-2.06911797404314
747.2128,-0.797254538928712,-0.361824852627288,-1.18992426428717,-0.813929798585111,-0.746169561894574,-0.746169561897392,-0.867378538674592,1.61741647754261,0.25521305238912,0.733543768865061,2.43682404757452,0.733543768867345,0.996281694894593,NaN,1.69448378321441,-0.544854352819429,NaN,-1.16835822933809,0.309271814035379,-1.68555300886816,0.309271814036531,0.864267041125382,-1.02061731738189,-0.468158503324011,-0.893562774482396,1.15266235729846,NaN,1.51737052181983,-1.51737052182029,0.557014445813899,0.595726616794073,-0.190872421028077,0.751007999761006,-0.25315556753027,1.33534211490877,0.465687821354303,-1.26054513151227,1.01668233999933,1.01668233999594,-0.67519373342886,1.65387112303473,0.0433732383011265,NaN,-0.886350886032793,1.555299004268,-1.05205002947055,-1.47740528534211,-1.47740528534163,0.0377363816772431,-0.0377363816807377,-2.04631478706754
747.3152,-0.840505772300442,-0.33302714980608,-1.22244813163443,-0.815578715594962,-0.730943856594873,-0.730943856597702,-0.893184480499823,1.60212396046879,0.230930817560479,0.69924939568136,2.41770156702731,0.699249395683674,0.912286008189491,NaN,1.63963046410901,-0.585258197888408,NaN,-1.24361084427824,0.245692851341394,-1.698585596474,0.245692851342595,0.896617697704414,-1.08287529411452,-0.510500726822752,-0.895088730023761,1.12758595062477,NaN,1.46766079032415,-1.46766079032458,0.547052705965778,0.511295879134689,-0.100703400882887,0.72490251905069,-0.246295871917941,1.31424116632661,0.460415887284136,-1.25728636087343,1.04215315941956,1.04215315941615,-0.722344160085916,1.67879846144203,0.00332020079504509,NaN,-0.87780500999675,1.49509593525908,-1.03310840812767,-1.45466331934203,-1.45466331934147,0.0478988729665127,-0.0478988729699053,-2.02284497608073
747.4176,-0.881936382135683,-0.305249330179518,-1.2534757254925,-0.817804553317598,-0.715211742161842,-0.71521174216467,-0.918725640158707,1.58494182949927,0.205869028812836,0.663992568526931,2.39781461455434,0.663992568529237,0.828114647539239,NaN,1.58415249009493,-0.626650034992374,NaN,-1.31993134860119,0.180874838181591,-1.71066367255202,0.180874838182894,0.927112734243286,-1.14368753920981,-0.552607037388444,-0.8960706142772,1.10032366845385,NaN,1.41642890563109,-1.41642890563151,0.535133619602682,0.426699035857226,-0.0116923372046746,0.697046100961706,-0.238627765274944,1.29208987456261,0.455222326246632,-1.25296145292924,1.06772410431298,1.06772410430954,-0.76909725443656,1.70361378424361,-0.0363486741934868,NaN,-0.869970972621933,1.43372956583544,-1.01447403136317,-1.43114984674658,-1.43114984674592,0.0576720453418617,-0.0576720453451828,-1.99875955245551
747.52,-0.921524352280729,-0.278494152975977,-1.2829826197471,-0.820543090436235,-0.699010902487372,-0.699010902490191,-0.943961430732338,1.56600518169124,0.180121694518421,0.62787332974097,2.37715231681246,0.627873329743263,0.743907548566883,NaN,1.52815765611517,-0.6688883542035,NaN,-1.39710071343861,0.115030569363385,-1.7217583693794,0.115030569364802,0.955762837628432,-1.20299144709623,-0.594405610466839,-0.896519415221592,1.07091678141605,NaN,1.36369778125524,-1.36369778125563,0.521274145092334,0.342098741734824,0.0759681606467048,0.667464982445246,-0.230138788949071,1.26892247748482,0.450132908135072,-1.24758279730009,1.09336740409769,1.09336740409424,-0.815336148846243,1.72833514320664,-0.0754961327823565,NaN,-0.862817434618542,1.37134360061878,-0.996144879305044,-1.40690096741983,-1.40690096741908,0.067018683539004,-0.0670186835422723,-1.97411004064436
747.6224,-0.959249884247003,-0.252759784434769,-1.31094399469678,-0.823727899536304,-0.682380265470434,-0.682380265473241,-0.968848808190375,1.54545113852593,0.15378542076603,0.590999294170779,2.35570520044247,0.590999294173067,0.659803288048716,NaN,1.4717538946455,-0.711827157606053,NaN,-1.47489375710554,0.0483752994734642,-1.73184332024231,0.0483752994749291,0.982585566494233,-1.26072956549464,-0.635825288219499,-0.896448087141369,1.039414934422,NaN,1.30949181765216,-1.30949181765253,0.505494852532911,0.257655440456548,0.162092948401769,0.636191212611097,-0.220819280158522,1.24477653492779,0.445172980487973,-1.24116539611948,1.11905639856015,1.11905639855669,-0.860944552205247,1.75298076293529,-0.113985473603673,NaN,-0.85631212021469,1.30808303361562,-0.978116523450471,-1.38195817146946,-1.38195817146864,0.0759029511831598,-0.0759029511863575,-1.94894821927636
747.7248,-0.995095326554507,-0.228039883065431,-1.33733460919655,-0.827290760393165,-0.665359661451054,-0.66535966145388,-0.993342337698702,1.52341805763997,0.126958972489917,0.553485378917101,2.33346529456893,0.553485378919372,0.575938938693769,NaN,1.41504922165764,-0.755316889682054,NaN,-1.55308037434789,-0.0188742661159996,-1.7408947656044,-0.0188742661144442,1.00760465243842,-1.31684977207417,-0.676796234657543,-0.895871375612313,1.00587614945886,NaN,1.2538369665805,-1.25383696658084,0.487819793074458,0.173526731531678,0.24650484085509,0.603262225145475,-0.210662235003761,1.21969294796399,0.440367577853063,-1.23372684368081,1.14476537102807,1.14476537102459,-0.905807606245784,1.77756902659991,-0.151681497364651,NaN,-0.85042185967223,1.24409350845538,-0.960382122576576,-1.35636829484065,-1.35636829483976,0.0842907894378618,-0.0842907894409591,-1.92332586015693
747.8272,-1.02904510114319,-0.204323730662428,-1.36212879956786,-0.831162049160308,-0.647989495651191,-0.647989495654031,-1.01739425462079,1.50004481000531,0.0997428709093294,0.515453496975354,2.31042620396739,0.515453496977596,0.492449993683325,NaN,1.3581517063605,-0.799205391973092,NaN,-1.63142680736084,-0.0865010064693848,-1.74889162107139,-0.0865010064677821,1.03084931037443,-1.37130544617482,-0.717250579502543,-0.894805633324867,0.970366783852747,NaN,1.19676084262915,-1.19676084262947,0.468276374164867,0.0898668768116601,0.329034908556572,0.568720392581724,-0.19966316196388,1.1937159720189,0.435741535097361,-1.22528728125565,1.17046933673991,1.17046933673644,-0.949812730534308,1.80211841344553,-0.188451466878342,NaN,-0.845112674065978,1.1795206681813,-0.942932432953116,-1.3301834930591,-1.33018349305815,0.0921502809829381,-0.0921502809859307,-1.8972944587174
747.9296,-1.0610856326108,-0.181596399323571,-1.38530050569202,-0.835271101388551,-0.630310432369659,-0.630310432372532,-1.04095452033777,1.4754701151903,0.0722390234950218,0.477032205287461,2.28658314698184,0.477032205289663,0.40947034293856,NaN,1.30116944968287,-0.843338873340274,NaN,-1.70969696227234,-0.154288458215519,-1.75581552915136,-0.154288458213853,1.05235355399778,-1.42405563822211,-0.757123056205439,-0.893268627720841,0.932961439868341,NaN,1.13829286811754,-1.13829286811784,0.446895243089455,0.00682642124551492,0.409522598525498,0.532612547188004,-0.187819933888664,1.16689321781272,0.431319595885143,-1.21586932531252,1.19614379305516,1.19614379305168,-0.992850455095019,1.82664739288816,-0.224166074127935,NaN,-0.840349902545799,1.11450948247951,-0.925755826466393,-1.30346124293313,-1.30346124293213,0.0994519723864003,-0.0994519723892823,-1.87090494733539
748.032,-1.09120528258282,-0.159838948043414,-1.40682332278408,-0.839546553848028,-0.612363081218113,-0.612363081221027,-1.06397087899556,1.44983193801084,0.0445503841977962,0.438356299777366,2.26193295401833,0.438356299779521,0.327132274427012,NaN,1.24421055133839,-0.887562884490434,NaN,-1.78765376881339,-0.222021930662923,-1.76165091425658,-0.222021930661198,1.07215551260271,-1.47506523798441,-0.796351637857758,-0.891279342298213,0.893742816767683,NaN,1.07846443213204,-1.07846443213231,0.423710173208851,-0.0754481024646612,0.487815709935947,0.494989457252083,-0.175132646426736,1.13927562896453,0.427126505091366,-1.20549796877051,1.22176443207175,1.22176443206827,-1.03481523997872,1.85117428025996,-0.258700411201526,NaN,-0.836098366790277,1.04920353732416,-0.908838311219978,-1.27626435520823,-1.27626435520717,0.106169148144076,-0.106169148146863,-1.84420738278788
748.1344,-1.11939429009549,-0.139028646424636,-1.42667057827219,-0.843916673638692,-0.594187675749164,-0.594187675752125,-1.08638892352072,1.4232669549694,0.0167806427960253,0.399566350875117,2.236474027459,0.399566350877208,0.245566467520476,NaN,1.18738304275845,-0.931723289330251,NaN,-1.86506057649254,-0.289489660259058,-1.7663850568947,-0.289489660257264,1.09029675574632,-1.52430514592112,-0.834878170981303,-0.888857773173592,0.852801495116912,NaN,1.01730904575433,-1.01730904575457,0.398757942143039,-0.156814419834832,0.563770268826094,0.455905257225176,-0.161603489556558,1.11091742483035,0.423187074717358,-1.19420045510581,1.2473068228514,1.24730682284791,-1.07560627989424,1.87571706075834,-0.291934939906752,NaN,-0.832322562849243,0.983744275768786,-0.892163550675511,-1.24866095974735,-1.24866095974617,0.112278067474956,-0.11227806747767,-1.81725060162721
748.2368,-1.14564472000741,-0.119139224194441,-1.44481543531769,-0.848309682101891,-0.575823740626191,-0.575823740629214,-1.10815217594827,1.39591009136071,-0.0109660594394277,0.360808172029666,2.21020627087487,0.360808172031748,0.164901948446917,NaN,1.13079476711198,-0.975667230891029,NaN,-1.94168257437287,-0.356483998769294,-1.77000819415164,-0.35648399876747,1.10682164645063,-1.57175245210262,-0.8726489978182,-0.886024720805788,0.810235648821474,NaN,0.954862479784528,-0.954862479784747,0.372078194148665,-0.237134747729746,0.637250358490471,0.415416842884574,-0.147236639244312,1.08187600265448,0.419526215299201,-1.18200612579123,1.27274608433965,1.27274608433615,-1.11512828787695,1.90029319208431,-0.323756448443283,NaN,-0.828986865069237,0.918270192125224,-0.87571288096487,-1.22072442259442,-1.2207244225932,0.117758187185525,-0.117758187188146,-1.79008184531322
748.3392,-1.16995042453141,-0.100141142094081,-1.46123102611556,-0.852654077719367,-0.557309754553996,-0.557309754557085,-1.1292021873732,1.36789411750169,-0.0385853969806234,0.322232214603577,2.18313100599548,0.322232214605645,0.0852659943477579,NaN,1.07455320271951,-1.0192440872666,NaN,-2.01728820703507,-0.422802615479631,-1.77251363846179,-0.422802615477803,1.12177674126036,-1.61739061141334,-0.909615543078635,-0.88280157504343,0.766150695187895,NaN,0.891162880859422,-0.891162880859625,0.343713289426581,-0.316276043511107,0.708127964387045,0.373583258245767,-0.132038175352767,1.05221180148453,0.416168929532513,-1.16894624664155,1.29805658474351,1.29805658474,-1.15329224288005,1.92491940262508,-0.354058970475317,NaN,-0.826055717310881,0.852916010846359,-0.859465332080647,-1.19253316363487,-1.1925331636336,0.122592380549607,-0.122592380552076,-1.76274637234627
748.4416,-1.192307026593,-0.0820018764297919,-1.47589062025543,-0.856878957439524,-0.538682827358008,-0.538682827361139,-1.14947866861387,1.33934929142709,-0.0659731236717878,0.283992889977841,2.15525090299482,0.283992889979924,0.00678399495561772,NaN,1.01876524678953,-1.0623064039969,NaN,-2.09165054268464,-0.488249666028842,-1.7738978931228,-0.488249666026986,1.13521023340312,-1.66120958293387,-0.945734834563034,-0.879210092919359,0.72065890794976,NaN,0.82625087200147,-0.826250872001643,0.313708152175728,-0.394110283280801,0.776282883213917,0.330465115603144,-0.116016024439493,1.02198813667676,0.413140273406964,-1.15505382706873,1.32321170515707,1.32321170515354,-1.19001607878721,1.94961150202867,-0.382744633816536,NaN,-0.823493785740257,0.787811907318042,-0.843397662100506,-1.16417036319879,-1.16417036319747,0.126767136893573,-0.126767136895957,-1.73528708707352
748.544,-1.21271193200863,-0.0646862102315931,-1.48876783181696,-0.86091432943164,-0.519978411445133,-0.519978411448325,-1.16891966070716,1.31040304486911,-0.093025340216596,0.246247832678871,2.12656993977013,0.246247832680954,-0.0704207027044634,NaN,0.963536987507897,-1.10471078529909,NaN,-2.16454855102615,-0.552636866719265,-1.7741607391696,-0.55263686671741,1.14717142073902,-1.70320590350165,-0.980969939098564,-0.875272172997858,0.673879015673021,NaN,0.760169651254553,-0.760169651254705,0.282110127034159,-0.470514760324044,0.841602715275895,0.286124087875905,-0.0991799153465715,0.991271013558584,0.410465297852731,-1.1403634482063,1.34818368420951,1.34818368420597,-1.22522529636189,1.9743842087464,-0.409724416199517,NaN,-0.82126606550459,0.723082818568291,-0.827484410061338,-1.13572357553179,-1.13572357553043,0.130272709282729,-0.130272709285048,-1.70774420959423
748.6464,-1.2311643659978,-0.048156526345327,-1.49983685675801,-0.864691406408282,-0.50123006096379,-0.501230060967026,-1.18746174597805,1.28117971404557,-0.119638765234681,0.20915712714441,2.09709338688849,0.209157127146458,-0.14622693969476,NaN,0.908973485928569,-1.14631873121839,NaN,-2.23576827118061,-0.615784429243128,-1.77330528208901,-0.615784429241275,1.1577101866719,-1.74338268760534,-1.01529031369984,-0.871009632927393,0.625935788897833,NaN,0.692965107790574,-0.692965107790706,0.248968839989415,-0.54537237208531,0.90398290946297,0.240622487048758,-0.0815413334395679,0.960128922196868,0.40816898216937,-1.12491110870949,1.37294353581103,1.37294353580747,-1.25885348818493,1.99925098624702,-0.434918801123874,NaN,-0.819337954601356,0.658847860022499,-0.811697966977727,-1.10728428434405,-1.10728428434266,0.13310317377973,-0.133103173781921,-1.68015499336696
748.7488,-1.24766541710633,-0.0323730979502369,-1.50907271743706,-0.868142871808143,-0.48246924539061,-0.482469245393917,-1.20504030373429,1.25180031717887,-0.145711011526122,0.172882516692221,2.06682780865919,0.172882516694261,-0.220515868344732,NaN,0.855178572372838,-1.18699741492284,NaN,-2.30510387230944,-0.677521839751118,-1.77133797591236,-0.677521839749291,1.16687648923122,-1.78174955871078,-1.04867208045585,-0.866443995498516,0.576959603116497,NaN,0.624685970568458,-0.624685970568564,0.214336048069424,-0.618571861221834,0.963326804107892,0.194022913986954,-0.0631134700297609,0.928632607942981,0.406276159170842,-1.10873409072882,1.39746102842383,1.39746102842027,-1.29084276721715,2.02422387913021,-0.458258327646857,NaN,-0.817675310740752,0.595219850150391,-0.796008661913896,-1.07894742505728,-1.07894742505583,0.13525637642869,-0.135256376430779,-1.65255348494275
748.8512,-1.26221807361104,-0.017294371762995,-1.51645149333349,-0.871203117479976,-0.463725220107077,-0.463725220110463,-1.22158982370165,1.22238238558002,-0.171140872542865,0.137586599694719,2.03578107771653,0.137586599696755,-0.293171062103461,NaN,0.802254648705936,-1.22662040020278,NaN,-2.37235861840089,-0.737688490888639,-1.7682686590671,-0.737688490886811,1.17471985294382,-1.81832251669017,-1.08109823360403,-0.861596285258624,0.527085962968912,NaN,0.555383983865483,-0.555383983865563,0.178265464822093,-0.690008005541359,1.01954563732347,0.146387954690937,-0.0439111744347626,0.896854810276799,0.404811422963411,-1.09187084663841,1.42170472283783,1.42170472283426,-1.32114408970922,2.04931334770386,-0.479684024585272,NaN,-0.816244495435769,0.532304945978863,-0.780384859873367,-1.05081087836092,-1.05081087835938,0.13673377274681,-0.136733772748786,-1.6249703184033
748.9536,-1.2748272542187,-0.00287724119409897,-1.52195053831914,-0.873808455435951,-0.445024949884284,-0.445024949887731,-1.23704428141779,1.19303985415923,-0.195828618833321,0.103432006506017,2.00396240384313,0.103432006508058,-0.364078634712697,NaN,0.750302483604962,-1.26506830052726,NaN,-2.43734574745629,-0.796134190103239,-1.76411061665216,-0.796134190101405,1.1812888661131,-1.85312374874741,-1.11255878464775,-0.856486834883105,0.476454981368544,NaN,0.485114083103431,-0.485114083103489,0.140812561215362,-0.759581786726021,1.07255855256486,0.0977799058677336,-0.023950914847456,0.864869966808099,0.403799013323254,-1.0743609032055,1.44564206742252,1.44564206741896,-1.34971747421864,2.07452810566794,-0.499147728857368,NaN,-0.815012400623306,0.470202380184742,-0.764793067972859,-1.02297492882593,-1.02297492882431,0.137540193784266,-0.137540193786174,-1.5974325388855
749.056,-1.28549984989236,0.0109226903671538,-1.52554870466843,-0.875897307335879,-0.426393074222772,-0.42639307422628,-1.25133755675457,1.16388300266273,-0.219676296724091,0.0705805481216829,1.97138237343647,0.0705805481237331,-0.433127390719706,NaN,0.699420989858951,-1.3022293758837,NaN,-2.49988926998118,-0.852719567518405,-1.75888064713628,-0.852719567516589,1.18663070080537,-1.88618139508324,-1.14305084541108,-0.851135098375992,0.425210817653296,NaN,0.413934546359291,-0.413934546359318,0.102034352678077,-0.827200572422683,1.12229264145071,0.0482605256225463,-0.00325074562184805,0.832753886401331,0.403262680350625,-1.05624477294198,1.46923954586937,1.46923954586581,-1.37653213158011,2.09987496743063,-0.516612301206091,NaN,-0.813946453057296,0.40900426975693,-0.749198047891524,-0.99554167818528,-0.99554167818363,0.137683588528908,-0.13768358853073,-1.56996345213203
749.1584,-1.29424479206294,0.0241508526041037,-1.52722659433834,-0.877410374426751,-0.407851904127437,-0.407851904130986,-1.26440386373894,1.13501842629236,-0.242588019498124,0.0391923345694162,1.93805299372764,0.0391923345714945,-0.50020901395251,NaN,0.64970698030607,-1.33800005876046,NaN,-2.55982468594443,-0.907316395294463,-1.752599097455,-0.907316395292601,1.19079067864549,-1.91752927572185,-1.1725786400229,-0.845559467683121,0.373501086741274,NaN,0.341907120211395,-0.341907120211398,0.0619891886718207,-0.892778320033779,1.16868303920499,-0.00210918508241269,0.0181697243872285,0.800583399773587,0.403225537382304,-1.03756385911604,1.49246286621528,1.49246286621172,-1.40156652203016,2.1253587074715,-0.532051755990926,NaN,-0.81301459901367,0.348795464817502,-0.733562937303273,-0.968614406961333,-0.968614406959722,0.137174791069248,-0.137174791070989,-1.54258250100891
749.2608,-1.30107314349175,0.0368534514165842,-1.52696683719519,-0.878290788267205,-0.389421445859807,-0.389421445863383,-1.27617816543477,1.10654901318927,-0.264470245515519,0.00942487862016388,1.90398773835238,0.00942487862225132,-0.565218275793418,NaN,0.601254914321312,-1.3722854015829,NaN,-2.61699961582269,-0.959807819483094,-1.74528984330684,-0.959807819481199,1.19381190271314,-1.94720657911644,-1.20115343273617,-0.839777091177577,0.321476250750523,NaN,0.2690971413545,-0.26909714135448,0.020736557412954,-0.956235778555258,1.21167305254986,-0.0532691564087451,0.0402893651207578,0.768435994835214,0.403709907666292,-1.01836034499201,1.5152771689947,1.51527716899115,-1.42480834698617,2.15098192765094,-0.54545131525717,NaN,-0.812185282497719,0.289653428007836,-0.717849387242627,-0.942296897290242,-0.94229689728867,0.136027335943351,-0.136027335944978,-1.5153051750597
749.3632,-1.30599818892275,0.0490772077228117,-1.52475437186239,-0.878484240274627,-0.371119449821674,-0.371119449825268,-1.28659656348069,1.0785739106125,-0.285232045718673,-0.0185677813316549,1.86920159048561,-0.0185677813295942,-0.628053229006868,NaN,0.554156660222053,-1.40499944186685,NaN,-2.67127434256741,-1.01008850402742,-1.73698020664198,-1.01008850402549,1.19573496809157,-1.97525751640572,-1.2287933670835,-0.833803694801798,0.269288993555691,NaN,0.195573679683135,-0.195573679683081,-0.021663095285907,-1.01750064845637,1.25121428289712,-0.105160359600911,0.0630855639821547,0.736389439917969,0.404737169055606,-0.998677064831088,1.53764722330972,1.53764722330616,-1.44625447615724,2.17674492643091,-0.556807390698399,NaN,-0.811427438822183,0.231648152648515,-0.702017721685451,-0.916692753799537,-0.916692753797983,0.134257304555332,-0.134257304556837,-1.48814296158074
