time,S1-D1,S1-D8,S1-D9,S1-D15,S2-D1,S2-D2,S2-D3,S2-D9,S3-D1,S3-D2,S3-D16,S4-D2,S4-D3,S4-D5,S5-D3,S5-D4,S5-D5,S6-D2,S6-D5,S6-D17,S7-D6,S7-D7,S8-D6,S8-D7,S8-D18,S9-D3,S9-D4,S9-D9,S9-D11,S9-D19,S10-D8,S10-D9,S10-D10,S10-D11,S11-D8,S11-D10,S11-D20,S12-D10,S12-D11,S12-D12,S13-D4,S13-D11,S13-D12,S14-D10,S14-D12,S14-D21,S15-D13,S15-D14,S16-D13,S16-D14,S16-D22
1311.0272,0.458314405550144,1.14721245064681,0.890975386951654,1.05246903357012,0.691564256937494,0.691564256937225,-1.79411339472022,-1.83785373224142,-2.01241245827375,1.13992130523177,-1.7973002359698,1.13992130523201,-2.07465806909179,0.614532472398619,-2.3136609202775,-1.26842308175458,-0.332961845982708,-1.22743547369014,-2.10101461465993,0.897205740693147,-2.10101461465986,1.20542708032555,2.10013153877673,1.60851539140068,0.513048931544232,-0.0587704802859173,-0.0587704802849298,0.299071817996334,-0.299071817996296,0.203564558698543,-0.484324402349351,0.137662101011599,-0.666524932445664,-1.5285972997724,-0.905875413035884,-2.04343287946707,1.61403154507777,0.21713445893345,0.217134458930702,1.48838932262801,NaN,0.961096815944832,0.836749785826909,0.168601216706022,1.73974297193767,0.485780864916732,1.38234311908955,1.38234311909092,0.176774673239404,-0.176774673238598,1.95506177934397
1311.1296,0.498225767064879,1.1450443621055,0.932984268752387,1.03957697474193,0.748712723945994,0.748712723945715,-1.79662501882458,-1.82111624496751,-2.00842217528962,1.1655493592481,-1.8624059460866,1.16554935924835,-2.09860995036039,0.61426410379273,-2.34415556874069,-1.2484841030437,-0.339919831289065,-1.21125815326125,-2.10035575179538,0.839523507521097,-2.10035575179532,1.24169459204978,2.11569613668016,1.64138081281741,0.480107440134019,-0.050933945102684,-0.0509339451016654,0.298495268906164,-0.298495268906135,0.219520973468645,-0.50636763743924,0.142650036515394,-0.69867284578677,-1.51065770051707,-0.885840025440002,-2.01422268099059,1.65339815147416,0.213734967783929,0.213734967781165,1.47700700766445,NaN,0.941448819555764,0.824548598868605,0.188926660517087,1.74707370226917,0.47920444001456,1.38130639181234,1.38130639181376,0.197783848388384,-0.197783848387577,1.93088550712187
1311.232,0.539874657891958,1.14089317662486,0.976163627246915,1.02619966476135,0.80555392986947,0.80555392986917,-1.79583147948225,-1.80268895523617,-2.00132244540767,1.19059146399088,-1.92498337920016,1.19059146399114,-2.11948569802695,0.612950949395642,-2.37128836264795,-1.22667166394785,-0.349785745911512,-1.19413718012267,-2.09605359157771,0.781400414658109,-2.09605359157765,1.27814702280355,2.12951151472947,1.67381749562525,0.445207068679969,-0.0437811658551684,-0.043781165854124,0.296613298593302,-0.296613298593282,0.234614190173599,-0.528305703948228,0.148195753241819,-0.729842438231854,-1.49254970939453,-0.865060005818774,-1.98442885541276,1.68941971225658,0.211528224722624,0.211528224719844,1.46479990866526,NaN,0.920644813567803,0.812677114667881,0.208041176193545,1.75325669553346,0.471831070178881,1.37887268846023,1.37887268846168,0.219020226688367,-0.21902022668756,1.90422769098399
1311.3344,0.583193133180615,1.13479743915067,1.02045409620803,1.01233441725908,0.861995788735335,0.861995788735002,-1.79178909455405,-1.78271904469773,-1.99120798730945,1.21495842139144,-1.9848689662683,1.2149584213917,-2.13727416768379,0.610625753162932,-2.39502835230358,-1.20303628441929,-0.362464469815572,-1.17609372977636,-2.08818714338313,0.722967890250648,-2.08818714338306,1.31481413415037,2.14168137512631,1.7058820623301,0.408564562542677,-0.0373259929139422,-0.037325992912867,0.293408603189534,-0.293408603189523,0.24884303006968,-0.550139634182745,0.154279612762256,-0.760063402846178,-1.47439154364956,-0.843561726686355,-1.95418514757675,1.72207464826273,0.210577459749826,0.210577459747031,1.45174138596983,NaN,0.898685104734206,0.801084647078585,0.226004590595141,1.75828708660153,0.463686358368793,1.37505699825079,1.37505699825227,0.240365236700997,-0.240365236700191,1.87511219343423
1311.4368,0.628107658498589,1.12679503872414,1.06579009159077,0.997979124035532,0.917948091919755,0.91794809191939,-1.784563008118,-1.76135267685835,-1.97817987351677,1.23856381687848,-2.04190752296565,1.23856381687874,-2.15197448451026,0.607325066145388,-2.41535564750011,-1.17763583462688,-0.377852256302307,-1.15715339134976,-2.07684673923415,0.664356301593926,-2.07684673923409,1.35172257141065,2.15231451686962,1.73763040973711,0.370401317075387,-0.0315768439997737,-0.0315768439986672,0.288868156476153,-0.288868156476151,0.26220956144928,-0.571872395236462,0.160881387869553,-0.78936971055272,-1.4563014380599,-0.821373694517765,-1.92362650643431,1.75134929448522,0.210937858589642,0.210937858586833,1.43780646038835,NaN,0.87557272346538,0.789722546722295,0.242879307095478,1.76216735389059,0.454799982214201,1.36987717158012,1.36987717158164,0.261697729297847,-0.261697729297042,1.84357092422732
1311.5392,0.674539342338079,1.11692288692709,1.11209994857255,0.983132231850482,0.973322717716372,0.973322717715967,-1.77422692048693,-1.73873432022394,-1.96234508644361,1.26132427919251,-2.09595260293791,1.26132427919277,-2.16359580251146,0.603089060169463,-2.43226120811479,-1.1505354258379,-0.395837429069589,-1.13734624755816,-2.06213359604283,0.605694601521815,-2.06213359604275,1.3888953856278,2.16152420283325,1.76911713626079,0.330942135378794,-0.0265368856578191,-0.0265368856566822,0.282983289562923,-0.282983289562931,0.274719175488451,-0.593508688893881,0.167980268612752,-0.817799245526605,-1.4383971480205,-0.798526611240824,-1.89288861868296,1.77723772191454,0.212656454839942,0.212656454837121,1.42297224130982,NaN,0.851313773798337,0.778544591688635,0.258729747856341,1.76490721827492,0.445205615285135,1.36335389902147,1.36335389902301,0.282894441458141,-0.282894441457338,1.80964374320386
1311.6416,0.722404185959862,1.1052166429403,1.15930609341936,0.967792726569999,1.0280338141118,1.02803381411136,-1.76086279838804,-1.71500609958258,-1.94381606928011,1.28315972707873,-2.14686682811748,1.28315972707898,-2.17215702265776,0.597961331847364,-2.44574658758587,-1.12180723686972,-0.416301052843299,-1.11670688988578,-2.04415932836399,0.547109983328054,-2.04415932836392,1.42635157387893,2.16942750041904,1.80039497467446,0.290413979553219,-0.0222042528173186,-0.0222042528161456,0.275749748117953,-0.275749748117971,0.286380656041772,-0.615054742922382,0.175554876110097,-0.845393414233369,-1.42079544436533,-0.775053439474034,-1.86210743616295,1.79974155709423,0.215772083461249,0.215772083458416,1.40721833801258,NaN,0.825917753180463,0.76750733273722,0.273621800286096,1.76652346656043,0.434940801684644,1.35551068410271,1.35551068410429,0.303830470722416,-0.303830470721615,1.77337832199427
1311.744,0.771613345278947,1.09171048687061,1.20732524507993,0.951960125167146,1.08199795251532,1.08199795251483,-1.74456056664786,-1.69030717345156,-1.92271027203419,1.30399359885692,-2.1945221991212,1.30399359885716,-2.17768647022292,0.591988694699104,-2.45582363078544,-1.09153027693186,-0.439117568577591,-1.09527436742247,-2.02304541285318,0.488727544204271,-2.0230454128531,1.46410565040224,2.17614459959089,1.83151424109648,0.249044735565226,-0.0185723126404228,-0.0185723126392143,0.267167732897974,-0.267167732898003,0.297206225459752,-0.636518094364202,0.183583279628105,-0.872196735599287,-1.40361160010346,-0.750989464810114,-1.83141869346679,1.81886980613259,0.220315381679586,0.220315381676744,1.39052724764537,NaN,0.799397834739334,0.756570390385369,0.28762227280321,1.76703970218971,0.424046786534341,1.34637380276115,1.34637380276275,0.324379763610039,-0.324379763609241,1.734829966321
1311.8464,0.822073399513107,1.07643694484681,1.25606864207189,0.935634483314357,1.13513425056962,1.1351342505691,-1.72541778177408,-1.66477313965299,-1.89914969372118,1.32375306308646,-2.23880038434861,1.3237530630867,-2.18022153282447,0.585220954278265,-2.46251413081953,-1.05979008721203,-0.46415537647119,-1.07309206719263,-1.99892260929002,0.430669955855479,-1.99892260928994,1.50216725916881,2.18179810943354,1.86252230872976,0.207062010125857,-0.0156299702396709,-0.0156299702384234,0.257241936980075,-0.257241936980115,0.307211544023343,-0.65790735753384,0.192043007696049,-0.898256412427549,-1.38695886819472,-0.726372346141122,-1.80095740987411,1.8346386812381,0.226308822045621,0.226308822042779,1.37288471544815,NaN,0.77177110929023,0.745696710009319,0.300798363409295,1.76648603917608,0.41256830873016,1.33597224501022,1.33597224501184,0.344415622562194,-0.3444156225614,1.69406140079998
1311.9488,0.873686623461363,1.05942677315839,1.30544229383847,0.918816425710123,1.1873644642474,1.18736446424683,-1.70353928792754,-1.63853547690589,-1.87326042385729,1.34236920848585,-2.27959298373934,1.34236920848609,-2.17980826316854,0.577710663855767,-2.46584945108458,-1.02667838541355,-0.491277351834819,-1.05020752593862,-1.97193034396505,0.373057140036814,-1.97193034396496,1.54054083259928,2.18651233233898,1.89346310966365,0.164691969804151,-0.0133620022262742,-0.0133620022249896,0.245981589683995,-0.245981589684046,0.316415650541129,-0.679231972350776,0.200911050718244,-0.923621879883646,-1.37094795137431,-0.701242147295648,-1.77085737288713,1.84707141933122,0.233766768968067,0.233766768965228,1.35428005968219,NaN,0.743058780765622,0.734852781707705,0.313217145751593,1.76489875806297,0.40055336128771,1.32433764192302,1.32433764192465,0.363811231932837,-0.36381123193205,1.65114251461708
1312.0512,0.926351264936759,1.04070890866073,1.35534726072728,0.901507199512694,1.23861305295767,1.23861305295708,-1.67903685445346,-1.61172103228703,-1.84517218609802,1.35977720992503,-2.31680176459632,1.35977720992526,-2.17650095317567,0.569512863934313,-2.46587011936038,-0.992292659987602,-0.52034129113006,-1.02667217874663,-1.94221605997273,0.316005946855664,-1.94221605997262,1.57922529574317,2.19041251679462,1.92437666453312,0.122158225579348,-0.0117494004617601,-0.0117494004604394,0.233400503591929,-0.233400503591991,0.324840846020835,-0.700501938796654,0.210163864778612,-0.948344327599844,-1.35568646922109,-0.675641348701535,-1.74125060788408,1.85619808126687,0.242695558884958,0.242695558882121,1.33470645111376,NaN,0.713286303786871,0.724008827055918,0.32494507857536,1.76231993618723,0.388052922522636,1.31150418754266,1.3115041875443,0.382440199750447,-0.382440199749666,1.60615006502585
1312.1536,0.979961833751404,1.02031048807429,1.40567997036225,0.883708745285429,1.28880722426358,1.28880722426296,-1.65202879207703,-1.58445156121904,-1.81501788416752,1.3759164664775,-2.35033887029249,1.37591646647774,-2.17036168765381,0.560684811385804,-2.46262540131324,-0.956735723473464,-0.551200301713434,-1.00254105645252,-1.90993453584518,0.259629836209999,-1.90993453584507,1.6182138123609,2.19362409410169,1.95529863904523,0.0796807623856302,-0.0107697144844955,-0.010769714483138,0.219517109442941,-0.219517109443015,0.332512531296121,-0.721727547930833,0.219777389487074,-0.972476195738037,-1.34127843177601,-0.649614842231255,-1.71226684502069,1.86205532683554,0.25309360920008,0.253093609197252,1.31416113892942,NaN,0.682483452117319,0.713138951832691,0.336047544220334,1.7587970587167,0.375120658954698,1.29750856446743,1.29750856446908,0.400177114512591,-0.400177114511817,1.55916734045924
1312.256,1.03440940967463,0.998256934555567,1.4563325777948,0.86542377800731,1.337876963443,1.33787696344235,-1.62263954605713,-1.55684332322093,-1.78293314992129,1.39073070930813,-2.38012700350846,1.39073070930836,-2.16145988488166,0.551285701561541,-2.45617286102009,-0.920115234257595,-0.583703160404674,-0.977872446635468,-1.87524717073551,0.204038567189335,-1.8752471707354,1.65749356975119,2.19627190690012,1.98625992752181,0.0374749117681912,-0.0103973900440306,-0.0103973900426335,0.204354463487862,-0.204354463487948,0.339459010571086,-0.742919115518224,0.229727082974339,-0.996070651376621,-1.32782372989754,-0.623209912771661,-1.68403299560993,1.86468616845665,0.264951560745696,0.264951560742878,1.29264562050017,NaN,0.650684313060685,0.702221262965551,0.346588420569572,1.75438261365029,0.361812597242246,1.28238987478262,1.28238987478426,0.41689811937566,-0.416898119374892,1.51028379073845
1312.3584,1.08958197199109,0.974572107845287,1.50719337096082,0.846655872067906,1.38575504825509,1.38575504825442,-1.59099926905228,-1.52900673601266,-1.74905589655089,1.40416808176501,-2.40609958273569,1.40416808176524,-2.14987182945221,0.541376382325182,-2.44657791583352,-0.88254319196332,-0.617694664666072,-0.95272752897485,-1.83832123588033,0.149337903087643,-1.83832123588021,1.69704560354445,2.1984794378567,2.01728626711923,-0.00424963165399036,-0.0106041071617194,-0.0106041071602793,0.187940220527262,-0.187940220527359,0.345711267545876,-0.764086719214007,0.239987965459281,-1.01918105906654,-1.31541764924009,-0.596476206828792,-1.65667264508931,1.86413971003776,0.278252454851833,0.278252454849027,1.2701657581648,NaN,0.61792721273162,0.691237947284711,0.356629688861321,1.74913366992562,0.348186761160159,1.26618957251247,1.26618957251412,0.432481501931171,-0.432481501930413,1.45959463102326
1312.4608,1.14536474518828,0.949278513125488,1.55814721388505,0.827409548162183,1.43237704663801,1.43237704663732,-1.55724337869822,-1.50104608973039,-1.71352588135185,1.41618119753504,-2.42820086788991,1.41618119753527,-2.13568020008167,0.53101905517154,-2.43391339150188,-0.84413540770449,-0.65301598562391,-0.927169988441478,-1.79932909946232,0.0956293378617048,-1.7993290994622,1.73684466804899,2.20036804743225,2.04839788991325,-0.0452897420573765,-0.0113591232768862,-0.011359123275405,0.170306576912949,-0.170306576913059,0.35130271329877,-0.785239938091305,0.250534658142384,-1.04186046218604,-1.3041504091708,-0.569465684772649,-1.63030556201321,1.86047087771917,0.292971939905649,0.292971939902857,1.24673185020785,NaN,0.584254586053423,0.680175310272182,0.36623107720635,1.74311143516249,0.334302773590366,1.2489513932271,1.24895139322874,0.446808292320703,-0.446808292319954,1.40720042047104
1312.5632,1.20164054995376,0.92239756355441,1.60907601428572,0.807690363852837,1.47768129721514,1.47768129721443,-1.52151210122324,-1.47305931948344,-1.67648427844002,1.42672718205714,-2.44638605136207,1.42672718205736,-2.11897359215145,0.520276958410938,-2.41825907982922,-0.805010951169993,-0.689505017216247,-0.901265606632947,-1.75844743837367,0.0430098451602698,-1.75844743837356,1.77685915625461,2.20205622965604,2.0796092189058,-0.0854497293263471,-0.0126296250037252,-0.0126296250022059,0.151490195301136,-0.151490195301259,0.356268901422516,-0.806387591652188,0.261341407857645,-1.06416108357716,-1.29410672372115,-0.542232551945753,-1.60504721748969,1.8537401479461,0.309078496499711,0.309078496496932,1.2223586637308,NaN,0.549712807555521,0.669023775150995,0.375449739017692,1.73638079252124,0.320221430796157,1.23072127880321,1.23072127880485,0.459762862960596,-0.459762862959854,1.35320661230921
1312.6656,1.25829015020389,0.893949891500012,1.65985920390244,0.787505009277188,1.52160887591412,1.52160887591338,-1.48394999749734,-1.44513783175373,-1.63807325708922,1.4357676987955,-2.46062131352758,1.43576769879571,-2.09984603428776,0.509214033115599,-2.3997012976364,-0.765291581446425,-0.726996713953401,-0.875081835552571,-1.71585644981787,-0.00842835159359395,-1.71585644981775,1.81705106772502,2.20365889331776,2.11092860901505,-0.124542129815032,-0.0143810868264523,-0.014381086824895,0.131532119486228,-0.131532119486365,0.360647209037247,-0.827537476836471,0.272382098715763,-1.08613384107166,-1.28536538180737,-0.514833166426474,-1.58100831104766,1.8440132750255,0.326533671575886,0.326533671573133,1.19706543392504,NaN,0.514351992592348,0.657777844041797,0.384339967649727,1.72900982162938,0.30600426229864,1.21154729871599,1.21154729871762,0.471233523400363,-0.471233523399627,1.2977230722563
1312.768,1.31519259306901,0.863955700115348,1.71037422533931,0.766861407207012,1.56410355343356,1.5641035534328,-1.44470546723833,-1.4173663808006,-1.59843556108444,1.44326895890672,-2.4708838439486,1.44326895890693,-2.07839650050258,0.497894579913794,-2.37833244479914,-0.725101173445281,-0.765323420818825,-0.848687365420188,-1.67173906815382,-0.0585979889417701,-1.67173906815371,1.85737601906669,2.20528667340928,2.142358130554,-0.162388416075539,-0.0165776318870586,-0.0165776318854663,0.110477672798626,-0.110477672798776,0.364476488353833,-0.848696108795109,0.283630264105179,-1.10782786920815,-1.2779988474556,-0.487325926518328,-1.55829430538299,1.83136101697355,0.345292320237004,0.34529232023427,1.17087583128766,NaN,0.47822577046973,0.646436023309511,0.392952949119709,1.72106931006392,0.291713089372945,1.19147957020011,1.19147957020173,0.481113101653981,-0.481113101653253,1.24086356996476
1312.8704,1.37222554458486,0.832435140196397,1.76049702312039,0.745768816519509,1.60511174869235,1.60511174869158,-1.40393022823273,-1.3898229925906,-1.55771408582694,1.44920171312631,-2.47716183076396,1.44920171312651,-2.05472841971044,0.486382916770967,-2.35425055845331,-0.684565152743234,-0.804315211272898,-0.822151702131428,-1.62628018047549,-0.107416953059949,-1.62628018047538,1.89778329218122,2.20704527336697,2.17389339170459,-0.198819625499157,-0.0191823916549252,-0.0191823916532961,0.0883763210565005,-0.0883763210566651,0.367796696015225,-0.86986847707648,0.295059115266059,-1.1292900448663,-1.27207288380999,-0.459771144196799,-1.53700497725433,1.81585885869133,0.365302859445231,0.365302859442523,1.14381789818538,NaN,0.441391028100769,0.635000715960034,0.401336552016383,1.71263225922412,0.277409588076921,1.17057017550645,1.17057017550806,0.489299508679334,-0.489299508678613,1.18274526192133
1312.9728,1.42926562696817,0.799408693617082,1.81010253873512,0.724237938590336,1.64458248430095,1.64458248430018,-1.36177876670417,-1.36257893374167,-1.51605144936436,1.45354122806372,-2.47945442111317,1.45354122806391,-2.02894918103573,0.474743043623817,-2.32755885834347,-0.643809946512708,-0.843800251541756,-0.795544765928105,-1.57966582469198,-0.154808449708307,-1.57966582469187,1.93821591654118,2.20903483241328,2.20552339524714,-0.233676910685812,-0.0221578636002594,-0.0221578635985994,0.0652814851700554,-0.0652814851702348,0.370648504734154,-0.891057824966309,0.306641591865739,-1.15056452289205,-1.26764620512404,-0.432230908292845,-1.51723399086048,1.79758673460962,0.386507535496438,0.386507535493757,1.11592395615522,NaN,0.403907623641346,0.623478084717343,0.409535151682265,1.70377338691132,0.26315485622348,1.14887307020842,1.14887307021,0.495696294375066,-0.495696294374353,1.12348819105298
1313.0752,1.48618876265051,0.76489754857772,1.85906521007167,0.702281025032035,1.68246734998146,1.68246734998067,-1.31840775658681,-1.33569872382583,-1.473589555057,1.45626725215041,-2.47777165355403,1.45626725215059,-2.00116963085323,0.463038314171726,-2.29836527801656,-0.60296244962489,-0.883605199918489,-0.768936512684733,-1.53208235485406,-0.200701153878784,-1.53208235485395,1.9786107821555,2.21134930867771,2.23723042395121,-0.266812016060117,-0.0254662647086848,-0.025466264706989,0.0412503049620445,-0.0412503049622389,0.373072897571429,-0.912265450663964,0.318350424680606,-1.17169229340526,-1.26477015913754,-0.404768935287631,-1.49906849493792,1.7766287542078,0.408842702447555,0.40884270244489,1.08723048417679,NaN,0.365838071537756,0.611877888735302,0.417589487432495,1.69456863012883,0.249008982039664,1.1264439774635,1.12644397746506,0.500213206514334,-0.500213206513628,1.06321481975857
1313.1776,1.54287052506146,0.72892395993103,1.90725947288022,0.679911983544368,1.71872047666473,1.71872047666394,-1.27397545403313,-1.30924019385163,-1.4304691516884,1.45736397616089,-2.47213435997212,1.45736397616105,-1.97150356074546,0.451331113495552,-2.26678198150905,-0.562149500012767,-0.923555638027826,-0.742396571706995,-1.48371557167767,-0.24502933628083,-1.48371557167756,2.0188987821099,2.21407587438377,2.26898995256278,-0.298087684201174,-0.0290698753145977,-0.029069875312867,0.0163433662247639,-0.0163433662249716,0.375110744284406,-0.933490526847515,0.330158194777586,-1.19271077679299,-1.26348843999164,-0.377450402102205,-1.48258874060918,1.75307293073884,0.432239107380223,0.432239107377576,1.05777796904307,NaN,0.327247205444291,0.600213293380219,0.425536555410868,1.6850946508246,0.235030611449007,1.10334026646422,1.10334026646577,0.502766755413972,-0.502766755413274,1.00204959955763
1313.28,1.59918649091286,0.691511592411533,1.95456025788524,0.657146477405594,1.753298519487,1.75329851948622,-1.22864108178292,-1.28325459875235,-1.38682940490356,1.45681998931937,-2.46257403371298,1.45681998931952,-1.94006719229111,0.439682542967799,-2.23292487227117,-0.521497359234274,-0.963476523086863,-0.715993893581743,-1.43474983299438,-0.287732963386586,-1.43474983299428,2.05900498789802,2.217294330381,2.30077059122572,-0.327377991086607,-0.0329313667046676,-0.032931366702906,-0.0093756021434239,0.00937560214320347,0.37680236141699,-0.954729942201216,0.342037381593408,-1.21365347352998,-1.26383683172027,-0.350341756884336,-1.46786771779824,1.72701090967942,0.45662217966365,0.456622179661015,1.02761073216899,NaN,0.288201831387803,0.588500648548389,0.433409542524148,1.67542834426666,0.221276512210829,1.07962081562708,1.07962081562859,0.503280778903222,-0.503280778902532,0.940118574317705
1313.3824,1.65501258899447,0.652685843949692,2.00084347721776,0.634002013576248,1.78616064708204,1.78616064708126,-1.1825642166848,-1.25778679109736,-1.34280749262803,1.45462822758134,-2.44913266417883,1.45462822758148,-1.90697866787717,0.4281521172408,-2.19691310351945,-0.481131199154526,-1.0031926464895,-0.68979640515455,-1.38536716776215,-0.328757770056136,-1.38536716776206,2.09884886310081,2.22107655147903,2.33253406833202,-0.354568605804997,-0.0370141085228715,-0.037014108521077,-0.0358400645061989,0.0358400645059654,0.378187060410611,-0.975978173934142,0.353960404138122,-1.23454967889692,-1.26584298527865,-0.323510507577334,-1.45497081307538,1.69853769374047,0.481912322465352,0.481912322462723,0.996776738775744,NaN,0.248770383595845,0.576759231846635,0.441237806441743,1.66564635063602,0.207801140982479,1.05534586374343,1.05534586374493,0.501686999346036,-0.501686999345357,0.877549012689953
1313.4848,1.71022544429863,0.612474146343474,2.04598649794971,0.610498014134557,1.81726853985789,1.81726853985712,-1.13590418668085,-1.23287545667187,-1.29853822949463,1.45078590942116,-2.43186254143821,1.4507859094213,-1.87235755446646,0.416797479017809,-2.15886859587135,-0.441174600318409,-1.04252908831656,-0.663870673993453,-1.33574641568351,-0.368055306033681,-1.33574641568343,2.13834451761705,2.22548597074432,2.36423525715001,-0.379556971515678,-0.0412824554280678,-0.041282455426241,-0.0629810508955548,0.0629810508953094,0.379302692105271,-0.997227196466188,0.365899665042456,-1.25542425801981,-1.26952623512935,-0.297024991268563,-1.44395549666288,1.66775136468757,0.508025205552047,0.508025205549422,0.965327394465291,NaN,0.209022590140856,0.565010958120332,0.449046903334972,1.65582457489696,0.194656227238228,1.03057685506497,1.03057685506645,0.497925561416075,-0.497925561415407,0.814469061523795
1313.5872,1.76470271857216,0.570906244326875,2.08986860426992,0.586655865150809,1.84658640797978,1.84658640797903,-1.08881947930577,-1.2085534046914,-1.2541537192881,1.44529445669247,-2.41082603417715,1.44529445669259,-1.83632436286341,0.405674136113708,-2.11891556316934,-0.401749071129209,-1.0813116697176,-0.638281591045766,-1.28606240837312,-0.405582958267349,-1.28606240837304,2.17740099815389,2.23057711009615,2.39582224533498,-0.40225240899133,-0.0457020141798343,-0.0457020141779751,-0.0907275536422441,0.0907275536419867,0.380185202661679,-1.01846642299055,0.377827606261341,-1.27629746287516,-1.2748974612812,-0.270954129601406,-1.43487104747762,1.63475280490397,0.534872059621571,0.534872059618953,0.933317333192295,NaN,0.169029152026224,0.553280060506797,0.456858661593506,1.64603772168364,0.181890387876284,1.00537628343661,1.00537628343808,0.49194553420822,-0.491945534207565,0.751007406736323
1313.6896,1.81832344853615,0.528014457355416,2.13237145113663,0.562498937478716,1.87408104329972,1.87408104329898,-1.04146716204894,-1.18484789966252,-1.20978303109355,1.43815940206917,-2.38609534245224,1.43815940206928,-1.79900008009315,0.394835222865261,-2.07718004241267,-0.362973597526733,-1.11936741555523,-0.613092083385734,-1.23648519962332,-0.441303950542115,-1.23648519962324,2.215922608143,2.23639516897462,2.42723644592466,-0.4225761467469,-0.0502398926879627,-0.0502398926860727,-0.119006923450232,0.119006923449963,0.380868220860419,-1.03968267158214,0.389716781438848,-1.29718476933795,-1.28195899939552,-0.245367175768908,-1.42775832191226,1.59964542303194,0.562359973811128,0.562359973808513,0.900804199749547,NaN,0.128861439118476,0.541592748653476,0.464691297540836,1.63635884958821,0.169548781061692,0.979807533925312,0.979807533926756,0.483705358287475,-0.483705358286832,0.68729292817206
1313.792,1.87096838144848,0.483833929295619,2.17337951086642,0.538052578868281,1.89972191219422,1.8997219121935,-0.994002313015107,-1.16178101926887,-1.16555189245242,1.42939028839736,-2.35775222473549,1.42939028839746,-1.76050570791009,0.384331285046296,-2.03378941938028,-0.324964229075016,-1.15652503995417,-0.588362865608011,-1.18717934053565,-0.475187320586583,-1.18717934053556,2.25380925457117,2.24297568721662,2.4584127531573,-0.440461281949968,-0.0548649325096046,-0.0548649325076872,-0.147745240560738,0.147745240560457,0.381382694240733,-1.06086014878163,0.401539944637949,-1.31809672211248,-1.29070459740474,-0.220333456280284,-1.4226495665628,1.56253488803306,0.59039219945806,0.590392199455453,0.867848426864242,NaN,0.088591204392305,0.529976849656495,0.472559567086046,1.62685894609377,0.15767280274824,0.953934712063984,0.953934712065408,0.473173221716456,-0.473173221715825,0.623454341785064
1313.8944,1.92252030405058,0.438402872433611,2.21278051065404,0.513344086334041,1.92348128150208,1.92348128150138,-0.94657745970049,-1.13937002346069,-1.1215823926401,1.4190005651846,-2.32588769645604,1.41900056518469,-1.72096180075741,0.374210086172326,-1.98887194256667,-0.287833702854103,-1.19261545953505,-0.564152232344915,-1.13830318721602,-0.507207872864183,-1.13830318721592,2.29095682437121,2.25034429605852,2.48927974967883,-0.455852678841711,-0.0595479253917227,-0.0595479253897827,-0.176867647870818,0.176867647870525,0.381756580955847,-1.08198044927452,0.413270150776183,-1.33903879169793,-1.30111941411876,-0.195922108811033,-1.41956827107376,1.52352887246315,0.618868464450073,0.618868464447474,0.83451300164751,NaN,0.0482903113928837,0.518461437378704,0.480474945929067,1.61760652268607,0.146299824763418,0.927822450218127,0.927822450219531,0.460327360349941,-0.460327360349321,0.559619828406138
1313.9968,1.97286435914752,0.391762813020454,2.25046585737726,0.488402673252406,1.94533436060896,1.94533436060828,-0.899342025685344,-1.11762772435342,-1.07799269224966,1.40700748152782,-2.29060169677199,1.4070074815279,-1.68048800409176,0.36451643463207,-1.94255622687914,-0.251691106207327,-1.22747233187165,-0.540515892225053,-1.09000823448063,-0.537346103785672,-1.09000823448051,2.32725759170922,2.25851655963572,2.51975996693573,-0.46870681696564,-0.0642618128047593,-0.0642618128027919,-0.206298645651102,0.206298645650799,0.382014593631112,-1.10302257575087,0.424880862420031,-1.36001125824328,-1.31318005425962,-0.172201818457017,-1.41852905679072,1.48273680053181,0.647685303546268,0.647685303543672,0.800863211984803,NaN,0.00803046297773834,0.507076453465824,0.488445833117716,1.60866722861911,0.135462967838205,0.90153568980367,0.901535689805053,0.445156289692318,-0.44515628969171,0.495916648668616
1314.0992,2.02188834800954,0.34395884149589,2.28633104884032,0.463259439552861,1.96525944639422,1.96525944639355,-0.85244178744057,-1.0965628535726,-1.03489673956754,1.39343196988935,-2.25200272374251,1.39343196988942,-1.63920260284716,0.355292032665535,-1.89497075895976,-0.216641580715521,-1.26093261450845,-0.517506844216617,-1.04243848475591,-0.565588096497308,-1.04243848475578,2.36260065234474,2.26749789692637,2.54977019254557,-0.478991602572413,-0.0689818671658859,-0.0689818671638974,-0.235962356020273,0.235962356019959,0.38217799059454,-1.12396298432487,0.436346059307359,-1.38100913701286,-1.3268546355926,-0.149240555270034,-1.41953759845663,1.44026959684303,0.676736409633271,0.676736409630681,0.766966364643563,NaN,-0.0321170807464762,0.495852319500334,0.496477776322732,1.60010347998647,0.125190900663966,0.875139447167683,0.875139447169043,0.427658975520378,-0.427658975519781,0.432470744863433
1314.2016,2.06948302227228,0.295039861786373,2.3202760734426,0.437947341691036,1.98323806843114,1.98323806843048,-0.806018344435298,-1.07618043037452,-0.992403997338736,1.3782985184371,-2.21020744295512,1.37829851843716,-1.5972220917496,0.346575346376595,-1.84624341939257,-0.182786066558006,-1.29283713835592,-0.495175294017979,-0.995729871323422,-0.591925385365344,-0.995729871323294,2.39687238042798,2.27728357281004,2.57922181739868,-0.486686148294586,-0.0736858557813215,-0.0736858557793128,-0.265782766579054,0.265782766578731,0.382264416377149,-1.1447756578847,0.447640347704451,-1.4020221537851,-1.34210288739452,-0.127105312793255,-1.42259057803057,1.39623943924016,0.705913005314956,0.705913005312376,0.73289147415722,NaN,-0.0720817994442101,0.484819540734069,0.504573716350159,1.59197410132792,0.115507664278065,0.84869857220258,0.848698572203914,0.407844937553766,-0.407844937553179,0.369406335583531
1314.304,2.11554237033305,0.245058826753307,2.35220579912212,0.412501153779393,1.99925514012977,1.99925514012911,-0.760208605553392,-1.05648213635179,-0.950619184257155,1.36163503599853,-2.16534027680953,1.36163503599859,-1.55466077325488,0.338401492064056,-1.79650103153562,-0.150221080856644,-1.32303118687893,-0.473568602533509,-0.950009750862845,-0.616354794058894,-0.950009750862708,2.42995690664607,2.28785875366384,2.60802122016434,-0.491780515539199,-0.0783541908288312,-0.078354190826799,-0.295683956410035,0.295683956409699,0.382287796295731,-1.16543220442187,0.458739064743881,-1.42303477181822,-1.35887628241669,-0.105861844373866,-1.42767567101023,1.35075952513107,0.735104225323678,0.735104225321105,0.698708930288162,NaN,-0.111794218716859,0.474008308322571,0.512734244515917,1.58433398301361,0.106432533421822,0.822277504408795,0.822277504410108,0.385734272793438,-0.385734272792859,0.306845510059264
1314.4064,2.15996390066566,0.1940729462003,2.38203034943195,0.386957415063928,2.01329912173908,2.01329912173842,-0.715144293799665,-1.03746669910308,-0.909642033526292,1.34347271464206,-2.11753297962012,1.34347271464211,-1.51163038103069,0.330802132661807,-1.74586893753338,-0.119038522747805,-1.35136507354788,-0.452731257975522,-0.905396467627481,-0.638878252359056,-0.905396467627348,2.461736618231,2.29919862642751,2.63607018924604,-0.494275411442028,-0.0829700684443397,-0.0829700684422814,-0.325590301185418,0.325590301185071,0.382258285446334,-1.18590197269027,0.46961836976363,-1.44402626809018,-1.37711820435388,-0.0855743952386257,-1.43477156616462,1.30394385774821,0.764197497322091,0.764197497319518,0.664490155620918,NaN,-0.1511862146332,0.463448110408837,0.520957866312033,1.57723376349824,0.097979928467979,0.79594002604072,0.795940026042012,0.361357594850772,-0.361357594850202,0.244907824994135
1314.5088,2.20264892063104,0.142143859132497,2.40966546232925,0.361354365812088,2.02536219480194,2.02536219480129,-0.670951470250661,-1.01913028143523,-0.869567068006698,1.32384589199027,-2.06692419964707,1.32384589199032,-1.46823972280652,0.323805381328182,-1.69447059520251,-0.0893255014042624,-1.3776947134232,-0.432704867134161,-0.861998980421728,-0.659502594885321,-0.861998980421588,2.49209267940778,2.31126858028559,2.66326638081864,-0.49418183912141,-0.0875195979604906,-0.0875195979584056,-0.355426656097209,0.355426656096849,0.382182267861012,-1.20615217796645,0.480255316206027,-1.46497085508735,-1.39676415319077,-0.0663054307761468,-1.4438480213122,1.25590705013233,0.793078914062158,0.793078914059599,0.630307262607914,NaN,-0.190191306729535,0.453167358184323,0.529241268658424,1.57071954353028,0.0901593850674278,0.769749010006665,0.769749010007941,0.334755899668344,-0.334755899667783,0.183709905076239
1314.6112,2.24350280710141,0.0893377682471516,2.43503282702732,0.335731876744112,2.03544044179833,2.03544044179768,-0.627750078996146,-1.00146687044137,-0.8304833912842,1.30279191298471,-2.01365902698148,1.30279191298475,-1.4245943382612,0.317435715216789,-1.64242718874477,-0.0611641858485097,-1.40188218715767,-0.413528164333234,-0.819916540065313,-0.678239342723317,-0.819916540065179,2.52090556760008,2.32402445198885,2.68950380969275,-0.491520709957788,-0.091991919441986,-0.0919919194398803,-0.385118524411479,0.385118524411108,0.382062403225178,-1.22614803716053,0.490627906441286,-1.48583784345217,-1.4177419935578,-0.0481153628005654,-1.45486596130092,1.20676413747987,0.821633596762482,0.821633596759932,0.596232714785223,NaN,-0.228744933770991,0.44319302631957,0.537579590605604,1.56483263103521,0.0829755828482724,0.743766163371557,0.743766163372811,0.305980370475577,-0.305980370475026,0.123365049406504
1314.7136,2.28243526680677,0.0357255369773444,2.45806039678184,0.310131374620824,2.04353402330155,2.0435340233009,-0.585653518519036,-0.984468663276972,-0.79247449768174,1.28035098952412,-1.95788852737874,1.28035098952416,-1.38079617489424,0.311713905499851,-1.58985725390143,-0.0346316753376091,-1.42379629809447,-0.395237037146774,-0.779238411073732,-0.695104468634649,-0.779238411073596,2.54805561795856,2.33741283703987,2.71467336803508,-0.486322432917047,-0.0963793050924824,-0.0963793050903497,-0.414592225332538,0.414592225332155,0.381897722683596,-1.24585291725659,0.500715137955422,-1.50659184059809,-1.43997225151084,-0.0310622780820784,-1.46777762602656,1.15663038789514,0.849746053847835,0.849746053845296,0.562338992349676,NaN,-0.266784713046928,0.433550304758102,0.545966696101082,1.55960930930069,0.0764284269937761,0.718051771893455,0.718051771894693,0.275092127353263,-0.275092127352721,0.0639828472044089
1314.816,2.31936058724431,-0.0186172541187972,2.478682677394,0.284595763325685,2.04964734671733,2.0496473467167,-0.544768249398378,-0.968126447809986,-0.75561810808963,1.25656605753163,-1.89976926451729,1.25656605753166,-1.3369432917761,0.306656965212145,-1.53687632928463,-0.00979988628142944,-1.4433131223317,-0.377864565206622,-0.740043643251691,-0.710118147950526,-0.740043643251573,2.57342356909921,2.35137146674484,2.73866336649526,-0.478626493946782,-0.10067724175639,-0.100677241754246,-0.443775070288283,0.44377507028789,0.38168377490255,-1.26522849646342,0.510497042504208,-1.5271929819183,-1.46336846114596,-0.0152016756925123,-1.48252677355195,1.10562110925791,0.877300538938777,0.877300538936244,0.528698260739125,NaN,-0.304250688359646,0.424262262591653,0.554395443801483,1.55508062254718,0.0705131682693395,0.692664450027027,0.692664450028249,0.242161919048469,-0.242161919047936,0.0056688095134551
1314.9184,2.3541978783807,-0.073610299481737,2.49684098893782,0.259169340450372,2.05378922231876,2.05378922231815,-0.505193447894119,-0.952429972113454,-0.719986036757761,1.23148263485842,-1.83946281389673,1.23148263485845,-1.29312960023829,0.302278107772988,-1.48359664903974,0.0132645537153569,-1.46031654302224,-0.361441061394629,-0.702400907866726,-0.723304499478087,-0.702400907866611,2.59689110752458,2.36582964857449,2.76136009496897,-0.46848102924554,-0.104884497069198,-0.104884497067033,-0.472595546813459,0.472595546813056,0.381412818859142,-1.2842349293665,0.519954708581067,-1.54759719278242,-1.48783755873258,-0.000586216283340783,-1.49904893772633,1.05385145951231,0.904181406110567,0.90418140610804,0.49538204424375,NaN,-0.341085568556606,0.415349530868357,0.562857945553566,1.5512721791261,0.0652205473426469,0.667660894489055,0.66766089449025,0.20726975410901,-0.207269754108487,-0.0514759747813217
1315.0208,2.38687130120358,-0.129168614494291,2.51248369463562,0.233897712394804,2.05597300125669,2.05597300125609,-0.467020708792537,-0.93736829208984,-0.685644087843673,1.20514868494468,-1.77713526976248,1.20514868494471,-1.24944464465413,0.298586705355342,-1.4301268863973,0.0345004176620914,-1.47469875075456,-0.34599409909302,-0.666368413196887,-0.734691322521189,-0.66636841319679,2.61834141361788,2.38070876616782,2.78264840401617,-0.455942389206472,-0.109003172666546,-0.109003172664367,-0.500983505161665,0.500983505161254,0.381074055993636,-1.30283100718776,0.529070276965281,-1.56775648001273,-1.51328032045827,0.0127345194345112,-1.51727173485154,1.001436267527,0.930273455280322,0.930273455277802,0.462460909687689,NaN,-0.377234952878862,0.406830013749494,0.571345805137476,1.54820397713423,0.0605369569061826,0.643095636466705,0.643095636467883,0.170504473883162,-0.170504473882649,-0.107355158431249
1315.1232,2.41731027640177,-0.185202631314827,2.5255663910513,0.208827711150278,2.0562166891737,2.05621668917312,-0.430333795539334,-0.922930088798116,-0.652651977244475,1.17761448762265,-1.71295674433207,1.1776144876227,-1.20597342400579,0.29558824227023,-1.37657195147913,0.053852005741614,-1.4863606939192,-0.331548513362738,-0.631993908440501,-0.74430983537327,-0.63199390844042,2.63765971297552,2.39592283417056,2.80241230825174,-0.441074692432509,-0.113038740747037,-0.113038740744837,-0.528870347695014,0.528870347694594,0.380653895197199,-1.32097431131528,0.537826908398228,-1.58761925092001,-1.53959183851607,0.0247142643666181,-1.53711521333257,0.94848986114084,0.955462263201701,0.955462263199188,0.430004162853581,NaN,-0.41264753993441,0.398718633621815,0.579850333009387,1.54589025636298,0.0564446198227725,0.619020791663804,0.619020791664968,0.131963271386051,-0.131963271385548,-0.161877441645161
1315.2256,2.44544966869412,-0.241618334856098,2.53605205819735,0.184007310616411,2.05454303347541,2.05454303347483,-0.395208434066868,-0.909103953073811,-0.621063276129992,1.1489325152335,-1.64710085916877,1.14893251523356,-1.16279625522339,0.293284269638741,-1.32303284138493,0.0712692861527159,-1.49521247641437,-0.318126375794159,-0.599314776311516,-0.752194416358217,-0.599314776311442,2.6547338323958,2.41137910352567,2.8205356097567,-0.423949376036057,-0.117000052675205,-0.117000052672992,-0.556189228471044,0.556189228470617,0.380136248864612,-1.33862136456421,0.546208731567168,-1.60713065623529,-1.56666202986816,0.0353102851338172,-1.55849224379212,0.895125891039157,0.979634501636429,0.97963450163392,0.398079556682541,NaN,-0.447275320033033,0.391027109689017,0.588362737240667,1.54433937601245,0.0529217819371898,0.595485812237323,0.595485812238475,0.091751155357896,-0.0917511553574046,-0.214956874997016
1315.328,2.47122994782769,-0.298317431504441,2.54391117323057,0.159485533379961,2.05097958979272,2.05097958979216,-0.361712143790665,-0.895878636269009,-0.590925370801203,1.1191573139621,-1.57974423077298,1.11915731396218,-1.11998867627033,0.291672375113418,-1.26960653292057,0.086708043950643,-1.50117371107906,-0.305746950835072,-0.568358202075476,-0.758382343664635,-0.568358202075408,2.66945475627771,2.4269787143714,2.83690253732869,-0.404644750881363,-0.120899307762058,-0.120899307759828,-0.582875271995502,0.582875271995068,0.379502860799114,-1.35572778859998,0.554200784731308,-1.62623295302472,-1.59437617483205,0.0444835813299097,-1.5813089508133,0.841457140924657,1.00267824710831,1.0026782471058,0.366753008970361,NaN,-0.481073750634896,0.38376376730686,0.596874291492177,1.54355371447748,0.0499429226054321,0.57253724484049,0.572537244841642,0.0499803577613084,-0.0499803577608278,-0.266513159239888
1315.4304,2.49459733194808,-0.35519754873572,2.54912179448971,0.135312337125624,2.04555877436635,2.0455587743658,-0.329904095027289,-0.883243263922214,-0.562279429574973,1.08834539460186,-1.51106595317713,1.08834539460197,-1.0776213814294,0.290746179997176,-1.21638590205963,0.100130032134329,-1.50417383699981,-0.294426640858203,-0.539141394684584,-0.762913530749167,-0.539141394684513,2.68171718243151,2.442617389841,2.85139839862007,-0.383245568536443,-0.124751975768087,-0.12475197576584,-0.608865812602392,0.60886581260195,0.378733663711797,-1.37224847849451,0.561788965678189,-1.64486588627426,-1.62261548721673,0.0521990639384679,-1.60546518805012,0.787595319488389,1.02448328932818,1.02448328932567,0.33608832610766,NaN,-0.514001914436178,0.376933376417768,0.605376478695455,1.54352958635641,0.047478995091969,0.550218495062162,0.550218495063313,0.00676968883855584,-0.00676968883808696,-0.316471929524444
1315.5328,2.51550392057046,-0.412152468678249,2.55166962255722,0.111538474568025,2.03831790231203,2.0383179023115,-0.299834983930337,-0.871187510997872,-0.535160369444288,1.05655513960579,-1.44124707960628,1.05655513960592,-1.03576017960935,0.29049536738355,-1.16345965664142,0.111503122243592,-1.50415240259485,-0.284178922919719,-0.511671835168325,-0.76583026157445,-0.511671835168256,2.69142008362583,2.45818615726731,2.8639102456085,-0.359842603391016,-0.128576673532406,-0.128576673530142,-0.634100645709298,0.634100645708849,0.377807159911638,-1.38813780191807,0.568959999027662,-1.66296708970354,-1.65125771947192,0.058425721251116,-1.63085505555645,0.733650832552563,1.04494144912491,1.04494144912241,0.306146929673122,NaN,-0.546022659192371,0.370537018263677,0.613861107946092,1.54425717163206,0.0454977105533509,0.528569592938923,0.52856959294007,-0.0377561499661908,0.0377561499666493,-0.364765004248222
1315.6352,2.53390782138702,-0.469072403112089,2.55154804027272,0.0882153274628591,2.02929920613603,2.02929920613554,-0.271546924161627,-0.859701741099061,-0.5095968227658,1.0238467324057,-1.37047010503762,1.02384673240585,-0.994465970279968,0.290905734275588,-1.11091227908998,0.120801455712567,-1.50105931019837,-0.275014274992678,-0.485947540998874,-0.7671769366904,-0.485947540998807,2.69846728442865,2.47357208543988,2.87432755702108,-0.334532248302796,-0.132395002760143,-0.132395002757861,-0.658522278490007,0.658522278489552,0.376700816882248,-1.40334981751742,0.575701414609642,-1.6804725050114,-1.68017780283381,0.0631367835599188,-1.65736745304893,0.679732538640372,1.06394691377287,1.06394691377037,0.276987588539366,NaN,-0.577102713218498,0.364571981419419,0.622320403242487,1.54572045692912,0.0439638680845782,0.507626951052012,0.50762695105316,-0.0834672817489483,0.0834672817493953,-0.41133058091791
1315.7376,2.54977326829485,-0.525844318763668,2.54875812580738,0.0653947198030883,2.01854982943719,2.01854982943674,-0.245073359750948,-0.848777111743844,-0.485611108098671,0.990282110789375,-1.29891845151888,0.990282110789551,-0.953794734549138,0.291959254244082,-1.05882398290877,0.128005601567368,-1.49485501249844,-0.266940084176611,-0.461957349750619,-0.766999838631001,-0.46195734975055,2.70276805826382,2.48865903603521,2.88254294087052,-0.307416117594395,-0.136231360047474,-0.136231360045175,-0.682076171672988,0.682076171672526,0.375391468791337,-1.41783849477155,0.582001517738821,-1.69731681524473,-1.70924851682281,0.0663098951697093,-1.68488665866687,0.625947499293544,1.0813965882485,1.081396588246,0.248666166925829,NaN,-0.607212763187658,0.359031692039703,0.630747064542328,1.54789719828438,0.0428397214709858,0.487423110440171,0.48742311044133,-0.130229383355974,0.13022938335641,-0.456113371569267
1315.84,2.56307072273278,-0.582352316734715,2.5433086289838,0.0431287167723644,2.00612179222991,2.0061217922295,-0.220439001868894,-0.838405644564217,-0.463219206864597,0.955924940483059,-1.22677595779017,0.955924940483259,-0.913797539102701,0.293634140198476,-1.00727068541968,0.13310272614142,-1.48551065017454,-0.259960529049765,-0.439681229649787,-0.765346916602284,-0.439681229649728,2.70423774067295,2.50332843047825,2.8884528544408,-0.278600652354836,-0.140112727793374,-0.140112727791054,-0.704710971713358,0.70471097171289,0.373855716449253,-1.43155792260866,0.587849340625143,-1.71343388492711,-1.73834117919803,0.067927295475064,-1.71329292329891,0.572400738145448,1.09719045610565,1.09719045610314,0.221235399891187,NaN,-0.636327480907634,0.353905684613566,0.639134303320298,1.55075891982925,0.0420853698039863,0.46798648067671,0.467986480677879,-0.177904412988349,0.177904412988774,-0.499064680383309
1315.9424,2.57377695174075,-0.63847806315696,2.535215904798,0.0214694151007593,1.99207192435854,1.99207192435816,-0.197659788604873,-0.828580256785568,-0.442430743854534,0.920840601624063,-1.15422637537067,0.920840601624295,-0.874520553164191,0.295904906088442,-0.95632399755312,0.136086774574306,-1.47300812565583,-0.254076435076273,-0.419090620710425,-0.762267586172632,-0.419090620710375,2.7027983478461,2.51746002735699,2.89195833175139,-0.248196728458177,-0.144068447799119,-0.144068447796784,-0.726378737895499,0.726378737895024,0.372070321921099,-1.4444625127104,0.593234587321998,-1.72875719990087,-1.76732634793273,0.0679760029164976,-1.74246307541759,0.519195015840204,1.11123194648013,1.11123194647763,0.194744701419393,NaN,-0.664425495484326,0.349179616998722,0.647475856853463,1.55427096120324,0.0416591600124462,0.449341093278009,0.449341093279181,-0.226351323353581,0.226351323353996,-0.540142430520896
1316.0448,2.58187508165116,-0.694101266347731,2.52450380462197,0.000468729036141523,1.97646176534458,1.97646176534424,-0.176742865995458,-0.819294750274872,-0.423248968938964,0.885096181964976,-1.08145287447474,0.885096181965235,-0.836005080759496,0.298742431400405,-0.906051231599415,0.136958658055588,-1.45734011323195,-0.24928510856565,-0.400148803593215,-0.757812541292239,-0.400148803593173,2.69837918750121,2.53093269855741,2.89296570474138,-0.216319271408037,-0.148129974953032,-0.148129974950676,-0.747035165975117,0.747035165974636,0.370012594978101,-1.45650721227663,0.598147593482689,-1.74322030299784,-1.79607452917866,0.0664479918994374,-1.77227113585934,0.466430619024293,1.12342830759634,1.12342830759383,0.169240003785074,NaN,-0.69148931782377,0.344835331158502,0.655765986556922,1.55839258388346,0.0415180925754526,0.431506390995429,0.431506390996603,-0.2754267507118,0.275426750712203,-0.579311145254548
1316.1472,2.58735462919672,-0.749100197109978,2.51120352816904,-0.019821823728882,1.95935743061945,1.95935743061915,-0.157686592107334,-0.81054376026999,-0.405670742098635,0.848760474061647,-1.00863756185843,0.848760474061936,-0.798287607187006,0.302114029429753,-0.856515425024171,0.13572643995486,-1.43851000575011,-0.245580155421114,-0.382811287797276,-0.752033577601334,-0.382811287797253,2.69091745072841,2.54362519155602,2.89138730535421,-0.18308688234052,-0.152330608551095,-0.152330608548712,-0.766639800000192,0.766639799999704,0.367660764706918,-1.46764773174105,0.602579308403805,-1.75675722470044,-1.82445688623871,0.0633403553629845,-1.80258894159865,0.41420515788863,1.13369098802618,1.13369098802368,0.144763624947629,NaN,-0.717505227394683,0.340850959398292,0.663999464439932,1.56307714190843,0.0416182266699529,0.414497064625571,0.414497064626759,-0.32498567554604,0.324985675546432,-0.616541883140571
1316.2496,2.59021150943633,-0.803352248869249,2.49535343673346,-0.0393513305901216,1.940829441476,1.94082944147573,-0.140480573270026,-0.802322676163158,-0.389686533054982,0.8119039752571,-0.935961008935297,0.811903975257418,-0.761399854769171,0.305983515146455,-0.807775376255992,0.132405515637019,-1.41653179625195,-0.242951288939609,-0.367026211321789,-0.744983425235134,-0.367026211321777,2.68035877674829,2.55541687127369,2.88714214020249,-0.148621477951508,-0.156705201161967,-0.156705201159562,-0.785156218659431,0.785156218658936,0.364994326382417,-1.47784078190729,0.606521291682746,-1.7693029098355,-1.85234594295504,0.0586554505466463,-1.8332867732384,0.362613366763311,1.14193602544941,1.14193602544691,0.121354162356962,NaN,-0.742463126642388,0.337201072319749,0.672171549799599,1.56827231326518,0.041915083497574,0.398322934918617,0.398322934919811,-0.374882057261054,0.374882057261435,-0.651812124878413
1316.352,2.59044801625063,-0.856734533230966,2.4769988246919,-0.0580696810936398,1.92095251338804,1.92095251338781,-0.125105745857678,-0.794627550018026,-0.375280451218502,0.774598888062563,-0.863601786482341,0.774598888062913,-0.725368844250822,0.310311266720392,-0.759885690888748,0.127018781262572,-1.39142989155837,-0.241384130131446,-0.352734751025126,-0.736715587937758,-0.352734751025126,2.66665778537356,2.56618844030902,2.88015653343537,-0.113047944295951,-0.161289847826875,-0.161289847824435,-0.802552188052014,0.802552188051514,0.361994355483782,-1.48704431347224,0.609965715901366,-1.78079363996851,-1.87961627277886,0.0524010280455659,-1.86423397736852,0.311746903789434,1.14808443936411,1.14808443936161,0.0990464137806994,NaN,-0.766356362836135,0.333856861733259,0.680277957091794,1.57392038118886,0.042364046070882,0.382988873142477,0.382988873143683,-0.424969448478836,0.424969448479206,-0.685105613743244
1316.4544,2.58807277184212,-0.909124506221182,2.45619164709796,-0.0759277489525491,1.89980529990094,1.89980529990075,-0.111534511929396,-0.78745500033439,-0.362430314923862,0.736919116862303,-0.791736003903726,0.736919116862683,-0.690216962049805,0.31505427852423,-0.712896839680322,0.119596786785683,-1.36323885532659,-0.240860004237739,-0.339871549189925,-0.727284185920361,-0.339871549189937,2.6497785715653,2.57582263556948,2.87036473286433,-0.0764938012244163,-0.166121560073533,-0.166121560071065,-0.818799780849999,0.818799780849496,0.358643785913667,-1.49521775427696,0.612905374126861,-1.79116744492092,-1.90614516425102,0.0445903435760844,-1.89529957477559,0.261694148822379,1.1520626202106,1.15206262020809,0.0778713262715151,NaN,-0.789181516182126,0.33078635355469,0.688314814915514,1.57995855637994,0.0429207524350706,0.368494758361645,0.368494758362858,-0.475101593352919,0.475101593353279,-0.716412156921202
1316.5568,2.58310064643979,-0.960400620370917,2.43299020634251,-0.0928775604924752,1.87747009478666,1.8774700947865,-0.0997309271419162,-0.780802109795129,-0.351107758299194,0.698940257118619,-0.720536853911931,0.698940257119037,-0.655962036282095,0.320166210592234,-0.666855229493254,0.110177869149828,-1.33200308241656,-0.241355737517832,-0.328365161597855,-0.716743803433678,-0.328365161597867,2.62969515480792,2.58420489706626,2.85770947239145,-0.039088873074515,-0.171237928561668,-0.171237928559176,-0.833875464724379,0.83387546472387,0.354927655472015,-1.50232224134405,0.615333696848039,-1.80036449162718,-1.93181325604692,0.0352422487865943,-1.92635284964461,0.212540000905461,1.15380270672521,1.15380270672271,0.0578559733077507,NaN,-0.810938155625462,0.327954650097962,0.69627861523361,1.58631933782697,0.04354147967913,0.354835474013511,0.354835474014736,-0.525133010938417,0.525133010938767,-0.745727397588887
1316.6592,2.57555265270031,-1.01044299549789,2.4074588051842,-0.108872454525577,1.85403249938638,1.85403249938626,-0.0896509330046435,-0.77466631399618,-0.341278368681159,0.660739574942563,-0.650174165295073,0.660739574943008,-0.622617424411229,0.32559744426963,-0.621803285787192,0.0988082627671749,-1.29777641060617,-0.242843458475021,-0.318138527610935,-0.705149344615359,-0.318138527610945,2.60639187618639,2.59122400476708,2.8421424839486,-0.000964963631629624,-0.176676775658923,-0.176676775656402,-0.8477601614951,0.847760161494588,0.350833326061806,-1.50832084637531,0.617244784050882,-1.80832743988088,-1.95650513998274,0.0243812540229966,-1.95726392208037,0.164365675383292,1.15324294750861,1.15324294750611,0.0390235587992262,NaN,-0.831628565745024,0.325324203634457,0.704166152023094,1.592930914426,0.04418352082427,0.342000948089679,0.342000948090905,-0.574919558788036,0.574919558788376,-0.773052568316363
1316.7616,2.56545581884235,-1.05913409708962,2.37966737434285,-0.1238672372595,1.82958106418106,1.82958106418096,-0.0812426241471696,-0.769045279249678,-0.332901846806638,0.62239597623332,-0.580813966202657,0.622395976233792,-0.590192112275274,0.331295152623712,-0.577779541946046,0.0855421859375597,-1.26062167565579,-0.245290406265368,-0.309109457030647,-0.692555898851619,-0.309109457030669,2.57986373578587,2.59677267808167,2.82362495152323,0.0377444620079854,-0.182475796072046,-0.182475796069503,-0.860439273933351,0.860439273932834,0.346350685647443,-1.51317879258149,0.618633454154775,-1.8150017587412,-1.98010993408609,0.0120375556947573,-1.9879043101558,0.117248498561419,1.1503280452283,1.15032804522579,0.021393444869649,NaN,-0.851257449856668,0.322855122684643,0.711974449626574,1.59971761040953,0.0448055603971437,0.329976240405536,0.329976240406773,-0.624318966885716,0.624318966886046,-0.798394236625254
1316.864,2.55284304271699,-1.10635940898937,2.34969108165212,-0.137818332420758,1.8042069123314,1.80420691233132,-0.0744465441654167,-0.763936769525155,-0.325932184910709,0.583989965045099,-0.512618057630466,0.583989965045597,-0.558690821554037,0.337203390327036,-0.534818729296815,0.0704419042808787,-1.22061021397585,-0.248658746410207,-0.301191124709219,-0.679018611707142,-0.301191124709253,2.5501166612829,2.60074812975704,2.80212789759315,0.076904582685653,-0.188672183457507,-0.188672183454946,-0.871902673437349,0.871902673436828,0.341472332693058,-1.51686365904341,0.619495306256711,-1.82033600187647,-2.00252182629459,-0.00175297568410553,-2.01814748423745,0.0712616970105115,1.14500947825258,1.14500947825007,0.00498119781845831,NaN,-0.869831617945376,0.320505509412166,0.719700682837075,1.60660037458425,0.0453680501968984,0.318741676931888,0.318741676933127,-0.673191335534968,0.673191335535289,-0.821764052901613
1316.9664,2.53775292741361,-1.15200808708477,2.31760992804973,-0.150683925621072,1.77800334661172,1.77800334661165,-0.0691960105646226,-0.759338507866026,-0.320317865006524,0.545603590511029,-0.445743593394651,0.545603590511548,-0.528114124171525,0.343263206451923,-0.49295186414536,0.0535777730344517,-1.17782131722503,-0.252905393251321,-0.294292565696978,-0.664592554976331,-0.294292565697019,2.51716769903949,2.60305256712652,2.7776324930112,0.116379508294058,-0.195302245536361,-0.195302245533782,-0.882144646957705,0.88214464695718,0.336193737556218,-1.5193455726682,0.619826793074284,-1.82428204565904,-2.02364058565825,-0.0169488460656207,-2.04786941004436,0.0264741789633761,1.13724579165399,1.13724579165149,-0.0102013547408571,NaN,-0.887359670852667,0.318231820242353,0.727342092390492,1.61349730454936,0.0458335786768838,0.308273027491232,0.308273027492478,-0.721399602942085,0.721399602942398,-0.843178505927546
1317.0688,2.52022959777962,-1.19597358194517,2.28350833394071,-0.162424103605995,1.75106543440231,1.75106543440226,-0.0654174748145848,-0.755248041013662,-0.316002085000564,0.507320380658888,-0.380342663359909,0.507320380659432,-0.498458565336382,0.349412785011006,-0.452206331502989,0.0350282574232371,-1.13234164581657,-0.257981841646235,-0.288319171321499,-0.649332592959475,-0.288319171321564,2.48104512195563,2.60359363871161,2.75013028528624,0.156032548392898,-0.202401014147303,-0.202401014144711,-0.891163811572476,0.891163811571948,0.330513378009157,-1.52059739401466,0.619625309375739,-1.82679529438335,-2.04337203678264,-0.033503022473181,-2.07694907360159,-0.0170496911184033,1.12700285297527,1.12700285297278,-0.0241460609273074,NaN,-0.903851690140643,0.315989236230549,0.734895899823986,1.62032418745684,0.0461672239966176,0.298541723047664,0.298541723048905,-0.768809997926435,0.768809997926739,-0.862658682471756
1317.1712,2.50032249704463,-1.23815422303093,2.24747471763833,-0.173000991562801,1.72348956674108,1.72348956674104,-0.06303092207197,-0.751662611474136,-0.312923017600407,0.469225260288252,-0.316561882721257,0.469225260288814,-0.469716797594355,0.355587617907009,-0.412605966116464,0.0148799259575765,-1.0842646119431,-0.263834015250413,-0.283173193927877,-0.633293250074851,-0.283173193927955,2.44178845172769,2.60228482765402,2.71962334393899,0.195726468691999,-0.210001856094632,-0.210001856092023,-0.898963006876849,0.898963006876319,0.324432855908837,-1.52059490298068,0.618889304530323,-1.82783485102509,-2.06162849379085,-0.0513630464679811,-2.10526898146265,-0.0592503165851633,1.11425407279042,1.11425407278793,-0.0368483776677332,NaN,-0.919318938036782,0.313732031576476,0.742359223413695,1.62699503900225,0.0463368845769178,0.289515111110351,0.289515111111596,-0.815292491627356,0.815292491627652,-0.880230025915029
1317.2736,2.47808616449233,-1.27845376554468,2.20960106651989,-0.182378893016842,1.6953729972095,1.69537299720947,-0.0619503086931921,-0.748579034312131,-0.311014099630542,0.431404450515139,-0.254541996310886,0.431404450515722,-0.4418777271925,0.361720710820633,-0.374171132177058,-0.00677259222592903,-1.03368974505165,-0.270402142693688,-0.278754268880829,-0.616528591261111,-0.27875426888094,2.39944839911061,2.59904579502965,2.68612432668522,0.235323747604982,-0.21813608948021,-0.218136089477579,-0.905549169320968,0.905549169320436,0.317957005402869,-1.51931698590937,0.617618421988083,-1.82736365232651,-2.07832914924563,-0.0704711743571979,-2.13271563043055,-0.100073078594528,1.09898059124349,1.098980591241,-0.0483072994415826,NaN,-0.933773569575772,0.311413937234467,0.749728992923359,1.63342263193059,0.0463135877198627,0.281156746221698,0.281156746222954,-0.860721252751319,0.860721252751607,-0.895922099045745
1317.376,2.45357999812005,-1.31678190663686,2.16998250277951,-0.190524434834527,1.66681337464952,1.66681337464951,-0.0620840294593557,-0.745993573038786,-0.310204343626221,0.393945350653887,-0.194417506566774,0.393945350654479,-0.414926673249363,0.367742816700144,-0.336918805077039,-0.0298266960295754,-0.980722053046612,-0.277620674095947,-0.274959956830645,-0.599092125550502,-0.27495995683078,2.35408673320014,2.59380267891795,2.64965647680264,0.274686847664854,-0.226832610837876,-0.226832610835226,-0.910933188107429,0.910933188106895,0.311093994231143,-1.51674582373315,0.615813658642768,-1.82534857752541,-2.09340041172645,-0.090764544573705,-2.15917994066509,-0.13946852239435,1.08117143172366,1.08117143172118,-0.0585252818860581,NaN,-0.94722835962124,0.308988503346084,0.757001858839448,1.63951901452144,0.046071779548471,0.273426705172154,0.273426705173413,-0.904975103065107,0.904975103065388,-0.909768365373725
1317.4784,2.42686800790153,-1.35305477468943,2.12871684849683,-0.197406715084277,1.63790828328608,1.6379082832861,-0.0633354035945334,-0.743901808685546,-0.310418661318446,0.356936405921659,-0.136316328056851,0.356936405922257,-0.388845538656882,0.37358268860224,-0.300862658091524,-0.054171954540918,-0.925471390677277,-0.285418247583246,-0.27168630185746,-0.581036735423962,-0.271686301857628,2.30577609082164,2.5864883561044,2.6102535624193,0.313678513561672,-0.236117537862786,-0.236117537860111,-0.915129739613231,0.915129739612696,0.303855410168956,-1.51286707870782,0.613477530602696,-1.82176054548578,-2.1067761858444,-0.112175371910441,-2.18455764573752,-0.17739251741301,1.06082362317085,1.06082362316837,-0.0675081585676418,NaN,-0.959696446228927,0.306409464406063,0.764174094179612,1.64519602330807,0.0455895948358652,0.266281910226987,0.266281910228255,-0.947937966880935,0.947937966881211,-0.921806002000837
1317.5808,2.39801856412061,-1.38719538850923,2.08590419591314,-0.202997448995574,1.6087547977143,1.60875479771434,-0.0656031698013545,-0.742298498008846,-0.311578190145296,0.320466964138706,-0.0803594671444476,0.320466964139313,-0.363612989873788,0.37916734605018,-0.266013153383724,-0.0796903065567112,-0.868051844057478,-0.293717711601197,-0.26882839691167,-0.562414626300903,-0.268828396911867,2.2545997276492,2.57704266953103,2.56795975998343,0.352162100258009,-0.246013868805579,-0.24601386880288,-0.918157096045719,0.918157096045182,0.296256327555158,-1.50767007290315,0.610614231742778,-1.81657460739977,-2.11839809255013,-0.134631166143064,-2.20874963610099,-0.213806394431794,1.03794229325468,1.0379422932522,-0.075265048560307,NaN,-0.971191089182995,0.303631106700489,0.771241491274199,1.6503657926492,0.0448490970601091,0.259676445502078,0.259676445503349,-0.989499307665568,0.989499307665837,-0.932075746705712
1317.6832,2.36710414182233,-1.41913408199392,2.0416464855829,-0.207271111347576,1.57944905349979,1.57944905349986,-0.0687819853818259,-0.741177422253965,-0.313600619542106,0.284627122706449,-0.026660725746683,0.284627122707067,-0.339204644574474,0.384422355093652,-0.232377635925742,-0.106256320611407,-0.808581141488555,-0.302436208442166,-0.266280949923209,-0.543277287048094,-0.266280949923433,2.20065120501206,2.5654126219326,2.52282947742726,0.3900019267553,-0.256541154550832,-0.256541154548107,-0.92003691119651,0.920036911195971,0.28831536166041,-1.501147952122,0.607229778619582,-1.80977003290515,-2.1282156346742,-0.158054973398117,-2.23166226003875,-0.248677065644234,1.0125407381954,1.01254073819292,-0.0818082554365133,NaN,-0.981725444070898,0.300608632447414,0.778199258136636,1.65494125780822,0.0438364739562188,0.253561861643404,0.253561861644671,-1.02955454522246,1.02955454522272,-0.940621767331371
1317.7856,2.33420105823687,-1.44880889566318,1.9960470885459,-0.210205079126948,1.55008582926936,1.55008582926945,-0.0727629310210936,-0.740531233448568,-0.31640052066771,0.249507566849093,0.0246735693478871,0.249507566849719,-0.315593271045823,0.389272127320976,-0.199960432570279,-0.133737518721101,-0.747180104286234,-0.311485325381188,-0.263938848801945,-0.523675454759109,-0.263938848802205,2.14403400979886,2.55155253872894,2.4749271160416,0.427063649883664,-0.267715177411722,-0.267715177408971,-0.920794000157299,0.920794000156757,0.280054726567416,-1.49329783628792,0.603332144582352,-1.80133038745018,-2.13618631727269,-0.182365643631057,-2.25320759360365,-0.281977132553024,0.984640478755442,0.984640478752963,-0.0871531640943531,NaN,-0.991312358768902,0.297298512014255,0.785041919440885,1.65883664330198,0.042542176261655,0.247887474910147,0.247887474911414,-1.06800544889641,1.06800544889667,-0.947491530683508
1317.888,2.29938919796451,-1.47616594303947,1.94921038415239,-0.211779780044513,1.52075813614631,1.52075813614642,-0.0774340260580637,-0.740351306650311,-0.319889686205453,0.215199401821179,0.07354480838444,0.215199401821813,-0.292749004188411,0.393640242365538,-0.168762960094535,-0.161994764442326,-0.683972148507544,-0.32077131674627,-0.261697722803356,-0.503659082412711,-0.261697722803649,2.08486111561871,2.53542420651983,2.42432677938293,0.463214657743738,-0.279547635705723,-0.27954763570295,-0.920456134758468,0.920456134757923,0.271500306786971,-1.48412096051579,0.598931385437746,-1.79124360506067,-2.14227573080447,-0.20747813040697,-2.27330369107717,-0.313684981622814,0.954271307926944,0.954271307924463,-0.0913181441517595,NaN,-0.999964203717511,0.293658816526733,0.791763227443384,1.66196793042276,0.0409609978975734,0.242600669228772,0.242600669230037,-1.10476050630959,1.10476050630984,-0.952735647271881
1317.9904,2.26275172229676,-1.50115976130227,1.90124132637229,-0.211978847421677,1.4915568155869,1.49155681558702,-0.0826807584210533,-0.740627605827241,-0.323977486123673,0.181793982716377,0.119862309240698,0.181793982717018,-0.270639576672814,0.397449792534253,-0.138783841084523,-0.190882712553638,-0.61908283777287,-0.330195394548696,-0.259454490799056,-0.483277311610262,-0.259454490799393,2.02325450141671,2.51699699354379,2.37111194369838,0.498324487098092,-0.292045842957548,-0.292045842954757,-0.919053864052374,0.919053864051828,0.262681739452353,-1.47362280365792,0.594039747601054,-1.77950206366373,-2.14645760036901,-0.233303824588961,-2.29187482009275,-0.343784861534287,0.921471325985091,0.921471325982609,-0.0943244649455413,NaN,-1.00769274569581,0.28964952740834,0.798356088123171,1.66425330530721,0.039092108150953,0.237647201929619,0.237647201930873,-1.13973527140761,1.13973527140785,-0.956407674833374
1318.0928,2.22437476171675,-1.52375364991973,1.85224499627187,-0.210789273587443,1.4625701518164,1.46257015181654,-0.0883866345527484,-0.74134857163917,-0.328571246359803,0.149382743509713,0.163543497902426,0.149382743510359,-0.249230556682666,0.400623743392839,-0.110019019968212,-0.220250316981524,-0.552639476674383,-0.339654081943707,-0.257107883901584,-0.46257845188636,-0.257107883901954,1.95934464254695,2.49624795688804,2.3153751029262,0.532265266893176,-0.305212456538453,-0.305212456535645,-0.916620351008843,0.916620351008296,0.253632492222546,-1.46181319167129,0.588671740778702,-1.76610266591929,-2.14871380030292,-0.25975091599227,-2.3088516774129,-0.372266935367414,0.886286954361145,0.88628695435866,-0.0961962228450254,NaN,-1.01450907096811,0.285232822456537,0.804812507869473,1.6656135944956,0.0369390501356323,0.232971505300764,0.232971505302014,-1.1728526950264,1.17285269502664,-0.958563872646667
1318.1952,2.18434709270805,-1.54391999133377,1.80232614393302,-0.208201549917412,1.43388350660891,1.43388350660905,-0.0944337578142699,-0.742501041162227,-0.333576660425208,0.118057023256288,0.204514063447746,0.118057023256939,-0.228485582738866,0.403085304427323,-0.0824618701716897,-0.249941395684218,-0.484770730798455,-0.3490396247906,-0.25455893514507,-0.441609964873444,-0.254558935145472,1.8932699800899,2.47316193908187,2.25721739356373,0.564912182978135,-0.319045247927329,-0.319045247924514,-0.913191208618901,0.913191208618352,0.244389918519184,-1.44870636244159,0.582844161430574,-1.75104692128604,-2.14903433195667,-0.286724773379241,-2.32417157781426,-0.399127307270062,0.848772923534573,0.848772923532088,-0.0969602801310601,NaN,-1.02042356104036,0.28037333809204,0.811123565753726,1.66597269455952,0.0345097137936524,0.228516975890469,0.22851697589171,-1.20404343396781,1.20404343396804,-0.959262908633638
1318.2976,2.14275980332877,-1.56164054150703,1.7515887288401,-0.204209785971007,1.40557898326246,1.40557898326261,-0.100703442734601,-0.744070209794074,-0.338898243142201,0.0879078845719802,0.2427080915906,0.0879078845726395,-0.208366590814715,0.40475830785484,-0.0561032873173952,-0.279795254439943,-0.415606266760644,-0.358240461377209,-0.251711435516497,-0.420418449050035,-0.251711435516936,1.8251763643797,2.44773165370594,2.19674819619216,0.596143953436851,-0.33353691941798,-0.333536919415154,-0.908804324650127,0.908804324649575,0.234995278665887,-1.43432098734631,0.576576067771468,-1.73434101984933,-2.14741726441884,-0.314128334913149,-2.33777861146419,-0.424368029825783,0.808992234433123,0.808992234430634,-0.0966462139216193,NaN,-1.02544592195615,0.275038407382263,0.81727941313955,1.66525799760062,0.0318162832932384,0.224226249209331,0.224226249210569,-1.23324612751699,1.23324612751721,-0.958565528365954
1318.4,2.09970595604937,-1.57690667943604,1.70013547163849,-0.198811808231313,1.37773512414895,1.37773512414909,-0.107076866691918,-0.746039642140601,-0.344439830117353,0.0590259191582508,0.278068177616611,0.059025919158918,-0.188834034287525,0.405567598363576,-0.0309317677273719,-0.309647372898474,-0.345276420080554,-0.367141755335044,-0.248472356659688,-0.399049620293144,-0.248472356660151,1.75521646408193,2.41995775745009,2.13408470618528,0.625843303299753,-0.348674966321126,-0.348674966318292,-0.903499676052781,0.903499676052228,0.225493727746461,-1.41868015470281,0.569888719977687,-1.71599588768331,-2.14386864255596,-0.341862506228182,-2.34962377260818,-0.447997099877254,0.767016094927225,0.767016094924735,-0.0952862722415133,NaN,-1.02958526546209,0.269198274108066,0.823269298110547,1.66340080948523,0.0288751518030128,0.220041461594127,0.220041461595356,-1.26040762854879,1.26040762854901,-0.95653419511408
1318.5024,2.0552802565224,-1.5897196105186,1.64806742833471,-0.192009242223914,1.35042664195469,1.35042664195481,-0.113435755876063,-0.748391332922964,-0.35010512092106,0.0315010367448338,0.310545516913964,0.0315010367455104,-0.169847099064268,0.405439439083736,-0.00693347246991102,-0.339330153223103,-0.273911906249351,-0.375625995965246,-0.244752237607287,-0.377548284467928,-0.24475223760779,1.68354913211943,2.38984890441101,2.06935146556168,0.65389743102497,-0.364441582386021,-0.364441582383178,-0.897319140383817,0.897319140383262,0.215934278480502,-1.40181132301409,0.562805499500972,-1.69602721810751,-2.1384023700028,-0.36982656854073,-2.35966506860723,-0.470028447795314,0.722923835154668,0.722923835152173,-0.0929153329685768,NaN,-1.03285023636601,0.262826282727214,0.829081611622201,1.66033675611247,0.0257067930768915,0.215904501664485,0.215904501665702,-1.28548317747723,1.28548317747744,-0.953232706858304
1318.6048,2.00957873151018,-1.60009052323241,1.59548359058388,-0.183807578434716,1.32372417987519,1.32372417987531,-0.119663101203563,-0.751105814554863,-0.355798261500216,0.00542223558687363,0.340099970649246,0.00542223558755818,-0.151363914483801,0.404301936961409,0.0159077239166101,-0.368673724502606,-0.201643581393729,-0.383573661470471,-0.240465533578418,-0.355958300093507,-0.240465533578946,1.61033872269069,2.35742177792189,2.002679850035,0.680198464529906,-0.380813608394809,-0.380813608391961,-0.890306309531178,0.890306309530623,0.206369746452207,-1.38374624681363,0.555351809531025,-1.67445548092655,-2.1310400724359,-0.397918602295425,-2.36786761775139,-0.490481921011545,0.676802806514193,0.676802806511695,-0.0895708588787431,NaN,-1.03524917046831,0.255899042111581,0.834703954086833,1.65600617206283,0.0223355813987831,0.211757253099163,0.211757253100365,-1.30843651246772,1.30843651246792,-0.948725798468551
1318.7072,1.96269841404779,-1.60804069938463,1.54248050991415,-0.174216219785989,1.29769409367077,1.29769409367088,-0.12564389961416,-0.754162305852036,-0.361424460395159,-0.0191226464992458,0.366700105984987,-0.0191226464985534,-0.133341759453559,0.40208548381375,0.0376101987974709,-0.397506788694826,-0.128602242867736,-0.39086392979784,-0.235530933351212,-0.334322531411808,-0.235530933351767,1.53575436080686,2.3227011007046,1.93420751261291,0.704643909095632,-0.39776252727212,-0.397762527269266,-0.882506306754123,0.882506306753568,0.196856680556406,-1.36452087193853,0.547554947487224,-1.65130591694709,-2.12181093888373,-0.426035930544547,-2.37420373592054,-0.5093832573259,0.628748265488521,0.628748265486022,-0.085292836786189,NaN,-1.03679025039612,0.248396557701466,0.840123221169757,1.65035446028541,0.0187895567144959,0.207541828206971,0.207541828208162,-1.32923992037018,1.32923992037039,-0.94307874832752
1318.8096,1.91473703604946,-1.61360157710525,1.48915194639911,-0.163248512198897,1.27239825097293,1.27239825097303,-0.131265912419617,-0.757538894120153,-0.366890629692676,-0.0420472009259907,0.3903232127111,-0.0420472009252869,-0.115737264794637,0.398723201507426,0.0581945537395957,-0.425657491350787,-0.054918454169585,-0.397375418018155,-0.229871660375817,-0.312682794062775,-0.229871660376393,1.45996917532617,2.28571963054956,1.86407779450656,0.727137090736992,-0.415254510475343,-0.415254510472484,-0.873965606294115,0.87396560629356,0.187455276833722,-1.34417519660501,0.539443941636847,-1.62660852252919,-2.11075153229796,-0.454075579400426,-2.37865300177374,-0.526764037622642,0.578863236380206,0.578863236377706,-0.0801236861449637,NaN,-1.03748161923019,0.240302325695576,0.845325705731378,1.64333240700194,0.0151001360882679,0.203200788974991,0.203200788976164,-1.34787424029378,1.34787424029398,-0.936357016961579
1318.912,1.86579273559531,-1.61681476656793,1.43558854953844,-0.150921765909435,1.24789384854311,1.24789384854319,-0.136420425505074,-0.761212742112888,-0.372106036155467,-0.0632667359220012,0.410955297245575,-0.0632667359212854,-0.0985066141537033,0.39415137801487,0.0776835839385153,-0.452954304664053,0.0192776125273343,-0.402986937308519,-0.223415769954024,-0.29107979658728,-0.223415769954621,1.38315951237378,2.24651814340325,1.79243911690421,0.747587595384387,-0.433250517342495,-0.433250517339635,-0.864731855001871,0.864731855001316,0.178229269347765,-1.32275309950708,0.531049356083589,-1.60039802032517,-2.09790556184688,-0.481934745246804,-2.38120228713865,-0.542661604994951,0.527258344483442,0.527258344480939,-0.0741081313409654,NaN,-1.0373314341589,0.231603388643249,0.850297211152465,1.63489644385817,0.0113017771687216,0.198677353398169,0.198677353399323,-1.36432882787696,1.36432882787716,-0.928625933308648
1319.0144,1.81596378922718,-1.61773202143413,1.38187758136951,-0.137257276477094,1.22423325203261,1.22423325203268,-0.141002992870765,-0.765160315451968,-0.376982946894651,-0.082698580582852,0.428591050788842,-0.0826985805821303,-0.0816057450409719,0.38830988811556,0.0961022395956252,-0.479226917943024,0.0938563103808122,-0.407578260619003,-0.216096441955444,-0.26955308178025,-0.216096441956075,1.30550414532479,2.20514539314538,1.71944436250969,0.765911699024972,-0.451706443231518,-0.451706443228658,-0.85485369661252,0.854853696611966,0.169245789617243,-1.30030214229289,0.522403079963364,-1.57271380682799,-2.08332361774302,-0.509511257467278,-2.38184574716843,-0.557118940907286,0.474051616483471,0.474051616480967,-0.067293047137947,NaN,-1.03634787888175,0.222290360811852,0.855023171222666,1.62500886539283,0.00743160617182336,0.193915589981627,0.193915589982758,-1.37860148073868,1.37860148073887,-0.91995041976543
1319.1168,1.76534837519154,-1.61641517027475,1.32810268668951,-0.122280349154609,1.20146386372576,1.2014638637258,-0.14491414783443,-0.769357630874134,-0.381437257788794,-0.100262402644341,0.443233786486533,-0.100262402643613,-0.0649905492538927,0.381142600224438,0.113477580945432,-0.504307135418363,0.168688619148751,-0.41103090531562,-0.207852257780721,-0.248140971843514,-0.207852257781381,1.22718349129662,2.16165803338313,1.64525024968215,0.782032781453934,-0.470573308708145,-0.47057330870529,-0.844380599565194,0.844380599564642,0.160575186353706,-1.27687335686044,0.513538118368327,-1.54359987045632,-2.06706287713251,-0.53670403014375,-2.38058477521626,-0.570184496631046,0.419368250286861,0.419368250284354,-0.0597272934196773,NaN,-1.03453916885835,0.212357436105533,0.859488773319204,1.61363801999566,0.00352902814803607,0.188860606217543,0.188860606218655,-1.39069832366061,1.39069832366079,-0.910394736316625
1319.2192,1.7140443656792,-1.61293601006789,1.27434370756701,-0.106020322668341,1.17962802137204,1.17962802137204,-0.148060070989897,-0.773780523669332,-0.385389095779425,-0.115880536182319,0.454895343362446,-0.115880536181588,-0.0486170692911051,0.372597771412176,0.12983873229733,-0.528029779835332,0.243646210205244,-0.41322893030253,-0.198627446386168,-0.22688051929156,-0.19862744638686,1.14837883607569,2.11612049316394,1.57001669801112,0.795881717173338,-0.489797481900766,-0.48979748189792,-0.833362687419159,0.833362687418608,0.152290798355956,-1.25252102609839,0.504488395036168,-1.51310468128755,-2.04918679044587,-0.563413498550897,-2.37742792957523,-0.581911984351126,0.36334035544205,0.363340355439541,-0.051461552610272,NaN,-1.03191357579399,0.201802389530798,0.863679082685475,1.60075849089301,-0.000364666441300909,0.183458734122307,0.183458734123396,-1.40063365410054,1.40063365410072,-0.900022229859035
1319.3216,1.66214914018198,-1.60737616067277,1.22067653408295,-0.088510585356131,1.15876292460481,1.15876292460479,-0.150353208953689,-0.778404926862275,-0.388763387878348,-0.129478313212289,0.463595959040465,-0.129478313211553,-0.0324416870522122,0.36262842967248,0.145216839301322,-0.550233594495215,0.318601477656676,-0.414059740415338,-0.188372085213058,-0.205807462972631,-0.188372085213778,1.06927156657808,2.06860480604414,1.49390618445343,0.807397237898505,-0.509320926149855,-0.509320926147014,-0.821850570235178,0.821850570234628,0.144468677632881,-1.227302463313,0.49528856912899,-1.48128105846734,-2.02976475346329,-0.589542034204878,-2.37239083390459,-0.592360134240584,0.306106661869243,0.306106661866731,-0.0425481811194533,NaN,-1.02847948953045,0.19062657699397,0.867579165760356,1.58635127278506,-0.0042066985286266,0.177657711519271,0.177657711520338,-1.40842975024251,1.40842975024268,-0.888895081695333
1319.424,1.60975941114234,-1.59982687663127,1.16717298311826,-0.0697885803125005,1.13890057935096,1.13890057935092,-0.15171284465945,-0.783207155275373,-0.391490395045546,-0.140984392439161,0.46936411523801,-0.140984392438419,-0.0164213055146673,0.351192742311392,0.159645027983494,-0.57076213267427,0.393427539671246,-0.413414887063115,-0.17704224994475,-0.18495618772522,-0.177042249945513,0.990042415477873,2.01919039638114,1.4170830948439,0.816526260835381,-0.529081465427147,-0.529081465424315,-0.809895178966744,0.809895178966195,0.137187266776254,-1.20127779416731,0.485973866504302,-1.44818602153322,-2.0088717672483,-0.61499433144982,-2.36549604961119,-0.601592423400781,0.247812195517801,0.247812195515287,-0.0330410864111015,NaN,-1.024245532995,0.178834928948307,0.871174212207139,1.57040393560777,-0.00795321177715772,0.171406857418009,0.17140685741906,-1.41411664596799,1.41411664596816,-0.87707404850309
1319.5264,1.55697105690333,-1.59038881193567,1.11390070135872,-0.0498958005704822,1.12006775317718,1.12006775317713,-0.152065626230513,-0.788164195037472,-0.393506216483564,-0.150331080514423,0.472236358887231,-0.150331080513671,-0.00051352943043813,0.338254370494746,0.173158357911334,-0.58946462619477,0.467998213524682,-0.411190856815934,-0.164600121029892,-0.164359688362882,-0.164600121030684,0.910870729103312,1.96796382928038,1.3397130813824,0.823224177758934,-0.549013063494445,-0.549013063491626,-0.79754761006246,0.797547610061914,0.130527037559119,-1.17450974303285,0.476579925579864,-1.41388062888884,-1.9865880881734,-0.639677762998985,-2.35677292098966,-0.609676782638273,0.188607924357955,0.188607924355438,-0.0229956374448189,NaN,-1.01922073951157,0.166435927087294,0.874449657878635,1.55291075929132,-0.0115597063555327,0.164657243277705,0.164657243278743,-1.41773188008769,1.41773188008785,-0.864618191082521
1319.6288,1.50387896185414,-1.57917173589879,1.06092309305469,-0.0288777747531498,1.10228594358029,1.10228594358023,-0.151346062519278,-0.793254002954544,-0.394753272057034,-0.157454643665232,0.472257099439089,-0.157454643664467,0.0153231491748279,0.323782808083598,0.185793761198811,-0.606196831192677,0.542187966209566,-0.407289845704554,-0.151014063057648,-0.14404954265,-0.151014063058471,0.831933768353745,1.91501853123004,1.26196243586392,0.827455102695556,-0.569046116925576,-0.569046116922767,-0.784858987328083,0.784858987327538,0.124570093537407,-1.14706342111984,0.467142654206177,-1.37842980382897,-1.96299887048902,-0.663502708162482,-2.34625739766555,-0.616685287677536,0.128650380206843,0.128650380204324,-0.0124686077443998,NaN,-1.01341478988427,0.153441555939975,0.877391310654054,1.53387282771506,-0.0149814902894707,0.157361863641857,0.157361863642882,-1.41932022745456,1.41932022745472,-0.851584582654624
1319.7312,1.45057686474869,-1.56629420072546,1.00829927337404,-0.00678403871137491,1.08557136622876,1.08557136622868,-0.149496989808557,-0.798455816355571,-0.395180766472305,-0.162295608950663,0.469478383039961,-0.16229560894989,0.0311291606433804,0.307753698424182,0.19758996402493,-0.620821852250271,0.615871842037702,-0.401620519918912,-0.13625868831164,-0.124055899621533,-0.136258688312489,0.753406045190133,1.86045448730561,1.18399748252595,0.829192078062883,-0.589107763433849,-0.589107763431053,-0.771880340426737,0.771880340426195,0.119399732878101,-1.11900611006052,0.457698089666486,-1.34190214803782,-1.93819380180658,-0.68638286010958,-2.33399183824429,-0.622693841991695,0.068101257471763,0.0681012574692379,-0.00151814418330426,NaN,-1.00683829815833,0.139867228895245,0.879985478792899,1.51329808050307,-0.0181741360597598,0.149475806415002,0.149475806416025,-1.41893341613501,1.41893341613517,-0.83802799094751
1319.8336,1.39715721331737,-1.55188315865283,0.956084046077477,0.0163319166014528,1.06993496887563,1.06993496887556,-0.146470009556252,-0.803750469535337,-0.394745133759728,-0.16479905644873,0.463959647001389,-0.164799056447951,0.0469436675685763,0.290149119724144,0.208587392316876,-0.633210944674392,0.688925372111061,-0.394098761461232,-0.120314907033204,-0.104407486488412,-0.120314907034073,0.675458691107215,1.80437791818968,1.10598398881909,0.82841723879248,-0.609122206578411,-0.60912220657562,-0.758662489481755,0.758662489481214,0.115099964747395,-1.09040703270105,0.448282252567682,-1.30436974099203,-1.91226672876923,-0.708235516028471,-2.32002479456731,-0.627781859352082,0.00712698324115397,0.00712698323862288,0.00979624600293719,NaN,-0.999503133496469,0.125731692823899,0.882219100927979,1.4912013288624,-0.0210939324236361,0.140956418379693,0.140956418380714,-1.41662982740028,1.41662982740043,-0.824000541511643
1319.936,1.34371102148316,-1.53607352123537,0.904327904151692,0.0404127307175576,1.05538247471552,1.05538247471544,-0.142225892453335,-0.809120712915181,-0.393410457093745,-0.164914906924895,0.45576745927718,-0.164914906924111,0.0628043804353418,0.270957831005186,0.218828064472395,-0.643244292250319,0.761224474621394,-0.384648394058327,-0.103169963847022,-0.085131631956446,-0.103169963847912,0.598258850174567,1.74690093509504,1.02808658779768,0.825121931716909,-0.62901105617039,-0.629011056167611,-0.74525592110188,0.745255921101341,0.111754975337924,-1.0613371019855,0.438930987977291,-1.26590791847228,-1.88531526883217,-0.72898184973089,-2.30441077221575,-0.632031955124993,-0.0541017488089818,-0.0541017488115168,0.021413695430266,NaN,-0.991422767301216,0.111056915077925,0.88407987755011,1.46760424201775,-0.0236983273200835,0.131763462273297,0.131763462274314,-1.41247416629461,1.41247416629476,-0.809551387146896
1320.0384,1.29032772763969,-1.51900765326724,0.853077054364561,0.065397294666393,1.04191445613705,1.04191445613696,-0.136734941289492,-0.814551532922643,-0.391148857537627,-0.162598211373279,0.444975245776073,-0.162598211372487,0.0787473798621296,0.250175476414419,0.22835547105197,-0.650811756694619,0.832645354184915,-0.373201883833609,-0.0848174610438987,-0.0662542999406171,-0.0848174610447997,0.521969087701082,1.6881411649857,0.950468202795525,0.819306784846879,-0.648693680163232,-0.648693680160464,-0.731710649194461,0.731710649193925,0.109448546100598,-1.03186864454005,0.42967979594359,-1.22659502111675,-1.85744040562334,-0.748547164623626,-2.28720996355871,-0.6355296542949,-0.115410483830982,-0.115410483833526,0.033271966990385,NaN,-0.982612637260073,0.0958679530322673,0.885556403469058,1.44253530379847,-0.0259463627609411,0.12185926880774,0.121859268808751,-1.40653709123373,1.40653709123388,-0.794726413266277
1320.1408,1.23709505637485,-1.50083480128224,0.802373468317067,0.0912208996904305,1.02952643371385,1.02952643371374,-0.129977306846383,-0.820030469183675,-0.387940846116016,-0.1578094468867,0.431663005464267,-0.157809446885903,0.0948069401224776,0.227804751824702,0.237214436715237,-0.655813594285329,0.903064403779596,-0.359701009754613,-0.0652573696935169,-0.0478001272853536,-0.0652573696944288,0.446746810002591,1.62822133866325,0.873289468499682,0.810981721332595,-0.668087562064321,-0.66808756206157,-0.718076070555735,0.718076070555201,0.108263433899906,-1.00207510873062,0.420563665159265,-1.1865121108881,-1.82874606815686,-0.766861127903761,-2.26848795409687,-0.638363119415511,-0.176621547216295,-0.176621547218845,0.0453074358742748,NaN,-0.973090521667401,0.0801928021327581,0.886638299649479,1.41602972985488,-0.0277991058338136,0.11120889235035,0.111208892351349,-1.39889480577702,1.39889480577716,-0.779567995457428
1320.2432,1.18409888818194,-1.48171046620168,0.752254961522878,0.117815401927268,1.0182089919248,1.01820899192468,-0.121943254179756,-0.825547920326027,-0.383775634140846,-0.150514818357823,0.415917011422585,-0.150514818357014,0.111015347539764,0.203855537839574,0.245450958396961,-0.65816113268058,0.97235811008424,-0.34409749735774,-0.044496027410762,-0.0297924624836965,-0.0444960274116895,0.37274370027402,1.56726884344642,0.796708152817686,0.800165917657016,-0.68710866053783,-0.68710866053509,-0.704400833912359,0.704400833911825,0.108280726967058,-0.972030774614499,0.411616925562922,-1.14574266404814,-1.79933869536025,-0.783857991231612,-2.24831540649407,-0.640622894386618,-0.237554616283383,-0.237554616285938,0.0574550668413284,NaN,-0.96287691435716,0.0640622181901025,0.887316342013668,1.38812933442235,-0.0292200776182693,0.0997802762533738,0.0997802762543658,-1.38962862755416,1.3896286275543,-0.764114808761324
1320.3456,1.13142314014863,-1.46179573272453,0.702755299329302,0.145109395186843,1.0079479079091,1.00794790790897,-0.112633375765116,-0.831097426942277,-0.378651395072474,-0.140686561922701,0.397829496164932,-0.140686561921885,0.127402713230755,0.178344996886596,0.25311201786777,-0.657777397458568,1.0404029662934,-0.326353605282127,-0.0225461197822574,-0.0122534068220624,-0.0225461197832045,0.300105182119081,1.50541525205943,0.720878592178786,0.786887711036481,-0.705671772491941,-0.705671772489217,-0.690732731839384,0.690732731838853,0.109579187689032,-0.94181047532387,0.402873122296418,-1.10437225418167,-1.76932678594737,-0.79947680338479,-2.22676772538933,-0.642401653581425,-0.298027320826836,-0.298027320829398,0.0696483969910404,NaN,-0.951995381858801,0.0475095155241484,0.887582583660749,1.35888234440902,-0.0301756736160284,0.0875444259274061,0.0875444259283914,-1.37882454348767,1.37882454348782,-0.748401685084816
1320.448,1.07914965644787,-1.44125656120335,0.653904326417591,0.173028392890915,0.998724295219899,0.998724295219754,-0.102058744626828,-0.836675924050329,-0.372575469982153,-0.128303246438733,0.377498321571826,-0.128303246437914,0.143996786855133,0.151297626363749,0.260245372988075,-0.654597676637025,1.10707540454632,-0.306442650934831,0.000573356818692783,0.00479613932096083,0.000573356817723018,0.228969921794442,1.44279583977012,0.645951152668019,0.771184461839582,-0.723690904770366,-0.723690904767659,-0.677118608138406,0.677118608137876,0.112234585931915,-0.911489323110688,0.39436489641356,-1.06248823393833,-1.73882043147664,-0.813661615187667,-2.20392470097614,-0.643793943238309,-0.357855876342672,-0.357855876345241,0.0818195389809685,NaN,-0.940472878087415,0.0305703493534608,0.887430465747841,1.32834316901081,-0.0306355640312047,0.0744755805418827,0.0744755805428647,-1.36657274690039,1.36657274690054,-0.732459522479486
1320.5504,1.0273581051789,-1.42026303944286,0.605728117077628,0.201495027780349,0.990514763156435,0.990514763156282,-0.0902409996420034,-0.842283959608701,-0.365564509463378,-0.113350070291492,0.355026635608058,-0.113350070290663,0.160822781279899,0.122745260639869,0.266899336514671,-0.648570013785162,1.17225176648296,-0.284349462100008,0.0248371521224941,0.0213364238804895,0.0248371521215054,0.159469375958135,1.37954909570199,0.57207172412763,0.753102373495135,-0.74107966138589,-0.741079661383208,-0.663604264967551,0.66360426496702,0.116319024083401,-0.881142423867199,0.386123853606874,-1.02017941326394,-1.70793083033296,-0.826361671641717,-2.17987012624986,-0.644895904259341,-0.416855752291712,-0.41685575229429,0.0938992158156827,NaN,-0.928339998375297,0.0132824921076655,0.886854913270413,1.29657213677588,-0.0305730637588871,0.0605513717414836,0.060551371742461,-1.3529671491575,1.35296714915764,-0.716315253887521
1320.6528,0.976125881439243,-1.39898859129566,0.55824914721861,0.230429277562112,0.983291588927511,0.983291588927346,-0.0772123557731947,-0.847925874666262,-0.357644544922846,-0.0958191500541539,0.330522517249686,-0.0958191500533216,0.177903216446929,0.0927270202063754,0.273122552089626,-0.639655624213474,1.23580832886719,-0.260070745194425,0.0502138395526549,0.0373487838495184,0.0502138395516461,0.0917273865537166,1.31581622948833,0.499381248856944,0.732696269097068,-0.757751651601609,-0.757751651598946,-0.65023435977106,0.65023435977053,0.121900260507485,-0.850844569618446,0.378180414590591,-0.977535724455781,-1.67676978296598,-0.8375315853174,-2.15469138495609,-0.645804970809138,-0.474842372276274,-0.474842372278859,0.1058168290865,NaN,-0.915631169977206,-0.00431439006312167,0.885852414772248,1.26363520995795,-0.0299654653073714,0.0457529623002362,0.0457529623012113,-1.33810486721864,1.33810486721878,-0.699991880816925
1320.7552,0.925528023251261,-1.37760914398883,0.511486494538973,0.259748716340755,0.977022900679467,0.977022900679281,-0.0630155315867724,-0.85360993857563,-0.348850981121669,-0.0757097969339279,0.304098608570404,-0.0757097969330939,0.19525778521383,0.0612892113096821,0.278963772633162,-0.62782923121927,1.29762139027559,-0.233615365913965,0.0766659152538395,0.0528155786061347,0.0766659152528207,0.0258598196594656,1.25174067127735,0.428015281831852,0.710029322449531,-0.773620919209731,-0.77362091920709,-0.637052295394091,0.637052295393561,0.129041045827803,-0.820669913568255,0.370563658521938,-0.934647866048938,-1.64544917200807,-0.847131487677483,-2.12847901203827,-0.646619543244263,-0.531631839645746,-0.531631839648336,0.117500556229437,NaN,-0.902384786539665,-0.0221789575172737,0.884421086045306,1.22960368173045,-0.0287943331596014,0.0300651661100299,0.0300651661109963,-1.32208569610677,1.32208569610691,-0.68350857369809
1320.8576,0.875637150683104,-1.35630225941238,0.465456076111015,0.289368782211883,0.971672870477653,0.971672870477467,-0.0477035880354727,-0.859348434681753,-0.33922850376958,-0.0530287771050644,0.275871731151314,-0.0530287771042314,0.212903237503031,0.0284851816446583,0.284471639362845,-0.613079319784474,1.35756741178471,-0.205004541733471,0.104149919364771,0.0677201169263602,0.104149919363744,-0.0380257566855176,1.18746755951861,0.358103576805433,0.685172740702517,-0.788602388286762,-0.78860238828414,-0.624100116233059,0.624100116232528,0.137798489961295,-0.790691642678126,0.363301178489482,-0.891606925196102,-1.61408043315897,-0.855127158629807,-2.10132623268044,-0.647438634804454,-0.587041679323032,-0.587041679325628,0.128877471533927,NaN,-0.888643294311625,-0.040268413330761,0.882560717405888,1.19455385702521,-0.0270457658411518,0.0134765562806123,0.013476556281573,-1.30501157640441,1.30501157640456,-0.666880833954994
1320.96,0.826523435039672,-1.3352462341969,0.420170929064772,0.319203048296501,0.967201914067268,0.967201914067066,-0.0313396784490354,-0.865157696495656,-0.328830902133023,-0.0277905520872903,0.245962483643317,-0.0277905520864567,0.230853276134941,-0.00562486274197054,0.28969445568927,-0.595408303729797,1.41552320394386,-0.174271944633565,0.132616581255535,0.0820465828686812,0.1326165812545,-0.0998303572289336,1.12314320956381,0.28976969482966,0.658205396904408,-0.802612319202489,-0.802612319199892,-0.611418421927206,0.611418421926674,0.148223472972782,-0.760981660337823,0.356418959123837,-0.848503986624761,-1.58277402290907,-0.861490136877822,-2.07332848748931,-0.648361490102896,-0.640891584494588,-0.64089158449719,0.139873688786874,NaN,-0.874453229860458,-0.0585387180887306,0.880272805446443,1.15856671362825,-0.0247106343189555,-0.00402043314646483,-0.00402043314551839,-1.28698606597797,1.28698606597812,-0.650120704950102
1321.0624,0.778254596702291,-1.31461917296475,0.375641531319863,0.349163490592323,0.963566892090368,0.963566892090165,-0.0139967158624027,-0.871058096947909,-0.317720812233553,-1.74951103953442e-05,0.214494818108889,-1.74951095646509e-05,0.24911846025352,-0.0409740779981675,0.294679951491078,-0.574832599526697,1.47136616646428,-0.141463706287454,0.162010990745553,0.0957799666886732,0.162010990744511,-0.159463821254321,1.05891456040763,0.223130638595757,0.629213415572882,-0.815568771289462,-0.815568771286886,-0.599046299575341,0.599046299574809,0.160360100859523,-0.731610281115075,0.349941270141843,-0.805429740486685,-1.55163888642214,-0.866197811322446,-2.04458294730179,-0.649487172156093,-0.693004160445766,-0.693004160448371,0.150414529405159,NaN,-0.859865197144993,-0.0769448077265639,0.877560571731831,1.12172753908,-0.0217847992996337,-0.022429413197325,-0.022429413196386,-1.26811382279675,1.26811382279689,-0.633237017410948
1321.1648,0.730895923796442,-1.2945980407181,0.331876151906898,0.379160755245403,0.960721308846248,0.960721308846041,0.00424303417193309,-0.877073992449541,-0.305969387441458,0.0302599218028816,0.181595595316562,0.0302599218037117,0.267706117840623,-0.0774892450364784,0.299475037315757,-0.551382599170161,1.52497459723994,-0.106638314617855,0.192272797389465,0.10890600314912,0.192272797388433,-0.216845001395549,0.994928603111731,0.158296521362033,0.598289719744759,-0.827392071188012,-0.827392071185453,-0.58702126389926,0.587021263898726,0.17424519699408,-0.702645930391282,0.343890561375381,-0.762474096795508,-1.52078192497079,-0.869233488688255,-2.01518801432311,-0.650914117560817,-0.743205664949342,-0.743205664951951,0.16042472323478,NaN,-0.844933769401737,-0.0954408152249016,0.87442896943771,1.08412554337171,-0.0182693030460578,-0.0417499615192717,-0.041749961518349,-1.24850010086351,1.24850010086365,-0.616235658479954
1321.2672,0.684510303434464,-1.27535770156259,0.288881219525976,0.409104430572367,0.958615508567899,0.958615508567682,0.0232884284910567,-0.88323362216468,-0.293655901776163,0.0630029762127567,0.147394122691006,0.0630029762135826,0.286620272927809,-0.115091080973044,0.304125552097138,-0.525102539257313,1.57622808165721,-0.0698663963512331,0.223336440298065,0.121411116011729,0.223336440297052,-0.271901893428531,0.931331795463631,0.0953702766185886,0.565533548301946,-0.838005284804122,-0.838005284801579,-0.57537919175121,0.575379191750674,0.18990781952648,-0.674154839692056,0.33828734987238,-0.719725803449093,-1.49030746169505,-0.870586431313459,-1.98524280498738,-0.652739666925435,-0.791326747229417,-0.791326747232033,0.169828645039958,NaN,-0.829717314226843,-0.113980291324664,0.870884676905315,1.04585345461881,-0.0141705265410189,-0.0619775652275669,-0.0619775652266533,-1.22825025840003,1.22825025840017,-0.599119856814625
1321.3696,0.639158260770955,-1.25706995089318,0.246661701755366,0.438903324571682,0.957196872630368,0.957196872630129,0.0430399843591089,-0.889568964053564,-0.280867289953092,0.0981645828368836,0.11202167929779,0.0981645828377023,0.305861593027339,-0.153694601754518,0.308676010196295,-0.496050271072926,1.6250079617086,-0.0312303900171462,0.255131410411189,0.133282367205429,0.25513141041019,-0.324571709527221,0.868269465275129,0.0344474073673794,0.531049948060792,-0.847334689167865,-0.847334689165334,-0.564154244987185,0.564154244986646,0.207368804081837,-0.646200733637731,0.33315010146387,-0.677272057190359,-1.46031670865832,-0.870251862956386,-1.95484661634259,-0.655059582577295,-0.837203185305338,-0.837203185307959,0.1785505835868,NaN,-0.814277753127625,-0.132516418636961,0.866936078309344,1.00700710806219,-0.00950029860885017,-0.0831035820483805,-0.0831035820474789,-1.20746927684902,1.20746927684916,-0.581890479089488
1321.472,0.59489800460716,-1.23990254964636,0.205221490557081,0.468465744194568,0.956410022456945,0.956410022456691,0.0633904781195367,-0.896115552020451,-0.267697627618284,0.135689219685182,0.0756110291860407,0.135689219686002,0.325427359299504,-0.193209531774678,0.313169353113337,-0.464296941205497,1.67119787705735,0.00917588002284034,0.287582547486848,0.144507410479029,0.287582547485864,-0.374800902889678,0.805885204482379,-0.0243842303350534,0.494949241015567,-0.855310242240251,-0.855310242237729,-0.553378785419952,0.553378785419413,0.226640340550074,-0.618844511106977,0.3284951176788,-0.635198096685521,-1.43090724266126,-0.868230945011712,-1.92409838480613,-0.65796756336363,-0.880676620155396,-0.880676620158021,0.186515038949216,NaN,-0.798680268837884,-0.151002216758458,0.862593233953746,0.967685036283822,-0.00427594386490534,-0.105115212898504,-0.105115212897609,-1.18626128608807,1.1862612860882,-0.564546333372464
1321.5744,0.551785479805879,-1.22401827185063,0.164563790444333,0.497699772758406,0.956197032898598,0.956197032898319,0.0842256028526627,-0.902912261326804,-0.254247555519095,0.175512889755875,0.0382959224509395,0.175512889756688,0.345311460055081,-0.233540754332721,0.317646709788125,-0.429926591674642,1.7146843673107,0.0512477176820615,0.320610376925609,0.155074451109895,0.320610376924643,-0.42254515284516,0.744320254843889,-0.081044616293686,0.457346464582707,-0.861866051153132,-0.861866051150618,-0.543083287184494,0.543083287183954,0.247725593818971,-0.592143924389306,0.324336437040237,-0.593586771624518,-1.40217249733905,-0.864530728434834,-1.89309614781672,-0.661554762497718,-0.921595286581566,-0.921595286584197,0.193647046178594,NaN,-0.782992969061527,-0.169390737835712,0.857867841894637,0.927988064071458,0.00147973769802644,-0.127995482396614,-0.127995482395728,-1.16472908751289,1.16472908751302,-0.547084472033939
1321.6768,0.509874425298053,-1.20957397458521,0.124691504829339,0.526513544827048,0.956497660208593,0.956497660208282,0.105424681100209,-0.910001071987532,-0.240623654032129,0.217563115265066,0.000210585846393011,0.217563115265868,0.365504408746577,-0.274588799759534,0.322147168582849,-0.393035684751042,1.75535752679725,0.0948701504998246,0.354131492317132,0.164972216518114,0.354131492316186,-0.467769319943356,0.683712881521811,-0.135461736041492,0.418360780906065,-0.866940839398244,-0.866940839395735,-0.533296245095818,0.533296245095275,0.270618371489495,-0.566153255276535,0.320685749109859,-0.5525180882918,-1.37420127544196,-0.859164088296374,-1.86193651616013,-0.665909314585131,-0.959814741144671,-0.959814741147304,0.19987252666194,NaN,-0.767286506802055,-0.187635252370983,0.85277318994484,0.888018906946792,0.00773855987714355,-0.15172322733133,-0.151723227330445,-1.14297366923208,1.14297366923221,-0.529500488002467
1321.7792,0.469216432440573,-1.19671969218148,0.0856076142969129,0.55481551989291,0.957249585457948,0.957249585457609,0.126861423658371,-0.917426819906116,-0.226937778331351,0.261758962773917,-0.0385107913402724,0.261758962774713,0.385993387644325,-0.316250371076105,0.326707562532105,-0.353732553402996,1.79311170965902,0.139918604835695,0.388058985141173,0.174189945810218,0.388058985140245,-0.510447378535871,0.624197729423546,-0.187571739081506,0.378114853048111,-0.870478413031836,-0.870478413029339,-0.524044072527906,0.524044072527362,0.295302835681397,-0.540922984154402,0.317552311586933,-0.5120687383492,-1.34707728195335,-0.852149646687216,-1.83071416080775,-0.671115879515019,-0.995198584670164,-0.995198584672799,0.205118670632171,NaN,-0.751633648073403,-0.205689427289925,0.847324096744362,0.847881767852429,0.0144671030118527,-0.17627309457707,-0.176273094576187,-1.12109371820464,1.12109371820477,-0.511788801487496
1321.8816,0.429860995707118,-1.18559775378563,0.0473155385197296,0.582514754927431,0.958388668896587,0.958388668896195,0.148404723565294,-0.925236939760502,-0.213306363881026,0.308011100493082,-0.0777345697894213,0.308011100493869,0.406762316626796,-0.358418906326758,0.331362267577873,-0.31213677573804,1.8278462871371,0.18625966285665,0.42230291703787,0.182717403567656,0.42230291703696,-0.550562327490043,0.565905164412579,-0.237319085307178,0.336734193407201,-0.872428125500097,-0.872428125497612,-0.515350986575411,0.515350986574865,0.321753257044564,-0.516499453125929,0.314942865323467,-0.472311619954862,-1.32087867868312,-0.843511684497566,-1.79952131520195,-0.677255208149066,-1.02761917418742,-1.02761917419006,0.209314354273062,NaN,-0.736108775083728,-0.223507500373967,0.841536841314015,0.807681923817232,0.0216269236768956,-0.201615550955329,-0.201615550954456,-1.09918514587073,1.09918514587085,-0.493942933432944
1321.984,0.391855549233406,-1.17634192985767,0.00981947293003516,0.609521172179353,0.959849211064654,0.959849211064216,0.169919479520938,-0.93348119314146,-0.199849704344927,0.356221891377319,-0.117328166992654,0.356221891378098,0.427791945685765,-0.400985172156429,0.336143014806308,-0.268378475651313,1.85946644645008,0.233751896614904,0.456770824672533,0.190544912310025,0.456770824671646,-0.588106072748778,0.508960614294166,-0.284656669923378,0.294346498763473,-0.872745336566011,-0.872745336563542,-0.507238887022123,0.507238887021574,0.349933813846136,-0.492924533303888,0.312861554504137,-0.433315358974534,-1.29567766330385,-0.833280036859665,-1.76844729308016,-0.684403727349913,-1.05695831767319,-1.05695831767583,0.212390590721842,NaN,-0.72078732251568,-0.241044453285308,0.835429079262196,0.76752529598574,0.0291748181627693,-0.227716907859263,-0.227716907858401,-1.07734064671032,1.07734064671044,-0.475955765493245
1322.0864,0.355245485782843,-1.16907661977841,-0.0268753077744035,0.635745816467434,0.961564226800958,0.961564226800482,0.191267448086867,-0.942211367169838,-0.186691197199869,0.406285523907095,-0.157160556761613,0.406285523907864,0.449059970577693,-0.443837877737639,0.341078721563657,-0.222597564906681,1.88788399042172,0.282246755061028,0.491368240538945,0.197663385106782,0.49136824053808,-0.623079274794837,0.453483933733076,-0.329545913671308,0.251080992227433,-0.871391851001991,-0.871391850999538,-0.499727239125748,0.499727239125198,0.379798441957898,-0.470235313041738,0.31130986502621,-0.395143841634323,-1.27154007745081,-0.821489964145274,-1.73757802198432,-0.692633134060687,-1.083107940068,-1.08310794007063,0.214281003190625,NaN,-0.705745166692669,-0.258256183258973,0.829019744276012,0.72751800091393,0.0370631364804334,-0.254539363641458,-0.25453936364061,-1.0556493011527,1.05564930115282,-0.457819803393533
1322.1888,0.320074154918058,-1.16391609103109,-0.0627621863829875,0.661101099797088,0.963465748226696,0.96346574822617,0.212308120480731,-0.951480930558511,-0.173956555641692,0.458088177278297,-0.197102760534738,0.458088177279054,0.470541170621614,-0.486864296657764,0.346195346550457,-0.174942953160135,1.91301808266869,0.331589466007605,0.525999208936229,0.204064335976965,0.525999208935382,-0.655491159208622,0.399588814954721,-0.371956809843831,0.207067793150153,-0.868336312918616,-0.868336312916184,-0.492832964702528,0.492832964701978,0.411290741632691,-0.448463823814034,0.310286586599191,-0.35785578052042,-1.24852504762858,-0.808181989990166,-1.70699559148463,-0.70200998535817,-1.1059707036911,-1.10597070369374,0.214922295921836,NaN,-0.691058009271239,-0.275099674624067,0.822328939365631,0.6877658874647,0.0452401372217244,-0.282041068355896,-0.282041068355064,-1.03419622184057,1.03419622184069,-0.439527476357075
1322.2912,0.286382836492069,-1.16096377318468,-0.0978329854725551,0.685501038634316,0.965485169230595,0.965485169230022,0.232899613228669,-0.961344644751991,-0.161772994115063,0.511508214986609,-0.237028327207599,0.511508214987354,0.492207566388906,-0.529950888611908,0.35151577022671,-0.125571747703772,1.93479590990918,0.381619926158827,0.560566784125837,0.209739857982223,0.560566784125014,-0.685359295188036,0.347382252568539,-0.411867929102381,0.162437328300966,-0.863554533980721,-0.863554533978304,-0.486570336090513,0.486570336089962,0.444343945491418,-0.427636811517349,0.309787790857594,-0.321504338684853,-1.22668465936224,-0.793401700719754,-1.6767778134305,-0.712595277556597,-1.12546056979095,-1.12546056979358,0.214254699541021,NaN,-0.676800796216975,-0.291533170001435,0.81537782581546,0.648374070991526,0.0536503701353106,-0.310176217912714,-0.310176217911904,-1.01306223118215,1.01306223118227,-0.421071497789832
1322.3936,0.254210689078375,-1.16031160465132,-0.132077794956366,0.708861491798111,0.967553630314552,0.967553630313925,0.252899565927173,-0.971858136133589,-0.150268394711279,0.566416404455571,-0.276813793861164,0.566416404456308,0.514028596746274,-0.572983917329524,0.357059701680665,-0.0746484486850984,1.95315326804749,0.432173575725299,0.594973514870378,0.214682578255266,0.594973514869578,-0.71270935169507,0.296964056513965,-0.449266391457447,0.117319782877548,-0.857029749578727,-0.85702974957633,-0.480950863745762,0.480950863745211,0.478880951568161,-0.407775549741861,0.309806812565307,-0.286136824047317,-1.20606366188553,-0.777199506480109,-1.64699779167105,-0.724444017668744,-1.14150329943112,-1.14150329943376,0.212222383300743,NaN,-0.663047188885595,-0.307516335200132,0.80818851157957,0.609446478003491,0.0622350749747652,-0.338895185402835,-0.338895185402051,-0.99232355279851,0.992323552798622,-0.402445286856005
1322.496,0.223594680091917,-1.16203943029031,-0.165484836975273,0.731100399877194,0.969602432278331,0.969602432277653,0.272166053168889,-0.983077434199041,-0.139570450795782,0.62267616623278,-0.316339118591591,0.622676166233516,0.535971317732962,-0.615850060728532,0.362843617164305,-0.0223441341619656,1.9680350843671,0.483082265856206,0.629121930199439,0.218885608348312,0.629121930198667,-0.737574841573103,0.248426400930097,-0.484147817316767,0.0718445795873025,-0.84875280952229,-0.848752809519914,-0.475983176377982,0.475983176377431,0.514814426658811,-0.388895690601247,0.310334229339216,-0.25179445272745,-1.18669920111879,-0.759630367447353,-1.6177235008562,-0.737604794817705,-1.15403689939712,-1.15403689939976,0.208773838609427,NaN,-0.649869085157374,-0.323010410377968,0.800783933532236,0.571085406598447,0.0709325861282933,-0.368144693319664,-0.368144693318901,-0.97205150558081,0.972051505580919,-0.383643432006851
1322.5984,0.194569509120401,-1.16621445037991,-0.198040355969748,0.752138016839624,0.971563465535942,0.971563465535203,0.290558524587855,-0.995058476242797,-0.129805777444137,0.680143858312831,-0.355488079604033,0.680143858313563,0.558000624785761,-0.658437006810728,0.368880735546608,0.0311643729695352,1.97939587902133,0.53417512687516,0.662915038139772,0.222342504392452,0.662915038139027,-0.759996859890223,0.201853398418393,-0.516516265828422,0.0261398753488031,-0.838722309928204,-0.838722309925842,-0.471672904581662,0.471672904581112,0.552046986854706,-0.37100715617539,0.311357846233425,-0.218512177747831,-1.16862058271224,-0.740753486695173,-1.58901737698574,-0.752119356234898,-1.16301201644994,-1.16301201645258,0.203862235388779,NaN,-0.6373361889431,-0.337978346832526,0.79318772963572,0.533391098146807,0.0796787337224704,-0.397868023229921,-0.397868023229188,-0.952312205063885,0.952312205063993,-0.36466217413521
1322.7008,0.167167534592416,-1.17289072321972,-0.229728523871132,0.771897119918633,0.97336964544511,0.973369645444326,0.307938778240222,-1.00785657942926,-0.121098985026901,0.738669099174103,-0.394148638980496,0.738669099174835,0.580079495606919,-0.700634030441086,0.375181029752483,0.0856953628596295,1.98720016904351,0.585279444164169,0.696256841319322,0.225047244611277,0.696256841318588,-0.780023815148546,0.157320696464879,-0.546384160531214,-0.0196679266390198,-0.826944670595499,-0.826944670593153,-0.468022583186714,0.468022583186166,0.590471462622278,-0.354114074251021,0.312862690441242,-0.186318582207801,-1.15184907131769,-0.720631970200187,-1.56093592618101,-0.768022188093983,-1.16839227790797,-1.16839227791061,0.19744574784441,NaN,-0.625515629293213,-0.352384935238787,0.785424102424646,0.496461311823562,0.0884072381139521,-0.428005257228347,-0.428005257227637,-0.933166288808502,0.933166288808607,-0.345499887100887
1322.8032,0.141418708660548,-1.1821087266782,-0.260531357037718,0.790303187055741,0.974955349399154,0.974955349398312,0.32417195956303,-1.02152588443282,-0.113571723318247,0.798095130229461,-0.432213273259372,0.798095130230191,0.602169249086773,-0.742332551529666,0.381751268105591,0.141063125191156,1.99142282060731,0.636221546573643,0.729052868968642,0.226994226893733,0.729052868967925,-0.797711144772323,0.114895102121237,-0.573772193743367,-0.0654546444155078,-0.813434163701827,-0.813434163699497,-0.465031582682017,0.465031582681471,0.62997125165747,-0.338214753494689,0.314831010905018,-0.155235835660407,-1.13639773453766,-0.699332455513537,-1.53352936103968,-0.78534009914143,-1.17015457542611,-1.17015457542875,0.189487849543523,NaN,-0.614471624962423,-0.366196929735335,0.777517675520089,0.460390896567644,0.0970501039173614,-0.458493552056329,-0.458493552055649,-0.914668680035904,0.914668680036006,-0.326157531482229
1322.9056,0.117350520044224,-1.19389498791174,-0.290428648425394,0.807284540188262,0.976256855974524,0.97625685597365,0.339127573678384,-1.03611877621585,-0.107341707395139,0.85825921696593,-0.469579273387348,0.858259216966664,0.624229818391316,-0.783426678269923,0.388595081302586,0.197078862052866,1.99204935064509,0.686827705646998,0.761210722978268,0.228178285874059,0.761210722977583,-0.813121003863809,0.0746342450953783,-0.5987091979423,-0.11109875722979,-0.798212900878776,-0.798212900876449,-0.46269607209152,0.462696072090974,0.670420750184097,-0.323301689374802,0.31724227292558,-0.125279712296181,-1.12227134012672,-0.676924709893384,-1.50684127365338,-0.804091807270222,-1.16828928928459,-1.16828928928723,0.179957582732858,NaN,-0.604265186793696,-0.379383165917823,0.769493341720961,0.425271361859108,0.105538026179166,-0.489267454460657,-0.489267454459996,-0.896868394587656,0.896868394587757,-0.306639059354851
1323.008,0.0949879404163388,-1.20826178935682,-0.319397922548375,0.822772464006195,0.977212787334359,0.977212787333455,0.352680499514373,-1.05168528785585,-0.102521736179111,0.918993088145018,-0.506149012730087,0.918993088145746,0.646220039761324,-0.823813737153194,0.395713056095178,0.253551617742966,1.98907617394868,0.73692503615263,0.792640633497969,0.228594727161433,0.792640633497316,-0.82632191921085,0.0365862865894584,-0.62123197560025,-0.156481813621801,-0.781310784756286,-0.781310784753968,-0.461009008868196,0.461009008867653,0.711685838867221,-0.309361598277384,0.320073144141288,-0.0964596715357588,-1.10946631342208,-0.65348119834847,-1.48090835256598,-0.824287536495318,-1.16280044947185,-1.16280044947448,0.16882980739733,NaN,-0.594953852720046,-0.391914666606377,0.761376100107915,0.391190454611771,0.113800821631952,-0.520259266099288,-0.520259266098651,-0.879808392448351,0.87980839244845,-0.286951757026479
1323.1104,0.0743533666738588,-1.22520695199996,-0.347414421787859,0.836701318167265,0.977764552832902,0.97776455283197,0.364711991850992,-1.0682724953874,-0.0992187169940751,0.980123410690614,-0.541830178206461,0.980123410691348,0.668097957430576,-0.863394787001346,0.403102857613795,0.310289211508667,1.98251079303383,0.786342384625222,0.823256015769538,0.228239375403279,0.823256015768924,-0.837388407360374,0.000789677005668868,-0.64138508554959,-0.201488806755267,-0.762765429537396,-0.762765429535079,-0.459960146758002,0.459960146757459,0.753624396315372,-0.296375483405531,0.323297477426265,-0.0687789995474797,-1.09797075761905,-0.629076628637427,-1.45576015022452,-0.845928638914863,-1.15370583105727,-1.1537058310599,0.156085434552899,NaN,-0.586591449484939,-0.403764729759847,0.753190881682023,0.358231751568055,0.121767890375505,-0.551399455677355,-0.551399455676735,-0.863525474915006,0.863525474915103,-0.267106525968642
1323.2128,0.0554665504754562,-1.24471368958614,-0.37445113107161,0.84900866267064,0.977856786175704,0.977856786174752,0.375110654291092,-1.08592391259494,-0.0975327122197196,1.04147229320039,-0.576535959893211,1.04147229320113,0.689821139611855,-0.902075109891603,0.410759377592383,0.367099158324969,1.9723719314953,0.834911192686764,0.852974015439378,0.227108632102983,0.852974015438804,-0.84640056356991,-0.0327270361703409,-0.659220590670403,-0.246008517618967,-0.742622052218004,-0.742622052215687,-0.459536053284891,0.459536053284352,0.796086825176445,-0.284318736869466,0.326886302320466,-0.0422350030593872,-1.08776453352066,-0.603787490006845,-1.43141890685821,-0.869007257757738,-1.14103698448259,-1.14103698448522,0.141711647453592,NaN,-0.579227870208298,-0.414908996168146,0.744962366376213,0.326474275509138,0.129368700190816,-0.582617100118122,-0.582617100117518,-0.848050225536374,0.848050225536469,-0.247118112647267
1323.3152,0.0383445085851713,-1.26675052465929,-0.400478844673226,0.859635411025056,0.977437763918699,0.977437763917719,0.38377336950478,-1.10467889123573,-0.097556020354888,1.10285780912441,-0.610185196907214,1.10285780912515,0.711346997028555,-0.939764669190025,0.418674902720414,0.423789564949051,1.95868961214859,0.882466323984168,0.881716029458346,0.225199539619726,0.881716029457815,-0.853443631768261,-0.0639453478835991,-0.674797773872499,-0.289933828060701,-0.720933331345483,-0.720933331343166,-0.459720137598323,0.459720137597786,0.838916593645983,-0.273161284233646,0.330807840955887,-0.0168192439714649,-1.07881939297975,-0.577691603928587,-1.40789943511407,-0.893506044836433,-1.1248392007142,-1.12483920071682,0.125702111122346,NaN,-0.572908857153294,-0.425325498567418,0.736714797021958,0.295992140348162,0.136533278148935,-0.613840327761847,-0.613840327761257,-0.833406990505895,0.833406990505988,-0.227005299544582
1323.4176,0.0230014125167706,-1.29127126026652,-0.425466274593771,0.868526016154245,0.976459793404733,0.976459793403743,0.390606181872645,-1.12457202862224,-0.0993722958783555,1.16409453569493,-0.642702479570964,1.16409453569568,0.732633097103057,-0.976378525140371,0.426839299300127,0.480169993385096,1.94150517953397,0.928846847551794,0.909408195838033,0.222509849822783,0.909408195837554,-0.858607561077822,-0.0928568774263734,-0.688182824997444,-0.333162008619986,-0.697759227977381,-0.697759227975057,-0.460492700291547,0.460492700291013,0.881950806848235,-0.262867784180499,0.335027568115488,0.00748219055956684,-1.07109916327407,-0.550867698058052,-1.3852090689088,-0.919397942531102,-1.1051714074143,-1.10517140741691,0.108057164997396,NaN,-0.56767578697292,-0.434994697881329,0.728471797042818,0.266854224616253,0.143192700879087,-0.644996743581642,-0.644996743581065,-0.819613898817306,0.819613898817396,-0.206791064986652
1323.52,0.00944846276878364,-1.31821500676885,-0.449380194663415,0.875628684151553,0.97487956352701,0.974879563526006,0.395525133513353,-1.14563258592329,-0.103055708341789,1.22499411154063,-0.674018209889991,1.2249941115414,0.753637468602682,-1.01183720143457,0.435240210997341,0.536052289874545,1.92087126584806,0.973896775662389,0.935981850358371,0.219038097392766,0.935981850357939,-0.861986546658278,-0.119463386453834,-0.699448494868506,-0.375594988238971,-0.673166767091363,-0.673166767089026,-0.461831017410598,0.461831017410066,0.925020822487849,-0.253397897544298,0.339508331749673,0.0306883803565338,-1.06455998289928,-0.52339500827522,-1.36334767968818,-0.946646037506636,-1.08210599181094,-1.08210599181354,0.0887839905654072,NaN,-0.563565461947519,-0.443899514688669,0.720256197428744,0.239123866812891,0.149279586018303,-0.67601383356506,-0.676013833564493,-0.806682929205533,0.80668292920562,-0.186502715951138
1323.6224,-0.00230624171562534,-1.34750626777152,-0.472185610367538,0.880895605225572,0.97265845878021,0.972658458779208,0.3984570545845,-1.16788392341311,-0.108670142214785,1.28536581851476,-0.704068624365432,1.28536581851554,0.774318891254566,-1.04606700251866,0.443863262855944,0.591251384411975,1.89685170411497,1.01746576164404,0.96137394686925,0.21478367799001,0.96137394686886,-0.863678547401278,-0.143776729080995,-0.708673709454106,-0.417139610053196,-0.647229784155903,-0.647229784153554,-0.463709460023133,0.463709460022604,0.967952914508867,-0.244706627353887,0.344210533381089,0.0528232230559134,-1.05915058884316,-0.495352908998829,-1.34230776026381,-0.975203488655975,-1.05572855219395,-1.05572855219654,0.0678967492337651,NaN,-0.560609908201383,-0.452025360776735,0.7120898741377,0.212858575567832,0.154728588464018,-0.706819360484712,-0.706819360484156,-0.794620028866816,0.794620028866902,-0.166171997825905
1323.7248,-0.0122578282969017,-1.37905509211866,-0.493845945495639,0.8842831904876,0.96976284330003,0.969762843299032,0.399340307990251,-1.19134295730611,-0.116268439015446,1.34501719336173,-0.732795783822381,1.34501719336252,0.794637168668688,-1.07900028953812,0.452692265409837,0.645586073185275,1.86952140042505,1.05940977185343,0.985527438064706,0.209746931719863,0.98552743806436,-0.863784772424485,-0.165818735643033,-0.715943138491238,-0.457707870348831,-0.620028645020374,-0.620028645018015,-0.466099639713191,0.466099639712665,1.01056897548755,-0.236744714036607,0.349092347670358,0.0739150423377551,-1.05481265440371,-0.466820564846989,-1.32207457143178,-1.00501352521132,-1.02613758887182,-1.02613758887439,0.0454166918869689,NaN,-0.55883617645355,-0.459360166309482,0.703993591341941,0.188109756040684,0.15947689994962,-0.737341767140332,-0.737341767139789,-0.78342528014285,0.783425280142933,-0.145835183058221
1323.8272,-0.0204047632832584,-1.41275729813625,-0.51432324100522,0.885752307590025,0.966164322595557,0.966164322594552,0.398125488824261,-1.21601963792902,-0.125891681389061,1.40375467414377,-0.760147534033843,1.40375467414458,0.814553389089643,-1.11057572460485,0.461709419646659,0.698879795560522,1.8389661755651,1.09959174490987,1.00839161812594,0.203929231068188,1.00839161812564,-0.8624091334507,-0.185621035400514,-0.721346718058164,-0.49721713345705,-0.591649944173214,-0.591649944170842,-0.468970568237209,0.468970568236687,1.05268724496516,-0.22945906587811,0.354109957766215,0.0939961558117717,-1.05148117759205,-0.437876592517411,-1.30262634522819,-1.03600950773761,-0.993444146451098,-0.993444146453653,0.0213722436963338,NaN,-0.558266142082689,-0.465894391295975,0.695986844352315,0.164922463960589,0.163464747918104,-0.767510591955882,-0.767510591955347,-0.773093105882527,0.773093105882606,-0.125533133403306
1323.9296,-0.0267489492401152,-1.44849476908453,-0.533578362276828,0.885268515431063,0.96183998315887,0.961839983157876,0.394776075824732,-1.24191644685358,-0.137568520368077,1.46138428120721,-0.786077440050323,1.46138428120804,0.834030176815482,-1.14073848433304,0.470895525933782,0.75096140372094,1.80528257245315,1.13788223557049,1.02992242617305,0.197333068173704,1.02992242617278,-0.859657668996784,-0.203224820585152,-0.724979132417319,-0.53559031872036,-0.562186178913403,-0.562186178911024,-0.472288825983219,0.4722888259827,1.09412305937959,-0.222793216327218,0.359217801098923,0.113102409949485,-1.04908492027402,-0.408598727549445,-1.28393454200876,-1.06811504905302,-0.957771408817966,-0.957771408820507,-0.00420093554331895,NaN,-0.558916307225825,-0.471621013509738,0.688087701222327,0.143335199923696,0.166635886577804,-0.797256882578127,-0.797256882577597,-0.763612504054697,0.763612504054773,-0.105311325731825
1324.032,-0.0312958036811982,-1.48613580946867,-0.551571207633826,0.882802301939635,0.956772600427896,0.95677260042691,0.389269027535264,-1.26902791367563,-0.151314551612025,1.51771232503954,-0.810544697051093,1.51771232504038,0.853031929720711,-1.16944043331573,0.480230195916839,0.801665911283001,1.7685776173773,1.17416002786118,1.05008269988062,0.189962133587137,1.05008269988038,-0.855637951444505,-0.218680549146033,-0.726939262751494,-0.572756063573386,-0.531735391221116,-0.53173539121873,-0.476018744459373,0.476018744458859,1.13468963097953,-0.216687813821398,0.364368841200902,0.131272694068564,-1.04754689626877,-0.379063499656951,-1.26596416160886,-1.10124419951189,-0.91925423699051,-0.919254236993035,-0.0312599197544833,NaN,-0.560797610212175,-0.476535494027556,0.680312648160425,0.123379749216961,0.168938069179575,-0.826513582329301,-0.826513582328772,-0.754967304733969,0.754967304734042,-0.0852198377476496
1324.1344,-0.0340543142788999,-1.52553554852184,-0.56826090814608,0.878329325779258,0.950950803201048,0.950950803200062,0.381595315669527,-1.29734015808264,-0.167131748321954,1.57254613291315,-0.83351402104594,1.572546132914,0.871525035883734,-1.19664024662052,0.489692064131141,0.850835209702545,1.72896852769018,1.20831270550946,1.06884236716799,0.181821380988423,1.06884236716779,-0.850458484373953,-0.232047584045596,-0.727329607747265,-0.608648873866631,-0.500400768476669,-0.500400768474278,-0.480122615658802,0.480122615658292,1.17419887030781,-0.211081155465826,0.369514887746877,0.148548444682591,-1.04678490515467,-0.349345921448192,-1.24867410798831,-1.13530170387273,-0.878038638088977,-0.878038638091486,-0.0597545213700025,NaN,-0.563915248809829,-0.480635726804817,0.672676443472311,0.10508106245844,0.170323491761302,-0.855215872565904,-0.85521587256538,-0.747136445877007,0.747136445877076,-0.0653132986890534
