time,S1-D1,S1-D8,S1-D9,S1-D15,S2-D1,S2-D2,S2-D3,S2-D9,S3-D1,S3-D2,S3-D16,S4-D2,S4-D3,S4-D5,S5-D3,S5-D4,S5-D5,S6-D2,S6-D5,S6-D17,S7-D6,S7-D7,S8-D6,S8-D7,S8-D18,S9-D3,S9-D4,S9-D9,S9-D11,S9-D19,S10-D8,S10-D9,S10-D10,S10-D11,S11-D8,S11-D10,S11-D20,S12-D10,S12-D11,S12-D12,S13-D4,S13-D11,S13-D12,S14-D10,S14-D12,S14-D21,S15-D13,S15-D14,S16-D13,S16-D14,S16-D22,SART_Target,SART_NonTarget,SART_Probe
2074.5216,9.29333463271119e-07,4.80623356648206e-07,1.40995681991998e-06,-6.76449715842153e-07,1.90254928010683e-07,1.90254928010398e-07,NaN,3.30977564247445e-07,5.59011281340889e-07,-1.81870097241795e-07,-5.58333881295583e-07,-1.81870097241622e-07,-1.15633606357364e-06,-1.65122693448683e-06,NaN,-1.19384691985215e-07,-3.39053931274277e-08,-1.53290085112299e-07,-9.00246561250369e-08,8.51435282605036e-07,-9.00246561256015e-08,NaN,-6.40623192828472e-06,1.39024984681785e-05,NaN,-2.48175705701722e-07,-2.34679302700967e-07,-3.13667806092696e-07,3.13667806092062e-07,-3.33245689873566e-07,-1.35116464181424e-07,6.07102634802451e-08,-7.44062007013989e-08,NaN,8.12695086879525e-08,3.22954409859375e-07,-1.6255534228452e-06,-3.51178200948952e-07,-3.51178200949978e-07,-7.58108365853745e-08,-6.94754087633942e-09,-8.27583774617978e-08,1.05496894074973e-07,-4.08584182069497e-08,6.46384758678265e-08,NaN,7.00452615384431e-08,NaN,-2.25525493126184e-06,2.25525493126025e-06,-2.0962056442046e-06,0,1,0
2074.624,9.16440206746301e-07,4.53915623585453e-07,1.37035583033242e-06,-6.98197665280568e-07,1.97924175564911e-07,1.97924175564622e-07,NaN,3.51905370277222e-07,5.97448669525499e-07,-1.91023908756937e-07,-5.43006888580345e-07,-1.91023908756769e-07,-1.12914701971714e-06,-1.69738457973209e-06,NaN,-1.27036423016933e-07,-2.62799671197167e-08,-1.53316390136309e-07,-7.49169650145373e-08,8.45412745879085e-07,-7.49169650151145e-08,NaN,-7.15037580185987e-06,1.46551192104714e-05,NaN,-2.47976436004564e-07,-2.36936917411436e-07,-3.20635311482287e-07,3.20635311481646e-07,-3.460952867556e-07,-1.43003312766846e-07,5.27214535129628e-08,-9.02818592541053e-08,NaN,6.91469450656714e-08,3.08187526295873e-07,-1.6237142101965e-06,-3.61930187049817e-07,-3.61930187050858e-07,-8.91628858058553e-08,-2.48346205535602e-09,-9.16463478612989e-08,9.67131506952245e-08,-4.03055046103795e-08,5.64076460846444e-08,NaN,7.03605997561956e-08,NaN,-2.03612802811747e-06,2.03612802811589e-06,-2.22247428776519e-06,0,1,0
2074.7264,8.94102990159251e-07,4.21435826658492e-07,1.31553881681843e-06,-7.04396132057753e-07,2.02200933017719e-07,2.02200933017428e-07,NaN,3.74221963714359e-07,6.50575961893429e-07,-1.97694743012003e-07,-5.26355734136386e-07,-1.97694743011839e-07,-1.07388697431087e-06,-1.77154065877656e-06,NaN,-1.31145423023769e-07,-1.98510084598289e-08,-1.50996431483261e-07,-5.54235650793625e-08,8.37382035056344e-07,-5.54235650799535e-08,NaN,-8.61153242127417e-06,1.61754115460714e-05,NaN,-2.48038231192794e-07,-2.37994976399251e-07,-3.20902214081161e-07,3.20902214080512e-07,-3.58196098497231e-07,-1.49529820299928e-07,4.21245227623098e-08,-1.07405297537841e-07,NaN,5.28738918693875e-08,2.8762060844773e-07,-1.60550471924657e-06,-3.78130697761139e-07,-3.78130697762193e-07,-1.00357923015298e-07,9.09420651469636e-10,-9.94485023639207e-08,9.02620200886007e-08,-4.26238080914214e-08,4.7638211996974e-08,NaN,6.71949108826864e-08,NaN,-1.78651878482456e-06,1.78651878482297e-06,-2.37024462752097e-06,0,1,0
2074.8288,8.6289544822075e-07,3.8432831188243e-07,1.24722376010388e-06,-6.95549225568806e-07,2.0309437119738e-07,2.03094371197087e-07,NaN,3.97076405022354e-07,7.177996489586e-07,-2.02059954504851e-07,-5.08886892827977e-07,-2.02059954504691e-07,-9.94521878785577e-07,-1.87326720116448e-06,NaN,-1.32111760683029e-07,-1.44959603014408e-08,-1.46607720984139e-07,-3.20187282692276e-08,8.27584305057419e-07,-3.20187282698325e-08,NaN,-1.07555265267234e-05,1.84182652671293e-05,NaN,-2.4828498629772e-07,-2.37880100942872e-07,-3.14600134367427e-07,3.14600134366769e-07,-3.69156510815121e-07,-1.54722033835385e-07,2.88598531909101e-08,-1.25862180644698e-07,NaN,3.32355580097272e-08,2.62002052653877e-07,-1.57191565127498e-06,-3.99344310644134e-07,-3.99344310645201e-07,-1.09595457017651e-07,3.32947625566061e-09,-1.0626598076209e-07,8.59718246466452e-08,-4.75693166124837e-08,3.84025080339511e-08,NaN,6.08600648708755e-08,NaN,-1.51176167514724e-06,1.51176167514564e-06,-2.53685338104373e-06,0,0,0
2074.9312,8.23961930266796e-07,3.44236989558905e-07,1.16819891982642e-06,-6.73793827139326e-07,2.0120131680742e-07,2.01201316807124e-07,NaN,4.19704542995477e-07,7.97715009652731e-07,-2.04421293010663e-07,-4.91071935981747e-07,-2.04421293010506e-07,-8.9653058733541e-07,-2.00107106676629e-06,NaN,-1.30376506409185e-07,-1.01041689923324e-08,-1.40480675401194e-07,-5.44348532934575e-09,8.16889544486275e-07,-5.44348532996467e-09,NaN,-1.348032599937e-05,2.12705771395651e-05,NaN,-2.48656767310036e-07,-2.36758296120424e-07,-3.02612571603397e-07,3.02612571602728e-07,-3.78971562134886e-07,-1.58832849619638e-07,1.29588320261147e-08,-1.45874017593747e-07,NaN,1.10464292109844e-08,2.32108436369187e-07,-1.5255685494164e-06,-4.24765849928931e-07,-4.24765849930009e-07,-1.17131834739984e-07,4.92371795259107e-09,-1.122081167875e-07,8.35066377015324e-08,-5.48310294924383e-08,2.8675608208878e-08,NaN,5.19692500697893e-08,NaN,-1.22107086616897e-06,1.22107086616734e-06,-2.71872301082925e-06,0,0,0
2075.0336,7.79146890655481e-07,3.03096251668939e-07,1.08224314232516e-06,-6.42428702153154e-07,1.9755029949493e-07,1.97550299494634e-07,NaN,4.41465014967629e-07,8.88158175884574e-07,-2.05145487872122e-07,-4.73384591841414e-07,-2.05145487871966e-07,-7.86405679700219e-07,-2.15215719083066e-06,NaN,-1.26384527911061e-07,-6.57739147658381e-09,-1.32961919387329e-07,2.3286180046004e-08,8.06608142931123e-07,2.328618004537e-08,NaN,-1.66279907385569e-05,2.45636753605665e-05,NaN,-2.49099903680444e-07,-2.34867835341057e-07,-2.86483528794041e-07,2.86483528793361e-07,-3.87837648809939e-07,-1.6226888088621e-07,-5.33567335611017e-09,-1.67604554242543e-07,NaN,-1.28348084881519e-08,1.98863437558098e-07,-1.4702204269917e-06,-4.53253225885974e-07,-4.53253225887063e-07,-1.23144839877201e-07,5.87519867340669e-09,-1.1726964120391e-07,8.24666329573723e-08,-6.40185548486341e-08,1.8448078108516e-08,NaN,4.14513384817691e-08,NaN,-9.27085664861373e-07,9.27085664859706e-07,-2.91103467523445e-06,0,0,0
2075.136,7.30939115964613e-07,2.629109943415e-07,9.93850110306876e-07,-6.05292981836959e-07,1.93339467173861e-07,1.93339467173564e-07,NaN,4.61837706136873e-07,9.8631053948493e-07,-2.04610487858687e-07,-4.56358124291504e-07,-2.04610487858532e-07,-6.71436405055511e-07,-2.32172272993291e-06,NaN,-1.20597907208215e-07,-3.80123841416972e-09,-1.24399145622077e-07,5.29199675145567e-08,7.98150151854632e-07,5.29199675139071e-08,NaN,-2.0006025110012e-05,2.80946170643309e-05,NaN,-2.49550400233965e-07,-2.32427694262981e-07,-2.68189032585998e-07,2.68189032585306e-07,-3.95979741748014e-07,-1.65495858532637e-07,-2.54576101603372e-08,-1.90953468693197e-07,NaN,-3.74702850968621e-08,1.6347644739862e-07,-1.41017418316368e-06,-4.83411165592471e-07,-4.8341116559357e-07,-1.27667909960341e-07,6.39830130493261e-09,-1.21269608655533e-07,8.24678830113789e-08,-7.46283052590859e-08,7.83957775206403e-09,NaN,3.04844031652318e-08,NaN,-6.44457048920728e-07,6.44457048919016e-07,-3.10761676610159e-06,0,0,0
2075.2384,6.82200901859556e-07,2.25544416301786e-07,9.07745318162129e-07,-5.66158799162328e-07,1.89666827164762e-07,1.89666827164467e-07,NaN,4.80419724408512e-07,1.08890449527357e-06,-2.03160363944455e-07,-4.40593299338098e-07,-2.031603639443e-07,-5.59420265249102e-07,-2.50242287712629e-06,NaN,-1.13512165608443e-07,-1.62936524855654e-09,-1.151415308567e-07,8.20938031632166e-08,7.92658986339721e-07,8.20938031625516e-08,NaN,-2.34135621198208e-05,3.16524151793266e-05,NaN,-2.49913414560093e-07,-2.29568458208447e-07,-2.4982138428316e-07,2.49821384282456e-07,-4.03548698261375e-07,-1.68947892047764e-07,-4.64979455617486e-08,-2.15445837609735e-07,NaN,-6.1837974801237e-08,1.27486633388308e-07,-1.34968851941045e-06,-5.13734863666696e-07,-5.13734863667804e-07,-1.30610087539526e-07,6.73267821790708e-09,-1.23877409321753e-07,8.31884313130672e-08,-8.60350411706844e-08,-2.84660985785309e-09,NaN,2.03396187251409e-08,NaN,-3.8761836900332e-07,3.87618369001552e-07,-3.30128733393543e-06,0,0,0
2075.3408,6.35767193958974e-07,1.92504841311635e-07,8.28272035271418e-07,-5.28253639118748e-07,1.87320128624866e-07,1.87320128624573e-07,NaN,4.96916214462672e-07,1.19246055962992e-06,-2.01079537187391e-07,-4.26681524277334e-07,-2.01079537187236e-07,-4.57931962245969e-07,-2.68459920994445e-06,NaN,-1.05647948899993e-07,9.36955275627842e-11,-1.05554253372137e-07,1.09508869084806e-07,7.907307852534e-07,1.09508869084126e-07,NaN,-2.66662527819778e-05,3.50431811671129e-05,NaN,-2.5004153536318e-07,-2.26313549106109e-07,-2.33273299500126e-07,2.33273299499412e-07,-4.10597280888017e-07,-1.72953434755114e-07,-6.72971509572858e-08,-2.40250585712622e-07,NaN,-8.48658824308307e-08,9.26874825055331e-08,-1.29248254305969e-06,-5.42775174313202e-07,-5.42775174314318e-07,-1.31839248392199e-07,7.12882795105275e-09,-1.24710420441288e-07,8.43830462064544e-08,-9.75256039056671e-08,-1.31425576994553e-08,NaN,1.21768206731998e-08,NaN,-1.68407784887549e-07,1.68407784885713e-07,-3.48460718368069e-06,0,0,0
2075.4432,5.9405376388445e-07,1.64755693800282e-07,7.58809457685564e-07,-4.93960322465667e-07,1.86649531144385e-07,1.86649531144097e-07,NaN,5.11114961980499e-07,1.29346355484148e-06,-1.98592554683333e-07,-4.15077386771244e-07,-1.98592554683177e-07,-3.73239420396406e-07,-2.85737149937808e-06,NaN,-9.75176914078616e-08,1.48107040208373e-09,-9.60366210054908e-08,1.34092738922583e-07,7.9228715979385e-07,1.34092738921888e-07,NaN,-2.96139511665451e-05,3.81083205242515e-05,NaN,-2.49724467078331e-07,-2.22603234133448e-07,-2.19987576666346e-07,2.19987576665622e-07,-4.17111579452188e-07,-1.77681056723384e-07,-8.65974777692889e-08,-2.64278534492896e-07,NaN,-1.05484393750155e-07,6.09849362024343e-08,-1.24141964852361e-06,-5.69272557790394e-07,-5.69272557791517e-07,-1.31281398662677e-07,7.82560667356722e-09,-1.2345579198926e-07,8.58779118503048e-08,-1.08355818809772e-07,-2.2477906959717e-08,NaN,6.87510089092871e-09,NaN,5.71138725465338e-09,-5.71138725655497e-09,-3.65070598544901e-06,0,0,0
2075.5456,5.5878645437641e-07,1.42602619307263e-07,7.01389073684525e-07,-4.64705289188732e-07,1.87539989801375e-07,1.87539989801091e-07,NaN,5.22860212596262e-07,1.38849434358425e-06,-1.95865008227083e-07,-4.05979761047653e-07,-1.95865008226927e-07,-3.09298028874692e-07,-3.010250387502e-06,NaN,-8.95676360502614e-08,2.55589616936579e-09,-8.70117398806122e-08,1.55095685046178e-07,7.96619434003085e-07,1.55095685045469e-07,NaN,-3.21485661573168e-05,4.07333696207577e-05,NaN,-2.48703399320018e-07,-2.1833873442446e-07,-2.10800986442751e-07,2.1080098644202e-07,-4.23063606934418e-07,-1.83109022932764e-07,-1.03202581917942e-07,-2.86311604850929e-07,NaN,-1.22686045168707e-07,3.42320852195118e-08,-1.19839094084393e-06,-5.92234626095398e-07,-5.92234626096527e-07,-1.28977238633994e-07,9.02361033137105e-09,-1.1995362830278e-07,8.75622722428525e-08,-1.17814059383007e-07,-3.02517871404101e-08,NaN,4.95662915419394e-09,NaN,1.32475828648656e-07,-1.32475828650621e-07,-3.79390895340657e-06,0,0,0
2075.648,5.30895440197941e-07,1.25679755386578e-07,6.56575195585391e-07,-4.40998717146291e-07,1.89483079050256e-07,1.89483079049976e-07,NaN,5.32047936051326e-07,1.47440790835026e-06,-1.92973651385795e-07,-3.99256921393897e-07,-1.92973651385638e-07,-2.67215678418317e-07,-3.13469198283745e-06,NaN,-8.20926083901082e-08,3.23531037246279e-09,-7.88572980173638e-08,1.72137091752214e-07,8.02558600146039e-07,1.72137091751494e-07,NaN,-3.42039990142265e-05,4.28492308017474e-05,NaN,-2.46708148925838e-07,-2.13426440790982e-07,-2.05885583456775e-07,2.05885583456037e-07,-4.28440420961184e-07,-1.89022535695005e-07,-1.16124309191755e-07,-3.05146844886982e-07,NaN,-1.35600081744906e-07,1.40506476830364e-08,-1.16432385615072e-06,-6.10963578568944e-07,-6.10963578570077e-07,-1.2505573941592e-07,1.0857638128287e-08,-1.14198101287796e-07,8.93935021011281e-08,-1.25292050223977e-07,-3.589854812311e-08,NaN,6.60867559073591e-09,NaN,2.14736035439349e-07,-2.14736035441365e-07,-3.91011202316726e-06,0,0,0
2075.7504,5.10552721289894e-07,1.13010102689204e-07,6.23562823979984e-07,-4.22538161077744e-07,1.91695791374542e-07,1.91695791374266e-07,NaN,5.38638955778784e-07,1.54857869729811e-06,-1.89850874342858e-07,-3.9442578464847e-07,-1.898508743427e-07,-2.4531647698402e-07,-3.22505855832016e-06,NaN,-7.51444117231193e-08,3.35084152748156e-09,-7.1793570195356e-08,1.85221713028624e-07,8.08670539058951e-07,1.85221713027896e-07,NaN,-3.57520634470576e-05,4.4428979844345e-05,NaN,-2.43499068722667e-07,-2.07807012438926e-07,-2.04780754225508e-07,2.04780754224766e-07,-4.33206342849636e-07,-1.95035985387777e-07,-1.24694414499289e-07,-3.19730399887288e-07,NaN,-1.43573234121923e-07,1.66440540578031e-09,-1.13919851531187e-06,-6.25045618873619e-07,-6.25045618874753e-07,-1.19641579628949e-07,1.3371932358382e-08,-1.06269647270733e-07,9.14149068356271e-08,-1.30355336085664e-07,-3.89404292503018e-08,NaN,1.17768873046944e-08,NaN,2.59702704086705e-07,-2.59702704088766e-07,-3.99688860700567e-06,0,1,0
2075.8528,4.97297914036403e-07,1.03114783158228e-07,6.00412697195528e-07,-4.08305535642904e-07,1.93215799614135e-07,1.93215799613863e-07,NaN,5.42665933838222e-07,1.60911350764279e-06,-1.86243350817127e-07,-3.90689486314581e-07,-1.86243350816969e-07,-2.39642376678809e-07,-3.27880007585536e-06,NaN,-6.8486109837757e-08,2.69211601253707e-09,-6.57939938249358e-08,1.94717831614026e-07,8.13384908982975e-07,1.94717831613293e-07,NaN,-3.67972637770564e-05,4.54824017804508e-05,NaN,-2.38894411663295e-07,-2.01461400717995e-07,-2.06518022709941e-07,2.06518022709196e-07,-4.37199034237373e-07,-2.0063660510314e-07,-1.28605549085294e-07,-3.29242154188657e-07,NaN,-1.46217349594333e-07,-2.20011437977521e-09,-1.12202849918999e-06,-6.34304871654082e-07,-6.34304871655214e-07,-1.12764647351355e-07,1.65059730346092e-08,-9.62586743169136e-08,9.37654955640289e-08,-1.32787755106434e-07,-3.90222595426732e-08,NaN,2.02780519484401e-08,NaN,2.77801113260544e-07,-2.77801113262647e-07,-4.0533006722607e-06,0,1,0
2075.9552,4.90204848137699e-07,9.41730300908575e-08,5.84377878229459e-07,-3.96688345216336e-07,1.92957233940205e-07,1.92957233939936e-07,NaN,5.44213277341799e-07,1.65489947038033e-06,-1.8171704182011e-07,-3.87037589433076e-07,-1.81717041819953e-07,-2.44659664699008e-07,-3.29600542013741e-06,NaN,-6.16426276567583e-08,1.06548684471925e-09,-6.05771408117507e-08,2.01295522421272e-07,8.15039099729052e-07,2.0129552242054e-07,NaN,-3.7371734609085e-05,4.60492357628855e-05,NaN,-2.32776979870177e-07,-1.94398765797261e-07,-2.0984538330632e-07,2.09845383305573e-07,-4.40031898890246e-07,-2.05255835039595e-07,-1.27867966699223e-07,-3.33123801739039e-07,NaN,-1.43392105248715e-07,2.69781374670507e-09,-1.11091803100972e-06,-6.38720957312517e-07,-6.38720957313643e-07,-1.04334688531628e-07,2.01031724583951e-08,-8.42315160734006e-08,9.66614560843866e-08,-1.32588903984675e-07,-3.59274479005573e-08,NaN,3.18627504132456e-08,NaN,2.81275405446159e-07,-2.81275405448287e-07,-4.07957976368782e-06,0,1,0
2076.0576,4.88053287623779e-07,8.42394190545362e-08,5.72292706679218e-07,-3.85718833857736e-07,1.89764856343186e-07,1.89764856342919e-07,NaN,5.43366675063838e-07,1.68543132609274e-06,-1.75711333817035e-07,-3.82400415370759e-07,-1.75711333816879e-07,-2.54091108669141e-07,-3.27856842339821e-06,NaN,-5.40533021528888e-08,-1.6362189674723e-09,-5.56895211200666e-08,2.05847755622323e-07,8.11891070723544e-07,2.05847755621596e-07,NaN,-3.75306698103852e-05,4.61916601513313e-05,NaN,-2.25087995107691e-07,-1.86642146403837e-07,-2.13525822673125e-07,2.13525822672377e-07,-4.41101437873902e-07,-2.08372681806799e-07,-1.22713903282258e-07,-3.31086585089277e-07,NaN,-1.3513672839753e-07,1.62248163521819e-08,-1.10336757396454e-06,-6.38319685180044e-07,-6.38319685181162e-07,-9.42010673313559e-08,2.39510294362456e-08,-7.02500378952756e-08,1.0034233430775e-07,-1.29925233869129e-07,-2.95828995616479e-08,NaN,4.61850320918226e-08,NaN,2.82567374915004e-07,-2.82567374917139e-07,-4.07701105109438e-06,0,0,0
2076.16,4.89460148908404e-07,7.14979447140047e-08,5.60958093623304e-07,-3.73434476105447e-07,1.82486550881334e-07,1.82486550881067e-07,NaN,5.40147440896603e-07,1.70046558488848e-06,-1.67636692140195e-07,-3.75826492097436e-07,-1.67636692140043e-07,-2.61858283419622e-07,-3.22924857028514e-06,NaN,-4.52795683817353e-08,-5.37417929529131e-09,-5.06537476767244e-08,2.09402712194148e-07,8.02174715664142e-07,2.0940271219343e-07,NaN,-3.73477938705772e-05,4.59865355405205e-05,NaN,-2.15820324775962e-07,-1.78224860503078e-07,-2.16636407778196e-07,2.1663640777745e-07,-4.39732432946635e-07,-2.09624494488241e-07,-1.13499279227919e-07,-3.23123773716378e-07,NaN,-1.21594954668239e-07,3.80278193863495e-08,-1.09684384684497e-06,-6.33062530188883e-07,-6.33062530189987e-07,-8.2283342487764e-08,2.78442031032525e-08,-5.44391393846722e-08,1.0498746400346e-07,-1.25050791578674e-07,-2.00633275754801e-08,NaN,6.27065711525427e-08,NaN,2.92641498973425e-07,-2.92641498975554e-07,-4.04811551490896e-06,0,0,0
2076.2624,4.92930080447211e-07,5.45018447670992e-08,5.47431925215191e-07,-3.58233173456681e-07,1.70047809309809e-07,1.70047809309541e-07,NaN,5.34450167148895e-07,1.69961395792147e-06,-1.57016241108348e-07,-3.66638597670851e-07,-1.57016241108201e-07,-2.63019869512001e-07,-3.15089684455059e-06,NaN,-3.51996066773765e-08,-9.94500942268264e-09,-4.51446160997479e-08,2.13005440384964e-07,7.84239159234444e-07,2.1300544038426e-07,NaN,-3.69098416019557e-05,4.55179275792951e-05,NaN,-2.05018733773214e-07,-1.69199467927006e-07,-2.1878954105464e-07,2.18789541053895e-07,-4.353980482947e-07,-2.08882781782255e-07,-1.00630470100834e-07,-3.09513251883303e-07,NaN,-1.02971541731988e-07,6.76650997169328e-08,-1.08942157816006e-06,-6.22767800597907e-07,-6.22767800598995e-07,-6.87375768231711e-08,3.16454369879822e-08,-3.70921398353428e-08,1.10623174839978e-07,-1.18221077525396e-07,-7.59790268567915e-09,NaN,8.06069177893478e-08,NaN,3.19650645074841e-07,-3.19650645076956e-07,-3.99684337916038e-06,0,0,0
2076.3648,4.96847053977046e-07,3.23503772952786e-08,5.29197431273185e-07,-3.39117522816905e-07,1.51535572407413e-07,1.5153557240714e-07,NaN,5.25995016918331e-07,1.68202834570054e-06,-1.4365075625789e-07,-3.54538502034585e-07,-1.4365075625775e-07,-2.54574405162857e-07,-3.04595766450333e-06,NaN,-2.41321412773396e-08,-1.50071232571635e-08,-3.9139264534182e-08,2.17570184533466e-07,7.56767412070917e-07,2.17570184532782e-07,NaN,-3.63098734552814e-05,4.48708601197032e-05,NaN,-1.92791967382324e-07,-1.59655863917607e-07,-2.2023600506172e-07,2.20236005060976e-07,-4.27922546066756e-07,-2.06277540450364e-07,-8.45251168846565e-08,-2.9080265733523e-07,NaN,-7.95434577701196e-08,1.04660522055741e-07,-1.08027885218541e-06,-6.07095439973481e-07,-6.07095439974551e-07,-5.41020529377602e-08,3.53219135569765e-08,-1.8780139380929e-08,1.17051697894845e-07,-1.09630052558708e-07,7.42164533588322e-09,NaN,9.87337232130557e-08,NaN,3.68169339356751e-07,-3.68169339358837e-07,-3.92855431247515e-06,0,0,0
2076.4672,4.99503363471798e-07,4.78854308037209e-09,5.04291906553002e-07,-3.15820292564546e-07,1.26328960531253e-07,1.26328960530974e-07,NaN,5.14310681077777e-07,1.64633100541204e-06,-1.2775093407839e-07,-3.39667094494542e-07,-1.2775093407826e-07,-2.36043323624398e-07,-2.91627395336953e-06,NaN,-1.28573554456015e-08,-2.01232299281195e-08,-3.29805853733894e-08,2.23748117899489e-07,7.19039527343257e-07,2.23748117898829e-07,NaN,-3.56411807352757e-05,4.41278031959772e-05,NaN,-1.79342354763374e-07,-1.49742676524873e-07,-2.21832396305104e-07,2.21832396304364e-07,-4.17600042017792e-07,-2.02182819633483e-07,-6.56121295875824e-08,-2.67794949221269e-07,NaN,-5.1729510370901e-08,1.48456534164359e-07,-1.06993028085129e-06,-5.85620850862996e-07,-5.85620850864043e-07,-3.93542524754868e-08,3.89502483172018e-08,-4.04004158420092e-10,1.23826914495106e-07,-9.93929478787236e-08,2.44339666161368e-08,NaN,1.15578630324991e-07,NaN,4.38847313350527e-07,-4.38847313352573e-07,-3.84985495182602e-06,0,0,0
2076.5696,4.9924910876209e-07,-2.77618469574217e-08,4.71487261805467e-07,-2.8879813259687e-07,9.42688215419559e-08,9.42688215416687e-08,NaN,4.98776295861193e-07,1.59085412362777e-06,-1.09985431216892e-07,-3.22634926606049e-07,-1.09985431216773e-07,-2.09662025850437e-07,-2.7633011929039e-06,NaN,-2.53438710541605e-09,-2.47950818214706e-08,-2.73294689265442e-08,2.31834351383394e-07,6.71179733842541e-07,2.31834351382764e-07,NaN,-3.49929226424559e-05,4.33678591944389e-05,NaN,-1.65009489190175e-07,-1.39680836373061e-07,-2.24862076683804e-07,2.24862076683067e-07,-4.05177729780625e-07,-1.97166570027281e-07,-4.43576608780623e-08,-2.41524230905539e-07,NaN,-2.01847193236841e-08,1.98297995486157e-07,-1.06011451654736e-06,-5.57994585252401e-07,-5.57994585253423e-07,-2.58342162785252e-08,4.26916651489214e-08,1.68574488702721e-08,1.30286559176726e-07,-8.75690738751074e-08,4.27174853013834e-08,NaN,1.29310934466648e-07,NaN,5.2845912266548e-07,-5.28459122667457e-07,-3.76823532225405e-06,0,0,0
2076.672,4.94730966229788e-07,-6.42331705262095e-08,4.3049779570434e-07,-2.59046898925338e-07,5.57944719487041e-08,5.57944719484053e-08,NaN,4.78743356609952e-07,1.51412496524793e-06,-9.14366096301409e-08,-3.04506129713283e-07,-9.14366096300336e-08,-1.79941945084925e-07,-2.58877635058244e-06,NaN,5.45622227142975e-09,-2.84967260047606e-08,-2.30405037329779e-08,2.41695883679267e-07,6.1430374501858e-07,2.41695883678671e-07,NaN,-3.44458283712348e-05,4.26659592323466e-05,NaN,-1.50303587617078e-07,-1.29756659893337e-07,-2.30738536415584e-07,2.30738536414852e-07,-3.91685672426371e-07,-1.91891982903439e-07,-2.1286587207393e-08,-2.1317857011102e-07,NaN,1.41422885619302e-08,2.53126001497705e-07,-1.05327764725296e-06,-5.24143015211652e-07,-5.24143015212646e-07,-1.50508693993312e-08,4.67414461961055e-08,3.16905767966613e-08,1.35633927479799e-07,-7.41972665448815e-08,6.14366609346946e-08,NaN,1.37955251612104e-07,NaN,6.30679837662742e-07,-6.30679837664628e-07,-3.69119638384231e-06,0,0,0
2076.7744,4.85096917353884e-07,-1.02998259244737e-07,3.82098658109872e-07,-2.27772348080519e-07,1.19808200164165e-08,1.19808200161044e-08,NaN,4.53721823421503e-07,1.41545191726928e-06,-7.34821055426543e-08,-2.86703881871101e-07,-7.34821055425594e-08,-1.52602155723027e-07,-2.39561856081213e-06,NaN,9.7008128907944e-09,-3.07192621182439e-08,-2.10184492270867e-08,2.52726478502432e-07,5.50491602557671e-07,2.52726478501876e-07,NaN,-3.40662108381574e-05,4.20895177292757e-05,NaN,-1.3589387849605e-07,-1.20290482277878e-07,-2.40680094629463e-07,2.40680094628737e-07,-3.78179324122055e-07,-1.86977719837102e-07,3.01536474828659e-09,-1.83962355088993e-07,NaN,5.00367384110211e-08,3.11551999107617e-07,-1.05176645474761e-06,-4.84444127069006e-07,-4.84444127069968e-07,-8.4404625457812e-09,5.12662342180442e-08,4.28257716721606e-08,1.39048192347815e-07,-5.93240944952559e-08,7.97240978523497e-08,NaN,1.39720523352475e-07,NaN,7.37654240119159e-07,-7.37654240120935e-07,-3.62487627995808e-06,0,0,0
2076.8768,4.70070688744667e-07,-1.42011982674326e-07,3.28058706071028e-07,-1.96054845829699e-07,-3.55489350325633e-08,-3.55489350328905e-08,NaN,4.2357004603189e-07,1.29543037694027e-06,-5.76122673826432e-08,-2.7082376156421e-07,-5.76122673825604e-08,-1.33224827376376e-07,-2.18858984935178e-06,NaN,8.94008145142356e-09,-3.10230720283432e-08,-2.20829905765473e-08,2.63880845171997e-07,4.82557230779846e-07,2.63880845171482e-07,NaN,-3.38987938222553e-05,4.16921297050445e-05,NaN,-1.22532001060409e-07,-1.11591694652879e-07,-2.5545465184336e-07,2.55454651842642e-07,-3.65504676310202e-07,-1.82858437678814e-07,2.79130409458356e-08,-1.54945396733144e-07,NaN,8.61390186088766e-08,3.71929254744973e-07,-1.0570176845964e-06,-4.39815135300804e-07,-4.39815135301733e-07,-7.14150170550564e-09,5.63501523084841e-08,4.92086506028856e-08,1.39800332516277e-07,-4.30248265557437e-08,9.67755059603375e-08,NaN,1.33370317853551e-07,NaN,8.4189429663396e-07,-8.41894296635604e-07,-3.57268945857595e-06,0,0,0
2076.9792,4.49898493866644e-07,-1.79026569997108e-07,2.70871923870189e-07,-1.64640363138975e-07,-8.48283809993146e-08,-8.48283809996577e-08,NaN,3.88616539673992e-07,1.15620135893518e-06,-4.51915699683587e-08,-2.58365103604072e-07,-4.51915699682864e-08,-1.26081530331178e-07,-1.97423623252799e-06,NaN,2.25481812319635e-09,-2.90882693167015e-08,-2.68334511931238e-08,2.73826913504612e-07,4.1364422075243e-07,2.7382691350414e-07,NaN,-3.39597538145846e-05,4.15052317829702e-05,NaN,-1.10920300570658e-07,-1.03916172277377e-07,-2.7523746666829e-07,2.75237466667581e-07,-3.54149185298982e-07,-1.7969202470771e-07,5.2742878728964e-08,-1.26949145978899e-07,NaN,1.21132559111005e-07,4.32492991543403e-07,-1.06900919174802e-06,-3.91666900993773e-07,-3.91666900994666e-07,-1.18114135978778e-08,6.19643026742543e-08,5.0152889076291e-08,1.37362542513029e-07,-2.54252059454047e-08,1.11937336567443e-07,NaN,1.18517832527961e-07,NaN,9.37990969996352e-07,-9.37990969997853e-07,-3.53452510716952e-06,0,1,0
2077.0816,4.25239021837943e-07,-2.11877771036771e-07,2.13361250801794e-07,-1.33904728655463e-07,-1.33820786095343e-07,-1.33820786095703e-07,NaN,3.49682493578884e-07,1.00140145518833e-06,-3.72052445557924e-08,-2.50430911395217e-07,-3.72052445557283e-08,-1.33400888809552e-07,-1.76001762000995e-06,NaN,-1.07527836174756e-08,-2.47593438325342e-08,-3.55121274496199e-08,2.81191686673255e-07,3.46747564151724e-07,2.81191686672825e-07,NaN,-3.42315163039716e-05,4.15299746617744e-05,NaN,-1.01565671751132e-07,-9.74323082727115e-08,-2.99570008648027e-07,2.99570008647327e-07,-3.44186330337516e-07,-1.77335753319049e-07,7.68415839912103e-08,-1.00494169327978e-07,NaN,1.53943365655689e-07,4.91528774542571e-07,-1.08610969820576e-06,-3.41730505242673e-07,-3.4173050524353e-07,-2.24967855044451e-08,6.79637613243622e-08,4.54669758198373e-08,1.3150571036162e-07,-6.72707320132899e-09,1.24778637160124e-07,NaN,9.57870961128682e-08,NaN,1.02380663990096e-06,-1.02380663990232e-06,-3.50674344647464e-06,0,1,0
2077.184,3.97060097072224e-07,-2.38772008121396e-07,1.58288088951425e-07,-1.0395880417162e-07,-1.80664040712258e-07,-1.80664040712632e-07,NaN,3.08031656690701e-07,8.35886954041315e-07,-3.40721132161976e-08,-2.47492413617211e-07,-3.40721132161392e-08,-1.55147393779493e-07,-1.55310063817501e-06,NaN,-2.98247456759519e-08,-1.80794850221572e-08,-4.79042306977109e-08,2.84816681711414e-07,2.84322236647658e-07,2.84816681711026e-07,NaN,-3.46612070469033e-05,4.17328067787198e-05,NaN,-9.46744230538526e-08,-9.21959613910661e-08,-3.27402433409867e-07,3.27402433409178e-07,-3.353067167487e-07,-1.7538880648646e-07,9.95724060151703e-08,-7.58164004714151e-08,NaN,1.83882404385794e-07,5.47525897418927e-07,-1.10533441910057e-06,-2.91828516653438e-07,-2.91828516654257e-07,-3.85867951864129e-08,7.4109487854374e-08,3.55226926678853e-08,1.2237134362452e-07,1.27642886093111e-08,1.35135632233678e-07,NaN,6.68181251175537e-08,NaN,1.10087095469334e-06,-1.10087095469455e-06,-3.48289571988363e-06,0,1,0
2077.2864,3.66547303561158e-07,-2.58474911673343e-07,1.0807239188839e-07,-7.48167052565454e-08,-2.23813688482162e-07,-2.23813688482549e-07,NaN,2.65290886566147e-07,6.65360253891381e-07,-3.55915897118589e-08,-2.4930075465155e-07,-3.55915897118037e-08,-1.89224586096673e-07,-1.35948254827038e-06,NaN,-5.40147554692918e-08,-9.30776496724943e-09,-6.33225204361348e-08,2.83931032022344e-07,2.28108085386413e-07,2.83931032021996e-07,NaN,-3.51640309834606e-05,4.20472008651641e-05,NaN,-9.01243255120336e-08,-8.81413508778348e-08,-3.57216620227777e-07,3.57216620227099e-07,-3.2691917006155e-07,-1.73286580352539e-07,1.20340671621844e-07,-5.29459087308079e-08,NaN,2.10679729892124e-07,5.99267984081426e-07,-1.12288560777927e-06,-2.43677273317457e-07,-2.43677273318239e-07,-5.88768840986668e-08,8.01059825209645e-08,2.12290984222248e-08,1.10494866342544e-07,3.26155348423864e-08,1.43110401184791e-07,NaN,3.41203770935323e-08,NaN,1.17386074050365e-06,-1.17386074050472e-06,-3.45487005192479e-06,0,0,0
2077.3888,3.34992634686264e-07,-2.70353360125803e-07,6.46392745610152e-08,-4.65406244427507e-08,-2.62090800070901e-07,-2.620908000713e-07,NaN,2.23356956739412e-07,4.95957655670916e-07,-4.10202884764527e-08,-2.54955650297614e-07,-4.10202884763988e-08,-2.31884443730336e-07,-1.18378384215606e-06,NaN,-8.17714566283152e-08,1.09092698683347e-09,-8.06805296410668e-08,2.78206907693573e-07,1.79165315326916e-07,2.78206907693262e-07,NaN,-3.56317648603111e-05,4.23814051584254e-05,NaN,-8.75107732602429e-08,-8.50982293210697e-08,-3.87221048662762e-07,3.87221048662096e-07,-3.18282517735565e-07,-1.70422093417432e-07,1.3859942623436e-07,-3.18226671831723e-08,NaN,2.34408530712689e-07,6.45835381744338e-07,-1.13477811513462e-06,-1.98752265755794e-07,-1.9875226575654e-07,-8.17271920867416e-08,8.56414562756064e-08,3.91426418879411e-09,9.67631527074402e-08,5.22528654884241e-08,1.49016018195736e-07,NaN,8.09724666937196e-10,NaN,1.2493517280616e-06,-1.24935172806257e-06,-3.4141316147175e-06,0,0,0
2077.4912,3.03660103959444e-07,-2.74301611949944e-07,2.93584920100351e-08,-1.92999444110244e-08,-2.94686110456576e-07,-2.94686110456983e-07,NaN,1.84285165979569e-07,3.33818955267318e-07,-4.9214284373218e-08,-2.6308519397098e-07,-4.9214284373164e-08,-2.78132710863703e-07,-1.02956665179261e-06,NaN,-1.11110488339234e-07,1.24944230279999e-08,-9.86160653108101e-08,2.67729093443512e-07,1.38004876921052e-07,2.67729093443235e-07,NaN,-3.59460323544784e-05,4.26307452310146e-05,NaN,-8.6242495837985e-08,-8.28342510121315e-08,-4.15583743124006e-07,4.1558374312335e-07,-3.08614791424447e-07,-1.66255997373315e-07,1.53847439703504e-07,-1.24085576699006e-08,NaN,2.55340696683212e-07,6.86538690995326e-07,-1.1373586677965e-06,-1.58208245575939e-07,-1.58208245576652e-07,-1.05263051499218e-07,9.04197244271823e-08,-1.4843327072103e-08,8.23078085199254e-08,7.0974642653305e-08,1.53282451173113e-07,NaN,-2.97279450237264e-08,NaN,1.33422082038345e-06,-1.33422082038433e-06,-3.35284984361076e-06,0,0,0
2077.5936,2.73669661095946e-07,-2.70621816862674e-07,3.04784423378885e-09,6.67495847064468e-09,-3.21154966846761e-07,-3.21154966847172e-07,NaN,1.5016288481083e-07,1.84700178041432e-07,-5.87815022093324e-08,-2.72080984659299e-07,-5.87815022092776e-08,-3.22113692928342e-07,-8.99766790617868e-07,NaN,-1.39842484455012e-07,2.4207544600906e-08,-1.15634939853671e-07,2.52928521481956e-07,1.04709772085209e-07,2.52928521481708e-07,NaN,-3.59950162622567e-05,4.2692678317713e-05,NaN,-8.56631078300169e-08,-8.11062888468038e-08,-4.40648534961168e-07,4.40648534960522e-07,-2.97147351662497e-07,-1.60380101684721e-07,1.65623706486413e-07,5.24360480161148e-09,NaN,2.73787104250787e-07,7.20830181768144e-07,-1.12759962924542e-06,-1.22855708369445e-07,-1.2285570837013e-07,-1.27571783241037e-07,9.41791297178706e-08,-3.33926535232296e-08,6.83546371701294e-08,8.79949851909704e-08,1.56349622360991e-07,NaN,-5.42110935715678e-08,NaN,1.43407406554778e-06,-1.4340740655486e-06,-3.26479994771712e-06,0,0,0
2077.696,2.45930662659054e-07,-2.59917952915412e-07,-1.39872902558614e-08,3.12162526931122e-08,-3.41415938267073e-07,-3.41415938267486e-07,NaN,1.22974769742151e-07,5.3680269334612e-08,-6.8236511885973e-08,-2.80337271199285e-07,-6.82365118859181e-08,-3.57628107540489e-07,-7.96884151791259e-07,NaN,-1.65834377216486e-07,3.55572604773576e-08,-1.30277116738683e-07,2.34501717120809e-07,7.90243291045842e-08,2.34501717120585e-07,NaN,-3.56903027146421e-05,4.24819456537971e-05,NaN,-8.51763831339595e-08,-7.97038343670571e-08,-4.61092246331766e-07,4.61092246331127e-07,-2.83140779296986e-07,-1.52530814115106e-07,1.73510344653404e-07,2.0979530538224e-08,NaN,2.89967956701244e-07,7.48241206784424e-07,-1.10317218962861e-06,-9.31979550923333e-08,-9.31979550929942e-08,-1.46886523343564e-07,9.67009608351666e-08,-5.0185562508455e-08,5.60581351496865e-08,1.02514892769061e-07,1.58573027918646e-07,NaN,-6.98205221236681e-08,NaN,1.55200918149933e-06,-1.55200918150013e-06,-3.1459519075958e-06,0,0,0
2077.7984,2.21110912711583e-07,-2.4301688277284e-07,-2.1905970060783e-08,5.43532294190339e-08,-3.55762355879537e-07,-3.55762355879948e-07,NaN,1.04451284700698e-07,-5.51022321015029e-08,-7.6174943108232e-08,-2.86453894706252e-07,-7.61749431081776e-08,-3.78854510386894e-07,-7.22862708141925e-07,NaN,-1.87284427078982e-07,4.59683354596459e-08,-1.41316091618879e-07,2.13308123324244e-07,6.04275463421486e-08,2.13308123324039e-07,NaN,-3.49793617091807e-05,4.19421137256111e-05,NaN,-8.43503291282988e-08,-7.84800100207876e-08,-4.76017924807596e-07,4.76017924806962e-07,-2.65912081085373e-07,-1.42576207337277e-07,1.77157284248864e-07,3.45810769115168e-08,NaN,3.03946769032671e-07,7.68387338849413e-07,-1.0624298829837e-06,-6.94970708038802e-08,-6.94970708045228e-08,-1.617714743621e-07,9.78167168114883e-08,-6.39547575506604e-08,4.63435392866553e-08,1.13818352101345e-07,1.60161891387905e-07,NaN,-7.44622488883637e-08,NaN,1.68796113758751e-06,-1.68796113758832e-06,-2.99468524769742e-06,0,0,0
2077.9008,1.99601335066784e-07,-2.20885168376024e-07,-2.12838333087933e-08,7.63806955882758e-08,-3.64888086278672e-07,-3.64888086279079e-07,NaN,9.58835079131029e-08,-1.38817258375062e-07,-8.14618516640927e-08,-2.89387644290022e-07,-8.14618516640403e-08,-3.81108196395056e-07,-6.78844024571562e-07,NaN,-2.02980412072573e-07,5.50059068622149e-08,-1.47974505209888e-07,1.90241327981917e-07,4.81797143533893e-08,1.90241327981725e-07,NaN,-3.38505227515564e-05,4.10504874911051e-05,NaN,-8.29768831872377e-08,-7.73730840915344e-08,-4.84997570324126e-07,4.84997570323496e-07,-2.44907729975334e-07,-1.30503390416559e-07,1.76333536667638e-07,4.58301462510104e-08,NaN,3.1564565442921e-07,7.8106076183373e-07,-1.00446758853743e-06,-5.18060302905094e-08,-5.18060302911396e-08,-1.71310186541382e-07,9.74255828408509e-08,-7.38846037005692e-08,3.97694000729371e-08,1.21390451924594e-07,1.61159851997441e-07,NaN,-6.68981902867464e-08,NaN,1.83871651431943e-06,-1.83871651432029e-06,-2.81165269180448e-06,0,0,0
2078.0032,1.81441121752228e-07,-1.94518195527637e-07,-1.30770737749917e-08,9.78171486537754e-08,-3.69912154699515e-07,-3.69912154699915e-07,NaN,9.79044985511069e-08,-1.96446977320315e-07,-8.33957700251872e-08,-2.8855403516997e-07,-8.33957700251385e-08,-3.61421566685834e-07,-6.64968352136966e-07,NaN,-2.12492950227754e-07,6.23892604790528e-08,-1.50103689748218e-07,1.66102778758472e-07,4.13205172368595e-08,1.66102778758288e-07,NaN,-3.23308196839722e-05,3.98165011609186e-05,NaN,-8.10765854714272e-08,-7.64180456923091e-08,-4.8807057161247e-07,4.88070571611841e-07,-2.19818158064178e-07,-1.1642807825824e-07,1.70999183275149e-07,5.45711050168375e-08,NaN,3.24933021208416e-07,7.8637800058685e-07,-9.29343886931349e-07,-3.99279677604757e-08,-3.99279677610995e-08,-1.75268823422701e-07,9.5525719413534e-08,-7.97431040091913e-08,3.64261552522446e-08,1.25034432280871e-07,1.61460587533028e-07,NaN,-4.68015125730937e-08,NaN,1.99838223350797e-06,-1.99838223350889e-06,-2.59947635888209e-06,0,0,0
2078.1056,1.66204970693593e-07,-1.64835125955294e-07,1.3698447386819e-09,1.19273688331271e-07,-3.72373124345701e-07,-3.72373124346092e-07,NaN,1.10268791234829e-07,-2.29272488881468e-07,-8.1813061794684e-08,-2.83879445223062e-07,-8.18130617946409e-08,-3.189433392969e-07,-6.8018242739061e-07,NaN,-2.16256457980115e-07,6.79840329502937e-08,-1.48272425029324e-07,1.4151994363433e-07,3.86430064970836e-08,1.41519943634149e-07,NaN,-3.04798238557967e-05,3.82766992224294e-05,NaN,-7.88567265972899e-08,-7.57413446201519e-08,-4.8569696917176e-07,4.85696969171131e-07,-1.90705557430088e-07,-1.00633424584844e-07,1.61385282506264e-07,6.07518579213449e-08,NaN,3.31744559049988e-07,7.84914939402078e-07,-8.38428938175557e-07,-3.33318146813823e-08,-3.33318146820057e-08,-1.74189865617109e-07,9.22495800580767e-08,-8.19402855590398e-08,3.58958511840606e-08,1.24946454061005e-07,1.60842305244979e-07,NaN,-1.48287412520228e-08,NaN,2.15893932728912e-06,-2.15893932729013e-06,-2.36252314996563e-06,0,0,0
2078.208,1.52909680475442e-07,-1.32632538496943e-07,2.02771419788432e-08,1.41301986721703e-07,-3.74158147137728e-07,-3.74158147138109e-07,NaN,1.3169254621422e-07,-2.41116824619107e-07,-7.71204759569246e-08,-2.75800000191265e-07,-7.71204759568888e-08,-2.55296887251482e-07,-7.21909396347302e-07,NaN,-2.15516409180843e-07,7.1779651813428e-08,-1.43736757366905e-07,1.1691896421106e-07,3.87060741859177e-08,1.16918964210879e-07,NaN,-2.83820753402559e-05,3.64891866709841e-05,NaN,-7.66432476495737e-08,-7.55321328436597e-08,-4.78666642776246e-07,4.78666642775616e-07,-1.58107358470619e-07,-8.36132791077228e-08,1.48062422502042e-07,6.44491433942373e-08,NaN,3.36186393330568e-07,7.77776745289862e-07,-7.34726011570401e-07,-3.10967420748549e-08,-3.10967420754822e-08,-1.6937403848283e-07,8.78856796226127e-08,-8.14883588602061e-08,3.72948424708196e-08,1.21720684858621e-07,1.59015527329355e-07,NaN,2.72907385200958e-08,NaN,2.31073693431978e-06,-2.31073693432089e-06,-2.10679976863593e-06,0,1,0
2078.3104,1.40017332954634e-07,-9.85925662557394e-08,4.14247666991971e-08,1.64285612389976e-07,-3.77342779033334e-07,-3.77342779033702e-07,NaN,1.59844077156148e-07,-2.38178548507224e-07,-7.02490737788966e-08,-2.65200989047419e-07,-7.02490737788691e-08,-1.74861821869371e-07,-7.85634328274236e-07,NaN,-2.12148031459589e-07,7.38653625201051e-08,-1.38282668938959e-07,9.25224865076964e-08,3.9925560865714e-08,9.25224865075124e-08,NaN,-2.61379087283117e-05,3.45273779943609e-05,NaN,-7.48030564708676e-08,-7.5997735006639e-08,-4.67974288309277e-07,4.67974288308643e-07,-1.23062259590655e-07,-6.60764848755706e-08,1.31966404662914e-07,6.58899197872543e-08,NaN,3.38585366062047e-07,7.66572177593662e-07,-6.22933744210824e-07,-3.19379401015456e-08,-3.19379401021787e-08,-1.62725920405675e-07,8.28704845433854e-08,-7.9855435862258e-08,3.93998108762831e-08,1.1628455034396e-07,1.55684361220158e-07,NaN,7.67875854252353e-08,NaN,2.44316393176219e-06,-2.44316393176342e-06,-1.83969334022234e-06,0,1,0
2078.4128,1.25576951123973e-07,-6.32912303980489e-08,6.22857207261846e-08,1.88394393893255e-07,-3.83950326229581e-07,-3.83950326229936e-07,NaN,1.91561810866779e-07,-2.2840799830758e-07,-6.25152224728222e-08,-2.53284817807611e-07,-6.25152224728037e-08,-8.46856212581248e-08,-8.64708956990014e-07,NaN,-2.08368163422197e-07,7.44196925590732e-08,-1.33948470862584e-07,6.83468635416309e-08,4.07263255825924e-08,6.83468635414449e-08,NaN,-2.38508726249299e-05,3.24708418387212e-05,NaN,-7.36629549911448e-08,-7.73265684750734e-08,-4.54678409121182e-07,4.54678409120546e-07,-8.70072609629949e-08,-4.88870013302726e-08,1.14346011462014e-07,6.54590101316455e-08,NaN,3.39486090308726e-07,7.53273869080379e-07,-5.090420789035e-07,-3.4316159980017e-08,-3.43161599806567e-08,-1.56469608821049e-07,7.77429040701463e-08,-7.87267047508504e-08,4.08346673221079e-08,1.0977951713599e-07,1.50614184458014e-07,NaN,1.3016237051521e-07,NaN,2.54588144037044e-06,-2.54588144037179e-06,-1.56923392640031e-06,0,1,0
2078.5152,1.07498330366049e-07,-2.7191106088308e-08,8.0307224277959e-08,2.13564117885102e-07,-3.95672693974854e-07,-3.95672693975198e-07,NaN,2.23283242498846e-07,-2.20531416203633e-07,-5.53847660712854e-08,-2.41368062339216e-07,-5.53847660712761e-08,6.22027223614103e-09,-9.50641059393107e-07,NaN,-2.06385864229047e-07,7.37161393126731e-08,-1.3266972491582e-07,4.42214551706386e-08,3.96962908038693e-08,4.42214551704524e-08,NaN,-2.1612555195454e-05,3.03934278832457e-05,NaN,-7.34294469161301e-08,-7.96764885693783e-08,-4.39770205934762e-07,4.39770205934123e-07,-5.1554351006236e-08,-3.29559482044418e-08,9.66256489047536e-08,6.36697007002095e-08,NaN,3.39621393979635e-07,7.39989430965582e-07,-3.99492437302632e-07,-3.65961025893643e-08,-3.65961025900087e-08,-1.527788427461e-07,7.30709641962523e-08,-7.97078785497746e-08,4.02804041693466e-08,1.03414519015341e-07,1.43694923184604e-07,NaN,1.83748272450598e-07,NaN,2.61079446985587e-06,-2.61079446985734e-06,-1.30298362108269e-06,0,0,0
2078.6176,8.39132679540451e-08,9.32270613366143e-09,9.3235974087883e-08,2.39445058359555e-07,-4.13604290298223e-07,-4.13604290298555e-07,NaN,2.51562423510107e-07,-2.22931552882497e-07,-5.01769304855202e-08,-2.30642376743555e-07,-5.01769304855196e-08,8.81818614713266e-08,-1.03396479198037e-06,NaN,-2.08060714511108e-07,7.21310178737864e-08,-1.35929696636754e-07,1.98858994746373e-08,3.57011782681985e-08,1.98858994744546e-08,NaN,-1.94903504259139e-05,2.83535542660333e-05,NaN,-7.4125814667644e-08,-8.31855391960234e-08,-4.24085928343536e-07,4.24085928342896e-07,-1.82331344114273e-08,-1.91322570359915e-08,8.02128816935321e-08,6.10806246574332e-08,NaN,3.39867324543775e-07,7.2870425373094e-07,-3.00225055024533e-07,-3.72174662842955e-08,-3.72174662849414e-08,-1.53404910966513e-07,6.93737544125361e-08,-8.40311565538847e-08,3.66598912233976e-08,9.83224334567634e-08,1.34982324680079e-07,NaN,2.34308495249546e-07,NaN,2.63443956213587e-06,-2.63443956213743e-06,-1.04718837203998e-06,0,0,0
2078.72,5.35477083759967e-08,4.58147376812298e-08,9.9362446057364e-08,2.65335088647699e-07,-4.38036252069474e-07,-4.38036252069797e-07,NaN,2.73545049512396e-07,-2.42550074099169e-07,-4.7798236859466e-08,-2.21965001856105e-07,-4.77982368594728e-08,1.5254210772281e-07,-1.10568205050781e-06,NaN,-2.14635538574757e-07,7.01324934202434e-08,-1.44503045153931e-07,-4.8349869013584e-09,2.79843270373137e-08,-4.83498690153275e-09,NaN,-1.7523833319609e-05,2.63917233201188e-05,NaN,-7.55753602719806e-08,-8.79810073758751e-08,-4.08276147750043e-07,4.08276147749404e-07,1.17123406354714e-08,-8.12340697155921e-09,6.62956527885633e-08,5.81722458168937e-08,NaN,3.41154449000767e-07,7.21036174006387e-07,-2.15950656315302e-07,-3.48718176443569e-08,-3.48718176449987e-08,-1.59405673265627e-07,6.70560299955253e-08,-9.23496432699919e-08,2.92597590427375e-08,9.54331851074425e-08,1.24692944150101e-07,NaN,2.79451825263954e-07,NaN,2.61973718748438e-06,-2.61973718748601e-06,-8.06687302599345e-07,0,0,0
2078.8224,1.60152156243014e-08,8.16338841670149e-08,9.76490997914177e-08,2.90205473073156e-07,-4.68362491756691e-07,-4.68362491757007e-07,NaN,2.87323737758728e-07,-2.83931814717444e-07,-4.86093476432927e-08,-2.15755763989298e-07,-4.8609347643306e-08,1.93243186500949e-07,-1.15891105075622e-06,NaN,-2.26589182117064e-07,6.82434680657172e-08,-1.5834571405075e-07,-2.98801393128494e-08,1.62940849893047e-08,-2.98801393130101e-08,NaN,-1.57297116321304e-05,2.45348257396455e-05,NaN,-7.74485336002672e-08,-9.41515170679841e-08,-3.92801816884489e-07,3.92801816883853e-07,3.74463444141539e-08,-4.35242042167108e-10,5.56840832220618e-08,5.52488411797835e-08,NaN,3.44319385561341e-07,7.18032753041066e-07,-1.49755814492784e-07,-2.868377536649e-08,-2.86837753671219e-08,-1.71044023195133e-07,6.6360630458052e-08,-1.04683392736955e-07,1.77872416103212e-08,9.53685059835441e-08,1.13155747593791e-07,NaN,3.17796321552103e-07,NaN,2.57576472491343e-06,-2.5757647249151e-06,-5.85312661037593e-07,0,0,0
2078.9248,-2.80488786468403e-08,1.15830839441775e-07,8.77819607950028e-08,3.12887563939855e-07,-5.0314523327955e-07,-5.03145233279862e-07,NaN,2.92119361305442e-07,-3.48616185004949e-07,-5.24577807350544e-08,-2.12039920672731e-07,-5.24577807350724e-08,2.07634513076395e-07,-1.18996953424535e-06,NaN,-2.43630062624552e-07,6.69927142537526e-08,-1.76637348370188e-07,-5.49273431508019e-08,1.00238227253333e-09,-5.49273431509449e-08,NaN,-1.41104882177863e-05,2.28024444499064e-05,NaN,-7.93548219941608e-08,-1.01669590019349e-07,-3.77927150536488e-07,3.77927150535857e-07,5.85892761984674e-08,3.68684740492067e-09,4.87517257596072e-08,5.24385731644183e-08,NaN,3.49946471067491e-07,7.2007111786763e-07,-1.03003892482129e-07,-1.83492695615049e-08,-1.83492695621217e-08,-1.87844747928679e-07,6.73442042406152e-08,-1.20500543687923e-07,2.38349428066523e-09,9.83788818129434e-08,1.00762376093541e-07,NaN,3.48926213202416e-07,NaN,2.51524834607807e-06,-2.51524834607975e-06,-3.86156743969817e-07,0,0,0
2079.0272,-7.70691590551641e-08,1.47229544908212e-07,7.0160385853087e-08,3.32342723711148e-07,-5.40351068642454e-07,-5.40351068642763e-07,NaN,2.88253282368954e-07,-4.35105369883025e-07,-5.88138924804291e-08,-2.10585317577282e-07,-5.88138924804509e-08,1.96220118728585e-07,-1.19843935437798e-06,NaN,-2.64818054120477e-07,6.68702940989229e-08,-1.97947760020928e-07,-7.94872504992122e-08,-1.68923766061137e-08,-7.94872504993334e-08,NaN,-1.26618809855866e-05,2.12109433287314e-05,NaN,-8.09344544034324e-08,-1.10309006635414e-07,-3.63725679850356e-07,3.63725679849731e-07,7.51908041636088e-08,4.29966767558076e-09,4.54811070753385e-08,4.97807747508131e-08,NaN,3.58273991222395e-07,7.26893898906769e-07,-7.54724848141528e-08,-4.15684777008632e-09,-4.15684777068426e-09,-2.08745983666354e-07,6.98829280235918e-08,-1.38863055642609e-07,-1.64005456537735e-08,1.0434451547304e-07,8.79439698192056e-08,NaN,3.73227511857538e-07,NaN,2.45113293766993e-06,-2.45113293767161e-06,-2.11476009931366e-07,0,0,0
2079.1296,-1.28826229838191e-07,1.74633635911151e-07,4.58074060729736e-08,3.47873567544797e-07,-5.77712060033648e-07,-5.77712060033955e-07,NaN,2.76932254140484e-07,-5.39440684039441e-07,-6.69175323968643e-08,-2.11025884204911e-07,-6.69175323968886e-08,1.61802252613122e-07,-1.18651450412544e-06,NaN,-2.88769419304627e-07,6.82846707546215e-08,-2.20484748549366e-07,-1.03030159692828e-07,-3.59429932396303e-08,-1.03030159692924e-07,NaN,-1.137648332813e-05,1.97738577892103e-05,NaN,-8.19199866599536e-08,-1.19631667866646e-07,-3.50127253501684e-07,3.50127253501067e-07,8.7642598708579e-08,1.75279320168544e-09,4.55572245314091e-08,4.73100177329932e-08,NaN,3.69190278685964e-07,7.37729161114906e-07,-6.5627725523905e-08,1.31301535236217e-08,1.31301535230462e-08,-2.32286768819059e-07,7.37042547513668e-08,-1.58582514067529e-07,-3.76799335991039e-08,1.12832460830514e-07,7.51525272313568e-08,NaN,3.9167626834689e-07,NaN,2.39400397364912e-06,-2.39400397365076e-06,-6.24294902341824e-08,0,0,0
2079.232,-1.80855875446977e-07,1.97101940813775e-07,1.62460653667909e-08,3.59199333060009e-07,-6.13114571743704e-07,-6.13114571744011e-07,NaN,2.59919476336703e-07,-6.56159914435466e-07,-7.5881748188684e-08,-2.1291570467126e-07,-7.58817481887099e-08,1.08666383074965e-07,-1.1581376018529e-06,NaN,-3.13893207299203e-07,7.15085932570275e-08,-2.42384614041522e-07,-1.25072078438457e-07,-5.45632606366156e-08,-1.25072078438529e-07,NaN,-1.02440820912164e-05,1.8499666254576e-05,NaN,-8.21706633663093e-08,-1.29076990776517e-07,-3.3700107643565e-07,3.37001076435042e-07,9.65669368498909e-08,-3.38788846335161e-09,4.84541066955205e-08,4.50662182320734e-08,NaN,3.82291616700111e-07,7.5141703880168e-07,-7.0913664125679e-08,3.24725746251723e-08,3.24725746246204e-08,-2.56799980817638e-07,7.84328190434019e-08,-1.78367161774064e-07,-6.03643187046858e-08,1.23180310556464e-07,6.28159918517321e-08,NaN,4.0560200746838e-07,NaN,2.35103204960809e-06,-2.3510320496097e-06,6.10993443167318e-08,0,0,0
2079.3344,-2.30755605001456e-07,2.14218408675336e-07,-1.65371963261462e-08,3.6640028207479e-07,-6.44906537032181e-07,-6.44906537032487e-07,NaN,2.39175226720782e-07,-7.7931092622319e-07,-8.47565334712663e-08,-2.15752164734156e-07,-8.47565334712931e-08,4.20098084236819e-08,-1.11815557321838e-06,NaN,-3.38628906091311e-07,7.6615098715402e-08,-2.62013807375244e-07,-1.45198761068604e-07,-7.13381430693948e-08,-1.45198761068652e-07,NaN,-9.25119147197477e-06,1.73895975755342e-05,NaN,-8.16932904796463e-08,-1.38113103739957e-07,-3.24255442527206e-07,3.24255442526607e-07,1.02710729930755e-07,-1.04665341584359e-08,5.35083059979007e-08,4.30417718393755e-08,NaN,3.96963586598314e-07,7.66528454300788e-07,-8.8021269504171e-08,5.27524205606012e-08,5.27524205600724e-08,-2.80602434735776e-07,8.36432701706484e-08,-1.96959164564947e-07,-8.33098832558881e-08,1.34587169800832e-07,5.12772865449057e-08,NaN,4.1641791069978e-07,NaN,2.32596847680452e-06,-2.32596847680609e-06,1.60452204816308e-07,0,0,0
2079.4368,-2.76273221052043e-07,2.26288391313211e-07,-4.99848297388722e-08,3.6977273070414e-07,-6.72068572747934e-07,-6.7206857274824e-07,NaN,2.16538738920602e-07,-9.03288378476493e-07,-9.25908989119846e-08,-2.19025866548884e-07,-9.25908989120124e-08,-3.25596538896711e-08,-1.07157090175373e-06,NaN,-3.61670665433854e-07,8.34280971224194e-08,-2.78242568310759e-07,-1.63050866211335e-07,-8.52131105856818e-08,-1.6305086621136e-07,NaN,-8.38151579896909e-06,1.64371220339331e-05,NaN,-8.06504078121255e-08,-1.46374988071045e-07,-3.11935206837359e-07,3.1193520683677e-07,1.06851127705143e-07,-1.8868325606942e-08,6.00006992269598e-08,4.11323736199345e-08,NaN,4.12465088673036e-07,7.81512142972918e-07,-1.13202215498741e-07,7.2924235372314e-08,7.29242353718069e-08,-3.02181891007419e-07,8.89165520055492e-08,-2.13265339001681e-07,-1.05450490582139e-07,1.46209648181419e-07,4.07591575992479e-08,NaN,4.25345068865367e-07,NaN,2.31956331076693e-06,-2.31956331076847e-06,2.37912224806663e-07,0,1,0
2079.5392,-3.15223627779721e-07,2.34412087561853e-07,-8.08115402179188e-08,3.69638837434165e-07,-6.94263968033195e-07,-6.942639680335e-07,NaN,1.93499162809611e-07,-1.02342838488713e-06,-9.85197014699207e-08,-2.22293293918872e-07,-9.85197014699492e-08,-1.09632255939205e-07,-1.0228896203207e-06,NaN,-3.82151415111988e-07,9.15124961056367e-08,-2.90638919005665e-07,-1.7830661860427e-07,-9.55381211828875e-08,-1.78306618604276e-07,NaN,-7.61609893061406e-06,1.56278694556574e-05,NaN,-7.93435071921875e-08,-1.53740185610849e-07,-3.00277588886075e-07,3.00277588885496e-07,1.09705959636878e-07,-2.81028477242916e-08,6.7250562473155e-08,3.91477147487855e-08,NaN,4.28014904739926e-07,7.94886284493041e-07,-1.4267649058986e-07,9.21293485901938e-08,9.21293485897054e-08,-3.20365112014966e-07,9.38915430211957e-08,-2.26473568993576e-07,-1.2587731481146e-07,1.57261028224811e-07,3.13837134133247e-08,NaN,4.33212577645152e-07,NaN,2.33023427223288e-06,-2.33023427223439e-06,2.96332014230299e-07,0,1,0
2079.6416,-3.4535696394931e-07,2.40414336695203e-07,-1.04942627254168e-07,3.66152184808956e-07,-7.11800499878757e-07,-7.1180049987906e-07,NaN,1.71056764323408e-07,-1.13642166067714e-06,-1.01855796188202e-07,-2.25223317649283e-07,-1.0185579618823e-07,-1.84686885502738e-07,-9.75493765344776e-07,NaN,-3.99746290273795e-07,1.00203548748334e-07,-2.99542741524766e-07,-1.90681801064717e-07,-1.02033101703049e-07,-1.90681801064707e-07,NaN,-6.93121882320392e-06,1.49378819675807e-05,NaN,-7.81616474253874e-08,-1.60339894814047e-07,-2.89686832563038e-07,2.89686832562468e-07,1.11848750580219e-07,-3.78154525625735e-08,7.47010599009834e-08,3.68856073383368e-08,NaN,4.42890273911087e-07,8.05445504856087e-07,-1.73083544947254e-07,1.09802584827286e-07,1.09802584826813e-07,-3.34427839420541e-07,9.83015503007583e-08,-2.36126289119583e-07,-1.43865525822286e-07,1.67104954060875e-07,2.32394282385673e-08,NaN,4.404099435372e-07,NaN,2.35504323191084e-06,-2.35504323191232e-06,3.38839813089259e-07,0,1,0
2079.744,-3.64252464260923e-07,2.46655118741813e-07,-1.17597345519178e-07,3.59158980429056e-07,-7.25527432793037e-07,-7.25527432793336e-07,NaN,1.49646075374969e-07,-1.24060449785945e-06,-1.02142141529104e-07,-2.27597538873768e-07,-1.02142141529134e-07,-2.54617655077243e-07,-9.31139417764183e-07,NaN,-4.14670157795759e-07,1.08659442868093e-07,-3.06010714926963e-07,-1.9994837033844e-07,-1.04739577373864e-07,-1.99948370338417e-07,NaN,-6.29500335196138e-06,1.43309485840071e-05,NaN,-7.75058363732896e-08,-1.66528720278294e-07,-2.80643581068616e-07,2.80643581068054e-07,1.13646483408019e-07,-4.77450978526981e-08,8.19766190422634e-08,3.42315211894957e-08,NaN,4.5653259614312e-07,8.12430933118552e-07,-2.01860151299725e-07,1.25773835643186e-07,1.25773835642723e-07,-3.44107832013437e-07,1.01990180445892e-07,-2.4211765156734e-07,-1.58864856776072e-07,1.75329278164932e-07,1.64644213888414e-08,NaN,4.46993608929425e-07,NaN,2.39082145244474e-06,-2.3908214524462e-06,3.68679177625163e-07,0,0,0
2079.8464,-3.69261085568696e-07,2.55790411134775e-07,-1.13470674433994e-07,3.48188932648556e-07,-7.36697273665997e-07,-7.36697273666292e-07,NaN,1.29122975723177e-07,-1.33606477231766e-06,-9.91354961619866e-08,-2.29296104740141e-07,-9.91354961620174e-08,-3.1782187428872e-07,-8.89911135586861e-07,NaN,-4.27575010839309e-07,1.15932055023163e-07,-3.11642955815436e-07,-2.05959967469214e-07,-1.03962115148484e-07,-2.05959967469183e-07,NaN,-5.66659390392162e-06,1.37587712836661e-05,NaN,-7.77198814259486e-08,-1.72831132294103e-07,-2.73607198302772e-07,2.73607198302217e-07,1.15246601560903e-07,-5.76670558305974e-08,8.89034114731192e-08,3.12363556424544e-08,NaN,4.68623026640092e-07,8.15604742426216e-07,-2.27439243741417e-07,1.40314434649977e-07,1.40314434649522e-07,-3.49513973015795e-07,1.04906876927741e-07,-2.44607096087844e-07,-1.70470216430979e-07,1.81780135158097e-07,1.13099187271016e-08,NaN,4.52871830210409e-07,NaN,2.43502510333633e-06,-2.43502510333779e-06,3.89124703711887e-07,0,0,0
2079.9488,-3.57523508508592e-07,2.70549166106857e-07,-8.69743424018111e-08,3.32601862691151e-07,-7.46823233643667e-07,-7.46823233643957e-07,NaN,1.08853890482456e-07,-1.42442582976057e-06,-9.27269255244858e-08,-2.30302255365883e-07,-9.27269255245178e-08,-3.73815925309153e-07,-8.50782812977669e-07,NaN,-4.39374123908671e-07,1.21061433392102e-07,-3.18312690515854e-07,-2.08659384528284e-07,-1.00186212899498e-07,-2.08659384528249e-07,NaN,-5.00074899265574e-06,1.31667627640027e-05,NaN,-7.90529339820471e-08,-1.79867838801511e-07,-2.68942228048405e-07,2.68942228047856e-07,1.16619583576131e-07,-6.7348353054611e-08,9.54853177098951e-08,2.81369646552177e-08,NaN,4.79082348961258e-07,8.15186532762416e-07,-2.49229262361019e-07,1.54072607314623e-07,1.54072607314171e-07,-3.50968771947139e-07,1.07085819528391e-07,-2.43882952418533e-07,-1.78388587015875e-07,1.8654187305829e-07,8.15328604239973e-09,NaN,4.57971186599872e-07,NaN,2.48597178639862e-06,-2.48597178640007e-06,4.03370948819917e-07,0,0,0
2080.0512,-3.26112548744186e-07,2.93538037204301e-07,-3.25745115399636e-08,3.11824871029164e-07,-7.57540488603287e-07,-7.57540488603572e-07,NaN,8.79174389499265e-08,-1.50829508677799e-06,-8.28339847030075e-08,-2.30716115439123e-07,-8.28339847030411e-08,-4.22624264927063e-07,-8.12479520946395e-07,NaN,-4.5103280191838e-07,1.23189183076101e-07,-3.27843618841559e-07,-2.08055077895828e-07,-9.39917168685411e-08,-2.08055077895791e-07,NaN,-4.25634216150472e-06,1.25036774147012e-05,NaN,-8.16500952634397e-08,-1.88260945056454e-07,-2.6685881394594e-07,2.66858813945396e-07,1.17630549741648e-07,-7.65239645478209e-08,1.01838566590901e-07,2.53146020430141e-08,NaN,4.87993984905627e-07,8.11674299824216e-07,-2.67421787545905e-07,1.67912032839845e-07,1.67912032839391e-07,-3.48848062794505e-07,1.08615155788071e-07,-2.40232907006213e-07,-1.8242295760454e-07,1.89872457244184e-07,7.449499639629e-09,NaN,4.62329515902475e-07,NaN,2.54253778101966e-06,-2.54253778102111e-06,4.14360170946598e-07,0,0,0
2080.1536,-2.72335315234248e-07,3.2703808013203e-07,5.47027648977015e-08,2.85568433768544e-07,-7.70462653802595e-07,-7.70462653802875e-07,NaN,6.53666009373837e-08,-1.5905624467837e-06,-6.93194558402542e-08,-2.30743635558461e-07,-6.93194558402895e-08,-4.64266885192148e-07,-7.74140008709105e-07,NaN,-4.63373080436463e-07,1.21671864951149e-07,-3.41701215484589e-07,-2.04194061345514e-07,-8.59853435822787e-08,-2.04194061345479e-07,NaN,-3.40357373588988e-06,1.17297982801442e-05,NaN,-8.55488394814463e-08,-1.98523477871266e-07,-2.67364879771834e-07,2.67364879771294e-07,1.18102314248921e-07,-8.48896867305432e-08,1.08114330943778e-07,2.32246442131671e-08,NaN,4.95503840449517e-07,8.0564733271308e-07,-2.82742647919626e-07,1.82732932925711e-07,1.82732932925253e-07,-3.43474281705861e-07,1.09605670216979e-07,-2.33868611488657e-07,-1.82484875118635e-07,1.92126016873887e-07,9.64114175523548e-09,NaN,4.6612514593383e-07,NaN,2.6038025587163e-06,-2.60380255871775e-06,4.24647595956738e-07,0,0,0
2080.256,-1.94169492689494e-07,3.72756731332375e-07,1.785872386428e-07,2.53943394774288e-07,-7.87027733318512e-07,-7.87027733318786e-07,NaN,4.04768285648884e-08,-1.67376127538085e-06,-5.19839986673977e-08,-2.30648382720391e-07,-5.19839986674347e-08,-4.98545310485685e-07,-7.35514757704585e-07,NaN,-4.76930770407268e-07,1.16176093660034e-07,-3.60754676746505e-07,-1.97164840404822e-07,-7.67464975666908e-08,-1.97164840404791e-07,NaN,-2.42617106814004e-06,1.08200636071624e-05,NaN,-9.0669975657697e-08,-2.10947302109395e-07,-2.70250187205443e-07,2.70250187204906e-07,1.17846683704899e-07,-9.21069788201363e-08,1.14445187168486e-07,2.23382083482807e-08,NaN,5.01753360016319e-07,7.97648616363105e-07,-2.96255670597494e-07,1.99334069209497e-07,1.99334069209031e-07,-3.35089206037874e-07,1.10167114717997e-07,-2.24922091319647e-07,-1.78625107330059e-07,1.93690454596656e-07,1.50653472665798e-08,NaN,4.69667678168057e-07,NaN,2.66900853958651e-06,-2.66900853958796e-06,4.36388937718467e-07,0,0,0
2080.3584,-9.0751206159948e-08,4.31541321197367e-07,3.40790115037338e-07,2.1746034413926e-07,-8.08329006854581e-07,-8.0832900685485e-07,NaN,1.29235091444118e-08,-1.75959099376168e-06,-3.06410690642019e-08,-2.30688111250316e-07,-3.06410690642406e-08,-5.25122181857966e-07,-6.96796496828466e-07,NaN,-4.91881597098741e-07,1.06740133214387e-07,-3.85141463883621e-07,-1.87123824456662e-07,-6.67733923202322e-08,-1.87123824456637e-07,NaN,-1.31956011810863e-06,9.76302035456662e-06,NaN,-9.68134688455918e-08,-2.25513701946573e-07,-2.75101768665855e-07,2.75101768665322e-07,1.16661027884424e-07,-9.78215158788265e-08,1.20926561783331e-07,2.31050459044324e-08,NaN,5.068651535441e-07,7.88179122624985e-07,-3.09255447315744e-07,2.1830743472103e-07,2.18307434720555e-07,-3.23897705931565e-07,1.1039813170754e-07,-2.13499574223791e-07,-1.71061334849637e-07,1.94949102535209e-07,2.38877676855524e-08,NaN,4.73336739343476e-07,NaN,2.73770584764919e-06,-2.73770584765063e-06,4.51359448646788e-07,0,0,0
2080.4608,3.71656912969771e-08,5.03109169778636e-07,5.40274861075533e-07,1.76933855280754e-07,-8.34940085745168e-07,-8.34940085745432e-07,NaN,-1.71537318343522e-08,-1.84866636047375e-06,-5.24811532560287e-09,-2.3106039707601e-07,-5.248115325643e-09,-5.437539071311e-07,-6.58313319983394e-07,NaN,-5.08038317308002e-07,9.37836510540468e-08,-4.14254666253218e-07,-1.74325182636498e-07,-5.64383391002415e-08,-1.74325182636479e-07,NaN,-8.78949198279509e-08,8.55824507555308e-06,NaN,-1.03672135365786e-07,-2.41860075689353e-07,-2.81321218328882e-07,2.81321218328353e-07,1.14306461235189e-07,-1.01698635551422e-07,1.27620142332632e-07,2.59215067811357e-08,NaN,5.10976140828558e-07,7.77782376137949e-07,-3.23214438367826e-07,2.39944930145234e-07,2.39944930144749e-07,-3.10151220338182e-07,1.10391569552412e-07,-1.99759650785532e-07,-1.60192821981055e-07,1.96265481951367e-07,3.60726599702909e-08,NaN,4.77468159504311e-07,NaN,2.8097885562174e-06,-2.80978855621883e-06,4.70875363070471e-07,0,0,0
2080.5632,1.86816519661298e-07,5.85862024664746e-07,7.72678544325965e-07,1.33347186360516e-07,-8.66783279639224e-07,-8.66783279639484e-07,NaN,-4.92232128073044e-08,-1.94058751832218e-06,2.39400438813386e-08,-2.3185677792231e-07,2.39400438812973e-08,-5.54509965384168e-07,-6.20236124382778e-07,NaN,-5.24913058547015e-07,7.80526851081695e-08,-4.46860373438104e-07,-1.59158558164676e-07,-4.59761439930447e-08,-1.59158558164664e-07,NaN,1.25886370842552e-06,7.21346404844592e-06,NaN,-1.10860174404721e-07,-2.5932425973877e-07,-2.88130898988014e-07,2.88130898987488e-07,1.10495044551969e-07,-1.0346701815256e-07,1.34562046737791e-07,3.10950285851547e-08,NaN,5.1430380341133e-07,7.67173840703062e-07,-3.39723428195178e-07,2.64174892286207e-07,2.64174892285713e-07,-2.94231683934486e-07,1.10249514575522e-07,-1.8398216935872e-07,-1.46604270997402e-07,1.97987519481436e-07,5.13832484840108e-08,NaN,4.82261742458664e-07,NaN,2.8854144039276e-06,-2.88541440392902e-06,4.95657461134449e-07,0,0,0
2080.6656,3.53138166910692e-07,6.76846199867221e-07,1.02998436677784e-06,8.77474899424105e-08,-9.03098755090527e-07,-9.03098755090783e-07,NaN,-8.2541167761355e-08,-2.03433258807047e-06,5.62418847729179e-08,-2.33015232555273e-07,5.6241884772876e-08,-5.57811807840274e-07,-5.82424089352352e-07,NaN,-5.41820491426892e-07,6.05071733273935e-08,-4.81313318098752e-07,-1.42192295910844e-07,-3.55239990597664e-08,-1.42192295910837e-07,NaN,2.70755085896207e-06,5.74185996000695e-06,NaN,-1.17943654011711e-07,-2.77053405190502e-07,-2.94583842764525e-07,2.94583842764004e-07,1.04904651685662e-07,-1.02951815049534e-07,1.41762258691134e-07,3.88104436415212e-08,NaN,5.17214907288529e-07,7.57347669400503e-07,-3.60368905126989e-07,2.90556397753885e-07,2.90556397753383e-07,-2.76690500286208e-07,1.1009646773697e-07,-1.6659403254899e-07,-1.31058329029286e-07,2.00460406134115e-07,6.94020771048053e-08,NaN,4.87784082014373e-07,NaN,2.96493510581052e-06,-2.96493510581192e-06,5.25762710248055e-07,0,1,0
2080.768,5.286998278232e-07,7.71914207573805e-07,1.30061403539693e-06,4.12017746781547e-08,-9.42519098846859e-07,-9.42519098847112e-07,NaN,-1.16353770369723e-07,-2.12878217383468e-06,9.05128523921474e-08,-2.34272456324699e-07,9.05128523921048e-08,-5.54156989954545e-07,-5.44537959027251e-07,NaN,-5.57972211042852e-07,4.21799993038729e-08,-5.15792211738228e-07,-1.24174599502685e-07,-2.5216903348668e-08,-1.24174599502682e-07,NaN,4.24327803829225e-06,4.16037721277543e-06,NaN,-1.24464927819054e-07,-2.94137882681037e-07,-2.99587276462837e-07,2.9958727646232e-07,9.72217680365788e-08,-1.00086232592618e-07,1.49183459755318e-07,4.90972271626195e-08,NaN,5.20249670797994e-07,7.49571586788451e-07,-3.86509495867206e-07,3.18331253164906e-07,3.18331253164399e-07,-2.58199258978583e-07,1.1007880904845e-07,-1.48120449929881e-07,-1.14470430691135e-07,2.04028987968442e-07,8.95585572772824e-08,NaN,4.94042706816326e-07,NaN,3.04878530737503e-06,-3.04878530737641e-06,5.60603466837621e-07,0,1,0
2080.8704,7.04022322658388e-07,8.66102254756693e-07,1.57012457741501e-06,-5.22405237813721e-09,-9.83208771370702e-07,-9.83208771370952e-07,NaN,-1.50039174603508e-07,-2.22312153350365e-06,1.25250122287619e-07,-2.35123607246996e-07,1.25250122287575e-07,-5.43548964878006e-07,-5.06403102421376e-07,NaN,-5.72524469590644e-07,2.4038498766352e-08,-5.48485970823534e-07,-1.0594087581216e-07,-1.53173714233244e-08,-1.05940875812159e-07,NaN,5.84967016877509e-06,2.48905502612609e-06,NaN,-1.29961375527176e-07,-3.09733568508968e-07,-3.01938563075321e-07,3.01938563074809e-07,8.72041938057039e-08,-9.49040488897668e-08,1.56696933330885e-07,6.17928844410366e-08,NaN,5.24067903261279e-07,7.45213672612176e-07,-4.18964970800448e-07,3.46517913851232e-07,3.46517913850723e-07,-2.39410190270254e-07,1.10344078460144e-07,-1.29066111809853e-07,-9.7864216959421e-08,2.09016497309589e-07,1.11152280350143e-07,NaN,5.01055027289629e-07,NaN,3.13722151856481e-06,-3.13722151856616e-06,5.98977226540433e-07,0,1,0
2080.9728,8.68389467430637e-07,9.54177349961774e-07,1.82256681739234e-06,-5.05276821008695e-08,-1.02303525874689e-06,-1.02303525874714e-06,NaN,-1.83188059150421e-07,-2.31704838906474e-06,1.58814408950335e-07,-2.34802016140326e-07,1.58814408950291e-07,-5.24866333604706e-07,-4.68386217231329e-07,NaN,-5.84602411808005e-07,6.85457682410468e-09,-5.77747834983134e-07,-8.82487302180151e-08,-6.32413658953045e-09,-8.82487302180142e-08,NaN,7.50929624310536e-06,7.50031957152095e-07,NaN,-1.33986878954971e-07,-3.23161930800903e-07,-3.00378665928579e-07,3.00378665928073e-07,7.47530461094341e-08,-8.75235332255874e-08,1.64037790477272e-07,7.65142572516027e-08,NaN,5.29342025551316e-07,7.45464716358314e-07,-4.57715393462481e-07,3.74042774468431e-07,3.74042774467921e-07,-2.20787532743917e-07,1.11007101266159e-07,-1.09780431477497e-07,-8.23144702501092e-08,2.15692743108876e-07,1.33378272858743e-07,NaN,5.08876102931764e-07,NaN,3.23000435487539e-06,-3.2300043548767e-06,6.39078322925576e-07,0,0,0
2081.0752,1.01105323258933e-06,1.03127280990095e-06,2.04232604249021e-06,-9.38987537506457e-08,-1.05975911136265e-06,-1.05975911136289e-06,NaN,-2.15675344911516e-07,-2.41089114554364e-06,1.89690864129073e-07,-2.32301788286273e-07,1.89690864129028e-07,-4.95540740341751e-07,-4.31476447583443e-07,NaN,-5.93355740612416e-07,-8.92642555033315e-09,-6.02282166161976e-07,-7.16273890277083e-08,1.0010692633141e-09,-7.16273890277043e-08,NaN,9.20553896201046e-06,-1.03483348152581e-06,NaN,-1.36149566507666e-07,-3.3399619800238e-07,-2.9367115351831e-07,2.93671153517809e-07,5.99686387877187e-08,-7.81382042888413e-08,1.70797152764043e-07,9.26589484751198e-08,NaN,5.36665469991952e-07,7.51110552310121e-07,-5.01753155780881e-07,3.99902232954768e-07,3.99902232954262e-07,-2.02492519946246e-07,1.12123245638326e-07,-9.0369274307655e-08,-6.88843704073638e-08,2.24260462062964e-07,1.55376091655578e-07,NaN,5.17579163194862e-07,NaN,3.32621783779196e-06,-3.32621783779323e-06,6.78542670250937e-07,0,0,0
2081.1776,1.12252622509973e-06,1.09348053554748e-06,2.21600676064714e-06,-1.34866806323389e-07,-1.09122759294665e-06,-1.09122759294689e-06,NaN,-2.47718935181145e-07,-2.50563268484142e-06,2.1670759483127e-07,-2.26459445046308e-07,2.16707594831224e-07,-4.51854919830414e-07,-3.96923731204519e-07,NaN,-5.98049818272759e-07,-2.329871301466e-08,-6.21348531286637e-07,-5.62987232840769e-08,5.70743255257289e-09,-5.62987232840687e-08,NaN,1.09248533992911e-05,-2.84657892244083e-06,NaN,-1.36170009312324e-07,-3.42124843331797e-07,-2.8070411752441e-07,2.80704117523914e-07,4.31535276469861e-08,-6.70206943357667e-08,1.76466104751806e-07,1.09445410415959e-07,NaN,5.46502543482092e-07,7.62439556148125e-07,-5.49175276051932e-07,4.23308581347562e-07,4.23308581347061e-07,-1.84371909974841e-07,1.13684036441683e-07,-7.06878735328873e-08,-5.85559452674591e-08,2.34862464577148e-07,1.76306519309668e-07,NaN,5.27160472918898e-07,NaN,3.42422331430398e-06,-3.42422331430519e-06,7.14530819533904e-07,0,0,0
2081.28,1.19561308126362e-06,1.13822489073101e-06,2.33383797199456e-06,-1.73390272048978e-07,-1.11554294769814e-06,-1.11554294769838e-06,NaN,-2.79854244029497e-07,-2.60267684223327e-06,2.39154247750044e-07,-2.16082982021516e-07,2.39154247749995e-07,-3.89801645595882e-07,-3.65623019535727e-07,NaN,-5.98142119918665e-07,-3.67337893498482e-08,-6.34875909267725e-07,-4.21527292822409e-08,6.78626149266699e-09,-4.21527292822273e-08,NaN,1.26568564864993e-05,-4.669556502891e-06,NaN,-1.33942227504979e-07,-3.47760737642988e-07,-2.6060766453761e-07,2.60607664537117e-07,2.47553677674346e-08,-5.45252815915304e-08,1.80503153164662e-07,1.25977871573053e-07,NaN,5.59138677020844e-07,7.79234308741938e-07,-5.97483953264576e-07,4.43754147525279e-07,4.43754147524783e-07,-1.66053564551663e-07,1.15631874846236e-07,-5.04216897051508e-08,-5.2154517330205e-08,2.47579202506314e-07,1.9542468517609e-07,NaN,5.37362650650173e-07,NaN,3.52155450658585e-06,-3.52155450658699e-06,7.43765356146572e-07,0,0,0
2081.3824,1.22599339222055e-06,1.16432011262534e-06,2.39031350484582e-06,-2.0983606324222e-07,-1.13118457944236e-06,-1.13118457944261e-06,NaN,-3.12798099637791e-07,-2.7033432674514e-06,2.56776087128756e-07,-2.00103103885942e-07,2.56776087128701e-07,-3.0602187574471e-07,-3.37668971782684e-07,NaN,-5.93319428868322e-07,-5.00983692797854e-08,-6.43417798147312e-07,-2.87485903016748e-08,3.28598685700509e-09,-2.87485903016553e-08,NaN,1.43909424959529e-05,-6.48860802739046e-06,NaN,-1.29568955147347e-07,-3.51379066782201e-07,-2.32884423091405e-07,2.32884423090913e-07,5.29526660760739e-09,-4.10714623104774e-08,1.82387099410038e-07,1.41315637099484e-07,NaN,5.74604163407328e-07,8.0078063683355e-07,-6.43979044334974e-07,4.60985211588897e-07,4.60985211588408e-07,-1.47119886706587e-07,1.17882519975292e-07,-2.92373667310139e-08,-5.02802207871215e-08,2.62398043056676e-07,2.12117822269537e-07,NaN,5.47498557274671e-07,NaN,3.61465917090486e-06,-3.61465917090593e-06,7.62499568459778e-07,0,0,0
2081.4848,1.2123915373752e-06,1.17177402525077e-06,2.38416556262589e-06,-2.44838010743716e-07,-1.13709774487059e-06,-1.13709774487084e-06,NaN,-3.47270668059147e-07,-2.80833438698434e-06,2.69652889454424e-07,-1.77740171734278e-07,2.69652889454362e-07,-1.9842368496565e-07,-3.12361743093714e-07,NaN,-5.83526531463078e-07,-6.44585380123319e-08,-6.47985069474609e-07,-1.53630654628216e-08,-5.62209320561184e-09,-1.5363065462796e-08,NaN,1.61101646372958e-05,-8.28376051383083e-06,NaN,-1.23355385103506e-07,-3.53596889941686e-07,-1.97540735381537e-07,1.97540735381045e-07,-1.46541364021319e-08,-2.71089858803028e-08,1.81653149599598e-07,1.5454416371922e-07,NaN,5.92605864816705e-07,8.25914410389561e-07,-6.86128715690116e-07,4.74945769836398e-07,4.74945769835914e-07,-1.27312105271299e-07,1.2034920115227e-07,-6.96290411874224e-09,-5.32579477739484e-08,2.7917115750839e-07,2.25913209734426e-07,NaN,5.56379158925955e-07,NaN,3.69860825050539e-06,-3.69860825050639e-06,7.66549748679614e-07,0,0,0
2081.5872,1.15649202630686e-06,1.16149307547635e-06,2.31798510178313e-06,-2.79047383344518e-07,-1.13277048833783e-06,-1.13277048833808e-06,NaN,-3.83860188222115e-07,-2.91740992781784e-06,2.78009619443497e-07,-1.48694574592852e-07,2.78009619443425e-07,-6.65635845943479e-08,-2.88569744102144e-07,NaN,-5.69014167877495e-07,-8.0818004667329e-08,-6.49832172544019e-07,-1.12513561408312e-09,-2.05900544113277e-08,-1.12513561405403e-09,NaN,1.77839202778614e-05,-1.0023535459699e-05,NaN,-1.15767170558237e-07,-3.55024893948839e-07,-1.55185323687668e-07,1.55185323687174e-07,-3.44048427994649e-08,-1.30836218844303e-08,1.77936369884332e-07,1.64852747999829e-07,NaN,6.12508817892337e-07,8.53140446543481e-07,-7.21837487416875e-07,4.85746334676667e-07,4.85746334676185e-07,-1.06705593940241e-07,1.22964074561892e-07,1.62584806219449e-08,-6.11024763508339e-08,2.97582839173801e-07,2.36480362822954e-07,NaN,5.62363716384064e-07,NaN,3.76697348546301e-06,-3.76697348546394e-06,7.51554338230056e-07,0,0,0
2081.6896,1.0627502831553e-06,1.13501897837282e-06,2.19776926152804e-06,-3.1282587195382e-07,-1.11828593898522e-06,-1.11828593898548e-06,NaN,-4.22937450148395e-07,-3.02926194133843e-06,2.82037307570442e-07,-1.13342863010492e-07,2.82037307570356e-07,8.79241910296645e-08,-2.65163267093019e-07,NaN,-5.50381865313104e-07,-9.98516274194868e-08,-6.50233492731785e-07,1.47783706284557e-08,-4.19947351802632e-08,1.47783706284868e-08,NaN,1.93612464432596e-05,-1.16580760118223e-05,NaN,-1.07370610613682e-07,-3.56133796144383e-07,-1.07069502432586e-07,1.07069502432088e-07,-5.30158563891436e-08,5.70134744357778e-10,1.71027210409609e-07,1.71597345153895e-07,NaN,6.33358956530843e-07,8.80766300329838e-07,-7.49544979375636e-07,4.93649124400796e-07,4.93649124400312e-07,-8.57968012315059e-08,1.25688221507831e-07,3.98914202766252e-08,-7.34946146654934e-08,3.17120710478367e-07,2.43626095812862e-07,NaN,5.63481358681741e-07,NaN,3.8120326698053e-06,-3.81203266980614e-06,7.13485649953566e-07,0,0,0
2081.792,9.38160282754307e-07,1.0943465568939e-06,2.03250683964811e-06,-3.45974450110431e-07,-1.09431345727788e-06,-1.09431345727815e-06,NaN,-4.64552710553953e-07,-3.14140968670613e-06,2.81792655253482e-07,-7.28803935045962e-08,2.81792655253381e-07,2.60776057813687e-07,-2.41297877295044e-07,NaN,-5.28565798394092e-07,-1.21684543369494e-07,-6.5025034176278e-07,3.28980805001541e-08,-6.97834679508477e-08,3.28980805001849e-08,NaN,2.07672013188234e-05,-1.31143601281471e-05,NaN,-9.87744258550425e-08,-3.57173998438337e-07,-5.50763608509353e-08,5.50763608504316e-08,-6.9145200836108e-08,1.33988502149898e-08,1.60914997938782e-07,1.743138481537e-07,NaN,6.53907919577161e-07,9.06954258174607e-07,-7.68135117322621e-07,4.9901878365573e-07,4.99018783655239e-07,-6.54764261505863e-08,1.28502548468251e-07,6.30261223179716e-08,-8.97765427396449e-08,3.37036078812136e-07,2.4725953607248e-07,NaN,5.57590953082595e-07,NaN,3.82539079114339e-06,-3.82539079114415e-06,6.49289884168316e-07,0,0,0
2081.8944,7.91917520610843e-07,1.04180196744745e-06,1.83371948805819e-06,-3.77592440586053e-07,-1.06202573414248e-06,-1.06202573414275e-06,NaN,-5.08277252661811e-07,-3.25003350441936e-06,2.77195126085804e-07,-2.9334528200777e-08,2.77195126085685e-07,4.4464434284169e-07,-2.16469940048149e-07,NaN,-5.04755454338615e-07,-1.45753437213429e-07,-6.50508891551242e-07,5.33867185076479e-08,-1.0332331182104e-07,5.33867185076754e-08,NaN,2.19050783040656e-05,-1.42966853699614e-05,NaN,-9.05856862181434e-08,-3.58161269337591e-07,-1.67104168212374e-09,1.67104168161356e-09,-8.09816687627682e-08,2.48872963818466e-08,1.4779520016655e-07,1.72682496548324e-07,NaN,6.72638567547997e-07,9.2969247282378e-07,-7.76725452222237e-07,5.02219156459393e-07,5.02219156458891e-07,-4.69093049656473e-08,1.3138221736122e-07,8.44729123958857e-08,-1.08979239653549e-07,3.56305905559508e-07,2.47326665905948e-07,NaN,5.42599979885228e-07,NaN,3.7990120452589e-06,-3.79901204525957e-06,5.57492288362769e-07,0,1,0
2081.9968,6.34835796102269e-07,9.79923532806908e-07,1.61475932890906e-06,-4.06107429622242e-07,-1.02296323271454e-06,-1.02296323271483e-06,NaN,-5.53068981980556e-07,-3.34994080688791e-06,2.68096621324055e-07,1.460657852731e-08,2.68096621323917e-07,6.29190018688935e-07,-1.9046306153259e-07,NaN,-4.80272214986528e-07,-1.70791445711007e-07,-6.51063660696738e-07,7.5960069114605e-08,-1.41357192434686e-07,7.5960069114626e-08,NaN,2.26656815637362e-05,-1.50945129656402e-05,NaN,-8.33768788399567e-08,-3.58918364333448e-07,5.02155438901901e-08,-5.02155438907067e-08,-8.6313467312418e-08,3.44492497516887e-08,1.32035340559884e-07,1.66484590311499e-07,NaN,6.87845591478175e-07,9.46804391614935e-07,-7.74448857274117e-07,5.03504876565145e-07,5.03504876564627e-07,-3.13575294436855e-08,1.34267328422e-07,1.02909798978634e-07,-1.29891131567672e-07,3.7364317722871e-07,2.43752045661028e-07,NaN,5.16763830956803e-07,NaN,3.72649773708644e-06,-3.72649773708703e-06,4.38625772143501e-07,0,1,0
2082.0992,4.78431168903198e-07,9.11292227916706e-07,1.38972339681977e-06,-4.29461238842187e-07,-9.78870980801828e-07,-9.78870980802128e-07,NaN,-5.97304113460735e-07,-3.43496079590119e-06,2.54385571939078e-07,5.59519604078871e-08,2.54385571938919e-07,8.02172872811349e-07,-1.63434614184336e-07,NaN,-4.56449926302106e-07,-1.94978059722624e-07,-6.51427986023942e-07,9.99515952624227e-08,-1.82147411607111e-07,9.99515952624339e-08,NaN,2.29420964879629e-05,-1.5396823336651e-05,NaN,-7.76502033747361e-08,-3.59157357510083e-07,9.74199519252593e-08,-9.74199519257812e-08,-8.27237665117493e-08,4.14762741900594e-08,1.1410787754301e-07,1.55584151732993e-07,NaN,6.9781119883416e-07,9.56096840449499e-07,-7.6030205521561e-07,5.02979541251386e-07,5.02979541250845e-07,-1.99768890120967e-08,1.37043703000439e-07,1.17066813988668e-07,-1.5117455697421e-07,3.87598411840751e-07,2.36423854866531e-07,NaN,4.79002979106069e-07,NaN,3.60426956559435e-06,-3.60426956559487e-06,2.95343318169013e-07,0,1,0
2082.2016,3.33754109204002e-07,8.38315050768047e-07,1.1720691599719e-06,-4.45407489841682e-07,-9.31520518906118e-07,-9.31520518906428e-07,NaN,-6.39024846413365e-07,-3.49880610292881e-06,2.36088893828271e-07,9.188092798992e-08,2.36088893828091e-07,9.5149930229543e-07,-1.36231011602679e-07,NaN,-4.34527748038006e-07,-2.1624316488033e-07,-6.50770912917557e-07,1.2444238529234e-07,-2.23793669852066e-07,1.24442385292338e-07,NaN,2.26462369338295e-05,-1.51092913657398e-05,NaN,-7.3793781771458e-08,-3.58584210156982e-07,1.36895443677262e-07,-1.36895443677788e-07,-6.78630767428718e-08,4.54228661452374e-08,9.45027619936297e-08,1.39925628138788e-07,NaN,7.01033754314829e-07,9.55604309716334e-07,-7.33087815054271e-07,5.00642999383584e-07,5.00642999383016e-07,-1.36226302817942e-08,1.39540088510055e-07,1.25917458228592e-07,-1.71526135258333e-07,3.96741405570481e-07,2.25215270312137e-07,NaN,4.2909487713613e-07,NaN,3.43228361322103e-06,-3.43228361322147e-06,1.32127399005989e-07,0,0,0
2082.304,2.10198079147557e-07,7.63041182155507e-07,9.73239261302891e-07,-4.5184541727698e-07,-8.82539565392207e-07,-8.82539565392528e-07,NaN,-6.76300599885272e-07,-3.53609616309113e-06,2.13435776235641e-07,1.20193689912235e-07,2.13435776235441e-07,1.06751583248279e-06,-1.10743501125418e-07,NaN,-4.15556571263975e-07,-2.32635218009002e-07,-6.48191789272212e-07,1.48421154700068e-07,-2.64604624226127e-07,1.48421154700052e-07,NaN,2.17229768259239e-05,-1.416940989864e-05,NaN,-7.20404377961601e-08,-3.56997525362372e-07,1.66089241638398e-07,-1.66089241638924e-07,-3.97513509541115e-08,4.58825172852465e-08,7.36424555044488e-08,1.19524972789612e-07,NaN,6.96418814962288e-07,9.43801917473335e-07,-6.91472313561745e-07,4.96485690482817e-07,4.96485690482217e-07,-1.27182819849864e-08,1.4154135943682e-07,1.28823077452171e-07,-1.89852155477323e-07,3.99861877963489e-07,2.10009722486156e-07,NaN,3.67636187070059e-07,NaN,3.21408883495209e-06,-3.21408883495248e-06,-4.53066627409761e-08,0,0,0
2082.4064,1.14537454735035e-07,6.87111934290996e-07,8.01649389025833e-07,-4.47106805273176e-07,-8.33295917003401e-07,-8.3329591700373e-07,NaN,-7.07555428487232e-07,-3.5432034521528e-06,1.86857150523348e-07,1.39600399378902e-07,1.86857150523131e-07,1.14466049559275e-06,-9.00355115462768e-08,NaN,-4.00341910889352e-07,-2.42638910081919e-07,-6.42980820970522e-07,1.70907222423879e-07,-3.03370853184066e-07,1.70907222423847e-07,NaN,2.01592062860349e-05,-1.25562892139115e-05,NaN,-7.24408465168884e-08,-3.54353791350197e-07,1.83234640142055e-07,-1.8323464014258e-07,2.91941637017929e-09,4.26263263763522e-08,5.1836052729992e-08,9.44623791062562e-08,NaN,6.83386248584677e-07,9.19734842447406e-07,-6.34194552658458e-07,4.90576543959163e-07,4.90576543958527e-07,-1.72344975424717e-08,1.42817412758411e-07,1.25582915216284e-07,-2.05412174523702e-07,3.96135643920696e-07,1.90723469396983e-07,NaN,2.95824117227246e-07,NaN,2.95636410725521e-06,-2.95636410725557e-06,-2.30639510681697e-07,0,0,0
2082.5088,5.03690415938912e-08,6.11854784465643e-07,6.62223826059307e-07,-4.30170112572137e-07,-7.84874154526204e-07,-7.84874154526538e-07,NaN,-7.31785588822703e-07,-3.5187936562018e-06,1.56923743970279e-07,1.49794068976672e-07,1.56923743970044e-07,1.18199369112348e-06,-7.80520939302553e-08,NaN,-3.89443306092475e-07,-2.45371733137178e-07,-6.34815039228921e-07,1.90998426562323e-07,-3.39469954541639e-07,1.90998426562273e-07,NaN,1.79876935161581e-05,-1.02952532806782e-05,NaN,-7.48504369578872e-08,-3.50783948874176e-07,1.87508522989697e-07,-1.87508522990218e-07,6.0508051065148e-08,3.56128205797852e-08,2.9302611803182e-08,6.49154323828733e-08,NaN,6.61922154654066e-07,8.83125407532118e-07,-5.60449126517111e-07,4.83124138021304e-07,4.83124138020628e-07,-2.67775571903852e-08,1.43166705037631e-07,1.16389147847597e-07,-2.17888368313503e-07,3.85243101530744e-07,1.67354733217229e-07,NaN,2.15239448766558e-07,NaN,2.66824981197533e-06,-2.66824981197569e-06,-4.17399156316581e-07,0,0,0
2082.6112,1.80257438782356e-08,5.38408997511148e-07,5.56434741389124e-07,-4.00832713443426e-07,-7.38138759714278e-07,-7.38138759714615e-07,NaN,-7.48665214658132e-07,-3.46406113844501e-06,1.24258499722494e-07,1.51354494845597e-07,1.24258499722244e-07,1.18268418079089e-06,-7.88917511753899e-08,NaN,-3.83208168317685e-07,-2.40646938001475e-07,-6.23855106318447e-07,2.0786998845522e-07,-3.72836656133737e-07,2.07869988455151e-07,NaN,1.52867662246988e-05,-7.4589414126516e-06,NaN,-7.89249191324794e-08,-3.46559863430067e-07,1.79077767354314e-07,-1.79077767354827e-07,1.3221579631136e-07,2.49956981583977e-08,6.26012814685944e-09,3.12558263051566e-08,NaN,6.32621626691249e-07,8.34515134587501e-07,-4.70391515690773e-07,4.74511059145676e-07,4.74511059144958e-07,-4.07293070937346e-08,1.42464989612553e-07,1.01735682519178e-07,-2.27358071460727e-07,3.67439328717772e-07,1.40081257257034e-07,NaN,1.27793419070157e-07,NaN,2.36066174276715e-06,-2.36066174276753e-06,-5.99276160309593e-07,0,0,0
2082.7136,1.4921340889497e-08,4.6779335805593e-07,4.82714698945131e-07,-3.59845234768822e-07,-6.93842243711478e-07,-6.93842243711815e-07,NaN,-7.58561290556984e-07,-3.38268024397035e-06,8.94783938355585e-08,1.45563749844357e-07,8.94783938352943e-08,1.15294378171492e-06,-9.59223550561969e-08,NaN,-3.81793396234675e-07,-2.28929416501539e-07,-6.1072281273552e-07,2.20774037097719e-07,-4.03846649438559e-07,2.20774037097632e-07,NaN,1.21764216922234e-05,-4.16547354679826e-06,NaN,-8.41321048753815e-08,-3.42029853661136e-07,1.5907167994866e-07,-1.59071679949164e-07,2.1600105206602e-07,1.11384257520492e-08,-1.69593126635222e-08,-5.82088691158089e-09,NaN,5.96725925022816e-07,7.75404202277658e-07,-3.65614054980231e-07,4.65298286989403e-07,4.65298286988642e-07,-5.83515458459564e-08,1.40702761333216e-07,8.2351215487628e-08,-2.34179902298116e-07,3.43564910237047e-07,1.0938500793892e-07,NaN,3.58456090198315e-08,NaN,2.04560775409861e-06,-2.04560775409902e-06,-7.70411892813241e-07,0,0,0
2082.816,3.61889948898973e-08,4.009756846731e-07,4.37164679562661e-07,-3.08951913705642e-07,-6.52730487297363e-07,-6.52730487297699e-07,NaN,-7.6247194483308e-07,-3.28051964538845e-06,5.32107450699493e-08,1.34182755349528e-07,5.3210745069672e-08,1.10100397490755e-06,-1.31216872732035e-07,NaN,-3.85151782537342e-07,-2.11227394863686e-07,-5.96379177400354e-07,2.29056859918695e-07,-4.33135009337571e-07,2.29056859918588e-07,NaN,8.81155687355964e-06,-5.7340160683189e-07,NaN,-8.97959926674295e-08,-3.37559543042538e-07,1.29493997616006e-07,-1.29493997616498e-07,3.08650815236747e-07,-5.37701775384486e-09,-3.98187549509247e-08,-4.51957727048851e-08,NaN,5.56121180900872e-07,7.08302873072776e-07,-2.49386141320929e-07,4.56195793089797e-07,4.56195793088994e-07,-7.87945497159493e-08,1.37999659978666e-07,5.9205110263094e-08,-2.38837701634036e-07,3.14992764820267e-07,7.61550631862195e-08,NaN,-5.76281983043338e-08,NaN,1.73559163331051e-06,-1.73559163331098e-06,-9.2555582755512e-07,0,0,0
2082.9184,7.54645068436158e-08,3.39027454210251e-07,4.14491961053488e-07,-2.5078437259873e-07,-6.1559307636951e-07,-6.15593076369843e-07,NaN,-7.61889015448731e-07,-3.16514542807504e-06,1.61737543460797e-08,1.19207448712917e-07,1.61737543457903e-08,1.0363262440815e-06,-1.85511766693441e-07,NaN,-3.92998036583603e-07,-1.8895501878452e-07,-5.81953055367467e-07,2.32183642659807e-07,-4.61381211811888e-07,2.32183642659684e-07,NaN,5.3730146672127e-06,3.12670432037989e-06,NaN,-9.51732633471715e-08,-3.33498458386504e-07,9.30670326638222e-08,-9.30670326643011e-08,4.06011598833705e-07,-2.37574594122604e-08,-6.1545812340639e-08,-8.53032717530222e-08,NaN,5.13264765289168e-07,6.3664281943387e-07,-1.26508032548731e-07,4.47997578310591e-07,4.47997578309746e-07,-1.01028928036069e-07,1.34594560687503e-07,3.35656326518223e-08,-2.41794038843266e-07,2.83519821535531e-07,4.17257826922534e-08,NaN,-1.48955325265668e-07,NaN,1.44320235428033e-06,-1.44320235428086e-06,-1.05992442453978e-06,0,0,0
2083.0208,1.25737625106676e-07,2.83282882828409e-07,4.0902050793466e-07,-1.88603559685094e-07,-5.83204113560637e-07,-5.83204113560966e-07,NaN,-7.58585227744209e-07,-3.04504560142013e-06,-2.07561370951883e-08,1.02621708402675e-07,-2.07561370954886e-08,9.68704041999697e-07,-2.58407015616213e-07,NaN,-4.04788440169212e-07,-1.6377619023035e-07,-5.68564630398924e-07,2.29764578568542e-07,-4.89117017218409e-07,2.29764578568403e-07,NaN,2.05518656353202e-06,6.72545930470532e-06,NaN,-9.95426991731385e-08,-3.30160696097164e-07,5.29889401726012e-08,-5.29889401730661e-08,5.03382963460693e-07,-4.30314441296325e-08,-8.11796614830286e-08,-1.24211105612791e-07,NaN,4.71004652312794e-07,5.64512953154845e-07,-2.75451800723395e-09,4.41478178794203e-07,4.41478178793321e-07,-1.23791763351784e-07,1.30813338853431e-07,7.02157550204647e-09,-2.43389546120007e-07,2.5120321159027e-07,7.81366547025253e-09,NaN,-2.33882116685864e-07,NaN,1.18068152536567e-06,-1.18068152536626e-06,-1.16892504883164e-06,0,0,0
2083.1232,1.80220724039768e-07,2.35335219759631e-07,4.1555594379893e-07,-1.25923710645184e-07,-5.56141883093454e-07,-5.56141883093781e-07,NaN,-7.54348590896322e-07,-2.92854577928061e-06,-5.65697233377429e-08,8.61707782153016e-08,-5.65697233380534e-08,9.06954859024308e-07,-3.48487211608254e-07,NaN,-4.1974875130783e-07,-1.37424724944304e-07,-5.57173476251509e-07,2.21582169184939e-07,-5.16595015737132e-07,2.2158216918479e-07,NaN,-9.52347775267449e-07,1.00149053191473e-05,NaN,-1.02289234401046e-07,-3.2780336550932e-07,1.25998315387176e-08,-1.25998315391684e-08,5.96059825442641e-07,-6.21313505115387e-08,-9.76956274476492e-08,-1.59826977959323e-07,NaN,4.32263039009498e-07,4.96187178646599e-07,1.15969497940042e-07,4.37261165827261e-07,4.37261165826347e-07,-1.45634048080754e-07,1.27017204529653e-07,-1.86168435506906e-08,-2.43809139044409e-07,2.2013388332248e-07,-2.36752557219377e-08,NaN,-3.07950394695196e-07,NaN,9.59035463462976e-07,-9.59035463463633e-07,-1.24819664248534e-06,0,1,0
2083.2256,2.33108508013563e-07,1.96840650470565e-07,4.29949158483615e-07,-6.60953592160576e-08,-5.34567648750286e-07,-5.34567648750609e-07,NaN,-7.50720202578217e-07,-2.8226456718744e-06,-9.02518697231436e-08,7.11773700429214e-08,-9.02518697234631e-08,8.574603054587e-07,-4.53376307567612e-07,NaN,-4.36968110389122e-07,-1.11514688474876e-07,-5.48482798863384e-07,2.07611503101934e-07,-5.43718543727974e-07,2.07611503101781e-07,NaN,-3.48782229434511e-06,1.2813934980314e-05,NaN,-1.02972883310221e-07,-3.26603222269809e-07,-2.49919235636929e-08,2.4991923563256e-08,6.79909150956253e-07,-8.00320074320518e-08,-1.10171598450072e-07,-1.90203605882263e-07,NaN,3.99629663063658e-07,4.3552240299349e-07,2.24487996404997e-07,4.35699731480305e-07,4.35699731479368e-07,-1.6508514499513e-07,1.23545208158946e-07,-4.15399368357615e-08,-2.43116267344922e-07,1.92180719416505e-07,-5.09355479284219e-08,NaN,-3.67077156982629e-07,NaN,7.8661895494857e-07,-7.86618954949277e-07,-1.29417769187699e-06,0,1,0
2083.328,2.80067597283991e-07,1.69253040036892e-07,4.49320637320329e-07,-1.19510087488682e-08,-5.18095552910636e-07,-5.18095552910957e-07,NaN,-7.48804601312938e-07,-2.73219078987405e-06,-1.20950862329087e-07,5.84258182140425e-08,-1.20950862329414e-07,8.23163379235175e-07,-5.69838547408563e-07,NaN,-4.55540575174693e-07,-8.73849792474831e-08,-5.42925554421569e-07,1.88015213826742e-07,-5.70041124355911e-07,1.8801521382659e-07,NaN,-5.43751647699327e-06,1.49907518001166e-05,NaN,-1.01370465042329e-07,-3.2663946037965e-07,-5.72257904714833e-08,5.72257904710605e-08,7.51799793593423e-07,-9.58992320387324e-08,-1.17926085010659e-07,-2.13825317049533e-07,NaN,3.75008908512208e-07,3.85450021249976e-07,3.18938229848849e-07,4.36817179872346e-07,4.36817179871393e-07,-1.80876313443483e-07,1.20672766243171e-07,-6.02035471998793e-08,-2.41325385578969e-07,1.68785656973567e-07,-7.25397286054026e-08,NaN,-4.08141731734983e-07,NaN,6.67803614485496e-07,-6.67803614486245e-07,-1.30485426843368e-06,0,1,0
2083.4304,3.18402089683163e-07,1.5359922012172e-07,4.72001309804293e-07,3.43996433124183e-08,-5.05818025509686e-07,-5.05818025510006e-07,NaN,-7.49194003194631e-07,-2.65962392081698e-06,-1.48118274311579e-07,4.81439968687964e-08,-1.48118274311912e-07,8.03420719956317e-07,-6.93887064915611e-07,NaN,-4.7470364048655e-07,-6.60181723370696e-08,-5.40721812823017e-07,1.63107767301902e-07,-5.94864283845375e-07,1.63107767301757e-07,NaN,-6.74530705095981e-06,1.64737081810189e-05,NaN,-9.7479004954495e-08,-3.27890825234237e-07,-8.22791908848146e-08,8.22791908844048e-08,8.09786249961752e-07,-1.09183886054054e-07,-1.20580059108392e-07,-2.29763945162589e-07,NaN,3.59453853358219e-07,3.47744829874157e-07,3.96975745830915e-07,4.40322802694784e-07,4.40322802693826e-07,-1.92140226359689e-07,1.18597939756609e-07,-7.35422866026366e-08,-2.38469512427388e-07,1.50869869649124e-07,-8.75996427782596e-08,NaN,-4.29377269340729e-07,NaN,6.02497123309218e-07,-6.02497123310001e-07,-1.28017906722546e-06,0,0,0
2083.5328,3.46966176531339e-07,1.50321810085167e-07,4.97287986615885e-07,7.15862285283795e-08,-4.9644129031768e-07,-4.96441290317998e-07,NaN,-7.52001698379693e-07,-2.60522911435128e-06,-1.71577954649165e-07,4.00894580900523e-08,-1.71577954649503e-07,7.94609883278938e-07,-8.20828046915142e-07,NaN,-4.93927203348155e-07,-4.80381712753427e-08,-5.41965374622895e-07,1.33314748577454e-07,-6.1741316063463e-07,1.33314748577319e-07,NaN,-7.41006335614355e-06,1.72486860651093e-05,NaN,-9.14885014020615e-08,-3.30254520357435e-07,-9.91397491195964e-08,9.91397491191984e-08,8.53068441919792e-07,-1.19643200421017e-07,-1.18058378069173e-07,-2.37701578490332e-07,NaN,3.53195212207914e-07,3.23059040121333e-07,4.57670749621311e-07,4.45681605157804e-07,4.45681605156848e-07,-1.9853124841425e-07,1.17449557029565e-07,-8.10816913842318e-08,-2.34640058249798e-07,1.38842198494897e-07,-9.57978597548913e-08,NaN,-4.30503007390227e-07,NaN,5.86626297516068e-07,-5.86626297516867e-07,-1.22207043189355e-06,0,0,0
2083.6352,3.65916506695244e-07,1.59178066863207e-07,5.25094573557805e-07,9.88628671563383e-08,-4.88468496225821e-07,-4.88468496226139e-07,NaN,-7.56970375666191e-07,-2.56762776695591e-06,-1.91526844995607e-07,3.37069180647561e-08,-1.91526844995946e-07,7.91129847774508e-07,-9.45309185179914e-07,NaN,-5.12936156024813e-07,-3.37609803923732e-08,-5.4669713641658e-07,9.91525419980852e-08,-6.37004499202128e-07,9.91525419979656e-08,NaN,-7.47582526580015e-06,1.7348544544469e-05,NaN,-8.37471127707122e-08,-3.33582692879065e-07,-1.07606519884116e-07,1.07606519883728e-07,8.81812777854019e-07,-1.27311655991661e-07,-1.10573836598628e-07,-2.37885492590428e-07,NaN,3.5577249392713e-07,3.11081353358435e-07,5.01235561164517e-07,4.52208044033803e-07,4.52208044032856e-07,-2.00251782389656e-07,1.1730065226226e-07,-8.29511301269334e-08,-2.29997579414019e-07,1.32657850505711e-07,-9.73397289082912e-08,NaN,-4.1267734101274e-07,NaN,6.13060744672969e-07,-6.13060744673772e-07,-1.13423500923457e-06,0,0,0
2083.7376,3.76377703206739e-07,1.79174375978228e-07,5.55552079184304e-07,1.16001248674197e-07,-4.80416720107707e-07,-4.80416720108025e-07,NaN,-7.63608766774757e-07,-2.54432150671989e-06,-2.08492064187688e-07,2.83104399790977e-08,-2.08492064188027e-07,7.86548966437118e-07,-1.06157189844373e-06,NaN,-5.31668090086443e-07,-2.32636752474342e-08,-5.54931765333265e-07,6.12209954003055e-08,-6.53137861583404e-07,6.12209954002043e-08,NaN,-7.02046424981067e-06,1.68416966277429e-05,NaN,-7.4731904983733e-08,-3.37714257234476e-07,-1.08243934067288e-07,1.0824393406691e-07,8.96942171690497e-07,-1.32440087772052e-07,-9.86103398288135e-08,-2.31050427601001e-07,NaN,3.66176629423465e-07,3.10706584155835e-07,5.28746562996616e-07,4.59161353963701e-07,4.59161353962769e-07,-1.9798409134835e-07,1.18170569442352e-07,-7.98135219055281e-08,-2.24751761880912e-07,1.31881227707129e-07,-9.28705341737612e-08,NaN,-3.78369588439359e-07,NaN,6.72538479122706e-07,-6.72538479123499e-07,-1.02193528862493e-06,0,0,0
2083.84,3.80101168423058e-07,2.08526034870078e-07,5.88627203292461e-07,1.23286086647362e-07,-4.71054095357992e-07,-4.7105409535831e-07,NaN,-7.71301096052516e-07,-2.53212689620432e-06,-2.23259046487003e-07,2.32524166719153e-08,-2.23259046487341e-07,7.74738343352797e-07,-1.16404471762709e-06,NaN,-5.50176643019863e-07,-1.64437544848169e-08,-5.66620397504058e-07,2.01918456787192e-08,-6.65492823890442e-07,2.01918456786382e-08,NaN,-6.1454517833959e-06,1.58235448239546e-05,NaN,-6.50211719492594e-08,-3.42476567130574e-07,-1.02272267850311e-07,1.02272267849942e-07,8.99970939529554e-07,-1.35411618832479e-07,-8.2893582893949e-08,-2.18305201726559e-07,NaN,3.82964535035193e-07,3.20183243766934e-07,5.4196219422428e-07,4.6581811249383e-07,4.65818112492917e-07,-1.92729933245442e-07,1.20010214387878e-07,-7.27197188570886e-08,-2.19110107457767e-07,1.35739063894928e-07,-8.33710435628098e-08,NaN,-3.3117547446932e-07,NaN,7.54560486723838e-07,-7.54560486724606e-07,-8.91654116222574e-07,0,0,0
2083.9424,3.79179271004482e-07,2.44666316453669e-07,6.23845587457469e-07,1.21588677473087e-07,-4.59605544491668e-07,-4.59605544491986e-07,NaN,-7.7934313553772e-07,-2.5273989037337e-06,-2.36771943158748e-07,1.80537178677265e-08,-2.36771943159082e-07,7.50757697814369e-07,-1.24819697671475e-06,NaN,-5.68508660992277e-07,-1.30571495422177e-08,-5.81565810533862e-07,-2.32062139567595e-08,-6.73846090657731e-07,-2.32062139568195e-08,NaN,-4.9667356884572e-06,1.44108849450118e-05,NaN,-5.52626536027396e-08,-3.47653979407078e-07,-9.13698057176215e-08,9.136980571726e-08,8.92885195185726e-07,-1.36648543596414e-07,-6.43393262708606e-08,-2.009878698674e-07,NaN,4.0434405745815e-07,3.37249481067668e-07,5.43221978631693e-07,4.71498900592437e-07,4.71498900591545e-07,-1.85585874629567e-07,1.22679002977497e-07,-6.29068716515895e-08,-2.13212376614213e-07,1.4317630041877e-07,-7.00360761954077e-08,NaN,-2.75556483824167e-07,NaN,8.48353014856804e-07,-8.4835301485754e-07,-7.50644106285516e-07,0,0,0
2084.0448,3.75809331000926e-07,2.84364930439877e-07,6.60174261440121e-07,1.12426148176731e-07,-4.45875848869007e-07,-4.45875848869324e-07,NaN,-7.86908331860193e-07,-2.52607217048409e-06,-2.5000146515525e-07,1.24907071066621e-08,-2.50001465155579e-07,7.11354549812928e-07,-1.31142105566197e-06,NaN,-5.86589897917664e-07,-1.27361708567239e-08,-5.99326068773744e-07,-6.81996779555443e-08,-6.77960875381291e-07,-6.81996779555829e-08,NaN,-3.60521880829266e-06,1.27368087673956e-05,NaN,-4.61352610210309e-08,-3.52956395584444e-07,-7.73876962951913e-08,7.73876962948374e-08,8.7802368842208e-07,-1.36532923911692e-07,-4.39825693517445e-08,-1.80515493263557e-07,NaN,4.28255099249458e-07,3.5926796405828e-07,5.35371258008794e-07,4.75555996168475e-07,4.75555996167607e-07,-1.775084346699e-07,1.25927924062547e-07,-5.15805106068678e-08,-2.07079036053481e-07,1.52929048062128e-07,-5.41499879913119e-08,NaN,-2.16479692833095e-07,NaN,9.43946698758168e-07,-9.43946698758867e-07,-6.06370263924345e-07,0,0,0
2084.1472,3.72057586575589e-07,3.24022642966041e-07,6.96080229540952e-07,9.79097663874171e-08,-4.30268745728728e-07,-4.30268745729043e-07,NaN,-7.93004283545646e-07,-2.52366885246072e-06,-2.63771665262042e-07,6.65268025562857e-09,-2.63771665262365e-07,6.55151497381814e-07,-1.35367375395788e-06,NaN,-6.04133929371438e-07,-1.49896912926662e-08,-6.19123620663449e-07,-1.13978882788229e-07,-6.77532310198135e-07,-1.13978882788247e-07,NaN,-2.17501171283103e-06,1.09425798493093e-05,NaN,-3.82973263461393e-08,-3.58033874543827e-07,-6.20075623659937e-08,6.2007562365647e-08,8.5792037329371e-07,-1.35365362108292e-07,-2.28990452487292e-08,-1.58264407357136e-07,NaN,4.52487974975178e-07,3.83358607696376e-07,5.21680624671159e-07,4.77359316285772e-07,4.77359316284925e-07,-1.6911420236501e-07,1.29400858336669e-07,-3.97133440278529e-08,-2.00592292993202e-07,1.63616115498723e-07,-3.69761774944342e-08,NaN,-1.58953499525149e-07,NaN,1.03335601677309e-06,-1.03335601677375e-06,-4.65836694634462e-07,0,0,0
2084.2496,3.69603409503801e-07,3.60143497164222e-07,7.29746906667352e-07,8.05319567570347e-08,-4.13702012677708e-07,-4.13702012678021e-07,NaN,-7.96479782336445e-07,-2.5153784434855e-06,-2.78557649837108e-07,9.71254102368495e-10,-2.78557649837423e-07,5.82629894510453e-07,-1.37760606003226e-06,NaN,-6.20576012928598e-07,-1.91897570836509e-08,-6.39765770011582e-07,-1.59693889441199e-07,-6.7223282647562e-07,-1.59693889441201e-07,NaN,-7.70498603080394e-07,9.16577735446878e-06,NaN,-3.23167907822832e-08,-3.62547253211211e-07,-4.64060470537943e-08,4.64060470534522e-08,8.35097251253795e-07,-1.33374126359181e-07,-2.13890737975809e-09,-1.3551303373905e-07,NaN,4.7484958974222e-07,4.06519070945787e-07,5.05726936085395e-07,4.76302465077647e-07,4.76302465076821e-07,-1.60544766015845e-07,1.32659768032585e-07,-2.78849979827705e-08,-1.93513924012506e-07,1.73837697340873e-07,-1.96762266715841e-08,NaN,-1.07544015043246e-07,NaN,1.11159020276275e-06,-1.11159020276338e-06,-3.34943425052275e-07,0,0,0
2084.352,3.69516297865088e-07,3.89859844390038e-07,7.59376142254464e-07,6.28302617836189e-08,-3.97434456271323e-07,-3.97434456271633e-07,NaN,-7.96094276318513e-07,-2.49620874785647e-06,-2.94321125439319e-07,-3.80560952734774e-09,-2.94321125439626e-07,4.95924231384497e-07,-1.38804209522084e-06,NaN,-6.35055669031255e-07,-2.45668498797823e-08,-6.5962251891036e-07,-2.04431757732463e-07,-6.61814200617943e-07,-2.04431757732453e-07,NaN,5.42803699313262e-07,7.52846319417722e-06,NaN,-2.85978018999243e-08,-3.66251499066887e-07,-3.10353721211925e-08,3.1035372120855e-08,8.11828793733891e-07,-1.30762537931398e-07,1.73130477547061e-08,-1.13449490176799e-07,NaN,4.93335254570771e-07,4.25737338350235e-07,4.91184837225654e-07,4.71816797213139e-07,4.7181679721233e-07,-1.51436521501698e-07,1.35231379094584e-07,-1.62051424066227e-08,-1.85537746806563e-07,1.82268162033111e-07,-3.26958477340125e-09,NaN,-6.60401156040733e-08,NaN,1.17697261443676e-06,-1.17697261443737e-06,-2.18171893839096e-07,0,1,0
2084.4544,3.72157644107616e-07,4.11323373426398e-07,7.83481017533364e-07,4.70256732837302e-08,-3.82833162373803e-07,-3.82833162374108e-07,NaN,-7.90630575622803e-07,-2.4612128340795e-06,-3.10475819023276e-07,-6.72251371601411e-09,-3.10475819023576e-07,3.98435272180857e-07,-1.39097265024923e-06,NaN,-6.46489391790186e-07,-3.02490489838121e-08,-6.76738440773312e-07,-2.47202902659167e-07,-6.46193975717888e-07,-2.4720290265915e-07,NaN,1.72954339382086e-06,6.12908757976828e-06,NaN,-2.73298412896246e-08,-3.69037603285423e-07,-1.56124468644027e-08,1.5612446864068e-08,7.89921959795168e-07,-1.27762586092842e-07,3.45651831710986e-08,-9.31974029218483e-08,NaN,5.06261929633083e-07,4.38138662494308e-07,4.81508374838026e-07,4.63381362958441e-07,4.63381362957644e-07,-1.41029678594912e-07,1.36667816019645e-07,-4.36186257477565e-09,-1.76367233413579e-07,1.87743389981221e-07,1.13761565676939e-08,NaN,-3.7338625086285e-08,NaN,1.2304864773852e-06,-1.2304864773858e-06,-1.18706728965313e-07,0,1,0
2084.5568,3.77249253361264e-07,4.23862062411222e-07,8.01111315771847e-07,3.47195832816039e-08,-3.71117064494351e-07,-3.7111706449465e-07,NaN,-7.79037145544654e-07,-2.40586606389436e-06,-3.26012596636009e-07,-6.79803505253738e-09,-3.26012596636302e-07,2.94325283235445e-07,-1.39242417732634e-06,NaN,-6.53743706212613e-07,-3.5355318856485e-08,-6.89099025068405e-07,-2.86975315182575e-07,-6.25511036214542e-07,-2.86975315182556e-07,NaN,2.77896903788739e-06,5.03807676468419e-06,NaN,-2.84737258826985e-08,-3.709154563163e-07,6.92858250403724e-10,-6.92858250736873e-10,7.70550785076217e-07,-1.24662730537599e-07,4.88628202760646e-08,-7.57999102616384e-08,NaN,5.12368529108471e-07,4.41222364550082e-07,4.79541175188862e-07,4.5054663917242e-07,4.5054663917163e-07,-1.28396539846885e-07,1.36613505978299e-07,8.21696613190729e-09,-1.6579558230281e-07,1.89352543314061e-07,2.35569610113011e-08,NaN,-2.34326259735397e-08,NaN,1.27442045672493e-06,-1.27442045672556e-06,-3.87758694063444e-08,0,1,0
2084.6592,3.84058805202319e-07,4.2793524412121e-07,8.11994049322905e-07,2.67091415139864e-08,-3.63130461142929e-07,-3.63130461143219e-07,NaN,-7.60595745460274e-07,-2.32667020222517e-06,-3.39731277586364e-07,-3.23900920841984e-09,-3.39731277586652e-07,1.87971831693123e-07,-1.39749773730544e-06,NaN,-6.55873715856205e-07,-3.91115258344613e-08,-6.94985241689968e-07,-3.22768516930899e-07,-6.00179063446108e-07,-3.22768516930884e-07,NaN,3.69601257997838e-06,4.29562193035202e-06,NaN,-3.17853317177823e-08,-3.71958255801566e-07,1.89470099620927e-08,-1.89470099624259e-08,7.54175588756724e-07,-1.21797546651141e-07,5.96565028873014e-08,-6.21410437639451e-08,NaN,5.10917054741045e-07,4.33201757904879e-07,4.87123356120962e-07,4.33006357861415e-07,4.33006357860625e-07,-1.12716463233896e-07,1.34871336191651e-07,2.21548729582501e-08,-1.53761276297993e-07,1.86534382108454e-07,3.27731058105081e-08,NaN,-2.53582472420772e-08,NaN,1.31086550341245e-06,-1.31086550341312e-06,2.0083153702128e-08,0,0,0
2084.7616,3.91624199921655e-07,4.24954613365417e-07,8.16578813286459e-07,2.29765079661302e-08,-3.5921154280154e-07,-3.5921154280182e-07,NaN,-7.35096883393632e-07,-2.22194229360437e-06,-3.50512305416952e-07,4.3531958586067e-09,-3.50512305417236e-07,8.3473821588792e-08,-1.4097671485549e-06,NaN,-6.52377427008499e-07,-4.0951282690948e-08,-6.93328709698745e-07,-3.53801302452389e-07,-5.709322496486e-07,-3.53801302452383e-07,NaN,4.4916377745923e-06,3.91159997271686e-06,NaN,-3.68738781795129e-08,-3.72241564704553e-07,4.00845691051602e-08,-4.00845691054958e-08,7.4058301867652e-07,-1.19506166870237e-07,6.66823318318178e-08,-5.28238350385273e-08,NaN,5.01798220390077e-07,4.13380951361872e-07,5.04793265440817e-07,4.10720247297872e-07,4.10720247297077e-07,-9.35203906397008e-08,1.31455557452923e-07,3.79351668137192e-08,-1.40365832825662e-07,1.79161176850189e-07,3.87953440245687e-08,NaN,-4.30770412510234e-08,NaN,1.34059107600771e-06,-1.34059107600846e-06,5.70082027113382e-08,0,0,0
2084.864,3.98973670992125e-07,4.16997844904101e-07,8.15971515895626e-07,2.28666491996213e-08,-3.59191509158706e-07,-3.59191509158975e-07,NaN,-7.0298224631937e-07,-2.09256103754295e-06,-3.57580901674414e-07,1.58330462241918e-08,-3.57580901674695e-07,-1.56606524191277e-08,-1.4311461850789e-06,NaN,-6.43410827988747e-07,-4.05870138404018e-08,-6.83997841828445e-07,-3.79668285722039e-07,-5.38824234792929e-07,-3.79668285722046e-07,NaN,5.17450553187983e-06,3.86815599173742e-06,NaN,-4.32783961304445e-08,-3.71803939754549e-07,6.45571971520947e-08,-6.45571971524346e-08,7.29066459875927e-07,-1.18071190369697e-07,7.00287352818179e-08,-4.80424550879915e-08,NaN,4.85601916387799e-07,3.82436717676224e-07,5.31718725595688e-07,3.84038761010363e-07,3.84038761009559e-07,-7.08512503562048e-08,1.26612186487248e-07,5.57609361315416e-08,-1.25859324982669e-07,1.67584292744145e-07,4.17249677615114e-08,NaN,-7.53553288749165e-08,NaN,1.3626946268432e-06,-1.36269462684404e-06,7.20700505369364e-08,0,0,0
2084.9664,4.05316778270066e-07,4.06435685083462e-07,8.1175246335294e-07,2.53786329183466e-08,-3.62500136624429e-07,-3.62500136624684e-07,NaN,-6.6540730967158e-07,-1.94235583726663e-06,-3.60707349471218e-07,3.0475016990272e-08,-3.60707349471498e-07,-1.06567223529357e-07,-1.46214161013164e-06,NaN,-6.29898507500456e-07,-3.80467491573209e-08,-6.67945256657072e-07,-4.00475499931712e-07,-5.05172492971653e-07,-4.00475499931737e-07,NaN,5.74592106164643e-06,4.12480414592276e-06,NaN,-5.05304230737356e-08,-3.70640494267331e-07,9.21156852548449e-08,-9.21156852551914e-08,7.18703633963312e-07,-1.17653908904232e-07,7.01529478096687e-08,-4.75009610946818e-08,NaN,4.63606231510317e-07,3.4247697022328e-07,5.6593343868344e-07,3.53769612353714e-07,3.53769612352896e-07,-4.53148295597593e-08,1.20793969268905e-07,7.5479139709646e-08,-1.10608361591261e-07,1.52618190114321e-07,4.20098285230867e-08,NaN,-1.19725848448677e-07,NaN,1.37506341775086e-06,-1.37506341775179e-06,6.66058708848092e-08,0,0,0
2085.0688,4.1017620339386e-07,3.95540801560057e-07,8.05717004953344e-07,2.94315050045024e-08,-3.68306889929185e-07,-3.68306889929427e-07,NaN,-6.24185524487304e-07,-1.77789980048321e-06,-3.60277300292026e-07,4.70771813962593e-08,-3.60277300292304e-07,-1.86921866632154e-07,-1.50218704730579e-06,NaN,-6.1348137486547e-07,-3.36647609790659e-08,-6.47146135843832e-07,-4.16849434198334e-07,-4.71465781709821e-07,-4.16849434198377e-07,NaN,6.19889352595072e-06,4.6254107746809e-06,NaN,-5.81830448272844e-08,-3.68722720400454e-07,1.21816774043587e-07,-1.21816774043941e-07,7.08628167894761e-07,-1.18256717200781e-07,6.78216915624853e-08,-5.04350256384203e-08,NaN,4.37655495749064e-07,2.96810777490636e-07,6.04789092670075e-07,3.21152862917856e-07,3.21152862917022e-07,-1.80234924093155e-08,1.14594024733056e-07,9.65705323242417e-08,-9.50568960109242e-08,1.35448365391654e-07,4.03914693807487e-08,NaN,-1.72645554668104e-07,NaN,1.37522622210035e-06,-1.37522622210139e-06,4.32791144409466e-08,0,0,0
2085.1712,4.13448000674481e-07,3.8616652251814e-07,7.99614523192063e-07,3.39971356515749e-08,-3.75628539987762e-07,-3.75628539987992e-07,NaN,-5.81593628999172e-07,-1.60764796224752e-06,-3.5719777312597e-07,6.41730130815292e-08,-3.57197773126248e-07,-2.54951586772942e-07,-1.54973394947391e-06,NaN,-5.9628031072889e-07,-2.80148322048464e-08,-6.24295142933034e-07,-4.29791654430554e-07,-4.39231712323567e-07,-4.29791654430617e-07,NaN,6.52070981171852e-06,5.30614776101275e-06,NaN,-6.58161030632745e-08,-3.66029125381699e-07,1.52242589901706e-07,-1.52242589902068e-07,6.98200912651457e-07,-1.19746579879557e-07,6.39872099288281e-08,-5.57593699508594e-08,NaN,4.09918246582186e-07,2.49442304299874e-07,6.45429730479483e-07,2.87739046225269e-07,2.87739046224418e-07,9.55128102265974e-09,1.08653513551922e-07,1.18204794575083e-07,-7.96787557435055e-08,1.17461884986961e-07,3.77831292434654e-08,NaN,-2.29938303959974e-07,NaN,1.36105000428115e-06,-1.3610500042823e-06,5.6471521516523e-09,0,0,0
2085.2736,4.15405799716905e-07,3.7954181626204e-07,7.94947615978403e-07,3.81072771232292e-08,-3.83388670169847e-07,-3.83388670170064e-07,NaN,-5.40061953718265e-07,-1.44060725864763e-06,-3.52669016870852e-07,8.02878015631693e-08,-3.52669016871128e-07,-3.09747007920515e-07,-1.60203944767817e-06,NaN,-5.80521498682164e-07,-2.17965113643134e-08,-6.02318010045778e-07,-4.40442499033418e-07,-4.09864003734127e-07,-4.40442499033499e-07,NaN,6.69774445637009e-06,6.10300967641039e-06,NaN,-7.30395825693739e-08,-3.62577248799183e-07,1.8182117202889e-07,-1.81821172029261e-07,6.87066760413817e-07,-1.21940300110189e-07,5.96374244299734e-08,-6.23028756803523e-08,NaN,3.82558385034581e-07,2.0438639070936e-07,6.85164724378929e-07,2.55190880936479e-07,2.55190880935613e-07,3.57972959394444e-08,1.0355990306107e-07,1.39357199001014e-07,-6.49183674134273e-08,1.00025682649865e-07,3.51073152364385e-08,NaN,-2.8745025955247e-07,NaN,1.33108162031e-06,-1.33108162031124e-06,-4.26034611907212e-08,0,0,0
2085.376,4.16662221873233e-07,3.76185976855439e-07,7.92848198728148e-07,4.08331833248978e-08,-3.90465446489476e-07,-3.90465446489684e-07,NaN,-5.01821439887451e-07,-1.28491845987968e-06,-3.47905009878383e-07,9.41808307347475e-08,-3.47905009878658e-07,-3.5173822665293e-07,-1.65491822351445e-06,NaN,-5.68132672915274e-07,-1.57112446146592e-08,-5.83843917529237e-07,-4.49866508769529e-07,-3.84457598770435e-07,-4.49866508769628e-07,NaN,6.72151988024658e-06,6.95690821235051e-06,NaN,-7.95067981748297e-08,-3.58455185900479e-07,2.09124815818281e-07,-2.0912481581866e-07,6.75151997431996e-07,-1.24705317806276e-07,5.56564336191289e-08,-6.90488841872881e-08,NaN,3.57407289466692e-07,1.64981989107812e-07,7.21752429657149e-07,2.2505380809448e-07,2.25053808093599e-07,5.92152108671876e-08,9.97515954021213e-08,1.58966806269807e-07,-5.11303986446132e-08,8.42708053477262e-08,3.31404067031063e-08,NaN,-3.41656112587254e-07,NaN,1.28477885030795e-06,-1.28477885030927e-06,-9.82897932741927e-08,0,0,0
2085.4784,4.1808761774023e-07,3.7594601184827e-07,7.94033629587993e-07,4.1318035709247e-08,-3.95755552055803e-07,-3.95755552056001e-07,NaN,-4.68583336552377e-07,-1.14670417158589e-06,-3.43885992289542e-07,1.05029790067209e-07,-3.43885992289813e-07,-3.82986387109197e-07,-1.70280964614412e-06,NaN,-5.60428097459097e-07,-1.03653851780984e-08,-5.70793482636502e-07,-4.58938936198093e-07,-3.63722354893894e-07,-4.58938936198208e-07,NaN,6.59537557466754e-06,7.81481915478202e-06,NaN,-8.49347131318164e-08,-3.53844737280996e-07,2.33084279013248e-07,-2.33084279013633e-07,6.6264602198409e-07,-1.28017976821408e-07,5.27153156600474e-08,-7.5302661161505e-08,NaN,3.35736711794865e-07,1.33392633426221e-07,7.53637490546419e-07,1.98548775723846e-07,1.98548775722953e-07,7.86456611054543e-08,9.74458717098484e-08,1.76091532815797e-07,-3.85416088864092e-08,7.09477559694419e-08,3.24061470830192e-08,NaN,-3.89965704586812e-07,NaN,1.22292832418368e-06,-1.22292832418507e-06,-1.58844894770183e-07,0,1,0
2085.5808,4.20692722745584e-07,3.78162557968565e-07,7.98855280713659e-07,3.8866883662214e-08,-3.98249448182185e-07,-3.98249448182376e-07,NaN,-4.41304063749953e-07,-1.02935957268653e-06,-3.41189988628014e-07,1.12519132812177e-07,-3.41189988628283e-07,-4.07045288665287e-07,-1.7393468420264e-06,NaN,-5.57956744743438e-07,-6.21006563006432e-09,-5.64166810372813e-07,-4.68333871292142e-07,-3.47996772985922e-07,-4.68333871292268e-07,NaN,6.3398110062238e-06,8.62806008445757e-06,NaN,-8.91242077390514e-08,-3.49019231001436e-07,2.53101509442391e-07,-2.53101509442779e-07,6.4995935773741e-07,-1.31957570286452e-07,5.12056785221289e-08,-8.07518917644696e-08,NaN,3.18183706204746e-07,1.10411356038914e-07,7.80108466033086e-07,1.7642800371644e-07,1.76428003715536e-07,9.33986199223655e-08,9.66068891957552e-08,1.90005509118611e-07,-2.72497374272152e-08,6.03858262891869e-08,3.31360888619526e-08,NaN,-4.3071997325951e-07,NaN,1.14811737534377e-06,-1.14811737534519e-06,-2.21944859211941e-07,0,1,0
2085.6832,4.25484812650476e-07,3.81935687088034e-07,8.07420499738037e-07,3.30499736214391e-08,-3.97113622780438e-07,-3.97113622780624e-07,NaN,-4.20079244120737e-07,-9.33340885117867e-07,-3.39926532082144e-07,1.16807834856991e-07,-3.39926532082408e-07,-4.28383108062864e-07,-1.75837255240257e-06,NaN,-5.60532958455007e-07,-3.5072119834057e-09,-5.64040170437727e-07,-4.78565259847419e-07,-3.37308841945264e-07,-4.78565259847555e-07,NaN,5.99332695717644e-06,9.35109986328577e-06,NaN,-9.19760083336207e-08,-3.4430433742423e-07,2.69051651354729e-07,-2.69051651355119e-07,6.37637887038556e-07,-1.36656672302447e-07,5.12286641460124e-08,-8.54280081565819e-08,NaN,3.04816515723439e-07,9.55850575311608e-08,8.01285436320189e-07,1.58910366502487e-07,1.58910366501574e-07,1.03245907470015e-07,9.69624807725684e-08,2.00208388243068e-07,-1.72538006128662e-08,5.254765837081e-08,3.52938577579206e-08,NaN,-4.63060118053599e-07,NaN,1.0647989399873e-06,-1.06479893998876e-06,-2.85054623340837e-07,0,1,0
2085.7856,4.33295869507672e-07,3.86410616202055e-07,8.19706485709269e-07,2.3766603248971e-08,-3.91787264554892e-07,-3.91787264555074e-07,NaN,-4.04197040069591e-07,-8.56447407908763e-07,-3.39790186597431e-07,1.18395427615197e-07,-3.39790186597693e-07,-4.51557899095761e-07,-1.755114429875e-06,NaN,-5.67414924173846e-07,-2.31478269505255e-09,-5.69729706868216e-07,-4.90036855194619e-07,-3.31417002913489e-07,-4.90036855194761e-07,NaN,5.60778160461901e-06,9.94283411163322e-06,NaN,-9.34966463474305e-08,-3.40004837407339e-07,2.81187150364547e-07,-2.81187150364937e-07,6.26244807859475e-07,-1.42236668794794e-07,5.2643340270432e-08,-8.95933285245103e-08,NaN,2.95295684281791e-07,8.75889147142893e-08,8.1788422378561e-07,1.45694420827821e-07,1.45694420826902e-07,1.08294719042208e-07,9.80629651219032e-08,2.06357684164591e-07,-8.50027537746122e-09,4.71482846543181e-08,3.86480092768305e-08,NaN,-4.86803943869865e-07,NaN,9.78772281225504e-07,-9.78772281226962e-07,-3.45256031951888e-07,0,0,0
2085.888,4.44593252733849e-07,3.90982726422446e-07,8.3557597915585e-07,1.12438074120195e-08,-3.82084613219638e-07,-3.82084613219818e-07,NaN,-3.92330853672154e-07,-7.9448888000989e-07,-3.40223815989512e-07,1.17948982016247e-07,-3.4022381598977e-07,-4.80420378610869e-07,-1.72713595658622e-06,NaN,-5.77552668471622e-07,-2.49886024131815e-09,-5.80051528712261e-07,-5.03078110360074e-07,-3.29827767884838e-07,-5.0307811036022e-07,NaN,5.24066215079412e-06,1.03692247175719e-05,NaN,-9.37866798547298e-08,-3.36316875872352e-07,2.89988809296432e-07,-2.8998880929682e-07,6.16247394334835e-07,-1.48747703920898e-07,5.51556512933438e-08,-9.35920526277017e-08,NaN,2.8906838056355e-07,8.47165801843958e-08,8.30813508195191e-07,1.36036834946719e-07,1.36036834945795e-07,1.08796397369207e-07,9.93629542660467e-08,2.08159351635728e-07,-9.33249157163684e-10,4.37989163279645e-08,4.28656671707728e-08,NaN,-5.02318690542491e-07,NaN,8.96359102461149e-07,-8.96359102462596e-07,-3.99414911543358e-07,0,0,0
2085.9904,4.5931661736896e-07,3.95363301360985e-07,8.54679918729511e-07,-4.01075716266062e-09,-3.68273972117226e-07,-3.68273972117405e-07,NaN,-3.82797439558518e-07,-7.42117503855451e-07,-3.40631327112415e-07,1.16154612763683e-07,-3.4063132711267e-07,-5.17543112590029e-07,-1.67482156863848e-06,NaN,-5.89820246654973e-07,-3.77807626810582e-09,-5.93598322922402e-07,-5.17953534115876e-07,-3.31836614359565e-07,-5.17953534116024e-07,NaN,4.94706322355504e-06,1.06058272768973e-05,NaN,-9.30133637031548e-08,-3.33260185699045e-07,2.96013517708348e-07,-2.96013517708732e-07,6.07940155734435e-07,-1.56131750043542e-07,5.84110392524649e-08,-9.77207107912238e-08,NaN,2.85527447605191e-07,8.53183847296804e-08,8.40754527829199e-07,1.28869815558598e-07,1.28869815557669e-07,1.04950807465616e-07,1.00306088855708e-07,2.05256896321792e-07,5.46096878066002e-09,4.2128654578227e-08,4.75896233588581e-08,NaN,-5.10364190662402e-07,NaN,8.23577196629198e-07,-8.23577196630623e-07,-4.44549280644983e-07,0,0,0
2086.0928,4.76791587014078e-07,3.99527980988172e-07,8.76319568001824e-07,-2.12648906377732e-08,-3.51111356230101e-07,-3.5111135623028e-07,NaN,-3.73799672208106e-07,-6.93610385172692e-07,-3.40558638011684e-07,1.13621327934035e-07,-3.40558638011938e-07,-5.63947645838682e-07,-1.60139495576992e-06,NaN,-6.03178895032285e-07,-5.7836641394991e-09,-6.0896255917111e-07,-5.34845310832835e-07,-3.36607016145555e-07,-5.34845310832982e-07,NaN,4.77270516067079e-06,1.06400033620741e-05,NaN,-9.13802316023187e-08,-3.30660093229452e-07,2.99773660217485e-07,-2.99773660217863e-07,6.01414737985612e-07,-1.64223818326221e-07,6.20622935995878e-08,-1.02161524726779e-07,NaN,2.84094078431629e-07,8.80634561979232e-08,8.47865478025265e-07,1.22925908774001e-07,1.2292590877307e-07,9.6766935387031e-08,1.00398932521646e-07,1.97165867909142e-07,1.06263431709509e-08,4.184812240076e-08,5.24744655716819e-08,NaN,-5.11953616232076e-07,NaN,7.65402648886303e-07,-7.65402648887691e-07,-4.78250220462644e-07,0,0,0
2086.1952,4.95745442673264e-07,4.03612494688979e-07,8.99357937361821e-07,-3.96044334155251e-08,-3.31819601416485e-07,-3.31819601416664e-07,NaN,-3.63619804395812e-07,-6.43518692309462e-07,-3.39789954438087e-07,1.10831674654524e-07,-3.39789954438339e-07,-6.19057493810276e-07,-1.51261494245386e-06,NaN,-6.16759831332348e-07,-8.10991336975886e-09,-6.24869744701434e-07,-5.53824188910228e-07,-3.43249233408398e-07,-5.53824188910374e-07,NaN,4.74834061982781e-06,1.04730996733582e-05,NaN,-8.91000800390004e-08,-3.28178392430878e-07,3.0167079622174e-07,-3.01670796222113e-07,5.96577860650346e-07,-1.72784024843549e-07,6.58111668004842e-08,-1.06972858043209e-07,NaN,2.84237602417296e-07,9.20183837209476e-08,8.5167397633739e-07,1.1685847698565e-07,1.16858476984718e-07,8.40411601148769e-08,9.92673206726627e-08,1.83308480788002e-07,1.44374286619409e-08,4.27546274697758e-08,5.71920561316884e-08,NaN,-5.08278766315329e-07,NaN,7.25141827056321e-07,-7.25141827057672e-07,-4.99054067396896e-07,0,0,0
2086.2976,5.14427272394551e-07,4.07802439288271e-07,9.22229711682402e-07,-5.79615930215518e-08,-3.12000470512219e-07,-3.12000470512398e-07,NaN,-3.50774722082599e-07,-5.87198907767761e-07,-3.38347963373148e-07,1.08126120199023e-07,-3.38347963373399e-07,-6.80701414555814e-07,-1.41627905435641e-06,NaN,-6.29880390996874e-07,-1.03494337729596e-08,-6.40229824769161e-07,-5.74823747362125e-07,-3.50870001207543e-07,-5.74823747362266e-07,NaN,4.88561505529284e-06,1.01224240451979e-05,NaN,-8.63704127717028e-08,-3.25368401080489e-07,3.01991871829996e-07,-3.01991871830363e-07,5.93217754420705e-07,-1.81532454449441e-07,6.94343872722084e-08,-1.12098067177375e-07,NaN,2.85476448949864e-07,9.66248512949818e-08,8.51169186165015e-07,1.09362878673853e-07,1.09362878672921e-07,6.64896226650336e-08,9.66933947036333e-08,1.63183017369127e-07,1.67325928941041e-08,4.47049548400309e-08,6.14375477341085e-08,NaN,-5.00668446460415e-07,NaN,7.03979180503182e-07,-7.03979180504486e-07,-5.06703366196058e-07,0,0,0
2086.4,5.30828198416979e-07,4.12246071796222e-07,9.43074270212778e-07,-7.51598062366472e-08,-2.93462885525069e-07,-2.93462885525249e-07,NaN,-3.34137322418741e-07,-5.21210539491788e-07,-3.36411297320974e-07,1.05718637833621e-07,-3.36411297321225e-07,-7.45139331552074e-07,-1.32148516628392e-06,NaN,-6.42013216412403e-07,-1.21260847557123e-08,-6.54139301167442e-07,-5.97621073495901e-07,-3.58618021717785e-07,-5.97621073496034e-07,NaN,5.17538160070859e-06,9.62150273123615e-06,NaN,-8.33540429971219e-08,-3.21740682032158e-07,3.00950997976056e-07,-3.00950997976416e-07,5.91099234586671e-07,-1.90166945703252e-07,7.27933328534501e-08,-1.17373612849942e-07,NaN,2.87392145090108e-07,1.01643863900842e-07,8.45093157947515e-07,9.92946902138843e-08,9.92946902129557e-08,4.40048882276096e-08,9.26346393666879e-08,1.36639527594757e-07,1.73718780216353e-08,4.75755880133545e-08,6.49474660349658e-08,NaN,-4.90510109475235e-07,NaN,7.00854450733187e-07,-7.00854450734447e-07,-5.02220376270152e-07,0,0,0
2086.5024,5.42982416535848e-07,4.1701770237866e-07,9.60000118914081e-07,-9.00220439623639e-08,-2.77965893824987e-07,-2.77965893825167e-07,NaN,-3.12998161657244e-07,-4.43508591060518e-07,-3.34181548411385e-07,1.03744049261978e-07,-3.34181548411637e-07,-8.07364388205307e-07,-1.23747450443143e-06,NaN,-6.52728768523382e-07,-1.31318984675992e-08,-6.65860666990307e-07,-6.21822371206741e-07,-3.65762171126914e-07,-6.21822371206864e-07,NaN,5.59055919383445e-06,9.0162583871865e-06,NaN,-8.01686748661961e-08,-3.16843839056621e-07,2.98739576363618e-07,-2.9873957636397e-07,5.90040540669818e-07,-1.98369762700744e-07,7.58198910036473e-08,-1.22549871697234e-07,NaN,2.89656908819687e-07,1.07067121072428e-07,8.3238892811676e-07,8.57740225291521e-08,8.57740225282286e-08,1.69382716711445e-08,8.72280283822074e-08,1.04166300053812e-07,1.62933369513664e-08,5.12155009628907e-08,6.75088379142364e-08,NaN,-4.79105616963299e-07,NaN,7.12864936650722e-07,-7.12864936651935e-07,-4.87692386054012e-07,0,0,0
2086.6048,5.49286783138927e-07,4.22133565996482e-07,9.71420349134974e-07,-1.01545839686999e-07,-2.66920434406732e-07,-2.66920434406911e-07,NaN,-2.87052865143938e-07,-3.53416230528876e-07,-3.31756621334357e-07,1.02324099892274e-07,-3.31756621334609e-07,-8.6188354282602e-07,-1.17211086289579e-06,NaN,-6.6163384941052e-07,-1.31564142837233e-08,-6.74790263693566e-07,-6.46858761891359e-07,-3.71787607776252e-07,-6.46858761891472e-07,NaN,6.09413298566333e-06,8.35668532345877e-06,NaN,-7.68834497571398e-08,-3.10354344123913e-07,2.95553212189269e-07,-2.95553212189612e-07,5.89932478670658e-07,-2.05818738559422e-07,7.8483898463217e-08,-1.27334840096339e-07,NaN,2.92051549085173e-07,1.12977476263728e-07,8.12679197004237e-07,6.82740623906692e-08,6.82740623897531e-08,-1.3708949598714e-08,8.07821098588002e-08,6.7073160260549e-08,1.35394288953234e-08,5.53988603095437e-08,6.89382892048503e-08,NaN,-4.67487346201548e-07,NaN,7.3619661976919e-07,-7.36196619770363e-07,-4.65760402850998e-07,0,0,0
2086.7072,5.48750519473575e-07,4.27579302600214e-07,9.76329822073344e-07,-1.09084636734071e-07,-2.61143117171468e-07,-2.61143117171646e-07,NaN,-2.56355083711943e-07,-2.51498138614573e-07,-3.29075197592244e-07,1.01621571535811e-07,-3.29075197592498e-07,-9.03794320942039e-07,-1.1304603469599e-06,NaN,-6.68334073674834e-07,-1.20953222891561e-08,-6.80429395963309e-07,-6.71999288323931e-07,-3.76450697980789e-07,-6.71999288324029e-07,NaN,6.64903938712479e-06,7.68736603985483e-06,NaN,-7.35183387418999e-08,-3.02147502856617e-07,2.9158546368658e-07,-2.91585463686914e-07,5.90701156275002e-07,-2.12208986597872e-07,8.07653715300959e-08,-1.31443615067906e-07,NaN,2.94456156483672e-07,1.19393993095284e-07,7.86597309799285e-07,4.6694814295307e-08,4.66948142944019e-08,-4.62665344518439e-08,7.37584896689836e-08,2.74919552176055e-08,9.24700204077176e-09,5.97974871251056e-08,6.90444891658651e-08,NaN,-4.56256742123788e-07,NaN,7.67196906323407e-07,-7.67196906324541e-07,-4.39023692748981e-07,1,0,0
2086.8096,5.41121059006741e-07,4.33299441582688e-07,9.74420500588974e-07,-1.12466302858084e-07,-2.60748902223069e-07,-2.60748902223244e-07,NaN,-2.21311222751866e-07,-1.3950918938577e-07,-3.25966731328546e-07,1.01846957153393e-07,-3.25966731328801e-07,-9.29746479141059e-07,-1.11401311806644e-06,NaN,-6.72450836753118e-07,-9.94184190824606e-09,-6.82392678660678e-07,-6.96381043267373e-07,-3.79749433434629e-07,-6.96381043267456e-07,NaN,7.22448700255109e-06,7.04183725459583e-06,NaN,-7.00461966837096e-08,-2.92320733629806e-07,2.86997523074142e-07,-2.86997523074466e-07,5.92248833970926e-07,-2.1728163872931e-07,8.2656627592857e-08,-1.34625011136579e-07,NaN,2.96825856021226e-07,1.26191177866973e-07,7.55830680730491e-07,2.14153642633318e-08,2.14153642624385e-08,-7.85733556347246e-08,6.67413886114621e-08,-1.18319670227931e-08,3.61864666785908e-09,6.39988751917448e-08,6.76175218595965e-08,NaN,-4.4552299994761e-07,NaN,8.03002460814903e-07,-8.03002460816006e-07,-4.09706018478128e-07,1,0,0
