time,S1-D1,S1-D8,S1-D9,S1-D15,S2-D1,S2-D2,S2-D3,S2-D9,S3-D1,S3-D2,S3-D16,S4-D2,S4-D3,S4-D5,S5-D3,S5-D4,S5-D5,S6-D2,S6-D5,S6-D17,S7-D6,S7-D7,S8-D6,S8-D7,S8-D18,S9-D3,S9-D4,S9-D9,S9-D11,S9-D19,S10-D8,S10-D9,S10-D10,S10-D11,S11-D8,S11-D10,S11-D20,S12-D10,S12-D11,S12-D12,S13-D4,S13-D11,S13-D12,S14-D10,S14-D12,S14-D21,S15-D13,S15-D14,S16-D13,S16-D14,S16-D22,SART_Target,SART_NonTarget,SART_Probe
1639.3216,1.84256844196265e-07,-1.05116638279362e-07,7.91402059168761e-08,-5.34544784130576e-07,3.3421784704894e-09,3.34217847034145e-09,NaN,-7.95560906495476e-08,-1.86042064561511e-07,2.9305442828948e-07,-1.558977989125e-07,2.93054428290153e-07,-5.05746953012239e-08,-6.29670394444318e-08,NaN,8.77279731104616e-07,-7.35671564893765e-09,8.69923015455517e-07,5.45604572703789e-07,NaN,3.09160362740471e-07,2.85010490452866e-08,4.3390503224684e-08,7.18915522700937e-08,-5.13167260721194e-07,5.36283046357781e-08,NaN,4.31037421389159e-08,-4.31037421389626e-08,5.20598515594665e-08,2.99372032067611e-07,-1.03944339236389e-07,1.95427692831037e-07,5.83420985345111e-08,3.01701470398821e-09,6.13591132384695e-08,-8.07439275223224e-08,-9.36133693028607e-08,-9.36133693027805e-08,-2.81486442827068e-08,1.06720052655787e-07,7.8571408372969e-08,2.18870711005653e-08,-1.69721758621428e-07,-1.4783468752087e-07,-2.61355301467904e-07,-2.70508290840283e-07,-2.70508290840008e-07,-6.91168610442977e-07,6.91168610442473e-07,-1.05744774326526e-07,0,1,0
1639.424,1.72428092632677e-07,-1.03650110835971e-07,6.87779817966761e-08,-5.34049762992144e-07,5.64684179554878e-09,5.64684179540171e-09,NaN,-7.93357637176653e-08,-1.90402280050854e-07,2.41089745581488e-07,-1.33610642652156e-07,2.41089745582172e-07,-4.21321287016436e-08,-5.6929196140049e-08,NaN,8.36170572345016e-07,3.33360469274373e-08,8.69506619272288e-07,5.5868213891047e-07,NaN,3.11900570102752e-07,2.75296428932992e-08,4.13552882095351e-08,6.88849311029578e-08,-5.31694879355938e-07,5.56967110334844e-08,NaN,3.94943198092399e-08,-3.94943198092872e-08,5.61012618060948e-08,2.54414161379083e-07,-1.21330975310262e-07,1.33083186068637e-07,7.29772170797664e-08,7.73800954255193e-09,8.07152266222865e-08,-9.87532529016394e-08,-9.84712522448154e-08,-9.84712522447352e-08,-3.0350200048014e-08,1.06653984680669e-07,7.63037846325432e-08,2.91965447573445e-08,-1.71143056427272e-07,-1.41946511669933e-07,-2.72868947768281e-07,-2.76931839090937e-07,-2.76931839090664e-07,-6.84830261118178e-07,6.84830261117673e-07,-1.02431263575115e-07,0,1,0
1639.5264,1.61011681653417e-07,-1.02188882038863e-07,5.88227996145198e-08,-5.30626204627745e-07,8.27093204748315e-09,8.2709320473357e-09,NaN,-7.80735698856883e-08,-1.90869362600037e-07,1.90533082929908e-07,-1.12302667678103e-07,1.90533082930604e-07,-3.33837767905266e-08,-5.15589728730173e-08,NaN,7.99217357957779e-07,6.49957929245086e-08,8.64213150882119e-07,5.71448415009013e-07,NaN,3.14721501056632e-07,2.9602588234717e-08,3.68658723238314e-08,6.64684605586722e-08,-5.46597648304773e-07,5.97906251436549e-08,NaN,3.57731519861731e-08,-3.57731519862203e-08,5.79654902369722e-08,2.09723790599289e-07,-1.33081634927772e-07,7.66421556713352e-08,8.83117060894641e-08,1.09702328136321e-08,9.92819389030625e-08,-1.14096696926669e-07,-1.03735982382643e-07,-1.03735982382564e-07,-2.9674927683372e-08,1.0553402756388e-07,7.58590998803945e-08,4.13960208563117e-08,-1.74955250123524e-07,-1.33559229267216e-07,-2.85952777692515e-07,-2.83043174065634e-07,-2.83043174065363e-07,-6.77288355614745e-07,6.77288355614239e-07,-1.00903123465377e-07,0,1,0
1639.6288,1.50228079354373e-07,-1.00690177565177e-07,4.95379017891584e-08,-5.24901619638414e-07,1.10076659590477e-08,1.1007665958899e-08,NaN,-7.6120818544349e-08,-1.88422031404847e-07,1.4300239542532e-07,-9.20545640024223e-08,1.43002395426032e-07,-2.45116344344994e-08,-4.69472965041553e-08,NaN,7.65493326461607e-07,8.7964545620168e-08,8.53457872081603e-07,5.84089290221045e-07,NaN,3.18024645273872e-07,3.46636538127171e-08,3.01811918466328e-08,6.4844845659474e-08,-5.58259653730305e-07,6.55763703059629e-08,NaN,3.20887377398883e-08,-3.20887377399355e-08,5.74984307102333e-08,1.67131017272195e-07,-1.39086538132736e-07,2.80444791392793e-08,1.03770375572242e-07,1.28541365902203e-08,1.16624512162426e-07,-1.26385518275363e-07,-1.09292198731954e-07,-1.09292198731876e-07,-2.65167177197496e-08,1.0339943621266e-07,7.68827184927945e-08,5.68779432363413e-08,-1.8091562228647e-07,-1.2403767905013e-07,-3.00708801661733e-07,-2.88011611533714e-07,-2.88011611533444e-07,-6.68066330390183e-07,6.68066330389675e-07,-1.00910289606818e-07,0,0,0
1639.7312,1.40338474166319e-07,-9.90857254070666e-08,4.12527487592105e-08,-5.17457215812759e-07,1.36914248599731e-08,1.36914248598228e-08,NaN,-7.37859340600618e-08,-1.83999433157379e-07,9.96701333555834e-08,-7.28811583515067e-08,9.96701333563121e-08,-1.56479755852068e-08,-4.31291469163191e-08,NaN,7.33957132053738e-07,1.02990035130773e-07,8.36947167184335e-07,5.96781332976398e-07,NaN,3.22193607643103e-07,4.26349350045632e-08,2.15589322591116e-08,6.41938672637988e-08,-5.67204089933397e-07,7.26524563704078e-08,NaN,2.85681002575095e-08,-2.8568100257557e-08,5.46601334915632e-08,1.28103773140444e-07,-1.39597136699643e-07,-1.14933635593771e-08,1.18796259230183e-07,1.35910574544785e-08,1.32387316684624e-07,-1.35363338865451e-07,-1.14980798729469e-07,-1.14980798729391e-07,-2.13968391228379e-08,1.00319817495068e-07,7.89229783721128e-08,7.41760661008938e-08,-1.88750176373759e-07,-1.14574110272865e-07,-3.17176707586737e-07,-2.9110765090713e-07,-2.91107650906861e-07,-6.56704357100957e-07,6.56704357100447e-07,-1.021963962533e-07,0,0,0
1639.8336,1.31575980607872e-07,-9.72976392357907e-08,3.4278341372036e-08,-5.08773690555589e-07,1.61992937342691e-08,1.61992937341167e-08,NaN,-7.13147228288031e-08,-1.78424779645342e-07,6.12654647814212e-08,-5.47324790880203e-08,6.12654647821685e-08,-6.87310783823927e-09,-4.00836088316565e-08,NaN,7.03761424769382e-07,1.11026671071044e-07,8.1478809584025e-07,6.09658779022111e-07,NaN,3.27547121130445e-07,5.34617769115517e-08,1.12135426150583e-08,6.46753195267339e-08,-5.74040898607109e-07,8.05911831570192e-08,NaN,2.53066459756233e-08,-2.53066459756701e-08,4.95003804596951e-08,9.37504707190212e-08,-1.35130197650282e-07,-4.13797269314377e-08,1.32871869217025e-07,1.34197021740498e-08,1.46291571391036e-07,-1.40947930597605e-07,-1.20585727051497e-07,-1.20585727051419e-07,-1.49000047047821e-08,9.64047746166656e-08,8.15047699117637e-08,9.20596420798743e-08,-1.98168912099407e-07,-1.06109270019529e-07,-3.35286001234256e-07,-2.91789152238374e-07,-2.91789152238106e-07,-6.42842095932742e-07,6.4284209593223e-07,-1.04522718808384e-07,0,0,0
1639.936,1.24082269770839e-07,-9.52497109528966e-08,2.8832558817894e-08,-4.9922258298864e-07,1.84525085598394e-08,1.84525085596844e-08,NaN,-6.88796570337217e-08,-1.72357811481411e-07,2.80885965846594e-08,-3.75121477790952e-08,2.80885965854263e-08,1.77061140706099e-09,-3.77341251617335e-08,NaN,6.74495576301595e-07,1.13044784452572e-07,7.8754036075399e-07,6.22770695797436e-07,NaN,3.34296948529286e-07,6.71160726758688e-08,-6.90341922052532e-10,6.64257307539398e-08,-5.7941469687677e-07,8.89777442291531e-08,NaN,2.2358693961502e-08,-2.23586939615485e-08,4.2136801009597e-08,6.48171616791627e-08,-1.26373810555178e-07,-6.15566488761932e-08,1.45534941374991e-07,1.25984105720633e-08,1.58133351947015e-07,-1.43261961687259e-07,-1.25821532180823e-07,-1.25821532180745e-07,-7.61158397639079e-09,9.18106477770959e-08,8.41990638005835e-08,1.09601501660697e-07,-2.08877559614976e-07,-9.92760579542738e-08,-3.54805752432071e-07,-2.89752875376636e-07,-2.89752875376371e-07,-6.26291111571578e-07,6.26291111571064e-07,-1.07682951549547e-07,0,0,0
1640.0384,1.17874599759324e-07,-9.28790346323154e-08,2.49955651269569e-08,-4.89091100426076e-07,2.04145443409589e-08,2.0414544340801e-08,NaN,-6.65801847752144e-08,-1.66271418387518e-07,5.47422920014266e-11,-2.10955138897676e-08,5.47422927882143e-11,1.02643285457781e-08,-3.59516028023692e-08,NaN,6.46293032319483e-07,1.09883310278265e-07,7.56176342597571e-07,6.36010974092391e-07,NaN,3.42520635884047e-07,8.35677172596078e-08,-1.40290748949015e-08,6.95386423648295e-08,-5.83958714557025e-07,9.74420088399374e-08,NaN,1.97330268891461e-08,-1.9733026889191e-08,3.27274609872598e-08,4.16995147948736e-08,-1.14098592437278e-07,-7.23990776425813e-08,1.56388092045269e-07,1.13912741278846e-08,1.67779366173114e-07,-1.42646020350708e-07,-1.30338296372899e-07,-1.3033829637282e-07,-6.88805300381065e-11,8.67392260649367e-08,8.66703455347738e-08,1.26284427971818e-07,-2.20627974018682e-07,-9.4343546046856e-08,-3.7529973176008e-07,-2.84955192643744e-07,-2.8495519264348e-07,-6.0710906975752e-07,6.07109069757003e-07,-1.1151458092112e-07,0,0,0
1640.1408,1.1285028441016e-07,-9.01453223746863e-08,2.27049620354181e-08,-4.78616455707017e-07,2.20858537325363e-08,2.2085853732375e-08,NaN,-6.44506796002236e-08,-1.60448634665898e-07,-2.32256590733944e-08,-5.33583763976672e-09,-2.32256590725873e-08,1.86088769687539e-08,-3.45587033769939e-08,NaN,6.19798453613221e-07,1.02148025440372e-07,7.21946479053417e-07,6.49042749734659e-07,NaN,3.52161528631715e-07,1.02734082303394e-07,-2.87044677240963e-08,7.402961457942e-08,-5.8825864437735e-07,1.05681807451068e-07,NaN,1.7396239723961e-08,-1.73962397240063e-08,2.1427996043954e-08,2.44920811929974e-08,-9.90810130501951e-08,-7.45889318573742e-08,1.65102103410396e-07,1.00580619775455e-08,1.75160165387903e-07,-1.3965102895062e-07,-1.33748909392672e-07,-1.33748909392591e-07,7.27265275720444e-09,8.14280270077954e-08,8.87006797648716e-08,1.42146543254001e-07,-2.33320236002129e-07,-9.11736927481169e-08,-3.96106772500063e-07,-2.7759987005132e-07,-2.77599870051057e-07,-5.85671633041343e-07,5.85671633040825e-07,-1.15909904534038e-07,0,0,0
1640.2432,1.08819407351733e-07,-8.70298378628815e-08,2.17895694887933e-08,-4.68002919078518e-07,2.34984654166302e-08,2.34984654164654e-08,NaN,-6.24689527482926e-08,-1.54998506763896e-07,-4.23459201220693e-08,9.93466227318849e-09,-4.23459201212424e-08,2.68301469133015e-08,-3.33328267686266e-08,NaN,5.96025299140476e-07,9.01777407101067e-08,6.86203039850409e-07,6.61255540156818e-07,NaN,3.63046549346828e-07,1.24415443400968e-07,-4.46183449121903e-08,7.97970984888998e-08,-5.92828028477646e-07,1.13481237456036e-07,NaN,1.52812595675941e-08,-1.52812595676397e-08,8.34220597785913e-09,1.30575004374834e-08,-8.20480490667792e-08,-6.89905486294725e-08,1.7141771972905e-07,8.84788173929284e-09,1.80265601468304e-07,-1.35005561857055e-07,-1.35666831944374e-07,-1.35666831944292e-07,1.40646480875014e-08,7.61372533578184e-08,9.02019014451888e-08,1.5788843062219e-07,-2.47110057105929e-07,-8.92216264837252e-08,-4.16376905006047e-07,-2.68090588839877e-07,-2.68090588839616e-07,-5.62719290194787e-07,5.62719290194268e-07,-1.20821258866884e-07,0,0,0
1640.3456,1.05545988292123e-07,-8.35227993091053e-08,2.2023188982958e-08,-4.57409699062711e-07,2.47108931268886e-08,2.47108931267197e-08,NaN,-6.05633018079347e-08,-1.49891110690127e-07,-5.80131380203669e-08,2.48907340516021e-08,-5.80131380195204e-08,3.49846473054795e-08,-3.20123250000438e-08,NaN,5.76145086377364e-07,7.41077336633707e-08,6.50252820040566e-07,6.71755226173469e-07,NaN,3.7488677107263e-07,1.48239164834722e-07,-6.16402454200053e-08,8.65989194148373e-08,-5.98090006194583e-07,1.20722202533235e-07,NaN,1.32976633470659e-08,-1.32976633471126e-08,-6.50706857243502e-09,7.07174202314892e-09,-6.36458809924088e-08,-5.6574138969437e-08,1.7515328207176e-07,7.99268553641837e-09,1.8314596760814e-07,-1.29545767525477e-07,-1.35745265332741e-07,-1.35745265332658e-07,2.00828261752088e-08,7.11365245061951e-08,9.12193506812708e-08,1.7483726029093e-07,-2.62433869231689e-07,-8.75966089407431e-08,-4.35172382397135e-07,-2.56956744286586e-07,-2.56956744286325e-07,-5.39335455008894e-07,5.39335455008375e-07,-1.26251028546811e-07,0,0,0
1640.448,1.02777802763492e-07,-7.96084059851913e-08,2.316939677824e-08,-4.46922651117601e-07,2.58004614447787e-08,2.58004614446056e-08,NaN,-5.86231756302795e-08,-1.45011075339565e-07,-7.09903083082037e-08,3.96804518907778e-08,-7.09903083073392e-08,4.31579557219817e-08,-3.03147261951834e-08,NaN,5.61259118494228e-07,5.40031282368716e-08,6.15262246730935e-07,6.79386858101662e-07,NaN,3.87252505760852e-07,1.73643242322925e-07,-7.95804583470465e-08,9.40627839759987e-08,-6.0435139916533e-07,1.27380592171559e-07,NaN,1.13433306797908e-08,-1.1343330679838e-08,-2.31642145773855e-08,6.02791454496698e-09,-4.44278123216576e-08,-3.83998977768662e-08,1.76220813150524e-07,7.69567533844819e-09,1.83916488488935e-07,-1.2410277724335e-07,-1.33719187636162e-07,-1.33719187636079e-07,2.52309038648465e-08,6.66892437340255e-08,9.19201475987376e-08,1.94726885959831e-07,-2.79905665375105e-07,-8.51787794152542e-08,-4.5160811706982e-07,-2.44767672309828e-07,-2.44767672309569e-07,-5.1681932175397e-07,5.16819321753452e-07,-1.32224267183871e-07,0,0,0
1640.5504,1.00255909444729e-07,-7.52568221425402e-08,2.49990873021279e-08,-4.36535000398495e-07,2.68526426941611e-08,2.68526426939836e-08,NaN,-5.65168999654142e-08,-1.40222454664657e-07,-8.20699059775693e-08,5.43849731600582e-08,-8.2069905976688e-08,5.14521782207032e-08,-2.79687164526256e-08,NaN,5.52197134237146e-07,2.99864304300803e-08,5.82183564667067e-07,6.82839359653239e-07,NaN,3.99567958661956e-07,1.99909114103418e-07,-9.81787651503435e-08,1.01730348953194e-07,-6.11760152393549e-07,1.33503281833847e-07,NaN,9.31731936402993e-09,-9.31731936407784e-09,-4.16841441280694e-08,9.22166960863372e-09,-2.48563640010261e-08,-1.56346943925662e-08,1.74645167965378e-07,8.11436798016437e-09,1.82759535945507e-07,-1.19368866166708e-07,-1.2944817659553e-07,-1.29448176595447e-07,2.95302984305277e-08,6.30335904535511e-08,9.25638888839435e-08,2.19358857524056e-07,-3.0013145082595e-07,-8.07725933018718e-08,-4.64994181973703e-07,-2.32047561249417e-07,-2.32047561249159e-07,-4.96464148431482e-07,4.96464148430965e-07,-1.38754635803225e-07,0,1,0
1640.6528,9.77073069930662e-08,-7.04273209107183e-08,2.72799860822874e-08,-4.26156872669432e-07,2.79494234405458e-08,2.79494234403638e-08,NaN,-5.4113476128247e-08,-1.35429254896233e-07,-9.20736434483383e-08,6.89904449477565e-08,-9.2073643447441e-08,5.99597734672971e-08,-2.47518245096787e-08,NaN,5.49381184775734e-07,2.29690245475042e-09,5.51678087230332e-07,6.80867039502692e-07,NaN,4.11174036242128e-07,2.26222999326565e-07,-1.17107688635481e-07,1.09115310691202e-07,-6.20259526674813e-07,1.39170805184476e-07,NaN,7.13321194253595e-09,-7.13321194258442e-09,-6.20579155115073e-08,1.57526964156153e-08,-5.31816204470153e-09,1.04345343707422e-08,1.70576186507885e-07,9.34180374829993e-09,1.79917990256151e-07,-1.15783167605955e-07,-1.22949375862623e-07,-1.2294937586254e-07,3.3095654006459e-08,6.03635537613354e-08,9.34592077676584e-08,2.50249244448522e-07,-3.235239217474e-07,-7.32746772988531e-08,-4.74942193983636e-07,-2.19205430404823e-07,-2.19205430404565e-07,-4.79298296662502e-07,4.79298296661984e-07,-1.4581875673895e-07,0,1,0
1640.7552,9.48330356591768e-08,-6.50834448198012e-08,2.97495908393161e-08,-4.15655737142125e-07,2.91563016905708e-08,2.91563016903842e-08,NaN,-5.13036139241138e-08,-1.3061541674553e-07,-1.0186955359069e-07,8.33870897836729e-08,-1.01869553589779e-07,6.87272086978429e-08,-2.05228577217373e-08,NaN,5.52783018355597e-07,-2.87218061865333e-08,5.24061212168918e-07,6.72581336071327e-07,NaN,4.21458443229727e-07,2.51734079588401e-07,-1.35978312536768e-07,1.15755767051749e-07,-6.2957089194373e-07,1.44453351332894e-07,NaN,4.73307261581152e-09,-4.73307261586097e-09,-8.41581913446327e-08,2.45618524058486e-08,1.38490547966164e-08,3.84109072022959e-08,1.64286374274051e-07,1.13896399914138e-08,1.75676014265433e-07,-1.13471782283745e-07,-1.14413040213136e-07,-1.14413040213053e-07,3.60944733845328e-08,5.88137270644986e-08,9.49082004488954e-08,2.88336901022489e-07,-3.50171637310562e-07,-6.18347362880472e-08,-4.81398711333394e-07,-2.06499322205276e-07,-2.06499322205018e-07,-4.65867812880355e-07,4.65867812879838e-07,-1.53342839255433e-07,0,1,0
1640.8576,9.13089180196332e-08,-5.9215123104971e-08,3.20937949146041e-08,-4.04904924627966e-07,3.05074230559498e-08,3.05074230557589e-08,NaN,-4.80162841379154e-08,-1.25858280087631e-07,-1.12381112785002e-07,9.74043178766835e-08,-1.12381112784077e-07,7.77233111016124e-08,-1.52399245892303e-08,NaN,5.61957095483199e-07,-6.26495001768231e-08,4.99307595306239e-07,6.57717974180776e-07,NaN,4.30000378954457e-07,2.75592573441333e-07,-1.54339473826528e-07,1.21253099614918e-07,-6.39229078119553e-07,1.49370088307287e-07,NaN,2.10082877158792e-09,-2.10082877163747e-09,-1.07729075281533e-07,3.44970628243432e-08,3.23197183408527e-08,6.68167811650306e-08,1.56153089696374e-07,1.41789845054295e-08,1.70332074201775e-07,-1.12253701088752e-07,-1.0420201990332e-07,-1.04202019903238e-07,3.86943053639551e-08,5.84508927776386e-08,9.71451981414572e-08,3.3380568644362e-07,-3.79789416026954e-07,-4.59837295833076e-08,-4.84597714753676e-07,-1.94037706684246e-07,-1.94037706683989e-07,-4.56143727624008e-07,4.56143727623492e-07,-1.61192735953032e-07,0,0,0
1640.96,8.68096042147369e-08,-5.2855119031637e-08,3.39544851830435e-08,-3.9380826701651e-07,3.19940344045855e-08,3.199403440439e-08,NaN,-4.42270892123612e-08,-1.21320827025039e-07,-1.24560175574066e-07,1.10872445391811e-07,-1.24560175573129e-07,8.68302890773053e-08,-8.95827795433877e-09,NaN,5.76089223229871e-07,-9.89754389846205e-08,4.77113784245123e-07,6.36789182651776e-07,NaN,4.36660789995518e-07,2.96976970794033e-07,-1.71677723454849e-07,1.25299247339295e-07,-6.48662716327609e-07,1.53865090274756e-07,NaN,-7.29881900701404e-10,7.29881900651032e-10,-1.32414394114581e-07,4.43813606903018e-08,4.97392733487083e-08,9.41206340388484e-08,1.46627880559958e-07,1.75471180658727e-08,1.64174998625804e-07,-1.11700065530209e-07,-9.28368053257542e-08,-9.28368053256736e-08,4.10100561091731e-08,5.92767869380886e-08,1.00286843047125e-07,3.86055949966602e-07,-4.11757570315511e-07,-2.57016203488824e-08,-4.84972891712301e-07,-1.81794023600193e-07,-1.81794023599935e-07,-4.49599889142251e-07,4.49599889141737e-07,-1.69165043206836e-07,0,0,0
1641.0624,8.10471832897392e-08,-4.60798353706376e-08,3.49673479190476e-08,-3.82295208540786e-07,3.35628514851736e-08,3.35628514849736e-08,NaN,-3.99572755248479e-08,-1.1723142311248e-07,-1.39320093469858e-07,1.23678095392015e-07,-1.3932009346891e-07,9.58617901457194e-08,-1.80977500240539e-09,NaN,5.9403391573406e-07,-1.37057938940535e-07,4.56975976793408e-07,6.11048994579158e-07,NaN,4.41580414976259e-07,3.15133826038715e-07,-1.87437172075164e-07,1.27696653963659e-07,-6.57284611607538e-07,1.57807247810574e-07,NaN,-3.67797828619551e-09,3.67797828614434e-09,-1.57798314394858e-07,5.30630215305492e-08,6.5691039359414e-08,1.18754060889805e-07,1.36196344612943e-07,2.12725870872961e-08,1.57468931700215e-07,-1.1122132033741e-07,-8.09610235625036e-08,-8.0961023562424e-08,4.30679313637349e-08,6.12419706024046e-08,1.04309901966003e-07,4.43812662678686e-07,-4.45221114762884e-07,-1.40845208417256e-09,-4.83081887939157e-07,-1.69615630664486e-07,-1.69615630664228e-07,-4.45410168009007e-07,4.45410168008493e-07,-1.76994546414515e-07,0,0,0
1641.1648,7.3803537174409e-08,-3.89990725306327e-08,3.48044646437251e-08,-3.70314932274509e-07,3.51226941994242e-08,3.51226941992194e-08,NaN,-3.5268124609755e-08,-1.13856043225967e-07,-1.57450181367976e-07,1.35784329954932e-07,-1.57450181367017e-07,1.04594782952676e-07,6.02503869070467e-09,NaN,6.14394912522056e-07,-1.76142760981784e-07,4.38252151540166e-07,5.82248869993645e-07,NaN,4.45101022943123e-07,3.29441521818482e-07,-2.01070084120061e-07,1.28371437698527e-07,-6.64557957204321e-07,1.6100704873047e-07,NaN,-6.62631823423048e-09,6.62631823417889e-09,-1.83437927645108e-07,5.94525237019409e-08,7.96896911440339e-08,1.39142214845818e-07,1.25332436726554e-07,2.51102888829227e-08,1.50442725609455e-07,-1.10160310898574e-07,-6.92829877261031e-08,-6.92829877260245e-08,4.4796362939561e-08,6.42590089443629e-08,1.09055371883787e-07,5.05305326726705e-07,-4.79190530536826e-07,2.61147961899033e-08,-4.79551386788651e-07,-1.57242418922913e-07,-1.57242418922654e-07,-4.42643254321669e-07,4.42643254321157e-07,-1.84393539482492e-07,0,0,0
1641.2672,6.49485029057138e-08,-3.175010966774e-08,3.31983932379258e-08,-3.57855955564844e-07,3.6550424086985e-08,3.65504240867755e-08,NaN,-3.02580783730142e-08,-1.11462728278488e-07,-1.79529276165152e-07,1.47222331349896e-07,-1.79529276164185e-07,1.12800014546167e-07,1.43383249376118e-08,NaN,6.35708072351493e-07,-2.15496028157e-07,4.20212044194398e-07,5.52257655835705e-07,NaN,4.47659624408316e-07,3.39486445426411e-07,-2.1211006373057e-07,1.27376381695946e-07,-6.70031518012146e-07,1.63235444522737e-07,NaN,-9.43699405378724e-09,9.43699405373589e-09,-2.08886155495751e-07,6.25687062922243e-08,9.12133505323797e-08,1.53782056824449e-07,1.1445187675505e-07,2.88232900101433e-08,1.43275166765173e-07,-1.07883791680792e-07,-5.8501572878506e-08,-5.85015728784284e-08,4.60386928210985e-08,6.81988761712993e-08,1.14237568992259e-07,5.68453555722812e-07,-5.12607116518209e-07,5.58464392046268e-08,-4.75010006962449e-07,-1.44361838757271e-07,-1.44361838757011e-07,-4.40378970041601e-07,4.4037897004109e-07,-1.91117005908693e-07,0,0,0
1641.3696,5.44567470037596e-08,-2.45061708861849e-08,2.99505761175295e-08,-3.44984971548417e-07,3.76906017417814e-08,3.76906017415675e-08,NaN,-2.50655769347761e-08,-1.10276909691993e-07,-2.05836044249508e-07,1.58084952428612e-07,-2.05836044248534e-07,1.20266915399145e-07,2.29019725023545e-08,NaN,6.56672963111186e-07,-2.54589143262583e-07,4.0208381984852e-07,5.22688599825975e-07,NaN,4.49704935645962e-07,3.45126453698639e-07,-2.20245082616301e-07,1.24881371082441e-07,-6.73367231811881e-07,1.64237373961316e-07,NaN,-1.19656898472289e-08,1.19656898471774e-08,-2.33717060472814e-07,6.16162573003942e-08,9.97707069160207e-08,1.61386964216262e-07,1.03871726710575e-07,3.22026852394201e-08,1.36074411949977e-07,-1.03875966377898e-07,-4.92338451468505e-08,-4.92338451467739e-08,4.65702398577102e-08,7.28673811574041e-08,1.19437621014976e-07,6.31048082730688e-07,-5.44395457417659e-07,8.66526253130538e-08,-4.6998301449612e-07,-1.30705317328792e-07,-1.30705317328531e-07,-4.37766724946988e-07,4.37766724946478e-07,-1.97028931506886e-07,0,0,0
1641.472,4.24354182381167e-08,-1.74936295311549e-08,2.49417887069194e-08,-3.31874287327798e-07,3.83525480229035e-08,3.83525480226858e-08,NaN,-1.98726980532968e-08,-1.10431898645317e-07,-2.36256444130196e-07,1.6853610084755e-07,-2.36256444129217e-07,1.26825273557865e-07,3.14636394419807e-08,NaN,6.76293897104591e-07,-2.93195781972311e-07,3.83098115132209e-07,4.94646212624332e-07,NaN,4.51655567448631e-07,3.46515084448843e-07,-2.25363268258529e-07,1.21151816190415e-07,-6.74387152074144e-07,1.63745128628439e-07,NaN,-1.40732170296327e-08,1.40732170295816e-08,-2.57565083746567e-07,5.60930805020059e-08,1.04985976996027e-07,1.61079057497882e-07,9.37858254457611e-08,3.50758430782499e-08,1.28861668523995e-07,-9.7836065702761e-08,-4.19540324173301e-08,-4.19540324172538e-08,4.61094772829202e-08,7.79767165455689e-08,1.24086193828351e-07,6.90953458155891e-07,-5.735482050764e-07,1.17405253079515e-07,-4.64765306443097e-07,-1.16167102754507e-07,-1.16167102754246e-07,-4.34075238222631e-07,4.34075238222124e-07,-2.0214371637457e-07,0,0,0
1641.5744,2.91542467948402e-08,-1.10011642990054e-08,1.81530824957947e-08,-3.18788077727391e-07,3.83135614314444e-08,3.83135614312232e-08,NaN,-1.49001854859219e-08,-1.11926915038701e-07,-2.70219313977222e-07,1.78822133760541e-07,-2.70219313976239e-07,1.32363465092656e-07,3.97445383406216e-08,NaN,6.93853977666735e-07,-3.31311207984662e-07,3.62542769682014e-07,4.68622477391308e-07,NaN,4.53881002968474e-07,3.44068934735167e-07,-2.27552813963389e-07,1.16516120771878e-07,-6.73135552648274e-07,1.61500279926954e-07,NaN,-1.5635903810264e-08,1.56359038102129e-08,-2.80172399035621e-07,4.5885166015419e-08,1.06676272554558e-07,1.52561438569828e-07,8.42625103805819e-08,3.73096305492022e-08,1.2157214092977e-07,-8.97665819704192e-08,-3.69421909550389e-08,-3.69421909549626e-08,4.43308305100003e-08,8.31327706141371e-08,1.27463601124001e-07,7.46310556315908e-07,-5.99235662605638e-07,1.47074893710295e-07,-4.59324966738889e-07,-1.0091357109824e-07,-1.00913571097979e-07,-4.28748768669835e-07,4.28748768669331e-07,-2.06624798515363e-07,0,0,0
1641.6768,1.5056903576857e-08,-5.36535705210898e-09,9.69154652471025e-09,-3.06020309188979e-07,3.73355517955583e-08,3.73355517953342e-08,NaN,-1.03876257019673e-08,-1.14607683618043e-07,-3.06700162019309e-07,1.89263883974263e-07,-3.06700162018325e-07,1.36839869114325e-07,4.74520638548489e-08,NaN,7.08783968096543e-07,-3.68928258686438e-07,3.39855709410057e-07,4.44503360243156e-07,NaN,4.56664895820261e-07,3.38376077162441e-07,-2.27052687351082e-07,1.1132338981146e-07,-6.69914319462983e-07,1.57286705680582e-07,NaN,-1.65583105485559e-08,1.65583105485048e-08,-3.01417971393005e-07,3.12879987298992e-08,1.04898411602195e-07,1.36186410331946e-07,7.52622044120012e-08,3.8815056932154e-08,1.14077261344144e-07,-8.00182320054585e-08,-3.42461238285339e-08,-3.42461238284574e-08,4.08898601839602e-08,8.78517849709404e-08,1.28741645154767e-07,7.95663632680496e-07,-6.2087470140103e-07,1.74788931279494e-07,-4.53285015897813e-07,-8.54455485458313e-08,-8.54455485455704e-08,-4.21462118064501e-07,4.21462118063999e-07,-2.10734117092401e-07,0,1,0
1641.7792,7.39523338547113e-10,-9.27732138273894e-10,-1.88208799761747e-10,-2.93807558862194e-07,3.51976475822227e-08,3.51976475819963e-08,NaN,-6.56001388218392e-09,-1.18178287541172e-07,-3.44297269463971e-07,2.00215989867351e-07,-3.44297269462989e-07,1.4028407136964e-07,5.43114441362172e-08,NaN,7.20563109495431e-07,-4.05800724444878e-07,3.14762385050518e-07,4.21622423000588e-07,NaN,4.60123454953273e-07,3.3006184992102e-07,-2.24165329524548e-07,1.05896520396571e-07,-6.65243803986796e-07,1.5097078273922e-07,NaN,-1.67897858570318e-08,1.67897858569817e-08,-3.21302200810013e-07,1.29280561117653e-08,9.99571453802793e-08,1.12885201491897e-07,6.66657690166372e-08,3.95563086519586e-08,1.06222077668587e-07,-6.92544880763059e-08,-3.36724582816126e-08,-3.36724582815372e-08,3.54590932743765e-08,9.16109119986853e-08,1.27070005272932e-07,8.37979860916527e-07,-6.38107946454285e-07,1.99871914462272e-07,-4.45990193544607e-07,-7.05825980757513e-08,-7.05825980754912e-08,-4.12159891826738e-07,4.1215989182624e-07,-2.1474329723966e-07,0,1,0
1641.8816,-1.31023949166102e-08,2.02770537419069e-09,-1.10746895424507e-08,-2.8225411157268e-07,3.17406007891787e-08,3.174060078895e-08,NaN,-3.58778938567331e-09,-1.22239355185759e-07,-3.8134828816474e-07,2.11992922541826e-07,-3.81348288163763e-07,1.42786102268356e-07,6.01084371282716e-08,NaN,7.28741041018397e-07,-4.41330966059642e-07,2.87410074958733e-07,3.98844402079078e-07,NaN,4.64100603064796e-07,3.19651863025219e-07,-2.19160424923842e-07,1.00491438101476e-07,-6.59740345967491e-07,1.42541242029636e-07,NaN,-1.63420688689472e-08,1.63420688688981e-08,-3.39887104573977e-07,-8.38213213557957e-09,9.23828663904987e-08,8.40007342547699e-08,5.83052789320613e-08,3.9562599182099e-08,9.78678781141544e-08,-5.83313445045329e-08,-3.48168495773051e-08,-3.48168495772308e-08,2.77672886894104e-08,9.39245836019115e-08,1.21691872291196e-07,8.72603239161162e-07,-6.50710220498398e-07,2.21893018662798e-07,-4.36629556853217e-07,-5.73621507191382e-08,-5.73621507188792e-08,-4.01047285291213e-07,4.01047285290719e-07,-2.18835061533058e-07,0,1,0
1641.984,-2.57478935468993e-08,3.3356318880194e-09,-2.24122616589078e-08,-2.71296172366658e-07,2.69110260557583e-08,2.69110260555283e-08,NaN,-1.54986308739847e-09,-1.26334518760124e-07,-4.16059872600482e-07,2.24776786436975e-07,-4.16059872599514e-07,1.4447476354783e-07,6.47271678129821e-08,NaN,7.33058476360165e-07,-4.74638485188491e-07,2.58419991171665e-07,3.74723335830326e-07,NaN,4.6810202451456e-07,3.07484187100021e-07,-2.12211455125275e-07,9.52727319748455e-08,-6.53955012054255e-07,1.32138670998918e-07,NaN,-1.53014511216042e-08,1.53014511215563e-08,-3.57220582447128e-07,-3.17890481842115e-08,8.28928484140151e-08,5.11038002296527e-08,4.99945207667273e-08,3.89355411386065e-08,8.89300619053309e-08,-4.81353540629788e-08,-3.71203314057872e-08,-3.71203314057141e-08,1.76414496400677e-08,9.44224507189327e-08,1.12063900358879e-07,8.99190033935756e-07,-6.5848312500489e-07,2.40706908930904e-07,-4.24377360979482e-07,-4.68786464166812e-08,-4.68786464164238e-08,-3.88498255250616e-07,3.88498255250127e-07,-2.23029995688128e-07,0,0,0
1642.0864,-3.65322157828845e-08,2.98668547575704e-09,-3.35455303071512e-08,-2.60709526721675e-07,2.07898960206306e-08,2.07898960204e-08,NaN,-4.08788243698432e-10,-1.29986116368883e-07,-4.46649782727102e-07,2.38534686667017e-07,-4.46649782726145e-07,1.45490365574653e-07,6.81685079479614e-08,NaN,7.33589068640309e-07,-5.04766930426735e-07,2.2882213821358e-07,3.47749574915844e-07,NaN,4.71313877045092e-07,2.93698036025201e-07,-2.0338807267443e-07,9.0309963350871e-08,-6.48238830273909e-07,1.2006483217347e-07,NaN,-1.38283305051612e-08,1.38283305051147e-08,-3.73283257272719e-07,-5.64889043653891e-08,7.23441678071998e-08,1.58552634416581e-08,4.15590860446995e-08,3.78425604792289e-08,7.94016465239291e-08,-3.94378806152682e-08,-3.99301143310609e-08,-3.99301143309899e-08,5.05058388234785e-09,9.29010790432534e-08,9.79516629254848e-08,9.17646326370748e-07,-6.6119401900908e-07,2.56452307361709e-07,-4.08521998401348e-07,-4.01096297193742e-08,-4.01096297191188e-08,-3.74897011926619e-07,3.74897011926137e-07,-2.27163941637475e-07,0,0,0
1642.1888,-4.49249462580063e-08,1.12923275807599e-09,-4.37957134999493e-08,-2.50144167545897e-07,1.35947393249227e-08,1.35947393246922e-08,NaN,-4.25916439647336e-12,-1.32714450212387e-07,-4.71512031607345e-07,2.52976641849367e-07,-4.71512031606402e-07,1.45961629988935e-07,7.05441425448815e-08,NaN,7.3083986807976e-07,-5.30932239231313e-07,1.99907628848467e-07,3.16617176460163e-07,NaN,4.72708895609063e-07,2.78283247139089e-07,-1.9268622546117e-07,8.55970216780189e-08,-6.42677606685025e-07,1.06766659165108e-07,NaN,-1.21412037528518e-08,1.21412037528062e-08,-3.87986018848564e-07,-8.17442172767606e-08,6.16758187216914e-08,-2.00683985552238e-08,3.2861680842467e-08,3.64929380103501e-08,6.93546188528215e-08,-3.27991021963593e-08,-4.25591553426917e-08,-4.25591553426228e-08,-9.85954523612555e-09,8.93377883295618e-08,7.94782430933252e-08,9.28092731074471e-07,-6.58585461651078e-07,2.69507269423438e-07,-3.8856662812239e-07,-3.77757615497115e-08,-3.77757615494587e-08,-3.60486230663101e-07,3.60486230662626e-07,-2.30919399363302e-07,0,0,0
1642.2912,-5.05993855389427e-08,-1.95978907894892e-09,-5.25591746179051e-08,-2.39164069399813e-07,5.6557584094092e-09,5.65575840917954e-09,NaN,-6.57018291242316e-11,-1.34049343571325e-07,-4.89401123502994e-07,2.67573006316067e-07,-4.89401123502068e-07,1.45995677700847e-07,7.20523030928836e-08,NaN,7.25759699772078e-07,-5.5271959015335e-07,1.73040109618762e-07,2.80445407018374e-07,NaN,4.71226668924411e-07,2.61157949872767e-07,-1.80062280064937e-07,8.10956698079297e-08,-6.3709967708577e-07,9.2796736186851e-08,NaN,-1.04894624434455e-08,1.04894624434007e-08,-4.01219699891466e-07,-1.06840266775559e-07,5.18353231888266e-08,-5.5004943586891e-08,2.38146887096169e-08,3.51025935571935e-08,5.89172822668183e-08,-2.85261823140971e-08,-4.43503305443576e-08,-4.43503305442923e-08,-2.67506746691669e-08,8.38754745476676e-08,5.71247998783965e-08,9.30886481569907e-07,-6.50454973164864e-07,2.80431508405091e-07,-3.6430480940019e-07,-4.02600263166127e-08,-4.02600263163626e-08,-3.45289808216003e-07,3.45289808215536e-07,-2.33893408462785e-07,0,0,0
1642.3936,-5.3493468512296e-08,-5.920618898757e-09,-5.94140874110609e-08,-2.27285226162385e-07,-2.62491282193008e-09,-2.62491282215829e-09,NaN,-2.38812078284597e-10,-1.33545272391368e-07,-4.99609825432761e-07,2.81622156538512e-07,-4.99609825431853e-07,1.45679920980571e-07,7.29446982988431e-08,NaN,7.19620274218758e-07,-5.70178423524816e-07,1.4944185069399e-07,2.38960680506017e-07,NaN,4.66005604193015e-07,2.42252872784337e-07,-1.6546216405541e-07,7.67907087290273e-08,-6.31129456276493e-07,7.87580328955866e-08,NaN,-9.12374301045386e-09,9.12374301040952e-09,-4.12926502487683e-07,-1.31020552509921e-07,4.36960962462288e-08,-8.73244562638539e-08,1.43776755374686e-08,3.38574400088297e-08,4.82351155463092e-08,-2.66727239113319e-08,-4.47431926980467e-08,-4.47431926979845e-08,-4.50933514368161e-08,7.67950687646032e-08,3.17017173276887e-08,9.26688271445001e-07,-6.367804849497e-07,2.8990778649535e-07,-3.35885229651652e-07,-4.75799665829759e-08,-4.75799665827277e-08,-3.29119611289376e-07,3.29119611288918e-07,-2.35673790231712e-07,0,0,0
1642.496,-5.38565410659547e-08,-1.03598143165424e-08,-6.42163553824991e-08,-2.14019402519554e-07,-1.08189939847941e-08,-1.08189939850202e-08,NaN,-1.18992282360061e-10,-1.30803977108041e-07,-5.02100904483601e-07,2.94335988341419e-07,-5.02100904482712e-07,1.45084453837981e-07,7.34901376752796e-08,NaN,7.13789558450476e-07,-5.83806847444113e-07,1.29982711006424e-07,1.92655936334176e-07,NaN,4.56610305737027e-07,2.21588519346532e-07,-1.48861256126536e-07,7.27272632200961e-08,-6.24253676032686e-07,6.52439145077419e-08,NaN,-8.27047331152424e-09,8.27047331148125e-09,-4.23151241125943e-07,-1.53446918317858e-07,3.79824072583726e-08,-1.15464511059652e-07,4.54683774055748e-09,3.28822158347305e-08,3.74290535753008e-08,-2.70562381627227e-08,-4.33358935113702e-08,-4.33358935113109e-08,-6.4181215196304e-08,6.84869347810646e-08,4.30571958466884e-09,9.16510055803176e-07,-6.1784163949668e-07,2.98668416306546e-07,-3.03870249992821e-07,-5.93858543272712e-08,-5.93858543270241e-08,-3.11639248180577e-07,3.11639248180128e-07,-2.35896747067966e-07,0,0,0
1642.5984,-5.22615725402717e-08,-1.48960530234524e-08,-6.71576255637209e-08,-1.98928603408387e-07,-1.851453912051e-08,-1.8514539120734e-08,NaN,7.11923200574899e-10,-1.25500825263956e-07,-4.97549307445072e-07,3.04914982074234e-07,-4.97549307444202e-07,1.44254727891376e-07,7.39358180653139e-08,NaN,7.09476728920622e-07,-5.94450694870324e-07,1.15026034050371e-07,1.4288731736099e-07,NaN,4.4318035156513e-07,1.99326582765932e-07,-1.30321439455753e-07,6.90051433102794e-08,-6.15882264719896e-07,5.27837017377029e-08,NaN,-8.11193837510936e-09,8.11193837506825e-09,-4.32052484961824e-07,-1.7321110979164e-07,3.52162898826376e-08,-1.37994819909173e-07,-5.65530306020021e-09,3.221858148385e-08,2.65632784236644e-08,-2.92734512854932e-08,-3.99400428767046e-08,-3.99400428766492e-08,-8.31628983181657e-08,5.94221341592965e-08,-2.37407641589546e-08,9.01690405786899e-07,-5.94290556334657e-07,3.07399849452292e-07,-2.69273548976809e-07,-7.49648156638325e-08,-7.4964815663586e-08,-2.92468306528961e-07,2.92468306528521e-07,-2.34271193080113e-07,0,0,0
1642.7008,-4.95575732398945e-08,-1.92013636847144e-08,-6.87589369245999e-08,-1.81687696002126e-07,-2.53528780696978e-08,-2.53528780699198e-08,NaN,2.64574731132882e-09,-1.17406747041479e-07,-4.87260381967322e-07,3.12606256044805e-07,-4.8726038196647e-07,1.43192910284666e-07,7.4467089030921e-08,NaN,7.0755703043931e-07,-6.03173753499918e-07,1.04383276939474e-07,9.18452028524158e-08,NaN,4.26459564006842e-07,1.75775084411884e-07,-1.10043248360502e-07,6.57318360514824e-08,-6.05403428162312e-07,4.17993866832219e-08,NaN,-8.77085297709386e-09,8.77085297705457e-09,-4.39888347827427e-07,-1.89395778397758e-07,3.56920735733794e-08,-1.53703704824553e-07,-1.61879237107974e-08,3.18147879862505e-08,1.56268642754686e-08,-3.27143902531685e-08,-3.4624559429047e-08,-3.4624559428995e-08,-1.01099774838406e-07,5.01144166025384e-08,-5.09853582359477e-08,8.83797340214829e-07,-5.67158977608045e-07,3.16638362606829e-07,-2.33540970177463e-07,-9.32689533872358e-08,-9.32689533869889e-08,-2.71321405145002e-07,2.71321405144569e-07,-2.30572406526298e-07,0,0,0
1642.8032,-4.67530913234191e-08,-2.30380931624796e-08,-6.97911844858846e-08,-1.62147013176748e-07,-3.10607794620533e-08,-3.1060779462274e-08,NaN,6.00617767930997e-09,-1.06396710186518e-07,-4.72956498244821e-07,3.16756871061844e-07,-4.72956498243985e-07,1.4183438661445e-07,7.51709648945253e-08,NaN,7.08557071749242e-07,-6.11156986622014e-07,9.74000851273181e-08,4.23709838765503e-08,NaN,4.07713256159401e-07,1.51341894759171e-07,-8.83799576966513e-08,6.29619370626192e-08,-5.92241404628184e-07,3.25743077640835e-08,NaN,-1.03004903557261e-08,1.03004903556884e-08,-4.47004705632352e-07,-2.01160600297086e-07,3.9478980945024e-08,-1.61681619352238e-07,-2.70017126399664e-08,3.15280657966315e-08,4.52635315668075e-09,-3.65975909748925e-08,-2.77350847017813e-08,-2.77350847017326e-08,-1.17053205790909e-07,4.10626914255783e-08,-7.59905143654079e-08,8.64494644258412e-07,-5.37811954023024e-07,3.26682690235431e-07,-1.98428804264578e-07,-1.13016501952663e-07,-1.13016501952414e-07,-2.48158667511368e-07,2.4815866751094e-07,-2.24621734392774e-07,0,0,0
1642.9056,-4.48516279500547e-08,-2.62868419949346e-08,-7.11384699449704e-08,-1.40376662133426e-07,-3.54742674723428e-08,-3.54742674725634e-08,NaN,1.10115047632934e-08,-9.2442225514515e-08,-4.56472962779437e-07,3.16883449842382e-07,-4.56472962778613e-07,1.40031573485361e-07,7.60155752968089e-08,NaN,7.12774044071844e-07,-6.19632328832631e-07,9.31417152393073e-08,-2.35707895248724e-09,NaN,3.88568966408228e-07,1.2645854755944e-07,-6.58010317919904e-08,6.06575157675493e-08,-5.75927669818194e-07,2.52350269202196e-08,NaN,-1.2682943845463e-08,1.26829438454278e-08,-4.5383316440881e-07,-2.07818630244302e-07,4.64453420599707e-08,-1.61373288184509e-07,-3.80564834779966e-08,3.11420252702415e-08,-6.91445820774028e-09,-4.00504653603885e-08,-1.98740513938373e-08,-1.98740513937913e-08,-1.30194871459464e-07,3.26813488864013e-08,-9.75135225731383e-08,8.45416829278284e-07,-5.07860330528883e-07,3.37556498749438e-07,-1.65767522643999e-07,-1.32880314024723e-07,-1.32880314024471e-07,-2.23299193253627e-07,2.23299193253204e-07,-2.16278355488466e-07,0,1,0
1643.008,-4.46851651294188e-08,-2.89534788877711e-08,-7.36386440171669e-08,-1.1666578782731e-07,-3.85445428187177e-08,-3.85445428189387e-08,NaN,1.77511098987058e-08,-7.55976427707294e-08,-4.39452680323702e-07,3.12769394543659e-07,-4.39452680322886e-07,1.375553141488e-07,7.68588642311183e-08,NaN,7.20404480097791e-07,-6.29803810202546e-07,9.06006698953415e-08,-3.91874764266396e-08,NaN,3.70832604261304e-07,1.01512585059903e-07,-4.28259638468927e-08,5.86866212131088e-08,-5.56191868892694e-07,1.97515495500503e-08,NaN,-1.5835833305142e-08,1.58358333051082e-08,-4.60877697469802e-07,-2.08880798095571e-07,5.6289272456736e-08,-1.52591525639013e-07,-4.93460700426666e-08,3.04026207030952e-08,-1.89434493395574e-08,-4.22376695873764e-08,-1.18349991810284e-08,-1.1834999180985e-08,-1.39918169067116e-07,2.5247476420657e-08,-1.14670692646533e-07,8.28093305427466e-07,-4.79054833397582e-07,3.49038472029914e-07,-1.37165299238235e-07,-1.51698031156801e-07,-1.51698031156545e-07,-1.97458323670483e-07,1.97458323670062e-07,-2.05466342094524e-07,0,1,0
1643.1104,-4.67939338202716e-08,-3.11466509962973e-08,-7.79405848165423e-08,-9.14599438449508e-08,-4.03208206441541e-08,-4.03208206443767e-08,NaN,2.61803514701461e-08,-5.59972435873549e-08,-4.23124174926221e-07,3.04570096289407e-07,-4.23124174925408e-07,1.34113694159267e-07,7.74871443521893e-08,NaN,7.3158831766859e-07,-6.42724808859019e-07,8.88635088096668e-08,-6.52944123432087e-08,NaN,3.56334177562788e-07,7.68166901293625e-08,-1.99656695137764e-08,5.68510206156835e-08,-5.33063895974431e-07,1.59590557953156e-08,NaN,-1.9624732918714e-08,1.9624732918681e-08,-4.68668777845057e-07,-2.04079310366851e-07,6.85649061850316e-08,-1.35514404181994e-07,-6.09155493607471e-08,2.90702659083609e-08,-3.18452834523735e-08,-4.25097363781863e-08,-4.49662944579461e-09,-4.49662944575346e-09,-1.45917897954802e-07,1.88900686047385e-08,-1.27027829350139e-07,8.13940076767639e-07,-4.53203027639651e-07,3.60737049128009e-07,-1.13737629168658e-07,-1.68613066686705e-07,-1.68613066686445e-07,-1.7171691764683e-07,1.71716917646409e-07,-1.92235370950613e-07,0,1,0
1643.2128,-5.13759672924603e-08,-3.30306684567231e-08,-8.44066357491532e-08,-6.52516096718057e-08,-4.09180818975213e-08,-4.09180818977468e-08,NaN,3.61295570078268e-08,-3.38754277032989e-08,-4.08187309683717e-07,2.92880876339223e-07,-4.08187309682903e-07,1.29382752912e-07,7.76695047624329e-08,NaN,7.46358444700453e-07,-6.59138241584533e-07,8.72202031160134e-08,-7.83532968632267e-08,NaN,3.46812563253488e-07,5.26122635773885e-08,2.31048081404519e-09,5.49227443915307e-08,-5.0696216939139e-07,1.35958546536413e-08,NaN,-2.38785319942005e-08,2.38785319941682e-08,-4.77687013127536e-07,-1.9340469548711e-07,8.27063782750426e-08,-1.10698317212238e-07,-7.28513000396761e-08,2.69762040496749e-08,-4.58750959899901e-08,-4.05316369893531e-08,1.30648643212411e-09,1.30648643216341e-09,-1.48214189084312e-07,1.36203860319903e-08,-1.34593803052401e-07,8.04279047464914e-07,-4.32112532980117e-07,3.72166514484809e-07,-9.59333175792513e-08,-1.83113565927706e-07,-1.8311356592744e-07,-1.47446048337366e-07,1.47446048336943e-07,-1.76821178286304e-07,0,0,0
1643.3152,-5.82990811524868e-08,-3.47678001420553e-08,-9.30668812945086e-08,-3.84706492394357e-08,-4.048470588527e-08,-4.04847058854992e-08,NaN,4.73200926269532e-08,-9.60971427547633e-09,-3.94787328539212e-07,2.78729189952979e-07,-3.94787328538392e-07,1.23048745663256e-07,7.72152376631773e-08,NaN,7.6450505243162e-07,-6.79282552077104e-07,8.52225003546043e-08,-7.66489768917246e-08,NaN,3.43783357100727e-07,2.90775055414354e-08,2.35990064863726e-08,5.2676512027905e-08,-4.7873766489447e-07,1.23465874535312e-08,NaN,-2.8406500960694e-08,2.84065009606628e-08,-4.88268574889857e-07,-1.77186503155787e-07,9.80516738338845e-08,-7.91348293220681e-08,-8.52413083966984e-08,2.40692013787963e-08,-6.11721070178928e-08,-3.63655830491714e-08,4.9134364324893e-09,4.91343643252693e-09,-1.47120311728077e-07,9.38445199782857e-09,-1.37735859730333e-07,8.00278165119608e-07,-4.17473587228403e-07,3.82804577891208e-07,-8.35036249863687e-08,-1.94998981834793e-07,-1.94998981834521e-07,-1.26169388812779e-07,1.2616938881235e-07,-1.59665499500006e-07,0,0,0
1643.4176,-6.71553929477068e-08,-3.64657960311262e-08,-1.03621188978796e-07,-1.14240735148292e-08,-3.91817926443193e-08,-3.91817926445532e-08,NaN,5.93834048778143e-08,1.62262452680348e-08,-3.82563430232107e-07,2.63478353030333e-07,-3.82563430231279e-07,1.1486258348575e-07,7.60280729245826e-08,NaN,7.85398493091152e-07,-7.02696724748459e-07,8.27017683427745e-08,-5.9219472932902e-08,NaN,3.48343298161729e-07,6.3190854641896e-09,4.35968709811904e-08,4.99159564454765e-08,-4.49645930638374e-07,1.18782695258102e-08,NaN,-3.30147341998735e-08,3.30147341998435e-08,-5.00500775845172e-07,-1.56212575878242e-07,1.13860748445499e-07,-4.23518274329026e-08,-9.81213015993219e-08,2.04415906567939e-08,-7.76797109425206e-08,-3.049243754266e-08,5.94110000979104e-09,5.94110000982818e-09,-1.431711543352e-07,6.11495281229148e-09,-1.37056201522999e-07,8.02733829045274e-07,-4.10595180007436e-07,3.92138649037833e-07,-7.56250938826229e-08,-2.04317065454429e-07,-2.04317065454152e-07,-1.09345537116676e-07,1.09345537116241e-07,-1.41381081338859e-07,0,0,0
1643.52,-7.7345200130594e-08,-3.81466186585846e-08,-1.15491818789139e-07,1.56936625528511e-08,-3.71798729729071e-08,-3.71798729731462e-08,NaN,7.18807551789616e-08,4.28226674353297e-08,-3.70770637004303e-07,2.48649691833548e-07,-3.70770637003463e-07,1.04697954593741e-07,7.4146561075613e-08,NaN,8.07912748238469e-07,-7.28146906683084e-07,7.97658415554595e-08,-2.60629593747043e-08,NaN,3.60955869220817e-07,-1.56349492049745e-08,6.21287108562836e-08,4.64937616514054e-08,-4.21227532887314e-07,1.18581165759845e-08,NaN,-3.75172714831131e-08,3.75172714830845e-08,-5.14124997924671e-07,-1.31832535434759e-07,1.29328226359674e-07,-2.50430907523954e-09,-1.11424252281186e-07,1.63251431076189e-08,-9.50991091735616e-08,-2.37495462738295e-08,4.33646053485814e-09,4.33646053489386e-09,-1.3703057867411e-07,3.76125984403906e-09,-1.33269318830169e-07,8.11762271708436e-07,-4.12055778208322e-07,3.99706493500099e-07,-7.11276194847555e-08,-2.11299917202589e-07,-2.11299917202307e-07,-9.81279213175176e-08,9.8127921317075e-08,-1.22678276666712e-07,0,0,0
1643.6224,-8.8182160146989e-08,-3.97468401630886e-08,-1.27929000310036e-07,4.27343080295938e-08,-3.46704628802883e-08,-3.46704628805327e-08,NaN,8.4324694616843e-08,6.91381104637305e-08,-3.58464111828357e-07,2.35688582640927e-07,-3.58464111827502e-07,9.2598475167095e-08,7.1755372405321e-08,NaN,8.30582476582333e-07,-7.53788994441966e-07,7.67934821404349e-08,2.16714364423876e-08,NaN,3.8131769229458e-07,-3.68149864038264e-08,7.91368967564998e-08,4.23219103527693e-08,-3.95099787272523e-07,1.19522574290929e-08,NaN,-4.17405603822916e-08,4.17405603822635e-08,-5.28484197976407e-07,-1.05970127682156e-07,1.43605417246941e-07,3.76352895646358e-08,-1.2494818926262e-07,1.2052897785226e-08,-1.1289529147739e-07,-1.71764697965782e-08,3.60922754794058e-10,3.60922754829701e-10,-1.29393496711102e-07,2.28634252786481e-09,-1.27107154183342e-07,8.26579203004885e-07,-4.21457156425309e-07,4.05122046579553e-07,-6.87453070765909e-08,-2.16314899954481e-07,-2.16314899954194e-07,-9.31985978211599e-08,9.31985978207096e-08,-1.04280014186968e-07,0,0,0
1643.7248,-9.90040130890273e-08,-4.11469985079794e-08,-1.40151011596964e-07,6.95117844519086e-08,-3.18804867608005e-08,-3.18804867610502e-08,NaN,9.62087587601957e-08,9.39770634185126e-08,-3.44719836054001e-07,2.25724213408778e-07,-3.44719836053131e-07,7.88007092665555e-08,6.91599199655965e-08,NaN,8.51946963605634e-07,-7.77533789676121e-07,7.44131739295761e-08,8.1623056766169e-08,NaN,4.08364195694894e-07,-5.72700829733118e-08,9.46386315242966e-08,3.73685485510797e-08,-3.72696191504592e-07,1.18194774957317e-08,NaN,-4.5527306130538e-08,4.55273061305108e-08,-5.4255778661078e-07,-8.09990919069899e-08,1.55848803675936e-07,7.48497117688015e-08,-1.38357093188742e-07,7.99529491236836e-09,-1.30361798276372e-07,-1.18004690190421e-08,-5.48844622370973e-09,-5.48844622367413e-09,-1.20901230585428e-07,1.6380521401462e-09,-1.19263178445395e-07,8.45513635797724e-07,-4.37436817734815e-07,4.0807681806288e-07,-6.73262735816883e-08,-2.19835364773848e-07,-2.19835364773557e-07,-9.47156978876122e-08,9.47156978871545e-08,-8.68414147120501e-08,0,0,0
1643.8272,-1.09263258042371e-07,-4.22163013020059e-08,-1.51479559344333e-07,9.57402351025601e-08,-2.90748384815244e-08,-2.90748384817788e-08,NaN,1.07049801257222e-07,1.16142323939753e-07,-3.28855901101943e-07,2.19386971986896e-07,-3.28855901101058e-07,6.37220412180779e-08,6.67287444847911e-08,NaN,8.70888680894892e-07,-7.97466983572399e-07,7.34216973225507e-08,1.50357483558349e-07,NaN,4.40401869723289e-07,-7.70336292651623e-08,1.08679334771241e-07,3.1645705506173e-08,-3.55016445029051e-07,1.11177808035194e-08,NaN,-4.87462065381554e-08,4.87462065381291e-08,-5.55102639714021e-07,-5.9487081406319e-08,1.65296383988751e-07,1.05809302582293e-07,-1.51222249422609e-07,4.48872564139671e-09,-1.46733523781213e-07,-8.42413262926401e-09,-1.25977817304742e-08,-1.25977817304392e-08,-1.12089505093391e-07,1.71470457142933e-09,-1.10374800522081e-07,8.66280522446104e-07,-4.57954614098865e-07,4.08325908347203e-07,-6.59753436433849e-08,-2.22422966998244e-07,-2.2242296699795e-07,-1.02348032244525e-07,1.02348032244062e-07,-7.08810021445572e-08,0,0,0
1643.9296,-1.18573617738696e-07,-4.28560633862483e-08,-1.61429681124899e-07,1.21013117164592e-07,-2.65390202242817e-08,-2.65390202245396e-08,NaN,1.16436440382745e-07,1.34621721868305e-07,-3.10601797433134e-07,2.16737645049479e-07,-3.10601797432234e-07,4.79091870941326e-08,6.48184302457194e-08,NaN,8.86803801256886e-07,-8.12178234633013e-07,7.46255666239259e-08,2.23701492726938e-07,NaN,4.75317183346521e-07,-9.6100453177306e-08,1.21299326366944e-07,2.519887318973e-08,-3.42456760993315e-07,9.53114728641821e-09,NaN,-5.13064065333407e-08,5.13064065333143e-08,-5.64871208495643e-07,-4.38522184696343e-08,1.71353871700831e-07,1.27501653231064e-07,-1.63095984380105e-07,1.7771073505663e-09,-1.61318877029541e-07,-7.48471720349668e-09,-2.03614594939538e-08,-2.03614594939186e-08,-1.03379251752567e-07,2.34398053692055e-09,-1.01035271215771e-07,8.86414899312358e-07,-4.80732855005789e-07,4.0568204430653e-07,-6.41283299761085e-08,-2.24704103009393e-07,-2.24704103009096e-07,-1.1536362486308e-07,1.15363624862612e-07,-5.67324577463476e-08,0,0,0
1644.032,-1.26705366874446e-07,-4.3027955418056e-08,-1.69733322292456e-07,1.44821241113623e-07,-2.45443646430861e-08,-2.45443646433463e-08,NaN,1.24069441405616e-07,1.48744135160685e-07,-2.90153792623481e-07,2.17327828264653e-07,-2.90153792622568e-07,3.19605182360915e-08,6.37043798050414e-08,NaN,8.99570965568469e-07,-8.20916756150204e-07,7.86542094183132e-08,2.97207471145908e-07,NaN,5.1081014821456e-07,-1.14403743715387e-07,1.32512682313788e-07,1.81089385984919e-08,-3.34768649777407e-07,6.81051441688342e-09,NaN,-5.31695848972546e-08,5.31695848972274e-08,-5.70835443263966e-07,-3.60073681482989e-08,1.73665388893402e-07,1.37658020744975e-07,-1.73596185334551e-07,-1.73612069182363e-11,-1.73613546541475e-07,-9.03224717209432e-09,-2.82777035020613e-08,-2.82777035020258e-08,-9.51033629678002e-08,3.28621370933221e-09,-9.18171492585962e-08,9.03693644256973e-07,-5.0365825842954e-07,4.00035385827391e-07,-6.15662890182048e-08,-2.27326538745303e-07,-2.27326538745003e-07,-1.32751718796689e-07,1.32751718796219e-07,-4.45289333693179e-08,0,0,0
1644.1344,-1.3355050582117e-07,-4.27604493009729e-08,-1.76310955122098e-07,1.66601842364308e-07,-2.33064456357801e-08,-2.33064456360414e-08,NaN,1.29783541051098e-07,1.58255959741365e-07,-2.68095359682333e-07,2.20358835043897e-07,-2.6809535968141e-07,1.64476518240028e-08,6.35393304699384e-08,NaN,9.0940321611363e-07,-8.23592608036254e-07,8.58106080774219e-08,3.66621060566665e-07,NaN,5.44616298717961e-07,-1.31788681554794e-07,1.42297355827498e-07,1.05086742727924e-08,-3.31143964565306e-07,2.81343791535384e-09,NaN,-5.43531685027565e-08,5.43531685027277e-08,-5.72341673571833e-07,-3.70792628462185e-08,1.72149276705321e-07,1.35070013858977e-07,-1.82475734569453e-07,-8.90757180946351e-10,-1.83366491750407e-07,-1.28120729669016e-08,-3.59963542031917e-08,-3.59963542031552e-08,-8.75467061726733e-08,4.2607868375064e-09,-8.3285919335298e-08,9.16396663832538e-07,-5.24994927563239e-07,3.91401736269255e-07,-5.83799381358744e-08,-2.30899305254092e-07,-2.3089930525379e-07,-1.53344358483248e-07,1.53344358482778e-07,-3.42290630638473e-08,0,1,0
1644.2368,-1.39093820622549e-07,-4.21364803731126e-08,-1.81230300995618e-07,1.85803108768932e-07,-2.29496918320898e-08,-2.29496918323508e-08,NaN,1.335496067437e-07,1.63311552329486e-07,-2.4523128516884e-07,2.24869258868648e-07,-2.4523128516791e-07,1.85375002154754e-09,6.43458139193628e-08,NaN,9.16708414318153e-07,-8.20716754133484e-07,9.59916601847108e-08,4.28227089387685e-07,NaN,5.74692640916715e-07,-1.4800356273549e-07,1.50606235670026e-07,2.60267293462261e-09,-3.30376749396408e-07,-2.47467285468714e-09,NaN,-5.49228966652102e-08,5.49228966651818e-08,-5.69156676152756e-07,-4.72686454085761e-08,1.66996000619247e-07,1.19727355210549e-07,-1.89657662942457e-07,-9.33160276123818e-10,-1.90590823218591e-07,-1.83840226712505e-08,-4.3328172565931e-08,-4.33281725658938e-08,-8.09717437631178e-08,4.98044734554335e-09,-7.59912964177066e-08,9.233741681372e-07,-5.43387032737748e-07,3.79987135399407e-07,-5.48956381075145e-08,-2.35936438822618e-07,-2.35936438822314e-07,-1.75894520636295e-07,1.75894520635826e-07,-2.56778558380423e-08,0,1,0
1644.3392,-1.43407849197872e-07,-4.1272513245133e-08,-1.84680362442964e-07,2.01933344034099e-07,-2.34897909661743e-08,-2.34897909664341e-08,NaN,1.35460719543739e-07,1.64403062393416e-07,-2.2240887933478e-07,2.29891182582951e-07,-2.22408879333847e-07,-1.14678223946289e-08,6.60320594530461e-08,NaN,9.22016482309626e-07,-8.13323530565564e-07,1.086929517441e-07,4.79037689564168e-07,NaN,5.99344081076636e-07,-1.62733294084574e-07,1.57405299579242e-07,-5.32799450524602e-09,-3.31046811951861e-07,-8.94615244509555e-09,NaN,-5.49778085441572e-08,5.49778085441285e-08,-5.61412429740968e-07,-6.58727770350508e-08,1.58641023486642e-07,9.27682464514715e-08,-1.95230372980954e-07,-3.01456293812823e-10,-1.9553182927478e-07,-2.52205796075138e-08,-5.02373200935874e-08,-5.02373200935499e-08,-7.56126972828536e-08,5.17491529752613e-09,-7.04377819854607e-08,9.239778893259e-07,-5.57735445351695e-07,3.6624244397416e-07,-5.15794400714814e-08,-2.4282367374359e-07,-2.42823673743284e-07,-1.99104456875162e-07,1.99104456874695e-07,-1.86716699553165e-08,0,1,0
1644.4416,-1.46659097363894e-07,-4.02999659192175e-08,-1.86959063283074e-07,2.14568651040801e-07,-2.48414673243053e-08,-2.48414673245632e-08,NaN,1.35705187321483e-07,1.62261178573267e-07,-2.00369719084476e-07,2.3455509132026e-07,-2.00369719083542e-07,-2.33137689490846e-08,6.8416894667745e-08,NaN,9.25929101999186e-07,-8.02829131298802e-07,1.23099970700416e-07,5.16871538614478e-07,NaN,6.17280389671994e-07,-1.75671415799338e-07,1.62723872401933e-07,-1.29475433973198e-08,-3.31699215490536e-07,-1.63992630171769e-08,NaN,-5.46321609547185e-08,5.46321609546897e-08,-5.49495805180862e-07,-9.14439472632421e-08,1.47725316631026e-07,5.62813693676663e-08,-1.99411232239102e-07,8.00002519594118e-10,-1.98611229719524e-07,-3.27757579045427e-08,-5.68280219270279e-08,-5.68280219269896e-08,-7.16431926169674e-08,4.59757694814178e-09,-6.70456156689594e-08,9.17932140495419e-07,-5.67056508732994e-07,3.50875631762379e-07,-4.89362789432585e-08,-2.51807637939254e-07,-2.51807637938946e-07,-2.21644806176557e-07,2.21644806176092e-07,-1.29935511641125e-08,0,0,0
1644.544,-1.49102688417497e-07,-3.93525449368699e-08,-1.88455233354332e-07,2.23326898273536e-07,-2.68489590647194e-08,-2.68489590649745e-08,NaN,1.3453149976731e-07,1.57751644275283e-07,-1.7964107941756e-07,2.38155582569933e-07,-1.79641079416628e-07,-3.36292401336431e-08,7.1256522241231e-08,NaN,9.29025987386649e-07,-7.90799837644592e-07,1.38226149742082e-07,5.4036016139365e-07,NaN,6.27622229615992e-07,-1.86601087512205e-07,1.66694292650416e-07,-1.99067948617044e-08,-3.31016739233628e-07,-2.45758388802343e-08,NaN,-5.39978865755026e-08,5.39978865754741e-08,-5.33943332263358e-07,-1.22023102999202e-07,1.35045779897409e-07,1.30226768980922e-08,-2.02496580879795e-07,2.13309153720659e-09,-2.00363489342607e-07,-4.05476842309496e-08,-6.3321034322762e-08,-6.3321034322723e-08,-6.91430666115169e-08,3.02570397788577e-09,-6.61173626337648e-08,9.05214162786126e-07,-5.7041128680912e-07,3.34802875976961e-07,-4.74110139600861e-08,-2.62994043378943e-07,-2.62994043378633e-07,-2.42200003879587e-07,2.42200003879125e-07,-8.41349047964223e-09,0,0,0
1644.6464,-1.51051614743416e-07,-3.85529105012059e-08,-1.89604525244589e-07,2.27851141210908e-07,-2.93233341672254e-08,-2.93233341674775e-08,NaN,1.32214676213755e-07,1.51782970554283e-07,-1.60466033358483e-07,2.40200183572312e-07,-1.60466033357557e-07,-4.24863927620325e-08,7.42753272390793e-08,NaN,9.31728792655458e-07,-7.78701831896883e-07,1.53026960758592e-07,5.48862467996229e-07,NaN,6.29885082139322e-07,-1.95452461144849e-07,1.69568221886291e-07,-2.58842392584724e-08,-3.27971808272485e-07,-3.31935544968212e-08,NaN,-5.31710666299226e-08,5.31710666298941e-08,-5.15376486338921e-07,-1.55382106760023e-07,1.21492226497792e-07,-3.38898802623435e-08,-2.04816853316533e-07,3.44447966591671e-09,-2.01372373650638e-07,-4.81513334950385e-08,-7.00118660921188e-08,-7.00118660920801e-08,-6.80913038827416e-08,2.70130381831656e-10,-6.78211735010433e-08,8.86003866403732e-07,-5.66952992692243e-07,3.19050873711443e-07,-4.7298532028148e-08,-2.76344383818874e-07,-2.76344383818561e-07,-2.59533989414122e-07,2.59533989413662e-07,-4.68261305719732e-09,0,0,0
1644.7488,-1.52820081421276e-07,-3.79910027204739e-08,-1.90811084141718e-07,2.27847556379196e-07,-3.20683430312761e-08,-3.20683430315245e-08,NaN,1.29032198472553e-07,1.45229101408183e-07,-1.42777124269713e-07,2.4045061747851e-07,-1.42777124268795e-07,-5.00455748255306e-08,7.72055312307594e-08,NaN,9.34173448226098e-07,-7.67732219059074e-07,1.66441229167033e-07,5.42277162452711e-07,NaN,6.23947372755098e-07,-2.02312326370101e-07,1.71699227912127e-07,-3.06130984578865e-08,-3.21918424241536e-07,-4.19646520002534e-08,NaN,-5.2225176911112e-08,5.22251769110845e-08,-4.94466022138964e-07,-1.89237367548682e-07,1.07970166723208e-07,-8.12672008255867e-08,-2.06704634141493e-07,4.49610060005409e-09,-2.02208533541464e-07,-5.53848640173341e-08,-7.72110148571287e-08,-7.72110148570904e-08,-6.83868633866108e-08,-3.80023128078012e-09,-7.21870946675229e-08,8.60726689015755e-07,-5.56071032687553e-07,3.04655656328157e-07,-4.86931041625296e-08,-2.91667642495531e-07,-2.91667642495217e-07,-2.72544741902239e-07,2.7254474190178e-07,-1.55801205532861e-09,0,0,0
1644.8512,-1.54657184942709e-07,-3.76977052156461e-08,-1.92354890158324e-07,2.23180198941492e-07,-3.48893144457692e-08,-3.48893144460133e-08,NaN,1.25250507998705e-07,1.38864524185625e-07,-1.26221941507403e-07,2.38940594737252e-07,-1.26221941506497e-07,-5.65041548142379e-08,7.98325513538395e-08,NaN,9.36129383389364e-07,-7.58756079486724e-07,1.77373303902638e-07,5.20808577385243e-07,NaN,6.09987116752847e-07,-2.07386468583993e-07,1.73488220798338e-07,-3.38982477855646e-08,-3.12589860885904e-07,-5.06040053372524e-08,NaN,-5.12109659008274e-08,5.12109659008012e-08,-4.71891380539111e-07,-2.21433856930253e-07,9.531823274471e-08,-1.26115624185654e-07,-2.08470226456732e-07,5.10273194467476e-09,-2.03367494512085e-07,-6.22514666894845e-08,-8.51765504895113e-08,-8.51765504894744e-08,-6.98732370206344e-08,-9.22951830927471e-09,-7.91027553300403e-08,8.30157619816288e-07,-5.37552766624889e-07,2.92604853191355e-07,-5.15091693120959e-08,-3.08610979706916e-07,-3.08610979706603e-07,-2.80279020231726e-07,2.80279020231268e-07,1.13686092401133e-09,0,0,0
1644.9536,-1.56698806491715e-07,-3.76282651415816e-08,-1.94327071633267e-07,2.13974540680463e-07,-3.75940215640833e-08,-3.75940215643232e-08,NaN,1.21117516238405e-07,1.3331264335147e-07,-1.10242378249397e-07,2.3594685738654e-07,-1.10242378248507e-07,-6.20465729665976e-08,8.20321789216619e-08,NaN,9.36998327398895e-07,-7.52319699378993e-07,1.84678628019889e-07,4.84798672354177e-07,NaN,5.88394639783957e-07,-2.10945469728293e-07,1.75313529605279e-07,-3.56319401229195e-08,-3.00012994165206e-07,-5.88359910663601e-08,NaN,-5.01604869400574e-08,5.01604869400327e-08,-4.48282917105782e-07,-2.50106075587911e-07,8.42351752204859e-08,-1.65870900367534e-07,-2.10377347219433e-07,5.16428465764295e-09,-2.05213062561821e-07,-6.89161426535326e-08,-9.40540410561091e-08,-9.40540410560748e-08,-7.23472738856459e-08,-1.59563723812707e-08,-8.83036462670466e-08,7.95522181590075e-07,-5.1169745760197e-07,2.83824723988061e-07,-5.55623488101228e-08,-3.26660917993086e-07,-3.26660917992773e-07,-2.81904615742322e-07,2.81904615741863e-07,3.45107416453183e-09,0,0,0
1645.056,-1.58955503558882e-07,-3.76674036101121e-08,-1.96622907168965e-07,2.0067255006002e-07,-3.99975956874132e-08,-3.99975956876485e-08,NaN,1.16855831681209e-07,1.29011334063335e-07,-9.4196860092956e-08,2.31909023629539e-07,-9.41968600920841e-08,-6.68108120304023e-08,8.37848931882373e-08,NaN,9.35947224736141e-07,-7.48739699403712e-07,1.87207525332403e-07,4.34736576177192e-07,NaN,5.59714238939495e-07,-2.13286137125013e-07,1.77478346001995e-07,-3.58077911229194e-08,-2.8438846025976e-07,-6.64080020285036e-08,NaN,-4.90928300552952e-08,4.90928300552725e-08,-4.24167157294831e-07,-2.73808622716805e-07,7.52240387904164e-08,-1.98584583926496e-07,-2.12619489972882e-07,4.68294886851634e-09,-2.07936541104399e-07,-7.56087342307199e-08,-1.03838814937386e-07,-1.03838814937355e-07,-7.55579934453762e-08,-2.38102259017688e-08,-9.93682193472737e-08,7.58533936302651e-07,-4.7937046667463e-07,2.79163469627981e-07,-6.06607983459944e-08,-3.4516819504864e-07,-3.45168195048328e-07,-2.76680492040567e-07,2.76680492040107e-07,5.28355626362176e-09,0,0,0
1645.1584,-1.61330671439518e-07,-3.7656567659899e-08,-1.98987239099388e-07,1.8401217772801e-07,-4.19375247921731e-08,-4.19375247924036e-08,NaN,1.12653466818894e-07,1.26198186440497e-07,-7.75004233674802e-08,2.27316107749487e-07,-7.75004233666289e-08,-7.08756107800843e-08,8.5162321337177e-08,NaN,9.32193217349928e-07,-7.48269596889385e-07,1.83923620460505e-07,3.7146701604976e-07,NaN,5.2465977136826e-07,-2.1471708645658e-07,1.80188511593633e-07,-3.45285748628427e-08,-2.65990170720397e-07,-7.3112017606852e-08,NaN,-4.801983084285e-08,4.80198308428287e-08,-3.9994531803853e-07,-2.91603198904993e-07,6.85529815689432e-08,-2.23050217336155e-07,-2.15302191183204e-07,3.76077189616599e-09,-2.11541419287074e-07,-8.25043031541647e-08,-1.1437079707185e-07,-1.14370797071824e-07,-7.92136479293869e-08,-3.25168251691397e-08,-1.11730473098655e-07,7.21331239741488e-07,-4.42005840347833e-07,2.79325399393616e-07,-6.66641305061717e-08,-3.63407636918425e-07,-3.63407636918116e-07,-2.63990167983491e-07,2.63990167983028e-07,6.41291438500867e-09,0,0,0
1645.2608,-1.63649446076172e-07,-3.74332016449851e-08,-2.01082647721127e-07,1.64940080533684e-07,-4.32958804952913e-08,-4.32958804955171e-08,NaN,1.08653130260104e-07,1.24917250283859e-07,-5.9747201798574e-08,2.22593507319959e-07,-5.97472017977456e-08,-7.42621864942215e-08,8.62927728584775e-08,NaN,9.2533777556115e-07,-7.51254949476269e-07,1.7408282608483e-07,2.96489716677685e-07,NaN,4.8418923613008e-07,-2.15559306447547e-07,1.83551575504561e-07,-3.20077309428763e-08,-2.4512222835984e-07,-7.8807579268809e-08,NaN,-4.69511391087774e-08,4.69511391087581e-08,-3.75922074918773e-07,-3.03094414304284e-07,6.42363500608112e-08,-2.38858064243577e-07,-2.1843493864798e-07,2.57695823674784e-09,-2.1585798041127e-07,-8.96274279213793e-08,-1.25362444585977e-07,-1.25362444585957e-07,-8.30068789706055e-08,-4.17083467810345e-08,-1.24715225751768e-07,6.8630765066167e-07,-4.01549004102158e-07,2.84758646559475e-07,-7.35037907879394e-08,-3.8067342202495e-07,-3.80673422024644e-07,-2.43465211717637e-07,2.43465211717171e-07,6.57163263199343e-09,0,0,0
1645.3632,-1.65680749442872e-07,-3.68664840463451e-08,-2.02547233489186e-07,1.44488520723932e-07,-4.40178046068618e-08,-4.4017804607083e-08,NaN,1.04946362635065e-07,1.25048954337947e-07,-4.07813445269806e-08,2.18030853990669e-07,-4.07813445261764e-08,-7.69436089313127e-08,8.73205926726242e-08,NaN,9.15577470485844e-07,-7.58139372440871e-07,1.5743809804491e-07,2.12185722273268e-07,NaN,4.39588630284749e-07,-2.1614724453683e-07,1.87585671908396e-07,-2.85615726283172e-08,-2.22140502952647e-07,-8.34332664105897e-08,NaN,-4.58995681574299e-08,4.58995681574125e-08,-3.52375391416815e-07,-3.08408250501816e-07,6.20464351131866e-08,-2.46361815388732e-07,-2.21936112217595e-07,1.35055181702389e-09,-2.2058556040061e-07,-9.68313470061568e-08,-1.36450267723339e-07,-1.36450267723324e-07,-8.66565949176471e-08,-5.09392714258785e-08,-1.37595866343655e-07,6.55856954141908e-07,-3.60316370720484e-07,2.95540583421389e-07,-8.11872658175668e-08,-3.96382098522589e-07,-3.96382098522285e-07,-2.15151240760947e-07,2.15151240760477e-07,5.54107079911713e-09,1,0,0
1645.4656,-1.67149297262392e-07,-3.58771233846201e-08,-2.03026420646981e-07,1.23649272255932e-07,-4.41149879553159e-08,-4.41149879555329e-08,NaN,1.01579190525144e-07,1.26360786954729e-07,-2.07057614343968e-08,2.13773108807186e-07,-2.07057614336162e-08,-7.88607451936676e-08,8.83733405052773e-08,NaN,9.03698467373338e-07,-7.69269850145448e-07,1.34428617227814e-07,1.21851696085268e-07,NaN,3.92519211827058e-07,-2.1681679203799e-07,1.92235839235921e-07,-2.45809528019456e-08,-1.97508000310946e-07,-8.6997558746574e-08,NaN,-4.48868854325873e-08,4.48868854325733e-08,-3.29633387325054e-07,-3.08107444012945e-07,6.15612144442711e-08,-2.46546229568774e-07,-2.25653760619801e-07,3.00296994460154e-10,-2.2535346362538e-07,-1.03868632562035e-07,-1.47255554379275e-07,-1.47255554379267e-07,-8.99599233778003e-08,-5.97108745643299e-08,-1.4967079794226e-07,6.32070439878922e-07,-3.20758400220934e-07,3.11312039657957e-07,-8.98014567806983e-08,-4.10142548406879e-07,-4.10142548406578e-07,-1.79641868863039e-07,1.79641868862565e-07,3.23529274834308e-09,1,0,0
1645.568,-1.67752529449342e-07,-3.44396827365372e-08,-2.02192212185847e-07,1.03267692037721e-07,-4.36529878066334e-08,-4.36529878068459e-08,NaN,9.85689315567785e-08,1.28567125073867e-07,1.43668048297995e-10,2.09861157358796e-07,1.43668049057096e-10,-7.99459852328501e-08,8.9542560414671e-08,NaN,8.90886480898561e-07,-7.84580213965197e-07,1.06306266933276e-07,2.95015107571032e-08,NaN,3.44981311101437e-07,-2.17874273818616e-07,1.97397106600787e-07,-2.04771672176989e-08,-1.71836619368688e-07,-8.95551579776093e-08,NaN,-4.39473529776229e-08,4.39473529776116e-08,-3.08115181611242e-07,-3.03057733941784e-07,6.22366195389692e-08,-2.40821114402912e-07,-2.2939727976863e-07,-3.88929897594069e-10,-2.29786209666264e-07,-1.10506329775198e-07,-1.57443388658543e-07,-1.57443388658542e-07,-9.2838636262901e-08,-6.75067952193034e-08,-1.60345431482335e-07,6.16440323707942e-07,-2.85153764926858e-07,3.31286558781055e-07,-9.95050308839391e-08,-4.2177819363995e-07,-4.21778193639652e-07,-1.38137830539174e-07,1.38137830538697e-07,-2.43437078977558e-10,1,0,0
1645.6704,-1.6719815442887e-07,-3.25735581698648e-08,-1.99771712598701e-07,8.39726315742359e-08,-4.27295976793563e-08,-4.2729597679565e-08,NaN,9.59236272163997e-08,1.31379244020458e-07,2.12219159602163e-08,2.06285037376691e-07,2.12219159609556e-08,-8.01519753112526e-08,9.0876087462768e-08,NaN,8.78440386828277e-07,-8.03308808491487e-07,7.51315783366899e-08,-6.05473473765875e-08,NaN,2.99154008425152e-07,-2.19553375269248e-07,2.02938025568104e-07,-1.66153497010086e-08,-1.45876414553215e-07,-9.11847340352433e-08,NaN,-4.31265718403068e-08,4.31265718402984e-08,-2.88303537652327e-07,-2.94285740214963e-07,6.34797984056793e-08,-2.30805941809378e-07,-2.32967621855683e-07,-5.89125799928217e-10,-2.33556747655653e-07,-1.16602578069663e-07,-1.66774196489235e-07,-1.66774196489239e-07,-9.53587855976643e-08,-7.38387779691095e-08,-1.69197563566907e-07,6.09634222475469e-07,-2.55306932038768e-07,3.54327290436675e-07,-1.10497213332003e-07,-4.3131201117378e-07,-4.31312011173485e-07,-9.24228048470399e-08,9.24228048465586e-08,-4.57626290418742e-09,0,0,0
1645.7728,-1.65256551331857e-07,-3.03274853230362e-08,-1.95584036654857e-07,6.61483277686349e-08,-4.14496070785509e-08,-4.14496070787566e-08,NaN,9.36543329253232e-08,1.34531624117093e-07,4.17994997517522e-08,2.0301667034977e-07,4.17994997524749e-08,-7.94796772952446e-08,9.23769580202512e-08,NaN,8.67488051983028e-07,-8.23898271863924e-07,4.35897801189924e-08,-1.44246516026934e-07,NaN,2.57115149702246e-07,-2.21975602779755e-07,2.08718443108271e-07,-1.32571596713431e-08,-1.20433237762097e-07,-9.197663449897e-08,NaN,-4.24773119710809e-08,4.24773119710754e-08,-2.70645206179817e-07,-2.82864741056714e-07,6.47073008370353e-08,-2.18157440219768e-07,-2.36178098220905e-07,-2.37964001444145e-10,-2.36416062222391e-07,-1.22095366806443e-07,-1.75138709774083e-07,-1.75138709774094e-07,-9.7717283732391e-08,-7.829303446851e-08,-1.76010318201037e-07,6.11401778774564e-07,-2.32327941834001e-07,3.79073836940538e-07,-1.22968291273103e-07,-4.3892239415648e-07,-4.38922394156188e-07,-4.47594952670609e-08,4.47594952665756e-08,-9.23144545149221e-09,0,0,0
1645.8752,-1.61801978125984e-07,-2.77619376188536e-08,-1.895639157448e-07,4.99419399656676e-08,-3.9899526916148e-08,-3.98995269163514e-08,NaN,9.17751596751871e-08,1.37785989665919e-07,6.10285513272742e-08,2.00011591324934e-07,6.10285513279837e-08,-7.799823221907e-08,9.40044136324015e-08,NaN,8.58792654323036e-07,-8.44129274831378e-07,1.46633794915339e-08,-2.1844212848677e-07,NaN,2.20507768095373e-07,-2.25125807217658e-07,2.14597565294752e-07,-1.05282419227612e-08,-9.62316273925037e-08,-9.20280290099387e-08,NaN,-4.20560481382936e-08,4.20560481382898e-08,-2.55413666159407e-07,-2.6983590551828e-07,6.53901862580729e-08,-2.04445719260293e-07,-2.38866968725325e-07,6.67338182736026e-10,-2.38199630542633e-07,-1.26925339838335e-07,-1.8256491310392e-07,-1.82564913103937e-07,-1.00208808395136e-07,-8.05659675530162e-08,-1.80774775948292e-07,6.2064574155305e-07,-2.16536785432985e-07,4.0410895612004e-07,-1.370445635391e-07,-4.44879856571649e-07,-4.4487985657136e-07,2.28941078733272e-09,-2.28941078782237e-09,-1.35100874703163e-08,0,0,0
1645.9776,-1.56816778623183e-07,-2.49372300146033e-08,-1.81754008637747e-07,3.52968249212357e-08,-3.8129847846829e-08,-3.81298478470307e-08,NaN,9.02918238003003e-08,1.40926347808245e-07,7.80809379767323e-08,1.97194468072809e-07,7.80809379774318e-08,-7.58468725916343e-08,9.56754487940472e-08,NaN,8.52693700352338e-07,-8.61425993365118e-07,-8.7322930129166e-09,-2.81386556988891e-07,NaN,1.90259159190203e-07,-2.28848789364458e-07,2.20432241340274e-07,-8.4165480240341e-09,-7.37818162473167e-08,-9.14404893298669e-08,NaN,-4.19215827804233e-08,4.19215827804199e-08,-2.42600215354584e-07,-2.56155852115801e-07,6.50972675331703e-08,-1.91058584582711e-07,-2.40905208437293e-07,2.08279574942208e-09,-2.38822412687917e-07,-1.30959470084992e-07,-1.89196679198799e-07,-1.89196679198822e-07,-1.03187494224666e-07,-8.04873254537317e-08,-1.8367481967854e-07,6.35633369565434e-07,-2.07490658351813e-07,4.28142711213598e-07,-1.52736822727718e-07,-4.49491423724962e-07,-4.49491423724676e-07,4.60983555544855e-08,-4.60983555549802e-08,-1.66260360108993e-08,0,0,0
1646.08,-1.50353366707964e-07,-2.19113929519571e-08,-1.72264759659881e-07,2.20058491597515e-08,-3.61509786996085e-08,-3.61509786998089e-08,NaN,8.9185948973321e-08,1.43759691086634e-07,9.23414188268178e-08,1.94452358687643e-07,9.23414188275102e-08,-7.32163252542637e-08,9.72702784678279e-08,NaN,8.49169136524535e-07,-8.73218368371453e-07,-2.40492318470653e-08,-3.32978141573487e-07,NaN,1.6644873920907e-07,-2.32883251032177e-07,2.26082974028738e-07,-6.8002770032862e-09,-5.33191145568799e-08,-9.03134988719683e-08,NaN,-4.21342390649946e-08,4.21342390649916e-08,-2.31893205149143e-07,-2.42654232108711e-07,6.35425915264336e-08,-1.79111640582352e-07,-2.42201790229606e-07,3.92629307281194e-09,-2.38275497156841e-07,-1.33979685177888e-07,-1.95253578546196e-07,-1.95253578546223e-07,-1.07029171728393e-07,-7.8032535586633e-08,-1.85061707315172e-07,6.54285162991966e-07,-2.0412018282499e-07,4.50164980166953e-07,-1.69903528650884e-07,-4.53078054467855e-07,-4.53078054467571e-07,8.42220284951115e-08,-8.42220284956121e-08,-1.78009146305219e-08,0,0,0
1646.1824,-1.42475823393978e-07,-1.87414086443256e-08,-1.61217232038262e-07,9.7845835733341e-09,-3.39401496760563e-08,-3.3940149676256e-08,NaN,8.8406316943945e-08,1.4612971969012e-07,1.0358948698466e-07,1.91649289868136e-07,1.03589486985347e-07,-7.03202006588379e-08,9.86475927274793e-08,NaN,8.47952304955133e-07,-8.77249324012371e-07,-2.92970190573969e-08,-3.74685546562e-07,NaN,1.48350899630005e-07,-2.36949751255285e-07,2.31453449024521e-07,-5.49630223060623e-09,-3.48442165602833e-08,-8.87271089596666e-08,NaN,-4.27524928082959e-08,4.27524928082929e-08,-2.22753596092926e-07,-2.2997845418844e-07,6.06275744706908e-08,-1.69350879717818e-07,-2.42709944379539e-07,6.07985214870525e-09,-2.36630092230882e-07,-1.35761330553942e-07,-2.00977014997624e-07,-2.00977014997656e-07,-1.12093218788941e-07,-7.33207394446723e-08,-1.85413958233763e-07,6.74486449134628e-07,-2.04965139589445e-07,4.69521309545161e-07,-1.88249440818963e-07,-4.55980471098283e-07,-4.55980471098001e-07,1.14569399106173e-07,-1.1456939910668e-07,-1.63668890744916e-08,0,0,0
1646.2848,-1.33215685385827e-07,-1.54781425336944e-08,-1.48693827919477e-07,-1.63323701621656e-09,-3.14519523623786e-08,-3.14519523625775e-08,NaN,8.78737851515856e-08,1.47938977471412e-07,1.12095867461777e-07,1.88658192920924e-07,1.12095867462459e-07,-6.73679340156369e-08,9.96715262023227e-08,NaN,8.48600913774422e-07,-8.71754569322989e-07,-2.3153655548738e-08,-4.09242882692209e-07,NaN,1.34602456115596e-07,-2.40868089189186e-07,2.36555626389104e-07,-4.31246279992129e-09,-1.82314207130935e-08,-8.67178371082724e-08,NaN,-4.38239007713205e-08,4.38239007713171e-08,-2.14538708367408e-07,-2.1851773184849e-07,5.645601277602e-08,-1.62061719072534e-07,-2.42436424415073e-07,8.3911248292364e-09,-2.34045299585886e-07,-1.36205849186707e-07,-2.06567063252456e-07,-2.06567063252492e-07,-1.18678010287068e-07,-6.65960665119484e-08,-1.85274076799169e-07,6.94371552293819e-07,-2.08467647862181e-07,4.85903904431616e-07,-2.07378647485842e-07,-4.58561562960622e-07,-4.58561562960342e-07,1.35463299849577e-07,-1.35463299850091e-07,-1.18771026296206e-08,0,0,0
1646.3872,-1.22565978587883e-07,-1.21507063492554e-08,-1.34716684937092e-07,-1.23881782674702e-08,-2.86268190016861e-08,-2.86268190018844e-08,NaN,8.74969651629739e-08,1.49165493633988e-07,1.18610057856413e-07,1.85390077165919e-07,1.18610057857091e-07,-6.45418145109459e-08,1.00245019243551e-07,NaN,8.50443395882529e-07,-8.55516136527426e-07,-5.07274064507964e-09,-4.40237405619382e-07,NaN,1.23423921811989e-07,-2.44641423513187e-07,2.41553718246597e-07,-3.08770526642526e-09,-3.33387156775895e-09,-8.42626659581548e-08,NaN,-4.53707305732173e-08,4.53707305732136e-08,-2.06611126899152e-07,-2.08332056730246e-07,5.13113712879197e-08,-1.57020685442384e-07,-2.41449709623419e-07,1.06799876973236e-08,-2.30769721926145e-07,-1.35448689093029e-07,-2.12126197984056e-07,-2.12126197984095e-07,-1.26964951179846e-07,-5.81971523360601e-08,-1.85162103516063e-07,7.12514033533465e-07,-2.13233497306718e-07,4.99280536226725e-07,-2.26894123462236e-07,-4.61176948085997e-07,-4.6117694808572e-07,1.45604642781178e-07,-1.456046427817e-07,-4.20892126959566e-09,0,0,0
1646.4896,-1.10516113677594e-07,-8.74133122255011e-09,-1.19257444900096e-07,-2.24094191400712e-08,-2.5393346600259e-08,-2.53933466004566e-08,NaN,8.71911848362589e-08,1.49860671430464e-07,1.24268926527736e-07,1.81794422401888e-07,1.24268926528411e-07,-6.1977113905483e-08,1.0034067927658e-07,NaN,8.52437710985163e-07,-8.27855068186749e-07,2.45826427982201e-08,-4.71649138118407e-07,NaN,1.12854486953356e-07,-2.4846895714368e-07,2.46754952183068e-07,-1.71400496044489e-09,9.97185520238789e-09,-8.12793074454188e-08,NaN,-4.73762889500539e-08,4.73762889500496e-08,-1.98394983330825e-07,-1.99128201999601e-07,4.56102514915816e-08,-1.53517950508072e-07,-2.39879349688004e-07,1.2753431456072e-08,-2.27125918231984e-07,-1.33876988643175e-07,-2.17629445087732e-07,-2.17629445087774e-07,-1.36957397079882e-07,-4.85201347358751e-08,-1.85477531815918e-07,7.27980732288445e-07,-2.18186631641385e-07,5.09794100647038e-07,-2.46505181826788e-07,-4.64111747910778e-07,-4.64111747910502e-07,1.44011326124023e-07,-1.44011326124554e-07,6.37268061636746e-09,0,0,0
1646.592,-9.71117020163932e-08,-5.15852732121644e-09,-1.0227022933756e-07,-3.13902142052689e-08,-2.1664555804397e-08,-2.16645558045938e-08,NaN,8.68956643749054e-08,1.50125664750795e-07,1.30454586986756e-07,1.77820791914518e-07,1.30454586987427e-07,-5.97466421180438e-08,1.00020611935088e-07,NaN,8.53083058574519e-07,-7.88633976363931e-07,6.44490822103811e-08,-5.07318913898116e-07,NaN,1.00999010126362e-07,-2.52700236030831e-07,2.52556283253377e-07,-1.43952777283572e-10,2.18120611021158e-08,-7.76388367957302e-08,NaN,-4.97797013820759e-08,4.97797013820703e-08,-1.89378401247612e-07,-1.90315086805005e-07,3.98515425509982e-08,-1.50463544254054e-07,-2.37900771534864e-07,1.44290216245137e-08,-2.23471749910405e-07,-1.32045423144123e-07,-2.22927147726289e-07,-2.22927147726333e-07,-1.48436112421875e-07,-3.79753104284961e-08,-1.86411422850533e-07,7.40263618339257e-07,-2.22602238410699e-07,5.17661379928537e-07,-2.6609664040044e-07,-4.67507141985697e-07,-4.67507141985422e-07,1.30017167881393e-07,-1.30017167881931e-07,1.92261485631966e-08,0,1,0
1646.6944,-8.25128312059771e-08,-1.22685712469084e-09,-8.37396883306178e-08,-3.88391865841465e-08,-1.73375511769856e-08,-1.73375511771817e-08,NaN,8.65856640291086e-08,1.50075928446798e-07,1.38599481361081e-07,1.73361456255173e-07,1.3859948136175e-07,-5.78504310699771e-08,9.94368906076109e-08,NaN,8.50530271294245e-07,-7.38310466101983e-07,1.12219805192041e-07,-5.5032693352656e-07,NaN,8.62939412037628e-08,-2.5775227847701e-07,2.59362317270924e-07,1.61003879408674e-09,3.23828447893732e-08,-7.31886606089822e-08,NaN,-5.24820816277928e-08,5.24820816277858e-08,-1.79090321310581e-07,-1.81145379562651e-07,3.45641546611096e-08,-1.46581224901583e-07,-2.35705130270685e-07,1.55631115595093e-08,-2.20142018711232e-07,-1.30523772645763e-07,-2.27773879279059e-07,-2.27773879279104e-07,-1.60956957646309e-07,-2.6941175877611e-08,-1.87898133524086e-07,7.49130399687717e-07,-2.26040443358143e-07,5.23089956329554e-07,-2.85726890811233e-07,-4.7130952767266e-07,-4.71309527672385e-07,1.033913895501e-07,-1.03391389550646e-07,3.34312661236609e-08,0,1,0
1646.7968,-6.7026458012086e-08,3.28648300394806e-09,-6.37399750080881e-08,-4.41909137398329e-08,-1.23094619659078e-08,-1.23094619661031e-08,NaN,8.62747027780365e-08,1.49809678835376e-07,1.49939335068702e-07,1.68210335129751e-07,1.4993933506937e-07,-5.62092676784931e-08,9.88071185214362e-08,NaN,8.42951044461716e-07,-6.7807765230108e-07,1.648733921604e-07,-6.02384833266942e-07,NaN,6.77681401917453e-08,-2.63988646295238e-07,2.67475946178436e-07,3.48729988337297e-09,4.20131055367251e-08,-6.7790622042754e-08,NaN,-5.53603002858749e-08,5.53603002858664e-08,-1.67094987592506e-07,-1.709115859173e-07,3.02442684493551e-08,-1.4066731746798e-07,-2.33461833829717e-07,1.60767764452474e-08,-2.1738505738453e-07,-1.29728852534707e-07,-2.3187318188016e-07,-2.31873181880205e-07,-1.73899217143025e-07,-1.57305683416317e-08,-1.89629785484824e-07,7.54448666979743e-07,-2.28220954594408e-07,5.26227712385315e-07,-3.05543032427249e-07,-4.75262579495713e-07,-4.75262579495437e-07,6.45734942087881e-08,-6.45734942093424e-08,4.79361879796064e-08,0,1,0
1646.8992,-5.11009196618062e-08,8.60482031460953e-09,-4.24960993471478e-08,-4.69412593533932e-08,-6.51209977490121e-09,-6.51209977509591e-09,NaN,8.60025974189762e-08,1.49392708998198e-07,1.65258639743637e-07,1.62059227338093e-07,1.65258639744307e-07,-5.46627716371201e-08,9.83685563164714e-08,NaN,8.29107811553079e-07,-6.10111977983399e-07,2.18995833569428e-07,-6.63443285559909e-07,NaN,4.52364194682094e-08,-2.71567196052289e-07,2.76978538377986e-07,5.41134232587372e-09,5.11857389084063e-08,-6.13732477476686e-08,NaN,-5.82819827618309e-08,5.82819827618205e-08,-1.53038424003483e-07,-1.59131863597283e-07,2.7281389277357e-08,-1.31850474319956e-07,-2.31288402803476e-07,1.59720122081578e-08,-2.15316390595383e-07,-1.29793747502059e-07,-2.34927650455302e-07,-2.34927650455346e-07,-1.86547681017946e-07,-4.58527777938069e-09,-1.91132958797498e-07,7.56062804582492e-07,-2.28904214028198e-07,5.27158590554272e-07,-3.25626871564824e-07,-4.78937935054313e-07,-4.78937935054036e-07,1.49388397023951e-08,-1.49388397029568e-08,6.16779919130383e-08,0,0,0
1647.0016,-3.52813915149186e-08,1.48567355864404e-08,-2.04246559284323e-08,-4.67632106281611e-08,4.73112290651352e-11,4.7311228871072e-11,NaN,8.5811690032776e-08,1.48862045516723e-07,1.84717003912663e-07,1.54520623913522e-07,1.84717003913337e-07,-5.29753681504304e-08,9.83242790538284e-08,NaN,8.0894392733511e-07,-5.37839381439386e-07,2.71104545895455e-07,-7.31666836702144e-07,NaN,1.93545350983355e-08,-2.80303650722131e-07,2.87644742128735e-07,7.34109140678275e-09,6.05032054087094e-08,-5.39812465961183e-08,NaN,-6.11172401921974e-08,6.11172401921855e-08,-1.36741704961693e-07,-1.45665196888937e-07,2.58905764946342e-08,-1.19774620394325e-07,-2.29238826439497e-07,1.5332073622341e-08,-2.13906752817226e-07,-1.30509295708757e-07,-2.36684105560999e-07,-2.36684105561042e-07,-1.98181589872063e-07,6.30109895029985e-09,-1.91880490921938e-07,7.53799607376645e-07,-2.27847949441169e-07,5.25951657935453e-07,-3.45815393325793e-07,-4.81783251691719e-07,-4.81783251691441e-07,-4.30403471890575e-08,4.30403471884893e-08,7.36303983663359e-08,0,0,0
1647.104,-2.01321358229971e-08,2.20102875971367e-08,1.87815177418164e-09,-4.35526772134624e-08,7.26024625545793e-09,7.26024625526486e-09,NaN,8.57214573819602e-08,1.48241405199746e-07,2.07846693760264e-07,1.45145205592202e-07,2.07846693760944e-07,-5.08526721586369e-08,9.87985821310114e-08,NaN,7.8394075453514e-07,-4.66001660448648e-07,3.17939094086207e-07,-8.03795710077534e-07,NaN,-8.51456647408832e-09,-2.8961616412833e-07,2.9893185219904e-07,9.31568807088924e-09,7.06186478228929e-08,-4.57950980297194e-08,NaN,-6.37458526248398e-08,6.37458526248266e-08,-1.18285505703099e-07,-1.30728376184287e-07,2.60788480670284e-08,-1.04649528117273e-07,-2.27308808654961e-07,1.43026141146838e-08,-2.13006194540353e-07,-1.31342949969114e-07,-2.36962487824231e-07,-2.36962487824272e-07,-2.08151604122104e-07,1.67531026732825e-08,-1.91398501449001e-07,7.47625365100878e-07,-2.24870913826659e-07,5.22754451274195e-07,-3.65562630924366e-07,-4.83162826019549e-07,-4.83162826019269e-07,-1.05875737450558e-07,1.05875737449984e-07,8.27978516846382e-08,0,0,0
1647.2064,-6.14194366634523e-09,2.98588341330671e-08,2.37168904667587e-08,-3.73656718122205e-08,1.49228032052411e-08,1.49228032050487e-08,NaN,8.57130491328447e-08,1.47558149641483e-07,2.33751867723164e-07,1.33415116997165e-07,2.3375186772385e-07,-4.79679080759431e-08,9.98146984714641e-08,NaN,7.57035883450488e-07,-4.00320107361787e-07,3.56715776088399e-07,-8.75812348726867e-07,NaN,-3.66255869117871e-08,-2.98580419807412e-07,3.10044098979811e-07,1.14636791725792e-08,8.217363274443e-08,-3.7102407933465e-08,NaN,-6.60612602901213e-08,6.60612602901085e-08,-9.80153947767877e-08,-1.14814816139021e-07,2.76656842365936e-08,-8.7149131902433e-08,-2.25448339563332e-07,1.30559268559509e-08,-2.12392412707463e-07,-1.31518181420271e-07,-2.35659035834491e-07,-2.3565903583453e-07,-2.159362001373e-07,2.65996673847206e-08,-1.89336532752763e-07,7.37889485611734e-07,-2.19991120555106e-07,5.17898365056602e-07,-3.83907401043002e-07,-4.82373476091948e-07,-4.82373476091664e-07,-1.69460101899579e-07,1.69460101899002e-07,8.82058402107181e-08,0,0,0
1647.3088,6.35994679047424e-09,3.8063146918574e-08,4.4423093709079e-08,-2.82559318992703e-08,2.27737023055548e-08,2.27737023053633e-08,NaN,8.57291299819524e-08,1.46853536525399e-07,2.61431368525155e-07,1.18733086924515e-07,2.61431368525847e-07,-4.39950200376643e-08,1.01299220090563e-07,NaN,7.32066676389478e-07,-3.46740623009213e-07,3.85326053379948e-07,-9.43736666806835e-07,NaN,-6.32852779282339e-08,-3.0606690649543e-07,3.20032317227702e-07,1.39654107324508e-08,9.57673587318547e-08,-2.82298490675329e-08,NaN,-6.79736500638752e-08,6.79736500638613e-08,-7.64444632191855e-08,-9.85443059759723e-08,3.03482866220361e-08,-6.81960193539321e-08,-2.23574837939996e-07,1.17488244963634e-08,-2.1182601344372e-07,-1.30129598026216e-07,-2.32725831272834e-07,-2.3272583127287e-07,-2.21171945099419e-07,3.56817542126928e-08,-1.85490190886915e-07,7.25515770584163e-07,-2.13547100607616e-07,5.11968669976519e-07,-3.9957199296592e-07,-4.78641568253013e-07,-4.78641568252725e-07,-2.29715859164863e-07,2.29715859164283e-07,8.89272142290422e-08,0,0,0
1647.4112,1.72499568471568e-08,4.62259806583868e-08,6.34759375055681e-08,-1.60881907875126e-08,3.05466074189731e-08,3.05466074187822e-08,NaN,8.56869868135644e-08,1.46182064807597e-07,2.90067643450743e-07,1.00446340842662e-07,2.90067643451438e-07,-3.86435784093037e-08,1.03109143714566e-07,NaN,7.12910044292292e-07,-3.10469547594907e-07,4.02440496697055e-07,-1.00430290291464e-06,NaN,-8.72440853357377e-08,-3.10905240832885e-07,3.27884679100224e-07,1.69794382675181e-08,1.1194569864197e-07,-1.94678950626324e-08,NaN,-6.94130449575641e-08,6.94130449575488e-08,-5.41027328763131e-08,-8.25077629467873e-08,3.37748500632603e-08,-4.87329128835142e-08,-2.21585465894682e-07,1.04894969850479e-08,-2.11095968909727e-07,-1.26266659117526e-07,-2.28143202946983e-07,-2.28143202947016e-07,-2.23653777030595e-07,4.38683059286835e-08,-1.79785471102105e-07,7.12015712128797e-07,-2.06214063515444e-07,5.05801648613324e-07,-4.1115939795395e-07,-4.71134163844751e-07,-4.71134163844458e-07,-2.83280452173511e-07,2.83280452172933e-07,8.41586224571196e-08,0,0,0
1647.5136,2.66043795192131e-08,5.39674143392046e-08,8.0571793858436e-08,-4.34027619676951e-10,3.80155563679159e-08,3.80155563677258e-08,NaN,8.54986690190353e-08,1.45600759955324e-07,3.19162092711588e-07,7.7919821176534e-08,3.19162092712285e-07,-3.16920108590905e-08,1.05070373269951e-07,NaN,7.02611680567953e-07,-2.95113097299953e-07,4.07498583267658e-07,-1.05533973225438e-06,NaN,-1.07919930290466e-07,-3.12040310309392e-07,3.32602888311235e-07,2.05625780020206e-08,1.31176112513504e-07,-1.10187987063698e-08,NaN,-7.03318525578252e-08,7.03318525578092e-08,-3.14142236009497e-08,-6.71653634894541e-08,3.75959771116199e-08,-2.95693863778121e-08,-2.19369034165708e-07,9.32398304683423e-09,-2.10045051118972e-07,-1.19125551676815e-07,-2.21905414385805e-07,-2.21905414385835e-07,-2.23310265212894e-07,5.10670661501248e-08,-1.72243199062967e-07,6.99296652556042e-07,-1.98897367638372e-07,5.00399284917638e-07,-4.17384065324e-07,-4.59017802142781e-07,-4.59017802142481e-07,-3.27980716341653e-07,3.27980716341079e-07,7.33283502670082e-08,0,0,0
1647.616,3.4647400016976e-08,6.09805656571687e-08,9.56279656741567e-08,1.93737876555188e-08,4.50226751760976e-08,4.50226751759081e-08,NaN,8.50913264068905e-08,1.45154208592768e-07,3.48509779700124e-07,5.0643349097313e-08,3.48509779700821e-07,-2.30182236575252e-08,1.07013247444558e-07,NaN,7.02775330537628e-07,-3.02166936489906e-07,4.00608394047373e-07,-1.09584187419752e-06,NaN,-1.25427015560004e-07,-3.0867561065237e-07,3.33295766470249e-07,2.46201558180535e-08,1.53781828853562e-07,-2.9790719465445e-09,NaN,-7.07074166111478e-08,7.07074166111306e-08,-8.65421750303222e-09,-5.2805519080277e-08,4.149308501096e-08,-1.13124340692867e-08,-2.16818915552427e-07,8.24304058887856e-09,-2.0857587496365e-07,-1.08107406628426e-07,-2.14029453561153e-07,-2.1402945356118e-07,-2.20170547725909e-07,5.72274910367566e-08,-1.62943056689354e-07,6.89331797210137e-07,-1.92553488589272e-07,4.96778308620829e-07,-4.17282657637226e-07,-4.41570646313708e-07,-4.41570646313399e-07,-3.62957922864696e-07,3.6295792286413e-07,5.61962117965289e-08,0,0,0
1647.7184,4.1671561825318e-08,6.70617973720595e-08,1.08733359197383e-07,4.4020047274329e-08,5.14873216295941e-08,5.1487321629405e-08,NaN,8.44235177065775e-08,1.44861655075093e-07,3.7806655573672e-07,1.83544557766295e-08,3.78066555737413e-07,-1.2626189373888e-08,1.08796782359322e-07,NaN,7.13357320315233e-07,-3.30943805299485e-07,3.82413515015393e-07,-1.12581941545978e-06,NaN,-1.40447937931363e-07,-3.00402762641352e-07,3.29309534894198e-07,2.89067722530173e-08,1.79836929331515e-07,4.64663082394771e-09,NaN,-7.05460930403369e-08,7.05460930403174e-08,1.40104554107815e-08,-3.95436173610244e-08,4.5191464267785e-08,5.64784690679866e-09,-2.13850391721028e-07,7.20356312677312e-09,-2.0664682859436e-07,-9.29107195114204e-08,-2.0458065741525e-07,-2.04580657415275e-07,-2.14342486693699e-07,6.23403365424224e-08,-1.52002150151481e-07,6.83798921338964e-07,-1.88009870775201e-07,4.95789050563721e-07,-4.10379509044489e-07,-4.18326739417321e-07,-4.18326739417003e-07,-3.88456535268469e-07,3.88456535267914e-07,3.29151571476223e-08,0,1,0
1647.8208,4.79527737167879e-08,7.21175430879767e-08,1.20070316804763e-07,7.38801672056722e-08,5.7398758678084e-08,5.7398758677895e-08,NaN,8.34960214094643e-08,1.44708367365991e-07,4.07754871564069e-07,-1.88357529298861e-08,4.07754871564756e-07,-6.64620588470116e-10,1.10322946223921e-07,NaN,7.32851085512792e-07,-3.78869906902217e-07,3.53981178610218e-07,-1.14602063532992e-06,NaN,-1.53999503325149e-07,-2.87299872736138e-07,3.20369982222561e-07,3.30701094865902e-08,2.09052911722537e-07,1.19082727058804e-08,NaN,-6.98882500840387e-08,6.98882500840169e-08,3.64307702735979e-08,-2.73498829401086e-08,4.84569105743171e-08,2.11070276342541e-08,-2.10424735228601e-07,6.15567387624438e-09,-2.04269061352464e-07,-7.36117085655315e-08,-1.93702715338432e-07,-1.93702715338452e-07,-2.06014866408022e-07,6.64378783645628e-08,-1.39576988043667e-07,6.83794130131126e-07,-1.85842409649921e-07,4.97951720481157e-07,-3.96792087158339e-07,-3.89222954534346e-07,-3.89222954534015e-07,-4.05401383015955e-07,4.05401383015416e-07,4.04756897570663e-09,0,1,0
1647.9232,5.36828586278111e-08,7.61515919694455e-08,1.29834450597247e-07,1.0870184709196e-07,6.27950933490232e-08,6.27950933488343e-08,NaN,8.23552868898517e-08,1.44641559127366e-07,4.37257917435125e-07,-6.03292836487053e-08,4.37257917435805e-07,1.25656994579621e-08,1.11542518463021e-07,NaN,7.58703943126797e-07,-4.4197672564108e-07,3.16727217485361e-07,-1.15762333739418e-06,NaN,-1.67146383926509e-07,-2.69972459886193e-07,3.0668664713656e-07,3.67141872505291e-08,2.40700920097463e-07,1.88613594252333e-08,NaN,-6.88111706594425e-08,6.88111706594185e-08,5.83831424124688e-08,-1.6094947209381e-08,5.10806548594797e-08,3.49857076501507e-08,-2.06575307900104e-07,5.06443322105047e-09,-2.01510874679162e-07,-5.07080999691858e-08,-1.81646528804607e-07,-1.81646528804623e-07,-1.95485915544743e-07,6.95910940468421e-08,-1.25894821498112e-07,6.89689615468441e-07,-1.8633367782201e-07,5.03355937646375e-07,-3.77255137850512e-07,-3.54725759255507e-07,-3.54725759255163e-07,-4.1495213646544e-07,4.14952136464919e-07,-2.94520478089288e-08,0,1,0
1648.0256,5.89376077425698e-08,7.92379209634657e-08,1.38175528706016e-07,1.47423199933584e-07,6.77340546366384e-08,6.77340546364492e-08,NaN,8.10869981735371e-08,1.4457237164026e-07,4.65865914125642e-07,-1.04959962840985e-07,4.65865914126313e-07,2.66177742648847e-08,1.12449394785693e-07,NaN,7.87764106062824e-07,-5.15410952603906e-07,2.72353153458565e-07,-1.16198919439281e-06,NaN,-1.80725745623627e-07,-2.49515228081969e-07,2.88978934019031e-07,3.94637059372185e-08,2.73608740460046e-07,2.55196560778524e-08,NaN,-6.74274532514509e-08,6.74274532514242e-08,7.95212147837443e-08,-5.58889617966009e-09,5.286854969688e-08,4.72796535172768e-08,-2.02424329558891e-07,3.91763111862526e-09,-1.98506698440376e-07,-2.51029324149443e-08,-1.68795371860667e-07,-1.68795371860677e-07,-1.83205852131595e-07,7.18949056825026e-08,-1.11310946449305e-07,7.01133458064084e-07,-1.8948693392865e-07,5.11646524135369e-07,-3.53048346102146e-07,-3.15916438498718e-07,-3.15916438498359e-07,-4.1821699614939e-07,4.1821699614889e-07,-6.62722697912841e-08,0,0,0
1648.128,6.3680093761149e-08,8.14872081822974e-08,1.45167301943418e-07,1.88214980183079e-07,7.22652002011191e-08,7.22652002009293e-08,NaN,7.98000378589996e-08,1.4438417345497e-07,4.92423868168975e-07,-1.50976986404301e-07,4.92423868169638e-07,4.09219778025703e-08,1.13062860920526e-07,NaN,8.16670743327535e-07,-5.93912897365457e-07,2.22757845961729e-07,-1.1605344083594e-06,NaN,-1.95139729184907e-07,-2.27381939600912e-07,2.68414537867723e-07,4.10325982669612e-08,3.06253883607723e-07,3.18210638724296e-08,NaN,-6.5879902053348e-08,6.58799020533186e-08,9.93917785332376e-08,4.39160898012031e-09,5.36427354357687e-08,5.80343444159499e-08,-1.9817925595699e-07,2.72211538496692e-09,-1.95457140572134e-07,1.98111135675912e-09,-1.5566965385481e-07,-1.55669653854814e-07,-1.69805091892414e-07,7.34421265059555e-08,-9.63629653866739e-08,7.17122817930589e-07,-1.95043148744947e-07,5.22079669185569e-07,-3.25836082256498e-07,-2.74496591471255e-07,-2.7449659147088e-07,-4.16189216389507e-07,4.16189216389029e-07,-1.04810092288871e-07,0,0,0
1648.2304,6.77806558174283e-08,8.30144543701862e-08,1.50795110187577e-07,2.28756211819889e-07,7.64129295194323e-08,7.64129295192417e-08,NaN,7.86043428454277e-08,1.43944170809102e-07,5.1540186489551e-07,-1.96147015731861e-07,5.15401864896165e-07,5.48353206415833e-08,1.13402919786492e-07,NaN,8.42260558169233e-07,-6.72362617102337e-07,1.69897941066554e-07,-1.15469726926969e-06,NaN,-2.10250994434449e-07,-2.05164357377209e-07,2.4647755583749e-07,4.13131984604247e-08,3.36950607281615e-07,3.76135744080431e-08,NaN,-6.43364871026493e-08,6.43364871026167e-08,1.17501507484946e-07,1.40601942612267e-08,5.32522816778926e-08,6.73124759391833e-08,-1.94102259142069e-07,1.49993984966687e-09,-1.92602319292514e-07,2.91551572242335e-08,-1.42883510801307e-07,-1.42883510801304e-07,-1.56076988472361e-07,7.43016690694289e-08,-8.17753194031487e-08,7.36061133672774e-07,-2.02462060542297e-07,5.33599073130394e-07,-2.97436981584507e-07,-2.32666946531989e-07,-2.32666946531598e-07,-4.09812982267023e-07,4.09812982266567e-07,-1.43314406850507e-07,0,0,0
1648.3328,7.10385922460775e-08,8.39098913509697e-08,1.54948483597001e-07,2.6665618101582e-07,8.017211636889e-08,8.01721163686989e-08,NaN,7.75868784673577e-08,1.43113870673935e-07,5.33073132442697e-07,-2.3799527363922e-07,5.33073132443344e-07,6.77167787048601e-08,1.13464080568271e-07,NaN,8.62038233035751e-07,-7.46431139121129e-07,1.15607093914287e-07,-1.14594246869469e-06,NaN,-2.25398298846015e-07,-1.8431938471225e-07,2.24796949360946e-07,4.04775646488339e-08,3.64088905398431e-07,4.26627377902989e-08,NaN,-6.29869450990562e-08,6.2986945099021e-08,1.3339994257395e-07,2.35418583006363e-08,5.15874484810266e-08,7.51293067817318e-08,-1.90456294769646e-07,2.90448037331569e-10,-1.90165846732427e-07,5.50603022146481e-08,-1.31049939388232e-07,-1.31049939388223e-07,-1.42909303073881e-07,7.45154577686595e-08,-6.83938453054403e-08,7.55765566931443e-07,-2.10879089866336e-07,5.44886477065016e-07,-2.69547854610666e-07,-1.92874058631996e-07,-1.92874058631591e-07,-4.00036316340349e-07,4.00036316339915e-07,-1.80120918990617e-07,0,0,0
1648.4352,7.32124351686238e-08,8.42140170593464e-08,1.57426452227917e-07,2.99859819539477e-07,8.35104053141317e-08,8.35104053139402e-08,NaN,7.67907735598762e-08,1.41754984327413e-07,5.43740788915342e-07,-2.74110146921359e-07,5.43740788915979e-07,7.90109647557832e-08,1.13192941579041e-07,NaN,8.74565992154738e-07,-8.13132559368666e-07,6.14334327857441e-08,-1.13574500315912e-06,NaN,-2.39523317760103e-07,-1.65938531600464e-07,2.04976014653351e-07,3.90374830530184e-08,3.86336829826019e-07,4.6676001117864e-08,NaN,-6.20380275231524e-08,6.20380275231147e-08,1.46734430689839e-07,3.27822364866948e-08,4.85886224682584e-08,8.13708589550253e-08,-1.87448401649505e-07,-8.45853900691058e-10,-1.88294255550309e-07,7.85423593494587e-08,-1.20675509629336e-07,-1.20675509629321e-07,-1.31194891249286e-07,7.41123913754943e-08,-5.70824998740116e-08,7.73498732351609e-07,-2.19106197703746e-07,5.54392534647765e-07,-2.43487791484725e-07,-1.57494589724057e-07,-1.57494589723638e-07,-3.87779755274732e-07,3.87779755274318e-07,-2.13895281752252e-07,0,0,0
1648.5376,7.40765493358691e-08,8.39031768669071e-08,1.57979726202716e-07,3.26897136181506e-07,8.63728220661154e-08,8.63728220659246e-08,NaN,7.62035386609878e-08,1.39731538403412e-07,5.45959845426744e-07,-3.02397460842989e-07,5.45959845427369e-07,8.83155914171619e-08,1.12478308341866e-07,NaN,8.79574131712965e-07,-8.71014762891054e-07,8.55936882159115e-09,-1.12551251109627e-06,NaN,-2.51359528251027e-07,-1.5065126063066e-07,1.88457076895897e-07,3.78058162653639e-08,4.02735714419823e-07,4.9338122903277e-08,NaN,-6.17024387633667e-08,6.17024387633263e-08,1.57252795945007e-07,4.14953815779664e-08,4.42424077759926e-08,8.5737789354035e-08,-1.85196982951134e-07,-1.82753321192376e-09,-1.8702451616317e-07,9.87428600717823e-08,-1.12093778360697e-07,-1.12093778360677e-07,-1.21754591121414e-07,7.31238014283435e-08,-4.863078969329e-08,7.8615084625796e-07,-2.25749172976415e-07,5.60401673281442e-07,-2.20054790275048e-07,-1.28556668731086e-07,-1.28556668730657e-07,-3.73835276495232e-07,3.73835276494836e-07,-2.43773515295608e-07,0,0,0
1648.64,7.35046734907888e-08,8.28971222436957e-08,1.5640179573442e-07,3.46957395417739e-07,8.8692018085842e-08,8.86920180856518e-08,NaN,7.57586854392119e-08,1.36914267510905e-07,5.38757912306134e-07,-3.21244931780323e-07,5.38757912306746e-07,9.54208707446539e-08,1.11162843239145e-07,NaN,8.77758682138087e-07,-9.19949043950694e-07,-4.21903618129191e-08,-1.11643545359704e-06,NaN,-2.59619544386372e-07,-1.38668488885008e-07,1.76420737375791e-07,3.77522484909054e-08,4.12711185042166e-07,5.03573425648027e-08,NaN,-6.2177935671524e-08,6.21779356714813e-08,1.64786464434238e-07,4.91899611435417e-08,3.85755725698161e-08,8.77655337134352e-08,-1.83731309630143e-07,-2.5594259205657e-09,-1.8629073555082e-07,1.15105934507839e-07,-1.05449755291149e-07,-1.05449755291124e-07,-1.15271524265705e-07,7.1583154794662e-08,-4.36883694712614e-08,7.90630870377926e-07,-2.29454498527076e-07,5.61176371850745e-07,-1.99538598973472e-07,-1.07551889432855e-07,-1.07551889432417e-07,-3.58760199550923e-07,3.58760199550544e-07,-2.69369194164465e-07,0,0,0
1648.7424,7.15517265969602e-08,8.10961171290368e-08,1.5264784372593e-07,3.59859097702422e-07,9.04096424346053e-08,9.04096424344166e-08,NaN,7.53518676560316e-08,1.3319341200021e-07,5.21864448238612e-07,-3.29633562168462e-07,5.2186444823921e-07,1.00320269664954e-07,1.09077283049196e-07,NaN,8.70387902879339e-07,-9.60676234891599e-07,-9.02883320125625e-08,-1.10929628154443e-06,NaN,-2.63146628261178e-07,-1.29899663619843e-07,1.69698456284931e-07,3.97987926652075e-08,4.16075943623707e-07,4.95235384590098e-08,NaN,-6.36164917605132e-08,6.36164917604694e-08,1.69274253975732e-07,5.52819612742823e-08,3.16678973345597e-08,8.6949858608921e-08,-1.83008012020911e-07,-2.94827260287095e-09,-1.85956284623891e-07,1.27350878118296e-07,-1.0071623496628e-07,-1.00716234966253e-07,-1.12219718939535e-07,6.9506314612748e-08,-4.27134043270014e-08,7.84397826638866e-07,-2.29227915707013e-07,5.55169910931748e-07,-1.81855248671989e-07,-9.53342139775841e-08,-9.53342139771409e-08,-3.42843122715858e-07,3.42843122715494e-07,-2.90692588752635e-07,0,0,0
1648.8448,6.84955201857223e-08,7.84416428566696e-08,1.46937163042324e-07,3.65983580690786e-07,9.1507800475656e-08,9.15078004754697e-08,NaN,7.4868922923076e-08,1.2849975366979e-07,4.95900865577385e-07,-3.27229120099116e-07,4.95900865577966e-07,1.03193631141043e-07,1.06087899874558e-07,NaN,8.58880678810949e-07,-9.94292137474735e-07,-1.35411458664078e-07,-1.10430173567633e-06,NaN,-2.61030547501093e-07,-1.24076815516621e-07,1.68695961520865e-07,4.46191460043615e-08,4.13057897717934e-07,4.67700775550364e-08,NaN,-6.60889134469777e-08,6.60889134469342e-08,1.7083888334271e-07,5.92593666145559e-08,2.36852068117665e-08,8.29445734264019e-08,-1.82924684073611e-07,-2.92477282231862e-09,-1.85849456896037e-07,1.35454453554677e-07,-9.77221167145018e-08,-9.77221167144736e-08,-1.12793771408003e-07,6.68698870859837e-08,-4.59238843222278e-08,7.65971177011946e-07,-2.24722220647636e-07,5.41248956364205e-07,-1.66730618906653e-07,-9.20847604546522e-08,-9.20847604542069e-08,-3.26179720529977e-07,3.26179720529626e-07,-3.08033811226232e-07,0,0,0
1648.9472,6.48204291849221e-08,7.49800964881471e-08,1.39800525673001e-07,3.66195729816263e-07,9.20410640615507e-08,9.20410640613674e-08,NaN,7.42187959799396e-08,1.22827830585335e-07,4.62456584604713e-07,-3.14447186700068e-07,4.62456584605277e-07,1.04367952365378e-07,1.02143468503994e-07,NaN,8.44500805989949e-07,-1.02181788081073e-06,-1.77317074821067e-07,-1.10101432017717e-06,NaN,-2.5270081677951e-07,-1.20848467910176e-07,1.73343656372204e-07,5.24951884621438e-08,4.04329230095148e-07,4.2220392632493e-08,NaN,-6.95550917011609e-08,6.95550917011184e-08,1.69866469170812e-07,6.08311242681065e-08,1.49083128521793e-08,7.57394371203661e-08,-1.83324118935768e-07,-2.46410649297357e-09,-1.85788225428846e-07,1.39654531517219e-07,-9.61846182029468e-08,-9.61846182029194e-08,-1.16870062844727e-07,6.36124749217907e-08,-5.32575879231376e-08,7.35258596002289e-07,-2.16386454700489e-07,5.18872141301698e-07,-1.53872462273869e-07,-9.732569964367e-08,-9.73256996432261e-08,-3.08816373663356e-07,3.08816373663016e-07,-3.21843018709923e-07,0,1,0
1649.0496,6.11519812063081e-08,7.09035272077547e-08,1.32055508413996e-07,3.61741798463134e-07,9.2155582915244e-08,9.21555829150645e-08,NaN,7.33611543347588e-08,1.16254286335944e-07,4.24004634895008e-07,-2.9246176631789e-07,4.24004634895552e-07,1.04267536692499e-07,9.73094638477604e-08,NaN,8.28248113009463e-07,-1.0439551773944e-06,-2.15707064385211e-07,-1.09842315097503e-06,NaN,-2.38001496804495e-07,-1.19828500788574e-07,1.83085382500349e-07,6.32568817118891e-08,3.90998634863566e-07,3.62004739619416e-08,NaN,-7.38499103095222e-08,7.38499103094812e-08,1.67032692210525e-07,6.00037459270607e-08,5.7318019511556e-09,6.57355478782954e-08,-1.83998106320656e-07,-1.59592100516117e-09,-1.85594027325919e-07,1.40457660526989e-07,-9.57446033247193e-08,-9.57446033246934e-08,-1.24021984354559e-07,5.96670566897622e-08,-6.43549276649891e-08,6.93618890646414e-07,-2.05414390250497e-07,4.8820450039582e-07,-1.43102010417857e-07,-1.0997035389841e-07,-1.09970353897971e-07,-2.9086374269038e-07,2.90863742690052e-07,-3.32629852482393e-07,0,1,0
1649.152,5.81640877845062e-08,6.6548898517613e-08,1.24712986302055e-07,3.54109773899432e-07,9.20846435127049e-08,9.20846435125301e-08,NaN,7.23194206637793e-08,1.08946525253867e-07,3.8365086833027e-07,-2.63125150735541e-07,3.83650868330794e-07,1.03364172948113e-07,9.17802189123337e-08,NaN,8.10933257915257e-07,-1.06105632171256e-06,-2.50123063797563e-07,-1.09511468605223e-06,NaN,-2.17225889576448e-07,-1.20600869522724e-07,1.96908571047604e-07,7.6307701524994e-08,3.74540491940224e-07,2.9208970097796e-08,NaN,-7.86912106248016e-08,7.86912106247622e-08,1.6325118747049e-07,5.70734512822052e-08,-3.3767798165329e-09,5.3696671465751e-08,-1.84702599746308e-07,-3.99756802310314e-10,-1.85102356548717e-07,1.38619633078091e-07,-9.60038909960319e-08,-9.60038909960084e-08,-1.33586803143888e-07,5.50092666768673e-08,-7.8577536467202e-08,6.43668358343553e-07,-1.93509502506921e-07,4.50158855836542e-07,-1.34430789134051e-07,-1.28406630249692e-07,-1.28406630249258e-07,-2.72512209225984e-07,2.72512209225666e-07,-3.40894249298842e-07,0,1,0
1649.2544,5.6482335394076e-08,6.23523753729782e-08,1.18834710766993e-07,3.44857957545875e-07,9.21176591209766e-08,9.21176591208074e-08,NaN,7.11753949155163e-08,1.01159237538119e-07,3.44747426886901e-07,-2.28781993320592e-07,3.44747426887405e-07,1.0213120680989e-07,8.58631168951723e-08,NaN,7.93350892480744e-07,-1.07326904290288e-06,-2.79918150422386e-07,-1.08945280807783e-06,NaN,-1.9107333832956e-07,-1.22691630557094e-07,2.1341970387203e-07,9.07280733150498e-08,3.56649279049519e-07,2.18500481296858e-08,NaN,-8.37121446828884e-08,8.37121446828512e-08,1.59549373535574e-07,5.25522822409314e-08,-1.194671591091e-08,4.06055663300999e-08,-1.8518580079491e-07,1.01202124657071e-09,-1.84173779548435e-07,1.3507739954807e-07,-9.65602674950186e-08,-9.65602674949992e-08,-1.44765717765198e-07,4.96960972958402e-08,-9.50696204695306e-08,5.88884257839273e-07,-1.8254097239895e-07,4.06343285440243e-07,-1.28063496269072e-07,-1.50629236074457e-07,-1.50629236074032e-07,-2.5396592338669e-07,2.53965923386382e-07,-3.47087369059594e-07,0,0,0
1649.3568,5.66011861124988e-08,5.87689281019163e-08,1.15370114214357e-07,3.35436894103061e-07,9.25477088857562e-08,9.25477088855924e-08,NaN,7.00481145273408e-08,9.32174408775853e-08,3.10430862080967e-07,-1.91987862276866e-07,3.10430862081453e-07,1.0100023407081e-07,7.99336238074795e-08,NaN,7.76450955247128e-07,-1.08078734083391e-06,-3.04336385587016e-07,-1.07970662534371e-06,NaN,-1.60513600006199e-07,-1.25530197083139e-07,2.3097192868157e-07,1.05441731598547e-07,3.39026075619409e-07,1.47433307687959e-08,NaN,-8.85145445035995e-08,8.85145445035646e-08,1.56897076943127e-07,4.70552892376641e-08,-1.95781480879011e-08,2.74771411498407e-08,-1.85221349321249e-07,2.51688495929811e-09,-1.82704464362043e-07,1.3083283204741e-07,-9.70383397373775e-08,-9.70383397373613e-08,-1.5673731250418e-07,4.38759039006437e-08,-1.12861408603699e-07,5.33062440473193e-07,-1.74167249949742e-07,3.58895190523381e-07,-1.24317797717672e-07,-1.74440657378776e-07,-1.7444065737836e-07,-2.35358721560864e-07,2.35358721560566e-07,-3.51595690626169e-07,0,0,0
1649.4592,5.88220097165222e-08,5.61770109740839e-08,1.1499902069055e-07,3.27031872400411e-07,9.36096259070377e-08,9.36096259068793e-08,NaN,6.90635496541986e-08,8.54856348123573e-08,2.83161527072533e-07,-1.55174464197821e-07,2.83161527073002e-07,1.00317155187104e-07,7.43676830911286e-08,NaN,7.61433269596964e-07,-1.08413670459249e-06,-3.22703434995746e-07,-1.06414052874139e-06,NaN,-1.26594069958976e-07,-1.28432579924236e-07,2.47844153894067e-07,1.19411573969946e-07,3.23129822855857e-07,8.429512664581e-09,NaN,-9.27324804160841e-08,9.27324804160512e-08,1.5602702805679e-07,4.1185612385022e-08,-2.59954288415219e-08,1.51901835435769e-08,-1.84639898922634e-07,4.00198879278367e-09,-1.8063791012994e-07,1.26805836403198e-07,-9.71186898554131e-08,-9.7118689855401e-08,-1.68769369011246e-07,3.77662023886891e-08,-1.31003166622711e-07,4.7970676828658e-07,-1.69489446425908e-07,3.10217321860612e-07,-1.23488168915375e-07,-1.9770874760872e-07,-1.97708747608312e-07,-2.16697956730045e-07,2.16697956729754e-07,-3.5474476318732e-07,0,0,0
1649.5616,6.32141730372907e-08,5.47944400541733e-08,1.18008613091409e-07,3.2044796979668e-07,9.54260257780412e-08,9.5426025777888e-08,NaN,6.83230058385766e-08,7.83261945505933e-08,2.64357051690953e-07,-1.20335155693901e-07,2.64357051691407e-07,1.00295779035578e-07,6.94673202517398e-08,NaN,7.49725074229896e-07,-1.08440278030601e-06,-3.34677706076328e-07,-1.0411331008977e-06,NaN,-9.02556112547436e-08,-1.30631093539248e-07,2.62444527555568e-07,1.31813434016437e-07,3.09958673588296e-07,3.2936441084143e-09,NaN,-9.60893324255095e-08,9.60893324254785e-08,1.57292865817805e-07,3.5464892437055e-08,-3.10639595084689e-08,4.40093292866152e-09,-1.83356955268453e-07,5.376445056956e-09,-1.77980510211584e-07,1.23684638408358e-07,-9.65635542299034e-08,-9.65635542298946e-08,-1.80315636777143e-07,3.16110485464465e-08,-1.48704588230844e-07,4.31494963814704e-07,-1.68810207974575e-07,2.6268475584008e-07,-1.25709479069524e-07,-2.18617112129339e-07,-2.18617112128938e-07,-1.9785586828328e-07,1.97855868282997e-07,-3.56818800729472e-07,0,0,0
1649.664,6.9607361595926e-08,5.46313400632084e-08,1.24238701659078e-07,3.16060443657327e-07,9.79786172542541e-08,9.79786172541055e-08,NaN,6.7877828526473e-08,7.20555273048464e-08,2.54223929926379e-07,-8.88119643027993e-08,2.54223929926823e-07,1.00977217357278e-07,6.54008944428898e-08,NaN,7.42845249036907e-07,-1.0832969370219e-06,-3.40451687985203e-07,-1.00937184556458e-06,NaN,-5.22113798413358e-08,-1.3134018851702e-07,2.73482274661629e-07,1.42142086144728e-07,2.99945199307e-07,-4.73949132972508e-10,NaN,-9.84321872421426e-08,9.84321872421133e-08,1.60609448238955e-07,3.03404076378165e-08,-3.47669902130993e-08,-4.42658257520894e-09,-1.81393392977698e-07,6.57715087701304e-09,-1.74816242100771e-07,1.21811256626704e-07,-9.52292246366133e-08,-9.52292246366083e-08,-1.91083162700375e-07,2.56375962373256e-08,-1.65445566463188e-07,3.89982641062344e-07,-1.71566405999017e-07,2.18416235063286e-07,-1.30869100725766e-07,-2.35827888214115e-07,-2.3582788821372e-07,-1.7861359190522e-07,1.78613591904944e-07,-3.58087707389145e-07,0,0,0
1649.7664,7.76242303069851e-08,5.54944586760059e-08,1.33118688982934e-07,3.13849871191741e-07,1.01113574209304e-07,1.0111357420916e-07,NaN,6.77168231291294e-08,6.69087540746372e-08,2.51847002060409e-07,-6.12282476359923e-08,2.51847002060844e-07,1.02215722330289e-07,6.21766628737587e-08,NaN,7.42207259152732e-07,-1.08299310270179e-06,-3.40785843549261e-07,-9.68092140452601e-07,NaN,-1.29121538721586e-08,-1.29822051258439e-07,2.80058624607089e-07,1.5023657334877e-07,2.93013283107125e-07,-2.87285445154202e-09,NaN,-9.973707506981e-08,9.97370750697821e-08,1.65501493690276e-07,2.62462558902341e-08,-3.71563448298086e-08,-1.09100889395012e-08,-1.78879610288334e-07,7.57208909747737e-09,-1.71307521190941e-07,1.21141477874076e-07,-9.30574579569603e-08,-9.30574579569581e-08,-2.01056696527229e-07,2.00285022126134e-08,-1.81028194314749e-07,3.5558232905517e-07,-1.76426597401372e-07,1.79155731653767e-07,-1.38585913032397e-07,-2.48522485475204e-07,-2.48522485474814e-07,-1.5873584252278e-07,1.58735842522509e-07,-3.58830247455665e-07,0,0,0
1649.8688,8.67463125103398e-08,5.70371454141091e-08,1.43783457924388e-07,3.13514989215346e-07,1.04576088542436e-07,1.04576088542296e-07,NaN,6.77694054134309e-08,6.30186646386911e-08,2.5548889204455e-07,-3.75555406947792e-08,2.55488892044981e-07,1.0370530258779e-07,5.9655382781283e-08,NaN,7.48922356798103e-07,-1.08575712478716e-06,-3.36834767989265e-07,-9.17263931162792e-07,NaN,2.7406201237104e-08,-1.25435614206086e-07,2.81675975482666e-07,1.56240361276701e-07,2.88757821662356e-07,-4.05498306813287e-09,NaN,-1.00091502675335e-07,1.00091502675306e-07,1.71240431037251e-07,2.3649816108531e-08,-3.83027287628184e-08,-1.46529126542156e-08,-1.76033282764886e-07,8.36218223381301e-09,-1.67671100531157e-07,1.21297236553891e-07,-9.0051306085334e-08,-9.00513060853342e-08,-2.10471502875479e-07,1.49150308187518e-08,-1.95556472056855e-07,3.2770488509733e-07,-1.81482887606156e-07,1.4622199749115e-07,-1.48244894985657e-07,-2.56349853188677e-07,-2.56349853188293e-07,-1.38033149235246e-07,1.3803314923498e-07,-3.59335594361115e-07,0,0,0
1649.9712,9.63897544916829e-08,5.88315214622477e-08,1.55221275953867e-07,3.14620713598209e-07,1.08057964429967e-07,1.0805796442983e-07,NaN,6.79205299719354e-08,6.04059725430898e-08,2.62969389739059e-07,-1.72711940789685e-08,2.62969389739487e-07,1.05038730184102e-07,5.75903691499469e-08,NaN,7.63634316685867e-07,-1.09347482125108e-06,-3.29840504565413e-07,-8.57644349862363e-07,NaN,6.86213808246415e-08,-1.17689269392235e-07,2.78203260358211e-07,1.60513990966098e-07,2.8664943973102e-07,-4.27380057134979e-09,NaN,-9.9666058712454e-08,9.96660587124247e-08,1.77007110279277e-07,2.30272236409907e-08,-3.82639618598312e-08,-1.52367382187685e-08,-1.73108295016498e-07,8.97792652405034e-09,-1.64130368492532e-07,1.21697617235315e-07,-8.62522973068998e-08,-8.62522973069017e-08,-2.19737744942023e-07,1.03829872984168e-08,-2.09354757643731e-07,3.04954260580351e-07,-1.84500231239377e-07,1.20454029340958e-07,-1.5906106588733e-07,-2.59334821916673e-07,-2.59334821916291e-07,-1.1639159888496e-07,1.16391598884698e-07,-3.59864396644446e-07,0,0,0
1650.0736,1.05972031970704e-07,6.04352570342033e-08,1.66407289004841e-07,3.16728877344223e-07,1.11240177034855e-07,1.11240177034721e-07,NaN,6.80277565567779e-08,5.89751267455704e-08,2.72008587020853e-07,4.40247554250548e-10,2.72008587021282e-07,1.05779433496675e-07,5.56749631070308e-08,NaN,7.86406684527333e-07,-1.10723896115212e-06,-3.20832276624992e-07,-7.90688232700539e-07,NaN,1.10614293314296e-07,-1.06312056232576e-07,2.69827193866982e-07,1.63515137634528e-07,2.86190503164978e-07,-3.83754598132794e-09,NaN,-9.86829577283649e-08,9.86829577283362e-08,1.8202143321437e-07,2.47676474742555e-08,-3.70737762435965e-08,-1.23061287692665e-08,-1.70326885112092e-07,9.46757923374524e-09,-1.60859305878433e-07,1.21735586968377e-07,-8.17354950946922e-08,-8.17354950946952e-08,-2.29338275406172e-07,6.47944575622342e-09,-2.22858829650071e-07,2.8536725659184e-07,-1.83223979012295e-07,1.02143277579532e-07,-1.7014862489943e-07,-2.57780710426945e-07,-2.57780710426567e-07,-9.37923567409865e-08,9.37923567407266e-08,-3.60574957475476e-07,0,1,0
1650.176,1.14965079751115e-07,6.14375155318161e-08,1.76402595282862e-07,3.19480251618127e-07,1.13821370316023e-07,1.13821370315891e-07,NaN,6.79336572615869e-08,5.85166893794709e-08,2.80487355336325e-07,1.64846908935987e-08,2.80487355336758e-07,1.05533278811429e-07,5.35841060236318e-08,NaN,8.16697568541737e-07,-1.12714325912562e-06,-3.10445690584087e-07,-7.1837111634593e-07,NaN,1.53194508907363e-07,-9.13220973066035e-08,2.56995245664967e-07,1.65673148358487e-07,2.87007279635492e-07,-3.07413866447317e-09,NaN,-9.73840904605147e-08,9.7384090460485e-08,1.85615041874361e-07,2.90604463681435e-08,-3.47467880813403e-08,-5.68634171312075e-09,-1.67821175939059e-07,9.88078804639483e-09,-1.57940387892751e-07,1.20955484255275e-07,-7.66245997377328e-08,-7.66245997377371e-08,-2.3973449320765e-07,3.21581599826769e-09,-2.36518677209503e-07,2.66722187761188e-07,-1.75713650890135e-07,9.10085368710434e-08,-1.80579040629141e-07,-2.52174974563301e-07,-2.52174974562927e-07,-7.03513562795338e-08,7.03513562792763e-08,-3.61454767725871e-07,0,1,0
1650.2784,1.22935301088727e-07,6.14880294577032e-08,1.84423330546359e-07,3.22627196914412e-07,1.15537349379693e-07,1.15537349379563e-07,NaN,6.74767487602644e-08,5.87259922423456e-08,2.86639528084645e-07,3.16951367702498e-08,2.86639528085082e-07,1.0401471801495e-07,5.1011521160358e-08,NaN,8.53436764859628e-07,-1.1523283638554e-06,-2.98891598995975e-07,-6.42989255981946e-07,NaN,1.96089441198131e-07,-7.30609301364056e-08,2.40355856317204e-07,1.67294926180922e-07,2.88892493046915e-07,-2.30332592450372e-09,NaN,-9.60003231416085e-08,9.60003231415781e-08,1.87256401085612e-07,3.58390885869004e-08,-3.12960036256605e-08,4.5430849613172e-09,-1.65611183779135e-07,1.02577054052851e-08,-1.55353478373938e-07,1.19174718565891e-07,-7.1108176762901e-08,-7.11081767629078e-08,-2.51303478878269e-07,5.72235879016374e-10,-2.50731242999373e-07,2.46904650122174e-07,-1.60642019904931e-07,8.62626302172339e-08,-1.89417597263252e-07,-2.43095380586347e-07,-2.43095380585976e-07,-4.63731551505925e-08,4.63731551503364e-08,-3.62304278000842e-07,0,1,0
1650.3808,1.29570767015204e-07,6.03253794706825e-08,1.89896146485813e-07,3.26038219590968e-07,1.16184382201867e-07,1.16184382201738e-07,NaN,6.6510531593091e-08,5.9246971094976e-08,2.89214043156099e-07,4.67341077248807e-08,2.89214043156539e-07,1.01102372205978e-07,4.77123652472945e-08,NaN,8.95165700616385e-07,-1.18120028918602e-06,-2.86034588569841e-07,-5.66959947552819e-07,NaN,2.3900132534922e-07,-5.21851416884328e-08,2.20713007614935e-07,1.68527865926625e-07,2.91814185914336e-07,-1.80520419778794e-09,NaN,-9.47263417487823e-08,9.47263417487519e-08,1.86558161633517e-07,4.48199094126409e-08,-2.67576247255682e-08,1.8062284687153e-08,-1.6362737942212e-07,1.06319512046167e-08,-1.52995428217592e-07,1.16508287719158e-07,-6.5430879945626e-08,-6.54308799456363e-08,-2.64297923558379e-07,-1.49325895128278e-09,-2.65791182509781e-07,2.24286193630158e-07,-1.37515526258816e-07,8.67706673713351e-08,-1.95740140996748e-07,-2.31121462398023e-07,-2.31121462397656e-07,-2.23722829331644e-08,2.23722829329096e-08,-3.62790631956732e-07,0,0,0
1650.4832,1.34695979273899e-07,5.78139100595535e-08,1.9250988933338e-07,3.2969591656245e-07,1.15651410257273e-07,1.15651410257146e-07,NaN,6.4933899965662e-08,5.97357295894707e-08,2.87613809780954e-07,6.20578450133879e-08,2.87613809781395e-07,9.68745257211129e-08,4.35523433362975e-08,NaN,9.40187293141779e-07,-1.21172067700091e-06,-2.71533383859335e-07,-4.92609005916648e-07,NaN,2.81707834613839e-07,-2.96229488154107e-08,1.99003849947237e-07,1.6938090113195e-07,2.95900389422128e-07,-1.78192975137413e-09,NaN,-9.3706053940285e-08,9.37060539402561e-08,1.83290465563299e-07,5.56027359833116e-08,-2.12138571353002e-08,3.43888788480944e-08,-1.61760543715403e-07,1.10465299719614e-08,-1.5071401374353e-07,1.13305834975171e-07,-5.98530325798121e-08,-5.98530325798266e-08,-2.78804986443857e-07,-3.03669209895716e-09,-2.81841678542931e-07,1.98027101930046e-07,-1.06773705095355e-07,9.12533968346839e-08,-1.98650975089707e-07,-2.16770920154561e-07,-2.16770920154198e-07,9.77921797141517e-10,-9.77921797395098e-10,-3.62550830296117e-07,0,0,0
1650.5856,1.38270973407733e-07,5.39779139695261e-08,1.92248887377187e-07,3.33689224873027e-07,1.13948965099878e-07,1.13948965099753e-07,NaN,6.27219781789825e-08,5.9922356943686e-08,2.81955321435242e-07,7.79187202461754e-08,2.81955321435682e-07,9.16113115377126e-08,3.85465094160949e-08,NaN,9.86732844267927e-07,-1.24175014938401e-06,-2.55017305116279e-07,-4.2194960146736e-07,NaN,3.2415642650961e-07,-6.49159631780816e-09,1.76275128450537e-07,1.69783532132852e-07,3.01401427732529e-07,-2.32530961154054e-09,NaN,-9.30295138819832e-08,9.3029513881956e-08,1.77396851521249e-07,6.77644120535746e-08,-1.48053869411256e-08,5.29590251125324e-08,-1.59911777560574e-07,1.15718615626798e-08,-1.48339915997983e-07,1.10049534804516e-07,-5.45976996149553e-08,-5.45976996149741e-08,-2.94702090261938e-07,-4.13176013551049e-09,-2.98833850397562e-07,1.68162047561367e-07,-6.96990148546091e-08,9.84630327067523e-08,-1.97330325415605e-07,-2.00481349752989e-07,-2.00481349752631e-07,2.29701180660538e-08,-2.29701180663057e-08,-3.61304075069762e-07,0,0,0
1650.688,1.40367280386445e-07,4.90102823942865e-08,1.89377562780664e-07,3.38184242972244e-07,1.11215762767861e-07,1.11215762767736e-07,NaN,5.99410008198708e-08,5.96484114767058e-08,2.72977345784882e-07,9.43934583825216e-08,2.72977345785318e-07,8.57558987217774e-08,3.28673085231504e-08,NaN,1.03319517152406e-06,-1.26945537208501e-06,-2.36260200561144e-07,-3.5649153946132e-07,NaN,3.66500196951098e-07,1.60385319145485e-08,1.53614805130166e-07,1.69653337044838e-07,3.08628176559846e-07,-3.40828808788062e-09,NaN,-9.27372846138643e-08,9.27372846138394e-08,1.68999317444785e-07,8.09059662118836e-08,-7.73189323180286e-09,7.31740729801669e-08,-1.58025155286061e-07,1.23128449453213e-08,-1.45712310340828e-07,1.07250077682417e-07,-4.98085231880021e-08,-4.98085231880254e-08,-3.11634446508608e-07,-4.88871976951189e-09,-3.16523166278232e-07,1.35365178366176e-07,-2.80980219969371e-08,1.07267156369233e-07,-1.91125251874261e-07,-1.82635984624677e-07,-1.82635984624324e-07,4.30464391110154e-08,-4.30464391112652e-08,-3.58937754214046e-07,0,0,0
1650.7904,1.41117095549458e-07,4.32448675898884e-08,1.84361963139283e-07,3.43364758839503e-07,1.07695591618886e-07,1.07695591618763e-07,NaN,5.67406475503393e-08,5.88711384744437e-08,2.61791174044061e-07,1.11430162801251e-07,2.61791174044488e-07,7.98422376586182e-08,2.68177202807952e-08,NaN,1.07841122955248e-06,-1.29370032123543e-06,-2.15289091683136e-07,-2.97135677455732e-07,NaN,4.0904092947587e-07,3.69193664655749e-08,1.32025980381822e-07,1.6894534684752e-07,3.17865245319408e-07,-4.90661983833013e-09,NaN,-9.2827130900726e-08,9.28271309007035e-08,1.58389310089599e-07,9.46561659222917e-08,-2.45648055428044e-10,9.44105178669499e-08,-1.56099363196819e-07,1.33982081453709e-08,-1.42701155051535e-07,1.05354964687516e-07,-4.55287184411918e-08,-4.55287184412198e-08,-3.29032778059369e-07,-5.47744713987674e-09,-3.34510225199354e-07,1.00466517113182e-07,1.61567329242416e-08,1.16623250037418e-07,-1.79669017601517e-07,-1.63610757980637e-07,-1.63610757980288e-07,6.10074735156033e-08,-6.10074735158499e-08,-3.55546444363113e-07,0,0,0
1650.8928,1.40645677237707e-07,3.71010374919886e-08,1.77746714729638e-07,3.49349510683758e-07,1.03692043350781e-07,1.03692043350661e-07,NaN,5.33295643099109e-08,5.76409195469434e-08,2.49548016466914e-07,1.28889652478119e-07,2.49548016467329e-07,7.44112257678592e-08,2.07815961812038e-08,NaN,1.12188503537544e-06,-1.31428086406541e-06,-1.92395828690145e-07,-2.44200747433538e-07,NaN,4.52073832144372e-07,5.53891326152883e-08,1.12283084803978e-07,1.6767221741939e-07,3.29261682793463e-07,-6.64194378774669e-09,NaN,-9.32600538541294e-08,9.32600538541102e-08,1.46004401964735e-07,1.08648797147472e-07,7.35570417209747e-09,1.16004501319654e-07,-1.54181936169446e-07,1.49532159949829e-08,-1.39228720174547e-07,1.04683228651216e-07,-4.17026786831521e-08,-4.17026786831851e-08,-3.46164097352435e-07,-6.13710930531638e-09,-3.52301206657854e-07,6.39617855590845e-08,6.15263055493862e-08,1.25488091108466e-07,-1.62987640727469e-07,-1.43824337239319e-07,-1.43824337238974e-07,7.71642494957308e-08,-7.71642494959732e-08,-3.51416617256032e-07,0,0,0
1650.9952,1.39011408769887e-07,3.10171126533655e-08,1.70028521423203e-07,3.56100361630819e-07,9.9515076255948e-08,9.95150762558301e-08,NaN,4.99443256384566e-08,5.60685206378952e-08,2.37131939618859e-07,1.46561961712572e-07,2.37131939619257e-07,6.99382733933699e-08,1.51661510787932e-08,NaN,1.16384698382853e-06,-1.33193975888593e-06,-1.6809277505757e-07,-1.97571056535134e-07,NaN,4.95687862658579e-07,7.10761293374508e-08,9.48278948665939e-08,1.65904024204168e-07,3.42711366411727e-07,-8.42968780254457e-09,NaN,-9.39654910086916e-08,9.39654910086748e-08,1.32388531874604e-07,1.22496353492741e-07,1.47373573984084e-08,1.37233710891233e-07,-1.52354991523984e-07,1.70632175956792e-08,-1.35291773928387e-07,1.05390650180211e-07,-3.81966321609733e-08,-3.81966321610123e-08,-3.62200736031903e-07,-7.16555754651631e-09,-3.69366293578514e-07,2.57386562472477e-08,1.06998607948458e-07,1.32737264195703e-07,-1.41551917455062e-07,-1.23785610797263e-07,-1.23785610796924e-07,9.23456060077383e-08,-9.23456060079751e-08,-3.46965302822106e-07,0,0,0
