time,S1-D1,S1-D8,S1-D9,S1-D15,S2-D1,S2-D2,S2-D3,S2-D9,S3-D1,S3-D2,S3-D16,S4-D2,S4-D3,S4-D5,S5-D3,S5-D4,S5-D5,S6-D2,S6-D5,S6-D17,S7-D6,S7-D7,S8-D6,S8-D7,S8-D18,S9-D3,S9-D4,S9-D9,S9-D11,S9-D19,S10-D8,S10-D9,S10-D10,S10-D11,S11-D8,S11-D10,S11-D20,S12-D10,S12-D11,S12-D12,S13-D4,S13-D11,S13-D12,S14-D10,S14-D12,S14-D21,S15-D13,S15-D14,S16-D13,S16-D14,S16-D22,SART_Target,SART_NonTarget,SART_Probe
3157.2992,2.08678096946484e-07,3.37159468363208e-07,5.45837565309644e-07,3.80776636600096e-07,-6.41114441414143e-08,-6.41114441413725e-08,NaN,1.84801245917305e-07,4.00806027064842e-07,1.42305677852635e-07,7.13421201916388e-08,1.42305677852828e-07,-9.87669913828763e-08,-3.61292142933025e-08,-1.34896205676163e-07,NaN,NaN,3.94102006349098e-07,9.90947668633467e-09,-2.8006153060896e-07,9.90947668627186e-09,-2.93193593993568e-07,7.993336028651e-07,NaN,2.15346717061413e-07,5.10115573146893e-08,NaN,-4.3888350040962e-08,4.38883500407776e-08,-1.61142657526686e-07,6.48392578053908e-08,-6.17446183929784e-08,NaN,NaN,-1.96120832633041e-07,-4.29390191447289e-07,4.14812749281826e-07,-1.36542444384367e-07,-1.36542444384362e-07,2.27342487497923e-07,-2.14584791445403e-08,NaN,NaN,6.31106310683161e-08,6.30402680881754e-07,NaN,-1.02897924588453e-06,1.50087460822631e-08,-9.16138147451789e-08,9.16138147454147e-08,-1.20433932387298e-07,0,1,0
3157.4016,1.64247882337758e-07,3.06147809172075e-07,4.70395691509787e-07,4.02852254187188e-07,-5.59732454033386e-08,-5.59732454032903e-08,NaN,1.60674163769315e-07,3.14392335370792e-07,1.55426579377217e-07,6.69676244452338e-08,1.55426579377411e-07,-9.17661771681213e-08,-3.6007133084465e-08,-1.27773310252569e-07,NaN,NaN,3.81884595916339e-07,1.74267730372157e-08,-2.97909229033399e-07,1.74267730371525e-08,-2.69680085606791e-07,7.82765834061551e-07,NaN,2.12984336596941e-07,4.71798429736146e-08,NaN,-4.09783227564297e-08,4.09783227562435e-08,-1.50719961524541e-07,6.55481943861364e-08,-6.2865398301469e-08,NaN,NaN,-1.99476041387953e-07,-4.36743417709798e-07,4.14662425669396e-07,-1.27726343893917e-07,-1.2772634389391e-07,2.28285070840983e-07,-2.21530307443322e-08,NaN,NaN,5.89700668515872e-08,6.15357926747065e-07,NaN,-9.77569667162951e-07,-8.24192388513936e-09,-6.87370738001901e-08,6.87370738004282e-08,-1.19567807286346e-07,0,1,0
3157.504,1.26308969950052e-07,2.77252952455816e-07,4.03561922405823e-07,4.19502437228569e-07,-4.93136470191139e-08,-4.93136470190603e-08,NaN,1.32214881882158e-07,2.18657971050315e-07,1.61565204076644e-07,5.89726446951076e-08,1.61565204076842e-07,-8.55558347265873e-08,-3.33293376864484e-08,-1.18885172413018e-07,NaN,NaN,3.73238749165676e-07,2.72359092913095e-08,-3.16372227031269e-07,2.72359092912465e-08,-2.41465830536745e-07,7.48425068538168e-07,NaN,2.09331559194294e-07,4.36672422117709e-08,NaN,-3.97235893618043e-08,3.97235893616156e-08,-1.42465458851502e-07,6.37126210792102e-08,-6.34205334484565e-08,NaN,NaN,-2.00822603223942e-07,-4.40584304951558e-07,4.13474491378165e-07,-1.19192506895292e-07,-1.19192506895284e-07,2.22554258689462e-07,-2.28939226456065e-08,NaN,NaN,5.6304372551214e-08,5.96740314071869e-07,NaN,-8.82222548117286e-07,-4.54938999722898e-08,-3.79032936130364e-08,3.79032936132777e-08,-1.16803418069677e-07,0,1,0
3157.6064,9.53560545095894e-08,2.51091294996919e-07,3.46447349506463e-07,4.31146275979514e-07,-4.37581442943648e-08,-4.37581442943089e-08,NaN,1.00524812404104e-07,1.17054164496271e-07,1.6110499354328e-07,4.77583395668888e-08,1.61104993543481e-07,-8.06974556425009e-08,-2.83468873151885e-08,-1.09044342957671e-07,NaN,NaN,3.68002211981143e-07,3.86063098217115e-08,-3.34109617493291e-07,3.86063098216487e-08,-2.08839486622789e-07,6.97829972099752e-07,NaN,2.04395458235086e-07,4.04127717839521e-08,NaN,-4.01751779142995e-08,4.01751779141076e-08,-1.36850003922961e-07,5.98019910989622e-08,-6.35080223483136e-08,NaN,NaN,-2.00513805466666e-07,-4.41384251881729e-07,4.10925807420987e-07,-1.10929540371487e-07,-1.10929540371478e-07,2.11013603153503e-07,-2.36435874517645e-08,NaN,NaN,5.52257466402204e-08,5.76170764244004e-07,NaN,-7.50212219890724e-07,-9.45867739475083e-08,-1.27754253592688e-09,1.27754253617188e-09,-1.12525508341784e-07,0,0,0
3157.7088,7.10329965547603e-08,2.28019718424677e-07,2.99052714979389e-07,4.38373792296295e-07,-3.88226673877217e-08,-3.88226673876656e-08,NaN,6.67954801871958e-08,1.30578846618709e-08,1.54825678927299e-07,3.40087576552471e-08,1.54825678927504e-07,-7.75368878451049e-08,-2.15541431417842e-08,-9.90910309868713e-08,NaN,NaN,3.65551327034627e-07,5.05119453687124e-08,-3.49937445573368e-07,5.05119453686497e-08,-1.73112536409847e-07,6.33942761607107e-07,NaN,1.98261860731352e-07,3.73459411374351e-08,NaN,-4.21559227175759e-08,4.21559227173806e-08,-1.34150099110291e-07,5.43915081693875e-08,-6.32393646644546e-08,NaN,NaN,-1.98978559650788e-07,-4.39733659303301e-07,4.06672194761336e-07,-1.02820759900042e-07,-1.02820759900033e-07,1.94795117007708e-07,-2.43808282537212e-08,NaN,NaN,5.56379533235961e-08,5.54931200984162e-07,NaN,-5.91522938828369e-07,-1.52199492659468e-07,3.84810853458197e-08,-3.84810853455705e-08,-1.0715127237864e-07,0,0,0
3157.8112,5.23373632623761e-08,2.08153061389403e-07,2.60490424651728e-07,4.41846028640031e-07,-3.40009981376267e-08,-3.40009981375717e-08,NaN,3.22296971277144e-08,-9.00021063859357e-08,1.43751507357233e-07,1.85833982214637e-08,1.43751507357442e-07,-7.62149371577737e-08,-1.36141362840371e-08,-8.98290734417934e-08,NaN,NaN,3.64909165605838e-07,6.17565374575183e-08,-3.62874860221015e-07,6.17565374574559e-08,-1.36415515329535e-07,5.60854549212429e-07,NaN,1.91065994155524e-07,3.4394495822191e-08,NaN,-4.53066747545127e-08,4.53066747543135e-08,-1.34450379971571e-07,4.809211253813e-08,-6.27268979398782e-08,NaN,NaN,-1.96673490863002e-07,-4.36278454535516e-07,4.00381259691691e-07,-9.46804668067035e-08,-9.4680466806695e-08,1.75162347978329e-07,-2.50977729588097e-08,NaN,NaN,5.72875211176325e-08,5.33957490616976e-07,NaN,-4.17628251840302e-07,-2.1427782686052e-07,7.84711558337311e-08,-7.84711558334777e-08,-1.01103685035171e-07,0,0,0
3157.9136,3.79125678718825e-08,1.91387790956417e-07,2.29300358828246e-07,4.42213022813055e-07,-2.88171671389514e-08,-2.88171671388994e-08,NaN,-2.0627778352942e-09,-1.89118203756483e-07,1.29014059682503e-07,2.38699184259434e-09,1.29014059682717e-07,-7.6719357189933e-08,-5.23926804180346e-09,-8.195862523172e-08,NaN,NaN,3.64897356641881e-07,7.11274268632561e-08,-3.72077832082808e-07,7.11274268631937e-08,-1.01382365127947e-07,4.8332224755787e-07,NaN,1.82980767106851e-07,3.14936195508967e-08,NaN,-4.91769005084127e-08,4.91769005082092e-08,-1.37651644358237e-07,4.14852038858987e-08,-6.20742569464896e-08,NaN,NaN,-1.94051628350356e-07,-4.31666543291081e-07,3.9176105316126e-07,-8.6304260287672e-08,-8.63042602876641e-08,1.53411095038338e-07,-2.57992068381448e-08,NaN,NaN,5.98260754813816e-08,5.13879769507704e-07,NaN,-2.40148538181588e-07,-2.76546244693703e-07,1.1585823278324e-07,-1.15858232782983e-07,-9.48318604519338e-08,0,0,0
3158.016,2.63345998350537e-08,1.77434761364805e-07,2.03769361199801e-07,4.40068157403113e-07,-2.28516432206377e-08,-2.285164322059e-08,NaN,-3.51495308675319e-08,-2.81706331418179e-07,1.11747726954534e-07,-1.37412210827792e-08,1.11747726954752e-07,-7.89534594555261e-08,2.93318962675148e-09,-7.60202698287591e-08,NaN,NaN,3.64287726254584e-07,7.75405582877131e-08,-3.76727160280215e-07,7.75405582876512e-08,-7.08236969513221e-08,4.06287439107933e-07,NaN,1.74217512082322e-07,2.85959618711049e-08,NaN,-5.33255786028427e-08,5.33255786026347e-08,-1.43494434606498e-07,3.50747714658144e-08,-6.13697060992889e-08,NaN,NaN,-1.91542268231545e-07,-4.2650200552832e-07,3.80574773484371e-07,-7.75232129790106e-08,-7.75232129790031e-08,1.30809495426513e-07,-2.6503649111067e-08,NaN,NaN,6.2867190298568e-08,4.95074421759442e-07,NaN,-6.97471596784284e-08,-3.34974962715282e-07,1.4814975064314e-07,-1.48149750642878e-07,-8.8855593417129e-08,0,0,0
3158.1184,1.63297950541161e-08,1.65867541427175e-07,1.8219733648123e-07,4.35946937718474e-07,-1.57542763732761e-08,-1.57542763732339e-08,NaN,-6.63095180474695e-08,-3.65641956565438e-07,9.30011947369683e-08,-2.90972550080914e-08,9.30011947371889e-08,-8.27941936816574e-08,1.0431550994001e-08,-7.23626426876423e-08,NaN,NaN,3.61932891308802e-07,8.01520092134091e-08,-3.75958260561385e-07,8.01520092133479e-08,-4.74677947723219e-08,3.34454186647071e-07,NaN,1.65019889486483e-07,2.56802710737718e-08,NaN,-5.73986440515738e-08,5.73986440513609e-08,-1.51604443842003e-07,2.92601754417762e-08,-6.06835349819984e-08,NaN,NaN,-1.89529556929793e-07,-4.21304167649729e-07,3.66640340094836e-07,-6.82455941979258e-08,-6.82455941979187e-08,1.08546875666101e-07,-2.72439855642782e-08,NaN,NaN,6.60322081944521e-08,4.77709703501556e-07,NaN,8.45755229820019e-08,-3.86128507213731e-07,1.733597479214e-07,-1.73359747921135e-07,-8.37825148424129e-08,0,0,0
3158.2208,6.9152479221541e-09,1.56193811241895e-07,1.63109059163984e-07,4.30359303456818e-07,-7.25906913581796e-09,-7.25906913578238e-09,NaN,-9.50213993800336e-08,-4.39282686132698e-07,7.36553539832661e-08,-4.31428358343166e-08,7.36553539834902e-08,-8.81156540230971e-08,1.69807085943688e-08,-7.11349454287159e-08,NaN,NaN,3.56880718693261e-07,7.84357885487064e-08,-3.68893697462572e-07,7.84357885486456e-08,-3.37909642189595e-08,2.71951973834659e-07,NaN,1.55637554350964e-07,2.27576495880948e-08,NaN,-6.11619738209692e-08,6.11619738207513e-08,-1.61551022488989e-07,2.43252358094373e-08,-6.00693693984631e-08,NaN,NaN,-1.88320742388732e-07,-4.16469454807267e-07,3.49818621977423e-07,-5.84719842963545e-08,-5.84719842963474e-08,8.76721872110801e-08,-2.80651122185172e-08,NaN,NaN,6.89887156597012e-08,4.61788972879354e-07,NaN,2.15852621602015e-07,-4.27395058379876e-07,1.90059533103488e-07,-1.90059533103219e-07,-8.02695126448162e-08,0,0,0
3158.3232,-2.51896387799062e-09,1.47943894109005e-07,1.45424930230946e-07,4.23826056922386e-07,2.78742635248508e-09,2.78742635251263e-09,NaN,-1.20930657419324e-07,-5.01516176522093e-07,5.43631402904243e-08,-5.55098084930037e-08,5.43631402906517e-08,-9.4768552998807e-08,2.24705013791689e-08,-7.22980516196277e-08,NaN,NaN,3.48482468444003e-07,7.22431101576586e-08,-3.54787791153091e-07,7.22431101575987e-08,-3.18966175150284e-08,2.22080471617707e-07,NaN,1.46282742635276e-07,1.98755089328519e-08,NaN,-6.44892234653521e-08,6.44892234651289e-08,-1.7290113922355e-07,2.04378735810814e-08,-5.95672312450624e-08,NaN,NaN,-1.8810754168671e-07,-4.12240112962058e-07,3.29996266258719e-07,-4.82774624640155e-08,-4.82774624640076e-08,6.90294738426442e-08,-2.90173139599861e-08,NaN,NaN,7.14843990332852e-08,4.47199680914392e-07,NaN,3.1934579606942e-07,-4.5713341449816e-07,1.97371297294249e-07,-1.97371297293978e-07,-7.89387365330919e-08,0,0,0
3158.4256,-1.21713423456454e-08,1.40754134900125e-07,1.28582792554408e-07,4.16881528758456e-07,1.43858189781016e-08,1.43858189781199e-08,NaN,-1.43812860205263e-07,-5.51834106028459e-07,3.55407576925143e-08,-6.5994756001784e-08,3.55407576927446e-08,-1.02525081046442e-07,2.68784861282208e-08,-7.56465949182132e-08,NaN,NaN,3.36492549502167e-07,6.1854477441865e-08,-3.33246947910974e-07,6.18544774418062e-08,-4.33408788720066e-08,1.87075677112486e-07,NaN,1.37089148157821e-07,1.71172644295732e-08,NaN,-6.73199196255492e-08,6.73199196253206e-08,-1.85255666395708e-07,1.76555352044321e-08,-5.92054881970943e-08,NaN,NaN,-1.88935062759682e-07,-4.0869021430354e-07,3.07073195899608e-07,-3.77709231470095e-08,-3.77709231470002e-08,5.32056996428478e-08,-3.01455410092026e-08,NaN,NaN,7.33746765378777e-08,4.33765696644609e-07,NaN,3.92729226926639e-07,-4.74777865823709e-07,1.94983022528285e-07,-1.94983022528013e-07,-8.027711809394e-08,0,1,0
3158.528,-2.18345777023824e-08,1.34422274718201e-07,1.12587697015744e-07,4.1002133185486e-07,2.73465490986328e-08,2.73465490986425e-08,NaN,-1.63534597599224e-07,-5.90402233006581e-07,1.74263550874353e-08,-7.45549926337913e-08,1.74263550876667e-08,-1.11013485725894e-07,3.01754742455667e-08,-8.0838011480321e-08,NaN,NaN,3.21141651613977e-07,4.8014283634288e-08,-3.04462209690233e-07,4.80142836342304e-08,-6.88050707373758e-08,1.67812776377083e-07,NaN,1.28096196984035e-07,1.45939695841227e-08,NaN,-6.96086765010465e-08,6.96086765008123e-08,-1.98265774079013e-07,1.59326656026382e-08,-5.89995924919318e-08,NaN,NaN,-1.90691829417399e-07,-4.0573501205676e-07,2.80973720236492e-07,-2.70577671519416e-08,-2.70577671519308e-08,4.04974727655701e-08,-3.14759105495987e-08,NaN,NaN,7.46401931365072e-08,4.21291179096548e-07,NaN,4.363260866281e-07,-4.80912265744141e-07,1.83227271163797e-07,-1.83227271163523e-07,-8.4551993696054e-08,0,1,0
3158.6304,-3.09537266261534e-08,1.28923523924275e-07,9.79697972980432e-08,4.03615151787938e-07,4.12743688584828e-08,4.12743688584832e-08,NaN,-1.80013488022912e-07,-6.18074806282821e-07,1.80011504566997e-10,-8.13028016967537e-08,1.80011504799197e-10,-1.19680432280116e-07,3.22506087576585e-08,-8.74298235224533e-08,NaN,NaN,3.03149598771627e-07,3.19091660093712e-08,-2.69370937452768e-07,3.1909166009315e-08,-1.07667453323721e-07,1.63485849245894e-07,NaN,1.1926611942822e-07,1.24272982414193e-08,NaN,-7.12873113241672e-08,7.12873113239273e-08,-2.11634529912808e-07,1.51303303188508e-08,-5.89477214016813e-08,NaN,NaN,-1.93124477014382e-07,-4.03160245983304e-07,2.5170084744615e-07,-1.62247307868025e-08,-1.62247307867887e-08,3.09006828677897e-08,-3.30027970471958e-08,NaN,NaN,7.5387302280872e-08,4.09586248250794e-07,NaN,4.53237941373604e-07,-4.77262708525361e-07,1.63171627869062e-07,-1.63171627868788e-07,-9.17673579681579e-08,0,1,0
3158.7328,-3.87377508253484e-08,1.24389297895774e-07,8.56515470703442e-08,3.97835343699993e-07,5.55919624718235e-08,5.55919624718135e-08,NaN,-1.93190262520243e-07,-6.36298859705801e-07,-1.60298043922655e-08,-8.6482681882427e-08,-1.60298043920329e-08,-1.27818004278458e-07,3.28918478349132e-08,-9.49261564435438e-08,NaN,NaN,2.83642892396106e-07,1.50461189856504e-08,-2.29668814073387e-07,1.50461189855961e-08,-1.57729737322528e-07,1.71492607302486e-07,NaN,1.10520359396901e-07,1.0729127869294e-08,NaN,-7.22565493278413e-08,7.22565493275955e-08,-2.2511046874937e-07,1.50330150220486e-08,-5.90256164284669e-08,NaN,NaN,-1.95874292211141e-07,-4.00666577281159e-07,2.19419902756592e-07,-5.34007512021115e-09,-5.34007512019368e-09,2.41350150196299e-08,-3.46812555839945e-08,NaN,NaN,7.58243653429155e-08,3.98472640486687e-07,NaN,4.49070403706311e-07,-4.66521199504035e-07,1.36604254897005e-07,-1.3660425489673e-07,-1.01666623508427e-07,0,0,0
3158.8352,-4.43052974193989e-08,1.21058588922438e-07,7.67532915029547e-08,3.92640014940834e-07,6.96102936969522e-08,6.96102936969323e-08,NaN,-2.03024441100726e-07,-6.46888295754777e-07,-3.09882152575892e-08,-9.04202016741027e-08,-3.09882152573576e-08,-1.34660931334547e-07,3.18315850666659e-08,-1.02829346267882e-07,NaN,NaN,2.6397240976688e-07,-9.72234349343908e-10,-1.87639181854284e-07,-9.72234349396067e-10,-2.15365876677756e-07,1.87767136179434e-07,NaN,1.01775868118202e-07,9.58485918243285e-09,NaN,-7.24090376878709e-08,7.24090376876188e-08,-2.38477934575346e-07,1.53782183627014e-08,-5.9184516338048e-08,NaN,NaN,-1.98534124952364e-07,-3.97929162946527e-07,1.84516100842978e-07,5.54634192146257e-09,5.54634192148413e-09,1.97131928266257e-08,-3.64281530191719e-08,NaN,NaN,7.62138871527948e-08,3.87777012281574e-07,NaN,4.31100039031343e-07,-4.51959773397231e-07,1.05845216214509e-07,-1.05845216214234e-07,-1.13771583827693e-07,0,0,0
3158.9376,-4.6833363558948e-08,1.1921261186397e-07,7.23792483049347e-08,3.87813063749336e-07,8.26303680549625e-08,8.2630368054933e-08,NaN,-2.09507814643495e-07,-6.51708379765637e-07,-4.44419076492985e-08,-9.34475164170107e-08,-4.44419076490688e-08,-1.39521947186151e-07,2.8829748049515e-08,-1.10692199136639e-07,NaN,NaN,2.4547517287158e-07,-1.47207784721917e-08,-1.45831353850624e-07,-1.47207784722419e-08,-2.76129236911896e-07,2.07578652159039e-07,NaN,9.2968390069887e-08,9.04455593710182e-09,NaN,-7.16703727256403e-08,7.16703727253818e-08,-2.51547541614321e-07,1.58994236276349e-08,-5.93567685227358e-08,NaN,NaN,-2.00721625900273e-07,-3.94669673508663e-07,1.47579095875036e-07,1.64019797081173e-08,1.64019797081441e-08,1.70449401013272e-08,-3.81324309099847e-08,NaN,NaN,7.6810549725919e-08,3.77330294797303e-07,NaN,4.07011243423397e-07,-4.36894352461653e-07,7.34128543214607e-08,-7.34128543211836e-08,-1.27437452860974e-07,0,0,0
3159.04,-4.56808760564276e-08,1.1910527316719e-07,7.34243971106722e-08,3.83043159987926e-07,9.40398612758088e-08,9.40398612757692e-08,NaN,-2.12679161498891e-07,-6.52357743037326e-07,-5.61329426091847e-08,-9.58250189535786e-08,-5.61329426089558e-08,-1.41922068546147e-07,2.37534016253598e-08,-1.18168666920791e-07,NaN,NaN,2.29252680400772e-07,-2.51975455156467e-08,-1.06675419193941e-07,-2.51975455156945e-08,-3.35603913198658e-07,2.26544196024223e-07,NaN,8.40568167026114e-08,9.12204235013898e-09,NaN,-7.00391856649231e-08,7.00391856646581e-08,-2.64153333961753e-07,1.63747127228831e-08,-5.94702932474767e-08,NaN,NaN,-2.02151806298553e-07,-3.90724047980908e-07,1.09318702565931e-07,2.71948070952885e-08,2.71948070953204e-08,1.55494111937031e-08,-3.9672183736156e-08,NaN,NaN,7.78013951453973e-08,3.66989346053245e-07,NaN,3.83521364785829e-07,-4.24132014852927e-07,4.16294455296558e-08,-4.1629445529377e-08,-1.41904146141408e-07,0,0,0
3159.1424,-4.04690505455754e-08,1.20906137708204e-07,8.04370871625355e-08,3.78016849167554e-07,1.0337054057205e-07,1.03370540572001e-07,NaN,-2.12629745987216e-07,-6.49937173375582e-07,-6.58335286755618e-08,-9.76826484117437e-08,-6.58335286753337e-08,-1.41681144768543e-07,1.66267940600814e-08,-1.25054350708467e-07,NaN,NaN,2.16030801464106e-07,-3.19797686505956e-08,-7.2146504155978e-08,-3.19797686506415e-08,-3.90201692680182e-07,2.41498835784998e-07,NaN,7.5011909128905e-08,9.79978270505786e-09,NaN,-6.76081267779519e-08,6.76081267776803e-08,-2.76162586607086e-07,1.66668639617755e-08,-5.94663956017587e-08,NaN,NaN,-2.02683937247466e-07,-3.86080950613482e-07,7.04551452800417e-08,3.78575225447137e-08,3.78575225447514e-08,1.4752789504892e-08,-4.09338746397919e-08,NaN,NaN,7.9264384078565e-08,3.56675013410012e-07,NaN,3.6525829284746e-07,-4.15548158548897e-07,1.22646662518761e-08,-1.22646662515943e-08,-1.56341228888321e-07,0,0,0
3159.2448,-3.11128944540934e-08,1.24669506771999e-07,9.35566123178107e-08,3.72490565721047e-07,1.10308100274347e-07,1.1030810027429e-07,NaN,-2.09499692753448e-07,-6.4495514034421e-07,-7.33580913032179e-08,-9.8997887621715e-08,-7.33580913029901e-08,-1.38941584841357e-07,7.64154872273813e-09,-1.31300036118625e-07,NaN,NaN,2.06131626333489e-07,-3.52515975370953e-08,-4.35687368013472e-08,-3.52515975371394e-08,-4.37665874273125e-07,2.50952046693474e-07,NaN,6.58050650732114e-08,1.1037012643287e-08,NaN,-6.45524850194167e-08,6.45524850191388e-08,-2.87492080158771e-07,1.67419035417191e-08,-5.93120110833756e-08,NaN,NaN,-2.02327804540406e-07,-3.8087642612779e-07,3.16304523881503e-08,4.82530538501587e-08,4.82530538502024e-08,1.43566419659183e-08,-4.18277240377569e-08,NaN,NaN,8.11555260182278e-08,3.4639922871972e-07,NaN,3.5419177355774e-07,-4.1189736856278e-07,-1.36818005287983e-08,1.36818005290841e-08,-1.69904580573305e-07,0,0,0
3159.3472,-1.78108231775832e-08,1.30334342214535e-07,1.12523519036855e-07,3.66311383382704e-07,1.14671081263876e-07,1.14671081263813e-07,NaN,-2.03467327076895e-07,-6.37364736278444e-07,-7.85490266881943e-08,-9.96126324866907e-08,-7.85490266879667e-08,-1.34115024560535e-07,-2.87400813176877e-09,-1.36989032692311e-07,NaN,NaN,1.9954032861417e-07,-3.57020730066637e-08,-2.1586198048218e-08,-3.57020730067064e-08,-4.77188430322e-07,2.55050119468712e-07,NaN,5.64128390120809e-08,1.27794579499738e-08,NaN,-6.1086892913414e-08,6.10868929131297e-08,-2.98115924083482e-07,1.6661590644496e-08,-5.90006667318443e-08,NaN,NaN,-2.01211226728892e-07,-3.7534866632285e-07,-6.63133990109055e-09,5.8166728920347e-08,5.81667289203967e-08,1.42643335566631e-08,-4.2295128043737e-08,NaN,NaN,8.33246449373235e-08,3.36255940376733e-07,NaN,3.49719554530541e-07,-4.12870229598484e-07,-3.60041814680765e-08,3.60041814683666e-08,-1.81822924745952e-07,0,0,0
3159.4496,-1.006253153501e-09,1.37746925697826e-07,1.36740672544226e-07,3.59387676564872e-07,1.16381941587782e-07,1.16381941587712e-07,NaN,-1.94732134094685e-07,-6.26691028795419e-07,-8.12660339988335e-08,-9.9275760102964e-08,-8.12660339986043e-08,-1.27778633480362e-07,-1.45103428397289e-08,-1.42288976320099e-07,NaN,NaN,1.9601329474556e-07,-3.43411154025554e-08,-6.25333930602491e-09,-3.43411154025969e-08,-5.09213946184074e-07,2.55157169704417e-07,NaN,4.68345175893563e-08,1.49687692760448e-08,NaN,-5.74097257800458e-08,5.74097257797552e-08,-3.08058267564799e-07,1.65554930415068e-08,-5.85447120302673e-08,NaN,NaN,-1.9952386848737e-07,-3.69773399096516e-07,-4.39154696960581e-08,6.73311024136514e-08,6.73311024137077e-08,1.45535758991374e-08,-4.23087447109612e-08,NaN,NaN,8.55499250631569e-08,3.26377092336773e-07,NaN,3.49228927848918e-07,-4.17302972034792e-07,-5.51702604403353e-08,5.51702604406301e-08,-1.91497475670907e-07,0,0,0
3159.552,1.86625648183166e-08,1.46681923006353e-07,1.65344487824569e-07,3.51635136661808e-07,1.15445901665191e-07,1.15445901665117e-07,NaN,-1.83498985831422e-07,-6.12212138232281e-07,-8.14194444100666e-08,-9.76944415029639e-08,-8.14194444098367e-08,-1.20575597369758e-07,-2.6823476836634e-08,-1.473990742064e-07,NaN,NaN,1.95172031715342e-07,-3.23035506581489e-08,2.84510575164392e-09,-3.23035506581887e-08,-5.35053968225725e-07,2.5323271905161e-07,NaN,3.71048909801641e-08,1.75479424111488e-08,NaN,-5.36640579606908e-08,5.36640579603944e-08,-3.17377289589541e-07,1.65837560371309e-08,-5.7968504363495e-08,NaN,NaN,-1.97463253012681e-07,-3.64413561468411e-07,-7.98870066674715e-08,7.54699918945572e-08,7.54699918946201e-08,1.53928210702154e-08,-4.1869475011791e-08,NaN,NaN,8.75776664269087e-08,3.16881430601405e-07,NaN,3.48827866699957e-07,-4.23416649535319e-07,-7.21582667500211e-08,7.21582667503201e-08,-1.98552509847032e-07,0,0,0
3159.6544,4.04146878989391e-08,1.5683772287078e-07,1.97252410769619e-07,3.42924126150957e-07,1.11941602170028e-07,1.11941602169951e-07,NaN,-1.69981010329292e-07,-5.93181523031933e-07,-7.90521018277377e-08,-9.45870397778381e-08,-7.90521018275068e-08,-1.1316107419624e-07,-3.93444335966283e-08,-1.52505507792876e-07,NaN,NaN,1.96561562313108e-07,-3.06860689938806e-08,6.50899480509907e-09,-3.0686068993919e-08,-5.56361549254114e-07,2.51118787095294e-07,NaN,2.72914989411089e-08,2.0459266241496e-08,NaN,-4.99343319383233e-08,4.99343319380216e-08,-3.26148361860409e-07,1.68998739807558e-08,-5.73094590518904e-08,NaN,NaN,-1.95207574128738e-07,-3.59509546332409e-07,-1.14271770060721e-07,8.23461252356732e-08,8.23461252357428e-08,1.69220762580272e-08,-4.10039842524878e-08,NaN,NaN,8.91581370552052e-08,3.07843676144185e-07,NaN,3.44071951432376e-07,-4.29039386984166e-07,-8.82953539855871e-08,8.82953539858901e-08,-2.02790368678636e-07,0,1,0
3159.7568,6.33885021566753e-08,1.67807814455674e-07,2.31196316612248e-07,3.33049913646793e-07,1.06014535989903e-07,1.06014535989823e-07,NaN,-1.54432371203431e-07,-5.69085152180171e-07,-7.44232433160664e-08,-8.97403207188499e-08,-7.44232433158352e-08,-1.06194479614633e-07,-5.1549362176975e-08,-1.57743841791616e-07,NaN,NaN,1.99695449504893e-07,-3.04182452759546e-08,5.868201124745e-09,-3.04182452759917e-08,-5.74493125542695e-07,2.49804385467927e-07,NaN,1.74824934793803e-08,2.36356893758671e-08,NaN,-4.6276229364187e-08,4.62762293638803e-08,-3.34449618595723e-07,1.76173153309544e-08,-5.66232908510434e-08,NaN,NaN,-1.9291712919489e-07,-3.55302863261819e-07,-1.46848834867666e-07,8.78023708556392e-08,8.78023708557153e-08,1.91416310666742e-08,-3.97639801605199e-08,NaN,NaN,9.00751473877693e-08,2.99286781017564e-07,NaN,3.30686401675325e-07,-4.31846338813831e-07,-1.05078154947857e-07,1.05078154948163e-07,-2.04092294369145e-07,0,1,0
3159.8592,8.67241963348877e-08,1.79055481876392e-07,2.65779678211179e-07,3.21742864971193e-07,9.78577625352089e-08,9.78577625351274e-08,NaN,-1.37198751373511e-07,-5.39899497273845e-07,-6.80387224819234e-08,-8.30699602401844e-08,-6.80387224816917e-08,-1.00348638955532e-07,-6.28149694929088e-08,-1.63163608448448e-07,NaN,NaN,2.04121083706196e-07,-3.21499189833051e-08,2.30755674210216e-09,-3.21499189833409e-08,-5.89871052335646e-07,2.48783164776595e-07,NaN,7.77560839007433e-09,2.69908137028316e-08,NaN,-4.27595812334855e-08,4.27595812331741e-08,-3.42353901060182e-07,1.8780900231789e-08,-5.59841963787594e-08,NaN,NaN,-1.90742720329635e-07,-3.52058914722603e-07,-1.77429231478398e-07,9.1787392617452e-08,9.17873926175342e-08,2.18475528866922e-08,-3.82266595417961e-08,NaN,NaN,9.01695630558175e-08,2.91179563441851e-07,NaN,3.05281369488303e-07,-4.29644760443387e-07,-1.23966523248898e-07,1.23966523249206e-07,-2.02360857733732e-07,0,1,0
3159.9616,1.09653146284562e-07,1.89923969827515e-07,2.99577116111977e-07,3.0872376642297e-07,8.76746849513475e-08,8.76746849512648e-08,NaN,-1.1875675755157e-07,-5.06276696050701e-07,-6.06137249698552e-08,-7.46699435184384e-08,-6.06137249696237e-08,-9.6300575832636e-08,-7.2397265423299e-08,-1.68697841255943e-07,NaN,NaN,2.0950212930505e-07,-3.61552756874152e-08,-2.67238419805007e-09,-3.61552756874498e-08,-6.01547636879436e-07,2.45704852074128e-07,NaN,-1.72894703690543e-09,3.04133467854368e-08,NaN,-3.95001434937366e-08,3.95001434934209e-08,-3.49931201044555e-07,2.0345645074696e-08,-5.54746487040346e-08,NaN,NaN,-1.88819496404753e-07,-3.50057459555682e-07,-2.05807269977259e-07,9.43583415946667e-08,9.43583415947546e-08,2.46235645624181e-08,-3.64939216620462e-08,NaN,NaN,8.93560187474694e-08,2.83426084450594e-07,NaN,2.6595091399668e-07,-4.20677617778239e-07,-1.4617167276497e-07,1.4617167276528e-07,-1.97554003947899e-07,0,0,0
3160.064,1.31564719523173e-07,1.99700614731417e-07,3.3126533425449e-07,2.93792744849304e-07,7.56369426609207e-08,7.56369426608354e-08,NaN,-9.97202109904588e-08,-4.69577089027884e-07,-5.29959413352122e-08,-6.48302012630345e-08,-5.29959413349801e-08,-9.46814188251162e-08,-7.94675818897212e-08,-1.74149000714845e-07,NaN,NaN,2.15672886137409e-07,-4.22790092411224e-08,-7.6529817121492e-09,-4.22790092411558e-08,-6.07172512248398e-07,2.36547561033036e-07,NaN,-1.09342436655174e-08,3.3769897328643e-08,NaN,-3.66626201837757e-08,3.66626201834559e-08,-3.57256166296669e-07,2.21690390493792e-08,-5.51665675238255e-08,NaN,NaN,-1.87241338301829e-07,-3.49540723614163e-07,-2.31701069739215e-07,9.56638931358134e-08,9.56638931359063e-08,2.68794607736053e-08,-3.46873032735473e-08,NaN,NaN,8.76305846866781e-08,2.75852117156099e-07,NaN,2.12595626421053e-07,-4.03884887404184e-07,-1.72465503475679e-07,1.72465503475989e-07,-1.89784452575693e-07,0,0,0
3160.1664,1.52031858542936e-07,2.07725697893559e-07,3.59757556436396e-07,2.76924592915698e-07,6.1858219011586e-08,6.18582190114984e-08,NaN,-8.08060456044763e-08,-4.31713416888509e-07,-4.60806797133178e-08,-5.40106046759299e-08,-4.60806797130848e-08,-9.59874778729952e-08,-8.32179156244812e-08,-1.79205393497485e-07,NaN,NaN,2.22621989497756e-07,-4.99534813226135e-08,-1.14908742535983e-08,-4.99534813226461e-08,-6.03440463449345e-07,2.16394452494967e-07,NaN,-1.97525698563467e-08,3.69170946546301e-08,NaN,-3.44305043937161e-08,3.44305043933927e-08,-3.64405447298385e-07,2.4023629092829e-08,-5.5101456469742e-08,NaN,NaN,-1.86026574968322e-07,-3.50636108745614e-07,-2.54711542363461e-07,9.592117611094e-08,9.5921176111037e-08,2.79252367576392e-08,-3.29379401525671e-08,NaN,NaN,8.50669150506212e-08,2.6820665772798e-07,NaN,1.46852344676225e-07,-3.79049409152958e-07,-2.03045978211692e-07,2.03045978212002e-07,-1.7942578626649e-07,0,0,0
3160.2688,1.70795601031593e-07,2.13510507139844e-07,3.84306108171338e-07,2.58336152591378e-07,4.63988233465416e-08,4.63988233464536e-08,NaN,-6.27591009040227e-08,-3.94834854039599e-07,-4.07292610793743e-08,-4.27748803360578e-08,-4.07292610791408e-08,-1.00479673970285e-07,-8.30163187055245e-08,-1.83495992675819e-07,NaN,NaN,2.30403748614931e-07,-5.82974423156431e-08,-1.34271594865759e-08,-5.82974423156747e-08,-5.86890793312678e-07,1.80606658795836e-07,NaN,-2.81116796557579e-08,3.97203968465165e-08,NaN,-3.29557414923401e-08,3.29557414920132e-08,-3.71434884323184e-07,2.56328864068417e-08,-5.52793159232646e-08,NaN,NaN,-1.85094658459886e-07,-3.53292713048446e-07,-2.74328002640772e-07,9.5395779241569e-08,9.53957792416686e-08,2.70695818506972e-08,-3.13737146598065e-08,NaN,NaN,8.18016656554844e-08,2.60193868686006e-07,NaN,7.16169677825338e-08,-3.46767510125145e-07,-2.37502290979431e-07,2.37502290979738e-07,-1.67171008704896e-07,0,0,0
3160.3712,1.87727837150271e-07,2.16825214756522e-07,4.04553051906696e-07,2.38498492164314e-07,2.93028259208024e-08,2.93028259207142e-08,NaN,-4.62426617303587e-08,-3.60925990385062e-07,-3.7685799024236e-08,-3.169883937607e-08,-3.76857990240016e-08,-1.08110177044004e-07,-7.85639510666617e-08,-1.86674128110677e-07,NaN,NaN,2.39016311830356e-07,-6.62770015784436e-08,-1.30712898734622e-08,-6.62770015784738e-08,-5.54810034117837e-07,1.26002799667841e-07,NaN,-3.59619035183788e-08,4.20748283842659e-08,NaN,-3.23145178582658e-08,3.23145178579356e-08,-3.78343384712331e-07,2.67242656024881e-08,-5.56618240598356e-08,NaN,NaN,-1.84270221594843e-07,-3.57267217663482e-07,-2.90001240018132e-07,9.43800818445214e-08,9.43800818446231e-08,2.37317178295907e-08,-3.01066607117436e-08,NaN,NaN,7.80135703628457e-08,2.51535945597999e-07,NaN,-9.73670643096945e-09,-3.08233155776051e-07,-2.7490780265357e-07,2.74907802653875e-07,-1.54013240139251e-07,0,0,0
3160.4736,2.02806432371969e-07,2.17732564900418e-07,4.20538997272289e-07,2.18082716663183e-07,1.06543385849496e-08,1.06543385848613e-08,NaN,-3.17183557318041e-08,-3.31413521386819e-07,-3.74821705191723e-08,-2.12720185668077e-08,-3.74821705189366e-08,-1.18508519070261e-07,-6.9992704479663e-08,-1.88501223549936e-07,NaN,NaN,2.48302348904605e-07,-7.288462933608e-08,-1.02741343037694e-08,-7.28846293361089e-08,-5.06038864243625e-07,5.17548420647223e-08,NaN,-4.32818827923545e-08,4.39241734019523e-08,NaN,-3.24949324143834e-08,3.24949324140496e-08,-3.85041854032051e-07,2.7085270692361e-08,-5.61869289246779e-08,NaN,NaN,-1.83314694815344e-07,-3.62163451346727e-07,-3.01276548042438e-07,9.31603613812357e-08,9.31603613813384e-08,1.75633991247781e-08,-2.92232851821115e-08,NaN,NaN,7.38992822814741e-08,2.42048924825347e-07,NaN,-9.42545251574866e-08,-2.64884536800969e-07,-3.14031380322753e-07,3.14031380323054e-07,-1.41157237079384e-07,0,0,0
3160.576,2.16124357711681e-07,2.16563451142187e-07,4.3268780885377e-07,1.97847002246395e-07,-9.36944642220291e-09,-9.36944642229098e-09,NaN,-1.93504718990975e-08,-3.06869128978765e-07,-4.03295081058213e-08,-1.18132524022002e-08,-4.03295081055844e-08,-1.31036893690211e-07,-5.78625288619439e-08,-1.8889942255217e-07,NaN,NaN,2.57914121629371e-07,-7.72903598275214e-08,-4.94670552002139e-09,-7.72903598275484e-08,-4.41560113963641e-07,-4.01025078789156e-08,NaN,-5.00752950644211e-08,4.52762974686674e-08,NaN,-3.34243019282123e-08,3.34243019278753e-08,-3.91343132336465e-07,2.66075945660168e-08,-5.67862459223082e-08,NaN,NaN,-1.81970041665729e-07,-3.67501045522067e-07,-3.07938252473795e-07,9.19735743716788e-08,9.19735743717809e-08,8.57480604539818e-09,-2.87789615309423e-08,NaN,NaN,6.96468184820307e-08,2.31703431039971e-07,NaN,-1.80190864016043e-07,-2.18010871720673e-07,-3.53612250823222e-07,3.5361225082352e-07,-1.29898844857341e-07,0,0,0
3160.6784,2.2791432419251e-07,2.13849916393465e-07,4.41764240585876e-07,1.78494879910036e-07,-3.04683494935151e-08,-3.04683494936035e-08,NaN,-8.96331600207942e-09,-2.86878493388282e-07,-4.60205936903515e-08,-3.41692327189855e-09,-4.60205936901135e-08,-1.44894618203558e-07,-4.30655169550307e-08,-1.87960135158606e-07,NaN,NaN,2.67348612130943e-07,-7.89412456049155e-08,3.09262847865706e-09,-7.89412456049406e-08,-3.64747474593559e-07,-1.44598484187578e-07,NaN,-5.63527678838724e-08,4.62099733019969e-08,NaN,-3.50173929810491e-08,3.50173929807089e-08,-3.96976337956993e-07,2.53096154616878e-08,-5.73969283787104e-08,NaN,NaN,-1.79996892548491e-07,-3.72783273341349e-07,-3.10096348677562e-07,9.09702526184824e-08,9.09702526185833e-08,-2.76787869237263e-09,-2.87958808520145e-08,NaN,NaN,6.54084110036843e-08,2.20645248743357e-07,NaN,-2.67496513856763e-07,-1.68434889222342e-07,-3.92617404863327e-07,3.92617404863621e-07,-1.21509665380622e-07,0,0,0
3160.7808,2.38542840660617e-07,2.10241567262735e-07,4.48784407923253e-07,1.60554596230175e-07,-5.22231900611579e-08,-5.2223190061247e-08,NaN,-6.43957776574093e-11,-2.70112441991413e-07,-5.38912687366674e-08,4.06184600816884e-09,-5.38912687364287e-08,-1.59233179132951e-07,-2.66857231071759e-08,-1.85918902240147e-07,NaN,NaN,2.76023104715634e-07,-7.76115557682274e-08,1.41701801488687e-08,-7.76115557682508e-08,-2.81175310762112e-07,-2.54250448994363e-07,NaN,-6.21046839476797e-08,4.68675821846603e-08,NaN,-3.72131148376415e-08,3.72131148372979e-08,-4.01617192230126e-07,2.33347103387257e-08,-5.79650993354523e-08,NaN,NaN,-1.77198495669331e-07,-3.77547043913732e-07,-3.0816472504057e-07,9.02075786112926e-08,9.02075786113922e-08,-1.55266083946155e-08,-2.92641510764173e-08,NaN,NaN,6.12756172653929e-08,2.0916380595878e-07,NaN,-3.57920295220677e-07,-1.16354786438779e-07,-4.30420869288794e-07,4.30420869289085e-07,-1.1714561018632e-07,0,0,0
3160.8832,2.4844532430871e-07,2.06426237362121e-07,4.54871561670732e-07,1.44327549995136e-07,-7.41329052075268e-08,-7.41329052076186e-08,NaN,8.06896311927521e-09,-2.54587996932992e-07,-6.28791517902261e-08,1.09808897937944e-08,-6.28791517899865e-08,-1.73248482264895e-07,-9.87047810876656e-09,-1.83118960373684e-07,NaN,NaN,2.83352562471191e-07,-7.34158757342267e-08,2.86889857789838e-08,-7.3415875734248e-08,-1.97983457785882e-07,-3.5998820599404e-07,NaN,-6.72808221058884e-08,4.74335532189507e-08,NaN,-3.99780146624644e-08,3.99780146621174e-08,-4.04925540414005e-07,2.0928873107704e-08,-5.84439528593264e-08,NaN,NaN,-1.73433402121673e-07,-3.81394781358573e-07,-3.02741404815631e-07,8.96848187539173e-08,8.96848187540158e-08,-2.83937039517462e-08,-3.0145846406156e-08,NaN,NaN,5.72617277154411e-08,1.97619894892571e-07,NaN,-4.54722692260004e-07,-6.13782777986283e-08,-4.66881297927599e-07,4.66881297927885e-07,-1.1777066370557e-07,0,0,0
3160.9856,2.58020557942065e-07,2.03063876196854e-07,4.61084434138818e-07,1.29922128677216e-07,-9.56707636291602e-08,-9.56707636292547e-08,NaN,1.62553342576789e-08,-2.3805972119567e-07,-7.16773181328635e-08,1.78436069731085e-08,-7.16773181326224e-08,-1.86237886326917e-07,6.25830177721926e-09,-1.79979584549723e-07,NaN,NaN,2.88807828144535e-07,-6.67866715201081e-08,4.69732055969031e-08,-6.6786671520127e-08,-1.22893420028072e-07,-4.5245303074139e-07,NaN,-7.17917629876228e-08,4.81056694301021e-08,NaN,-4.32789168439526e-08,4.32789168436017e-08,-4.06588626463073e-07,1.84026681985056e-08,-5.8790776387617e-08,NaN,NaN,-1.68624479857119e-07,-3.84015421355512e-07,-2.94469126544563e-07,8.94043877473354e-08,8.94043877474325e-08,-3.98986062807496e-08,-3.13798304641196e-08,NaN,NaN,5.33018128756396e-08,1.86367101056867e-07,NaN,-5.62001375794925e-07,-2.74829982925443e-09,-5.02307233737369e-07,5.02307233737651e-07,-1.24069523292753e-07,0,1,0
3161.088,2.67531064649467e-07,2.00731811135201e-07,4.68262875784567e-07,1.17345306387299e-07,-1.1633820909706e-07,-1.1633820909716e-07,NaN,2.52524854685072e-08,-2.18452869642321e-07,-7.89392679383785e-08,2.5196518031739e-08,-7.89392679381372e-08,-1.97627840372748e-07,2.06598662018454e-08,-1.7696797417093e-07,NaN,NaN,2.91956067712711e-07,-5.84082641145746e-08,6.90763835976298e-08,-5.84082641145907e-08,-6.30450790859872e-08,-5.23418085623808e-07,NaN,-7.55348737252432e-08,4.906772823459e-08,NaN,-4.70445937242117e-08,4.70445937238571e-08,-4.06369639188557e-07,1.60815969953053e-08,-5.89643427170051e-08,NaN,NaN,-1.62767261333147e-07,-3.85198932404242e-07,-2.83963108659886e-07,8.94210259350763e-08,8.94210259351726e-08,-4.86591799338781e-08,-3.28843252639724e-08,NaN,NaN,4.92796729695684e-08,1.75700172873992e-07,NaN,-6.83659114028377e-07,6.02773599502163e-08,-5.37306009831431e-07,5.37306009831708e-07,-1.36338518453898e-07,0,1,0
3161.1904,2.77043610895782e-07,1.99871836918073e-07,4.76915447813754e-07,1.06596264899068e-07,-1.35701179179535e-07,-1.35701179179639e-07,NaN,3.56111020314619e-08,-1.94238534313603e-07,-8.34692231017236e-08,3.35111698556888e-08,-8.34692231014825e-08,-2.06983000190524e-07,3.2421593107109e-08,-1.74561407083446e-07,NaN,NaN,2.92495199089089e-07,-4.91087511304191e-08,9.46086289391751e-08,-4.91087511304327e-08,-2.38748675927235e-08,-5.67020791654287e-07,NaN,-7.84310442404364e-08,5.04681142569749e-08,NaN,-5.11383836830623e-08,5.11383836827041e-08,-4.0415152790888e-07,1.42522804981054e-08,-5.89228870130371e-08,NaN,NaN,-1.55936317307602e-07,-3.84847828554086e-07,-2.7183006510162e-07,8.98507887175242e-08,8.98507887176206e-08,-5.36024700767001e-08,-3.45575330648618e-08,NaN,NaN,4.50765622085826e-08,1.65835741952294e-07,NaN,-8.22193180863596e-07,1.2799213770723e-07,-5.7253850751126e-07,5.72538507511534e-07,-1.54382633299227e-07,0,1,0
3161.2928,2.8641526472192e-07,2.00733048070976e-07,4.87148312792793e-07,9.77113760489782e-08,-1.5340666012433e-07,-1.53406660124439e-07,NaN,4.75779742115574e-08,-1.64657177636901e-07,-8.43437579937121e-08,4.30818043474106e-08,-8.43437579934724e-08,-2.14005914981907e-07,4.08161124126546e-08,-1.73189802569286e-07,NaN,NaN,2.90289354378304e-07,-3.97299224382444e-08,1.22646261820668e-07,-3.97299224382554e-08,-8.28188746978073e-09,-5.80536980405891e-07,NaN,-8.04485035815681e-08,5.24051018840941e-08,NaN,-5.53554261508726e-08,5.53554261505105e-08,-3.99956658910975e-07,1.31179335795026e-08,-5.86240244207754e-08,NaN,NaN,-1.48288504052394e-07,-3.82989843797197e-07,-2.58728764665702e-07,9.08413123296245e-08,9.08413123297221e-08,-5.40975849116964e-08,-3.62804225051764e-08,NaN,NaN,4.06203410562011e-08,1.56909244768156e-07,NaN,-9.77659404290507e-07,1.99896412017773e-07,-6.08437863184535e-07,6.08437863184804e-07,-1.77467850017084e-07,0,0,0
3161.3952,2.95315656214457e-07,2.03318368446549e-07,4.98634024660903e-07,9.07440754812871e-08,-1.69183901737381e-07,-1.69183901737494e-07,NaN,6.10772964988863e-08,-1.29741112168639e-07,-8.09596048989631e-08,5.39688315073829e-08,-8.09596048987242e-08,-2.18537268656526e-07,4.5372733900453e-08,-1.73164534756108e-07,NaN,NaN,2.85398501078385e-07,-3.10033712282806e-08,1.51785058220232e-07,-3.10033712282886e-08,-1.62859982820214e-08,-5.64537597758117e-07,NaN,-8.15986222091327e-08,5.49185366737079e-08,NaN,-5.9448409005971e-08,5.94484090056052e-08,-3.93927616519925e-07,1.27757432681346e-08,-5.80284679156137e-08,NaN,NaN,-1.40059133423104e-07,-3.7978793905199e-07,-2.45393924947153e-07,9.2526390146152e-08,9.25263901462516e-08,-4.99820966090713e-08,-3.79256237009817e-08,NaN,NaN,3.59118182461487e-08,1.48976507834212e-07,NaN,-1.14720313936494e-06,2.74572396340343e-07,-6.44979453957377e-07,6.44979453957641e-07,-2.0436197882968e-07,0,0,0
3161.4976,3.03275786037226e-07,2.07353539434772e-07,5.10629325471895e-07,8.57042307294338e-08,-1.82834293012e-07,-1.82834293012117e-07,NaN,7.57675801870707e-08,-9.01647642951356e-08,-7.30448481765317e-08,6.60009249072041e-08,-7.30448481762943e-08,-2.20563104718695e-07,4.59496112184436e-08,-1.74613493500288e-07,NaN,NaN,2.78085516765666e-07,-2.34574423818161e-08,1.80347279320998e-07,-2.34574423818221e-08,-4.52335925246854e-08,-5.22443312288459e-07,NaN,-8.19110132831448e-08,5.79879272891905e-08,NaN,-6.31761443085664e-08,6.31761443081968e-08,-3.86274499773664e-07,1.3218823245092e-08,-5.71076028142337e-08,NaN,NaN,-1.3154487958745e-07,-3.75534802251016e-07,-2.3257787865973e-07,9.49881553688545e-08,9.4988155368957e-08,-4.1505181869889e-08,-3.9372549056645e-08,NaN,NaN,3.10192307737902e-08,1.4201927969796e-07,NaN,-1.32536358786692e-06,3.4983410612179e-07,-6.81586549023632e-07,6.81586549023892e-07,-2.33460965668778e-07,0,0,0
3161.6,3.09754415873114e-07,2.12297212527208e-07,5.2205162840022e-07,8.25046332116211e-08,-1.94213959206958e-07,-1.94213959207078e-07,NaN,9.11447259462364e-08,-4.70123380386442e-08,-6.0665362981135e-08,7.8825656760995e-08,-6.06653629809e-08,-2.20222089924298e-07,4.27784106614099e-08,-1.77443679262926e-07,NaN,NaN,2.68788947853324e-07,-1.73719431394129e-08,2.06669175617623e-07,-1.73719431394167e-08,-9.04215549185077e-08,-4.59679962110819e-07,NaN,-8.14104538679319e-08,6.15370857329411e-08,NaN,-6.63594102250259e-08,6.63594102246529e-08,-3.77212993962176e-07,1.43551530702444e-08,-5.58519872656935e-08,NaN,NaN,-1.23074064913304e-07,-3.70621929946729e-07,-2.20929826875048e-07,9.82382667013177e-08,9.82382667014236e-08,-2.92341039333338e-08,-4.05246857269389e-08,NaN,NaN,2.60496157032145e-08,1.35953319213978e-07,NaN,-1.50502446635034e-06,4.23096922730507e-07,-7.17201890670996e-07,7.17201890671252e-07,-2.62968177200368e-07,0,0,0
3161.7024,3.14212768135588e-07,2.17400667584013e-07,5.31613435719501e-07,8.09542023148367e-08,-2.03215872113098e-07,-2.03215872113221e-07,NaN,1.06655995258595e-07,-1.55630412217795e-09,-4.42286935502924e-08,9.19839012124854e-08,-4.42286935500604e-08,-2.17798416642568e-07,3.64527855205126e-08,-1.81345631122094e-07,NaN,NaN,2.58064483691436e-07,-1.278665314045e-08,2.29366003752132e-07,-1.2786653140452e-08,-1.45937647485036e-07,-3.82710896912069e-07,NaN,-8.01134219041747e-08,6.54446180547172e-08,NaN,-6.89221266542701e-08,6.89221266538941e-08,-3.66919524239657e-07,1.60332908002735e-08,-5.42773387003677e-08,NaN,NaN,-1.14971498873782e-07,-3.65482577545127e-07,-2.10873567636712e-07,1.02217592416835e-07,1.02217592416945e-07,-1.39644172478362e-08,-4.13238161504999e-08,NaN,NaN,2.11147054657781e-08,1.30637981609964e-07,NaN,-1.67864740675308e-06,4.91826386966206e-07,-7.50488311732381e-07,7.50488311732633e-07,-2.91086251579497e-07,0,0,0
3161.8048,3.16187881415721e-07,2.2181181094964e-07,5.37999692365262e-07,8.08068466570227e-08,-2.09759807774316e-07,-2.0975980777444e-07,NaN,1.21794724841278e-07,4.48975638755562e-08,-2.4473641749522e-08,1.04982729643671e-07,-2.44736417492923e-08,-2.13692865067384e-07,2.78476746538418e-08,-1.85845190413581e-07,NaN,NaN,2.46510220356546e-07,-9.556285919208e-09,2.47512648058259e-07,-9.55628591920821e-09,-2.05567155264417e-07,-2.98155333307903e-07,NaN,-7.80454504469681e-08,6.95588620844029e-08,NaN,-7.08974625771642e-08,7.08974625767856e-08,-3.55517401513542e-07,1.80675826051418e-08,-5.24261607728485e-08,NaN,NaN,-1.07520675276474e-07,-3.60513315954718e-07,-2.0253770559664e-07,1.06809255765758e-07,1.06809255765872e-07,3.35122828272914e-09,-4.17573700558686e-08,NaN,NaN,1.63075911845966e-08,1.25893239633962e-07,NaN,-1.83942002874959e-06,5.53923573239238e-07,-7.80088276562369e-07,7.80088276562617e-07,-3.16193153292477e-07,0,0,0
3161.9072,3.15351015219883e-07,2.24707771352383e-07,5.4005878657217e-07,8.18432838943124e-08,-2.13797180212441e-07,-2.13797180212565e-07,NaN,1.36154111064504e-07,9.10882022918831e-08,-2.43266171516778e-09,1.17350476955292e-07,-2.43266171494067e-09,-2.08373714616592e-07,1.79819560642789e-08,-1.90391758552353e-07,NaN,NaN,2.34696753710442e-07,-7.43074568220731e-09,2.6070645403767e-07,-7.43074568220588e-09,-2.63640292053519e-07,-2.1211451110707e-07,NaN,-7.52666320719367e-08,7.37158427918326e-08,NaN,-7.23915491912867e-08,7.23915491909062e-08,-3.43093189339216e-07,2.02576884477326e-08,-5.03625341536449e-08,NaN,NaN,-1.00921190608145e-07,-3.55984726871335e-07,-1.95763829288394e-07,1.11861286883215e-07,1.11861286883333e-07,2.16652636241482e-08,-4.18563403288761e-08,NaN,NaN,1.16996062718779e-08,1.21528463785049e-07,NaN,-1.98205012064146e-06,6.07947534222727e-07,-8.0486057179839e-07,8.04860571798633e-07,-3.36984951291967e-07,0,0,0
3162.0096,3.11538123146155e-07,2.25428358031848e-07,5.36966481177909e-07,8.39404362387882e-08,-2.15333919681737e-07,-2.1533391968186e-07,NaN,1.49436675998074e-07,1.35829153079695e-07,2.06482592103963e-08,1.28668749845036e-07,2.06482592106224e-08,-2.02314536606444e-07,7.86220787073411e-09,-1.9445232873575e-07,NaN,NaN,2.23124107471938e-07,-6.12705102288671e-09,2.68995169397045e-07,-6.12705102288417e-09,-3.15651676529123e-07,-1.29769438387874e-07,NaN,-7.18863222506758e-08,7.77582880052478e-08,NaN,-7.35215653111464e-08,7.35215653107645e-08,-3.29729014905068e-07,2.23997646700693e-08,-4.8157909332325e-08,NaN,NaN,-9.52472156184977e-08,-3.51965366536056e-07,-1.90184635528016e-07,1.17213026600706e-07,1.17213026600829e-07,3.99073275254184e-08,-4.16830822943492e-08,NaN,NaN,7.35602016328758e-09,1.17377276614633e-07,NaN,-2.10305297163696e-06,6.53135349638713e-07,-8.24014393018986e-07,8.24014393019224e-07,-3.52571986139487e-07,0,0,0
3162.112,3.04754695121237e-07,2.23570283685116e-07,5.28324978806261e-07,8.7079075138744e-08,-2.14467289462087e-07,-2.14467289462207e-07,NaN,1.61438946447154e-07,1.78041866260295e-07,4.34382103794553e-08,1.38586422515476e-07,4.34382103796805e-08,-1.95931628278507e-07,-1.64715042845738e-09,-1.97578778707004e-07,NaN,NaN,2.12215586747159e-07,-5.36398159719092e-09,2.72719299748547e-07,-5.36398159718772e-09,-3.58507662295811e-07,-5.52367436748368e-08,NaN,-6.80512202423726e-08,8.15523358321104e-08,NaN,-7.43626563389492e-08,7.43626563385663e-08,-3.15528089407118e-07,2.4292570436628e-08,-4.58722504288305e-08,NaN,NaN,-9.04250489988713e-08,-3.48293059812127e-07,-1.85327807460432e-07,1.2271248846243e-07,1.22712488462557e-07,5.70740340138108e-08,-4.13130164720125e-08,NaN,NaN,3.3572158156971e-09,1.13328681092017e-07,NaN,-2.20058255297116e-06,6.89281005698133e-07,-8.37113960699214e-07,8.37113960699446e-07,-3.62526962829359e-07,0,0,0
3162.2144,2.95171118518925e-07,2.19014973724146e-07,5.14186092242982e-07,9.12750653989686e-08,-2.11423739652945e-07,-2.11423739653062e-07,NaN,1.72038433608239e-07,2.16833687503444e-07,6.4675373508788e-08,1.46827903679019e-07,6.46753735090125e-08,-1.8953807884865e-07,-9.89912826054326e-09,-1.99437207109233e-07,NaN,NaN,2.02331441387679e-07,-4.86283563982716e-09,2.72366772356336e-07,-4.86283563982367e-09,-3.90404187535038e-07,8.40577349257833e-09,NaN,-6.39085464735e-08,8.49978607199145e-08,NaN,-7.49295426566156e-08,7.49295426562321e-08,-3.0061929595747e-07,2.5745195474967e-08,-4.35404947859976e-08,NaN,NaN,-8.62449957185705e-08,-3.44612647262013e-07,-1.80695111826916e-07,1.28212247658552e-07,1.28212247658682e-07,7.23203881623784e-08,-4.08175192242725e-08,NaN,NaN,-1.91347586378125e-10,1.09345249409745e-07,NaN,-2.27406167056101e-06,7.16597649895163e-07,-8.44010180095452e-07,8.44010180095679e-07,-3.66886077351429e-07,0,1,0
3162.3168,2.8311822043877e-07,2.11901030666706e-07,4.95019251105388e-07,9.64734512976916e-08,-2.06579972160243e-07,-2.06579972160355e-07,NaN,1.81196649354843e-07,2.51621662974231e-07,8.33012235884443e-08,1.5320770379609e-07,8.33012235886687e-08,-1.8332934915098e-07,-1.64817556343625e-08,-1.99811104785383e-07,NaN,NaN,1.93766406980277e-07,-4.345832997918e-09,2.68488338034954e-07,-4.34583299791429e-09,-4.10490041395051e-07,5.90262644646691e-08,NaN,-5.95673187908106e-08,8.80298554885482e-08,NaN,-7.51946126625048e-08,7.51946126621214e-08,-2.85145826868131e-07,2.65894965718566e-08,-4.11705388417384e-08,NaN,NaN,-8.24048114673838e-08,-3.40466052184863e-07,-1.75803623301491e-07,1.33546927693275e-07,1.33546927693407e-07,8.50248181855782e-08,-4.02523828593403e-08,NaN,NaN,-3.16866843921669e-09,1.05458500784829e-07,NaN,-2.32387600311591e-06,7.35629054364454e-07,-8.44784829337988e-07,8.4478482933821e-07,-3.66089487455982e-07,0,1,0
3162.4192,2.69082328536966e-07,2.02573693682014e-07,4.71656022218895e-07,1.0246457024853e-07,-2.00452560419685e-07,-2.00452560419791e-07,NaN,1.88973120189437e-07,2.82257885580663e-07,9.85400888715847e-08,1.57654656063268e-07,9.85400888718108e-08,-1.7740630355054e-07,-2.11921101212994e-08,-1.98598413671879e-07,NaN,NaN,1.86710623897341e-07,-3.55625631119837e-09,2.61660256354808e-07,-3.55625631119433e-09,-4.18534778904039e-07,9.53625873199786e-08,NaN,-5.50827059725634e-08,9.06123489628251e-08,NaN,-7.51288334010832e-08,7.51288334007004e-08,-2.69250727556365e-07,2.6695500901127e-08,-3.87512478133254e-08,NaN,NaN,-7.85678997601391e-08,-3.35400671210208e-07,-1.70210171640971e-07,1.38513275091534e-07,1.38513275091668e-07,9.48136398381047e-08,-3.96517069566298e-08,NaN,NaN,-5.46371943227271e-09,1.01738285020596e-07,NaN,-2.35125682564013e-06,7.47197092324704e-07,-8.39753700139721e-07,8.39753700139936e-07,-3.60861523093851e-07,0,1,0
3162.5216,2.53703211638876e-07,1.91531154144987e-07,4.45234365783781e-07,1.08857142271665e-07,-1.93652956611634e-07,-1.93652956611733e-07,NaN,1.95535410089129e-07,3.09088480966591e-07,1.09922246203063e-07,1.60236871729416e-07,1.09922246203292e-07,-1.71826082998644e-07,-2.3990868255668e-08,-1.95816951254351e-07,NaN,NaN,1.81191084652525e-07,-2.29899960888988e-09,2.52486248899313e-07,-2.29899960888694e-09,-4.14781588284633e-07,1.17022500823812e-07,NaN,-5.04689977343778e-08,9.27306457147592e-08,NaN,-7.47464065481575e-08,7.47464065477757e-08,-2.53067376352545e-07,2.59875120225409e-08,-3.62658677353366e-08,NaN,NaN,-7.44209841957657e-08,-3.29067362206186e-07,-1.63539411057257e-07,1.42873517887462e-07,1.42873517887598e-07,1.01555359510922e-07,-3.90266953732529e-08,NaN,NaN,-7.00551703910419e-09,9.82515796625178e-08,NaN,-2.35832905326902e-06,7.52367117256663e-07,-8.29521120208971e-07,8.29521120209182e-07,-3.52076576433878e-07,0,0,0
3162.624,2.37778375099594e-07,1.79367911744251e-07,4.17146286843765e-07,1.15106575304499e-07,-1.86820398744572e-07,-1.86820398744663e-07,NaN,2.01151113742581e-07,3.32889417229094e-07,1.17275979044019e-07,1.61170171579724e-07,1.1727597904425e-07,-1.66655158004173e-07,-2.49640340372774e-08,-1.91619192041489e-07,NaN,NaN,1.77035596270261e-07,-4.80749941979126e-10,2.41640583860012e-07,-4.80749941976849e-10,-4.0001477256149e-07,1.24549775690469e-07,NaN,-4.57270329262276e-08,9.43876923215027e-08,NaN,-7.41325973884823e-08,7.41325973881015e-08,-2.36717449952807e-07,2.44586782953879e-08,-3.37067817012517e-08,NaN,NaN,-6.97233150775624e-08,-3.21292330301966e-07,-1.55515627279807e-07,1.46386428506051e-07,1.46386428506187e-07,1.0534424242925e-07,-3.83701381755096e-08,NaN,NaN,-7.78474436099619e-09,9.50357498302142e-08,NaN,-2.34818117899096e-06,7.52424910405688e-07,-8.15033943856714e-07,8.1503394385692e-07,-3.40666866620033e-07,0,0,0
3162.7264,2.2226104756895e-07,1.66710956546858e-07,3.8897200411573e-07,1.20575322621175e-07,-1.80557496393605e-07,-1.80557496393689e-07,NaN,2.06154429843671e-07,3.54667337867736e-07,1.2071861852636e-07,1.60795681351362e-07,1.20718618526594e-07,-1.61996329291166e-07,-2.43066212566204e-08,-1.86302950547826e-07,NaN,NaN,1.73897414172327e-07,1.87978132814039e-09,2.29916641064716e-07,1.87978132814243e-09,-3.75698328188684e-07,1.1946111021168e-07,NaN,-4.08679544381926e-08,9.56059844742715e-08,NaN,-7.34394848058766e-08,7.34394848054967e-08,-2.2031722821059e-07,2.2178006998794e-08,-3.10870914790646e-08,NaN,NaN,-6.43398537691277e-08,-3.12113158932835e-07,-1.45980181697306e-07,1.48855355130034e-07,1.4885535513017e-07,1.06480190301818e-07,-3.76664135260933e-08,NaN,NaN,-7.85872484767702e-09,9.20939491169198e-08,NaN,-2.32478183292895e-06,7.48848858400185e-07,-7.97564421031283e-07,7.97564421031484e-07,-3.27588367277443e-07,0,0,0
3162.8288,2.08223709770833e-07,1.54156557453604e-07,3.6238026722436e-07,1.24610396529879e-07,-1.75389753942777e-07,-1.75389753942854e-07,NaN,2.10887794555823e-07,3.7538325188516e-07,1.20660915523861e-07,1.59526267627545e-07,1.20660915524098e-07,-1.57975430980143e-07,-2.23238870584646e-08,-1.80299318038647e-07,NaN,NaN,1.71348816039384e-07,4.6885689104949e-09,2.18206825672791e-07,4.68856891049641e-09,-3.43998732094105e-07,1.04149701327839e-07,NaN,-3.5923072967048e-08,9.64325497677459e-08,NaN,-7.2845679067914e-08,7.28456790675352e-08,-2.03994114987293e-07,1.92824556379192e-08,-2.84430242265465e-08,NaN,NaN,-5.82494817493773e-08,-3.01770949370023e-07,-1.34882910129281e-07,1.50172701678311e-07,1.50172701678445e-07,1.05437794845333e-07,-3.69034973517648e-08,NaN,NaN,-7.33789721663774e-09,8.93978072421318e-08,NaN,-2.29264097917155e-06,7.43240277318028e-07,-7.78577857697224e-07,7.7857785769742e-07,-3.13818909030583e-07,0,0,0
3162.9312,1.96757827521152e-07,1.42226021103488e-07,3.38983848624566e-07,1.2664262872429e-07,-1.7174729048598e-07,-1.71747290486051e-07,NaN,2.15631146968848e-07,3.95707863237221e-07,1.17811437514654e-07,1.57776913439527e-07,1.17811437514894e-07,-1.54694648581899e-07,-1.94343222008456e-08,-1.74128970782785e-07,NaN,NaN,1.69007688500616e-07,7.84388341959797e-09,2.07362863319693e-07,7.84388341959974e-09,-3.07601326913359e-07,8.16155135229515e-08,NaN,-3.09389471607333e-08,9.69427473748551e-08,NaN,-7.24914254043599e-08,7.24914254039821e-08,-1.87911549400053e-07,1.59545154716752e-08,-2.58236575072028e-08,NaN,NaN,-5.15271768878657e-08,-2.90658804474186e-07,-1.22263925398232e-07,1.50340128165547e-07,1.5034012816568e-07,1.02816650090519e-07,-3.60805269509277e-08,NaN,NaN,-6.35760619636089e-09,8.68845653397058e-08,NaN,-2.25622805899757e-06,7.37166539164768e-07,-7.59503665964952e-07,7.59503665965143e-07,-3.00346306228455e-07,0,0,0
3163.0336,1.88806037730409e-07,1.31347411803248e-07,3.20153449533582e-07,1.26302058444648e-07,-1.69948321286319e-07,-1.69948321286384e-07,NaN,2.2054561896031e-07,4.15896706112403e-07,1.13141702026018e-07,1.55901558445204e-07,1.1314170202626e-07,-1.52180256460558e-07,-1.6153838818573e-08,-1.68334095279171e-07,NaN,NaN,1.66635074205914e-07,1.12949771322774e-08,1.97981132075555e-07,1.12949771322792e-08,-2.69362237419709e-07,5.50708077031764e-08,NaN,-2.59643405806696e-08,9.72380322455156e-08,NaN,-7.24192995859997e-08,7.24192995856224e-08,-1.72287395457246e-07,1.23948161316674e-08,-2.32731131323198e-08,NaN,NaN,-4.43125616263532e-08,-2.79244452111769e-07,-1.08249905525929e-07,1.49458292819629e-07,1.49458292819761e-07,9.9271797979564e-08,-3.52068662196339e-08,NaN,NaN,-5.0460446804222e-09,8.44537553050025e-08,NaN,-2.21931305400782e-06,7.31934113517855e-07,-7.41498056691521e-07,7.41498056691707e-07,-2.88117760371742e-07,0,0,0
3163.136,1.84974137500353e-07,1.2185036142089e-07,3.06824498921171e-07,1.23510053240807e-07,-1.70170093164233e-07,-1.70170093164294e-07,NaN,2.25655042950569e-07,4.35799503236364e-07,1.07776617608403e-07,1.54154040950816e-07,1.07776617608647e-07,-1.50360593492454e-07,-1.30418291946584e-08,-1.63402422687154e-07,NaN,NaN,1.64159068114184e-07,1.50579400439504e-08,1.90242879553783e-07,1.50579400439529e-08,-2.31921323785922e-07,2.75353273374125e-08,NaN,-2.10382858299191e-08,9.74351771383753e-08,NaN,-7.25566060692334e-08,7.25566060688564e-08,-1.5738399956213e-07,8.79919030208321e-09,-2.08170566401354e-08,NaN,NaN,-3.67834234062634e-08,-2.67996675572893e-07,-9.30682324129935e-08,1.47694298241033e-07,1.47694298241164e-07,9.54309429782278e-08,-3.42955559930401e-08,NaN,NaN,-3.50178589773441e-09,8.19765939692476e-08,NaN,-2.18448146134119e-06,7.28387612648056e-07,-7.2530278766208e-07,7.2530278766226e-07,-2.77947262013318e-07,0,0,0
3163.2384,1.85401020173756e-07,1.13962178810738e-07,2.99363198984421e-07,1.18502314815516e-07,-1.72410860852108e-07,-1.72410860852165e-07,NaN,2.30863135678573e-07,4.54957243785631e-07,1.02817005875826e-07,1.52676805954308e-07,1.02817005876073e-07,-1.490926936844e-07,-1.0607617993704e-08,-1.59700311678146e-07,NaN,NaN,1.61624860134641e-07,1.91829095264965e-08,1.83909924961476e-07,1.91829095264995e-08,-1.97398328242302e-07,1.52119076161826e-09,NaN,-1.61838036869465e-08,9.76496936071536e-08,NaN,-7.27540143137764e-08,7.27540143133992e-08,-1.43463170549922e-07,5.3429677016879e-09,-1.84610017732342e-08,NaN,NaN,-2.91445430225794e-08,-2.5733430015371e-07,-7.70667990978997e-08,1.45238715944384e-07,1.45238715944512e-07,9.18147415283536e-08,-3.33574810132591e-08,NaN,NaN,-1.78683106123744e-09,7.93225062300949e-08,NaN,-2.15294813322666e-06,7.26805297951257e-07,-7.11234194830023e-07,7.11234194830199e-07,-2.70394485929572e-07,0,0,0
3163.3408,1.8974220405083e-07,1.0780643714557e-07,2.97548641196328e-07,1.11770397209394e-07,-1.76461174693088e-07,-1.76461174693142e-07,NaN,2.35986446527619e-07,4.72721883683248e-07,9.91473444261817e-08,1.51509265769178e-07,9.91473444264296e-08,-1.48224120797702e-07,-9.20349780958101e-09,-1.57427618607325e-07,NaN,NaN,1.59111830346294e-07,2.36983436937007e-08,1.78469251889741e-07,2.36983436937037e-08,-1.67238683697615e-07,-2.1157797856162e-08,NaN,-1.14070426379972e-08,9.7979969476908e-08,NaN,-7.28622832431517e-08,7.28622832427741e-08,-1.30723736157816e-07,2.16974990607733e-09,-1.61977100583863e-08,NaN,NaN,-2.16246804730751e-08,-2.47592936200753e-07,-6.07204273047646e-08,1.42266931659759e-07,1.42266931659886e-07,8.87826560775648e-08,-3.24003681567653e-08,NaN,NaN,6.8034603868385e-11,7.63924394022029e-08,NaN,-2.12463248605262e-06,7.26899257327881e-07,-6.99258481173547e-07,6.99258481173717e-07,-2.65652927867263e-07,0,0,0
3163.4432,1.9727153910656e-07,1.03404647386647e-07,3.00676186493135e-07,1.03946657895058e-07,-1.81910063257187e-07,-1.81910063257239e-07,NaN,2.40789716394316e-07,4.88356093863497e-07,9.72991494621696e-08,1.50605765315528e-07,9.72991494624189e-08,-1.47655448471969e-07,-8.94366533252524e-09,-1.56599113804538e-07,NaN,NaN,1.56675398601773e-07,2.85718792522593e-08,1.7334789633232e-07,2.85718792522624e-08,-1.42218555217436e-07,-3.94547885969089e-08,NaN,-6.7002223484442e-09,9.84977057814063e-08,NaN,-7.28097157827751e-08,7.28097157823968e-08,-1.19250554577018e-07,-6.19148575675971e-10,-1.40164694107853e-08,NaN,NaN,-1.44652593640048e-08,-2.38998009117244e-07,-4.4602560794514e-08,1.38920276356295e-07,1.38920276356422e-07,8.65197048726834e-08,-3.14335773709433e-08,NaN,NaN,2.05072468095531e-09,7.31401178678626e-08,NaN,-2.09843222001794e-06,7.27925405426699e-07,-6.8909323972026e-07,6.89093239720425e-07,-2.63507754358617e-07,0,1,0
3163.5456,2.07056055613891e-07,1.00675527838729e-07,3.0773158345255e-07,9.56738406250885e-08,-1.88201296816999e-07,-1.88201296817046e-07,NaN,2.45022101728272e-07,5.0111524712676e-07,9.7417768811456e-08,1.49857893305574e-07,9.74177688117063e-08,-1.47371204477656e-07,-9.6784656241495e-09,-1.57049670101849e-07,NaN,NaN,1.5434559725757e-07,3.37115216479893e-08,1.68105472103863e-07,3.37115216479924e-08,-1.22561382998788e-07,-5.30516533479707e-08,NaN,-2.04511022110747e-09,9.92454658460013e-08,NaN,-7.26451996953156e-08,7.26451996949363e-08,-1.08995965513876e-07,-2.97479329185637e-09,-1.1909872818385e-08,NaN,NaN,-7.89393347277577e-09,-2.31647364380362e-07,-2.93153218603496e-08,1.35311270801489e-07,1.35311270801614e-07,8.50581098060006e-08,-3.04766950994343e-08,NaN,NaN,4.15129669978131e-09,6.9565247220405e-08,NaN,-2.07263333682946e-06,7.28895447069297e-07,-6.80294270567066e-07,6.80294270567227e-07,-2.63391758568329e-07,0,1,0
3163.648,2.18129161278901e-07,9.94328552686253e-08,3.17562016547456e-07,8.74985537888727e-08,-1.94727281949794e-07,-1.94727281949838e-07,NaN,2.48453180619945e-07,5.10329755380851e-07,9.93251611252863e-08,1.49119991328224e-07,9.93251611255372e-08,-1.47426246934416e-07,-1.10343270382826e-08,-1.58460573972743e-07,NaN,NaN,1.52161295151692e-07,3.89978348119087e-08,1.62533192796013e-07,3.89978348119119e-08,-1.08080527156298e-07,-6.22444258461428e-08,NaN,2.58588232075458e-09,1.00237401099306e-07,NaN,-7.25318802299312e-08,7.25318802295509e-08,-9.97946409439078e-08,-4.90589680310672e-09,-9.87780039797874e-09,NaN,NaN,-2.09079995313877e-09,-2.25514467910393e-07,-1.53878197212701e-08,1.31543685248222e-07,1.31543685248347e-07,8.43081654662322e-08,-2.95668352809621e-08,NaN,NaN,6.34452627691884e-09,6.56770503720173e-08,NaN,-2.04536977734486e-06,7.28835566850247e-07,-6.72317031776871e-07,6.72317031777028e-07,-2.64505358607147e-07,0,1,0
3163.7504,2.2960254734323e-07,9.93950616957451e-08,3.28997609038906e-07,7.98141230683457e-08,-2.00926559129603e-07,-2.00926559129644e-07,NaN,2.50901223903776e-07,5.15477679245207e-07,1.02625469126286e-07,1.48236192287506e-07,1.02625469126537e-07,-1.4789574072361e-07,-1.25129353028828e-08,-1.60408676026537e-07,NaN,NaN,1.50191808840299e-07,4.43168141404998e-08,1.56641475873167e-07,4.43168141405033e-08,-9.82905090709526e-08,-6.77896305842236e-08,NaN,7.22967341264355e-09,1.01459191522452e-07,NaN,-7.26994900985987e-08,7.26994900982173e-08,-9.13956733850431e-08,-6.47515357536102e-09,-7.92927921020054e-09,NaN,NaN,2.84324250007797e-09,-2.20468967716113e-07,-3.15998128174131e-09,1.27735169770939e-07,1.27735169771064e-07,8.40760120275944e-08,-2.87591938905522e-08,NaN,NaN,8.5780146012444e-09,6.1446421685248e-08,NaN,-2.01505008553957e-06,7.27019638865076e-07,-6.6457562441446e-07,6.64575624414613e-07,-2.65955843824345e-07,0,0,0
3163.8528,2.40707437796715e-07,1.00220028003399e-07,3.40927465800047e-07,7.28565652960254e-08,-2.06355172550469e-07,-2.06355172550504e-07,NaN,2.52245395620809e-07,5.16223812483274e-07,1.0680273319781e-07,1.47065607334161e-07,1.0680273319806e-07,-1.48811265997256e-07,-1.36268139387059e-08,-1.62438079936007e-07,NaN,NaN,1.48518017564548e-07,4.95717383609049e-08,1.505736241971e-07,4.95717383609086e-08,-9.24976049453042e-08,-7.07361101031253e-08,NaN,1.19299282301756e-08,1.02867740671274e-07,NaN,-7.33746324909146e-08,7.33746324905323e-08,-8.34948149403195e-08,-7.78667518715277e-09,-6.08150854246808e-09,NaN,NaN,6.91078923236901e-09,-2.16299047116889e-07,7.31657508721346e-09,1.24033165460472e-07,1.24033165460597e-07,8.40700932433803e-08,-2.81188073002026e-08,NaN,NaN,1.0773642484823e-08,5.67776475106311e-08,NaN,-1.98068359790282e-06,7.23121179440014e-07,-6.56523843174221e-07,6.5652384317437e-07,-2.66902954425727e-07,0,0,0
3163.9552,2.50792696080448e-07,1.01562466897889e-07,3.5235516297827e-07,6.67370931571853e-08,-2.10723032680591e-07,-2.10723032680624e-07,NaN,2.52424928924806e-07,5.12430375791519e-07,1.11293593369933e-07,1.45503753808054e-07,1.11293593370185e-07,-1.50110551176828e-07,-1.40324961064676e-08,-1.64143047283341e-07,NaN,NaN,1.47180590433561e-07,5.46746109932188e-08,1.44503061569458e-07,5.46746109932224e-08,-8.9906059989116e-08,-7.22494504095179e-08,NaN,1.6730392056871e-08,1.0439396823516e-07,NaN,-7.47118448246268e-08,7.47118448242438e-08,-7.57593076747412e-08,-8.96670301330421e-09,-4.35543424332397e-09,NaN,NaN,1.02269385094622e-08,-2.1273148347067e-07,1.63155999855565e-08,1.20616919440866e-07,1.20616919440992e-07,8.39181681924148e-08,-2.77057748183735e-08,NaN,NaN,1.2843554807238e-08,5.15241711292161e-08,NaN,-1.94205968086784e-06,7.17254682458073e-07,-6.47753234855861e-07,6.47753234856006e-07,-2.66703512722389e-07,0,0,0
3164.0576,2.59312027547209e-07,1.0313256334853e-07,3.62444590895674e-07,6.14836313967941e-08,-2.13899303818158e-07,-2.13899303818187e-07,NaN,2.51439652931151e-07,5.04166549604792e-07,1.15544454050624e-07,1.43499435393411e-07,1.15544454050876e-07,-1.51621473751734e-07,-1.36163997757437e-08,-1.65237873527523e-07,NaN,NaN,1.46124091978872e-07,5.95297075752801e-08,1.3855430729745e-07,5.9529707575283e-08,-8.97174349651926e-08,-7.34616407413199e-08,NaN,2.16661494258861e-08,1.05950230026129e-07,NaN,-7.67486997444384e-08,7.67486997440549e-08,-6.78448806875791e-08,-1.01402301684283e-08,-2.76944002004393e-09,NaN,NaN,1.30026890051621e-08,-2.09462439932995e-07,2.43800347885411e-08,1.17682545213921e-07,1.17682545214047e-07,8.32159511004093e-08,-2.75587335845562e-08,NaN,NaN,1.47115722021347e-08,4.55456652120811e-08,NaN,-1.89975415884071e-06,7.09905638127285e-07,-6.38077816274056e-07,6.38077816274198e-07,-2.65021113358954e-07,0,0,0
3164.16,2.65821643150831e-07,1.04729807522446e-07,3.70551450673213e-07,5.70643981598679e-08,-2.15892930191384e-07,-2.1589293019141e-07,NaN,2.49358654416742e-07,4.91726910355345e-07,1.19068011375059e-07,1.41063564892282e-07,1.19068011375312e-07,-1.53084342263662e-07,-1.25025972413152e-08,-1.65586939505023e-07,NaN,NaN,1.45169702668467e-07,6.40233950026756e-08,1.32759776185969e-07,6.40233950026786e-08,-9.11278530180899e-08,-7.54267805416289e-08,NaN,2.67577750461272e-08,1.07441243530179e-07,NaN,-7.93995065837312e-08,7.93995065833473e-08,-5.94083731366693e-08,-1.14084499767209e-08,-1.33407018084363e-09,NaN,NaN,1.55004292554747e-08,-2.06208565655427e-07,3.21822033709846e-08,1.15412809097592e-07,1.15412809097717e-07,8.1605959614955e-08,-2.76818732888905e-08,NaN,NaN,1.63281021270365e-08,3.87744797409408e-08,NaN,-1.85493971000064e-06,7.01769442222769e-07,-6.27561858169816e-07,6.27561858169953e-07,-2.61852676534354e-07,0,0,0
3164.2624,2.69995785100243e-07,1.06237729052853e-07,3.76233514153034e-07,5.33826747689572e-08,-2.16817689373733e-07,-2.16817689373754e-07,NaN,2.46325598534392e-07,4.756414198727e-07,1.21499477066886e-07,1.38265521255102e-07,1.21499477067141e-07,-1.5420059819856e-07,-1.098415132423e-08,-1.65184749522836e-07,NaN,NaN,1.44036213069827e-07,6.80312371525507e-08,1.27060054839464e-07,6.80312371525532e-08,-9.3183455118838e-08,-7.92060459474571e-08,NaN,3.20128962328191e-08,1.08776618159516e-07,NaN,-8.24858264416375e-08,8.24858264412535e-08,-5.01216965673683e-08,-1.28330181081481e-08,-5.07166943007808e-11,NaN,NaN,1.79716279998654e-08,-2.02768900416828e-07,4.03542125634888e-08,1.13936089459896e-07,1.13936089460019e-07,7.88564952400044e-08,-2.80405724868974e-08,NaN,NaN,1.7672572066674e-08,3.12557624877919e-08,NaN,-1.80903975137061e-06,6.93551025189036e-07,-6.16463403212559e-07,6.16463403212691e-07,-2.57455843500458e-07,0,0,0
3164.3648,2.71656453603032e-07,1.07586795005743e-07,3.79243248608714e-07,5.02587044058398e-08,-2.16852324718212e-07,-2.16852324718231e-07,NaN,2.42546942796025e-07,4.56651184949477e-07,1.22633039891985e-07,1.35217696254964e-07,1.22633039892241e-07,-1.5468936786949e-07,-9.41337168821236e-09,-1.64102739557749e-07,NaN,NaN,1.42402147094467e-07,7.14416410613859e-08,1.21365822209304e-07,7.1441641061388e-08,-9.46391775303565e-08,-8.59468316924434e-08,NaN,3.74336903041854e-08,1.09882640938038e-07,NaN,-8.57881667675235e-08,8.57881667671396e-08,-3.96905255005415e-08,-1.44298092377463e-08,1.08375882475501e-09,NaN,NaN,2.05963251013376e-08,-1.99073237539389e-07,4.93598752405124e-08,1.13286540637024e-07,1.13286540637148e-07,7.49033871451728e-08,-2.85690280419079e-08,NaN,NaN,1.87448800659848e-08,2.31481436797113e-08,NaN,-1.76339421274395e-06,6.85815859458201e-07,-6.05126508284687e-07,6.05126508284815e-07,-2.522265294124e-07,0,0,0
3164.4672,2.70807047161891e-07,1.08713097730205e-07,3.79520144892036e-07,4.74291552542863e-08,-2.16202616368006e-07,-2.16202616368022e-07,NaN,2.38266669014736e-07,4.35633264431829e-07,1.22416291668649e-07,1.32055069816745e-07,1.22416291668907e-07,-1.54336585557954e-07,-8.0979292226138e-09,-1.62434514780615e-07,NaN,NaN,1.39979642016042e-07,7.4182938167648e-08,1.15673552159004e-07,7.41829381676498e-08,-9.40583240803348e-08,-9.67680840440872e-08,NaN,4.30208178371206e-08,1.10710060439266e-07,NaN,-8.90985880216659e-08,8.90985880212822e-08,-2.78766071559706e-08,-1.61720499014131e-08,2.06810807922187e-09,NaN,NaN,2.34482068295702e-08,-1.95192314875424e-07,5.94521877986569e-08,1.13386241998453e-07,1.13386241998575e-07,6.98377015324695e-08,-2.91880187205808e-08,NaN,NaN,1.9551658224516e-08,1.46929472187996e-08,NaN,-1.71913654660831e-06,6.78969091024866e-07,-5.93901812449808e-07,5.93901812449931e-07,-2.46606388848945e-07,0,0,0
3164.5696,2.67656163788143e-07,1.09543716193699e-07,3.77199879981782e-07,4.45824297751641e-08,-2.15071302296476e-07,-2.15071302296489e-07,NaN,2.33745442166749e-07,4.13479204459487e-07,1.20899556269357e-07,1.28918498558721e-07,1.20899556269615e-07,-1.5303052585182e-07,-7.23298647386799e-09,-1.60263512325736e-07,NaN,NaN,1.3657022661417e-07,7.62410784843206e-08,1.10170926411236e-07,7.62410784843223e-08,-9.02318734098552e-08,-1.12416197035876e-07,NaN,4.87620035223593e-08,1.11235862921297e-07,NaN,-9.22582749261742e-08,9.22582749257907e-08,-1.45228076342535e-08,-1.80035438249736e-08,2.89000033541646e-09,NaN,NaN,2.65010441605566e-08,-1.91298984619759e-07,7.07051226952033e-08,1.14063618392221e-07,1.14063618392343e-07,6.38492103995126e-08,-2.98248425339865e-08,NaN,NaN,2.00943301613548e-08,6.16373942549809e-09,NaN,-1.67734116815091e-06,6.73358296066444e-07,-5.83149403119463e-07,5.83149403119581e-07,-2.41057830099026e-07,0,0,0
3164.672,2.62618403028221e-07,1.10021158360775e-07,3.72639561388937e-07,4.14237843482028e-08,-2.13638676057087e-07,-2.13638676057097e-07,NaN,2.29254287984983e-07,3.90959241237354e-07,1.18166925426727e-07,1.25944659220939e-07,1.18166925426986e-07,-1.50780723316578e-07,-6.87868721401567e-09,-1.57659410530642e-07,NaN,NaN,1.32091112839741e-07,7.76638714983665e-08,1.05248249020694e-07,7.76638714983686e-08,-8.27155606410746e-08,-1.32877038064986e-07,NaN,5.46039186731112e-08,1.11461029715644e-07,NaN,-9.51700446391817e-08,9.51700446387984e-08,4.15660621869282e-10,-1.98611121445644e-08,3.52851951072866e-09,NaN,NaN,2.96706088581281e-08,-1.87590526521675e-07,8.30634486250564e-08,1.15102087011211e-07,1.15102087011331e-07,5.71531491343971e-08,-3.04258450921118e-08,NaN,NaN,2.03663669442777e-08,-2.19181398647038e-09,NaN,-1.63927113083732e-06,6.6939557173592e-07,-5.73294778791353e-07,5.73294778791466e-07,-2.36078426338861e-07,0,1,0
3164.7744,2.5628202301343e-07,1.10152002825535e-07,3.66434025838906e-07,3.77481908911418e-08,-2.12050635637816e-07,-2.12050635637824e-07,NaN,2.25071388163106e-07,3.68617034537271e-07,1.14297162209206e-07,1.23255135611546e-07,1.14297162209465e-07,-1.47711176162847e-07,-6.98463184676961e-09,-1.54695808009665e-07,NaN,NaN,1.26582951329281e-07,7.85567361618985e-08,1.01376571041915e-07,7.85567361619014e-08,-7.21448555579425e-08,-1.57214529137968e-07,NaN,6.04239771530326e-08,1.11408357194963e-07,NaN,-9.77812569804916e-08,9.77812569801084e-08,1.68325989310438e-08,-2.16991442936119e-08,3.96647989778617e-09,NaN,NaN,3.2867512849888e-08,-1.84201253809e-07,9.63554652348077e-08,1.16295005043729e-07,1.16295005043848e-07,4.99347090524666e-08,-3.09565620806908e-08,NaN,NaN,2.03649833431822e-08,-1.01999376970624e-08,NaN,-1.60640583500073e-06,6.67553248503845e-07,-5.64836863078982e-07,5.64836863079089e-07,-2.32199424761724e-07,0,1,0
3164.8768,2.49337643830347e-07,1.10046662035372e-07,3.59384305865659e-07,3.34958247992949e-08,-2.10415799950891e-07,-2.10415799950898e-07,NaN,2.21462552598246e-07,3.46728938311551e-07,1.09390291681085e-07,1.20935631771493e-07,1.09390291681346e-07,-1.44019884262033e-07,-7.45223121523824e-09,-1.5147211547732e-07,NaN,NaN,1.2021913071937e-07,7.90808670045489e-08,9.88899292364913e-08,7.90808670045526e-08,-6.01165805863051e-08,-1.83764991688492e-07,NaN,6.60268011352485e-08,1.11122146522231e-07,NaN,-1.00044583886855e-07,1.00044583886472e-07,3.44391181551185e-08,-2.35060108448483e-08,4.20607625988153e-09,NaN,NaN,3.60364622566437e-08,-1.81141702679767e-07,1.10267084785126e-07,1.17479831816055e-07,1.17479831816173e-07,4.2336391140503e-08,-3.13920428453718e-08,NaN,NaN,2.01138071795416e-08,-1.77806641085766e-08,NaN,-1.5800559483173e-06,6.68176621962223e-07,-5.58225860316558e-07,5.5822586031666e-07,-2.29942356047992e-07,0,1,0
3164.9792,2.42471051401221e-07,1.09921591990569e-07,3.5239264339173e-07,2.87716882517522e-08,-2.08819505236615e-07,-2.08819505236623e-07,NaN,2.18641164816153e-07,3.2533953123463e-07,1.03647099490829e-07,1.19008889616336e-07,1.03647099491091e-07,-1.39911733334769e-07,-8.2077528968061e-09,-1.48119486231623e-07,NaN,NaN,1.13320390162795e-07,7.94588073655086e-08,9.77681363660103e-08,7.94588073655137e-08,-4.86883523259527e-08,-2.10584842056422e-07,NaN,7.11799491224323e-08,1.10668102887372e-07,NaN,-1.01877141846932e-07,1.01877141846548e-07,5.27679180112779e-08,-2.5305578345834e-08,4.28038714854849e-09,NaN,NaN,3.91698143044329e-08,-1.78290289893261e-07,1.24328858260883e-07,1.18541191628015e-07,1.18541191628133e-07,3.44878450261378e-08,-3.17048078989574e-08,NaN,NaN,1.96840169789772e-08,-2.49334693487287e-08,NaN,-1.56070945833414e-06,6.7121606503338e-07,-5.5363467584873e-07,5.53634675848826e-07,-2.29758758248405e-07,0,0,0
3165.0816,2.36237706583081e-07,1.1005750008513e-07,3.46295206668149e-07,2.38236050523007e-08,-2.07348448235603e-07,-2.07348448235612e-07,NaN,2.16723616586552e-07,3.04360851172289e-07,9.74423913763727e-08,1.17416267142968e-07,9.74423913766363e-08,-1.3552820238073e-07,-9.25482122086625e-09,-1.44783023601645e-07,NaN,NaN,1.06350277329902e-07,7.99770342347013e-08,9.75273027412564e-08,7.99770342347085e-08,-3.97220992267718e-08,-2.35940914944038e-07,NaN,7.56814649643326e-08,1.10130065957605e-07,NaN,-1.03139072898392e-07,1.03139072898007e-07,7.12326547337617e-08,-2.71431708683086e-08,4.25627587659233e-09,NaN,NaN,4.22955704203759e-08,-1.75439267018399e-07,1.37962363284815e-07,1.19394896458132e-07,1.1939489645825e-07,2.65515230644642e-08,-3.18575794836985e-08,NaN,NaN,1.92014849451208e-08,-3.16971342637613e-08,NaN,-1.54747816983361e-06,6.76054661398445e-07,-5.50746243217215e-07,5.50746243217307e-07,-2.31988819214372e-07,0,0,0
3165.184,2.30949718738628e-07,1.1072729501307e-07,3.41677013751635e-07,1.89857898719028e-08,-2.06101417570646e-07,-2.06101417570656e-07,NaN,2.15702207876338e-07,2.83702451192056e-07,9.13292117848803e-08,1.16020903555932e-07,9.13292117851448e-08,-1.30905967603267e-07,-1.06877820365102e-08,-1.41593749639826e-07,NaN,NaN,9.98604158695218e-08,8.09682612654768e-08,9.72861057667735e-08,8.09682612654861e-08,-3.43168006377385e-08,-2.5867148000822e-07,NaN,7.94305468310086e-08,1.09601291601132e-07,NaN,-1.03644185052851e-07,1.03644185052466e-07,8.92299178133103e-08,-2.90613711570089e-08,4.22665664196329e-09,NaN,NaN,4.54502412589333e-08,-1.72371345151486e-07,1.50584167474549e-07,1.19971050168038e-07,1.19971050168156e-07,1.8748342978516e-08,-3.18040803140297e-08,NaN,NaN,1.88347125574236e-08,-3.81019772019827e-08,NaN,-1.53797605157634e-06,6.81551797085482e-07,-5.48695884810025e-07,5.48695884810113e-07,-2.36838505755517e-07,0,0,0
3165.2864,2.26608095289787e-07,1.12117615456285e-07,3.38725710746008e-07,1.46043090704006e-08,-2.05169736819791e-07,-2.05169736819803e-07,NaN,2.15447362742183e-07,2.63391702675824e-07,8.59486214718116e-08,1.14635671240238e-07,8.59486214720763e-08,-1.25989452230728e-07,-1.2660883132068e-08,-1.38650335362845e-07,NaN,NaN,9.43800543869968e-08,8.27633911501431e-08,9.59997603001279e-08,8.27633911501544e-08,-3.25130175681562e-08,-2.78321608289334e-07,NaN,8.24666635498669e-08,1.09171728537428e-07,NaN,-1.0320663551294e-07,1.03206635512554e-07,1.06248509174482e-07,-3.1075201443578e-08,4.29303276520549e-09,NaN,NaN,4.86528096867114e-08,-1.68932458881564e-07,1.61726804996557e-07,1.20207606911395e-07,1.20207606911514e-07,1.13404739864998e-08,-3.14965257774488e-08,NaN,NaN,1.87663748439661e-08,-4.41323979482034e-08,NaN,-1.5287525871302e-06,6.86309006364577e-07,-5.46234969212188e-07,5.46234969212273e-07,-2.44347619624124e-07,0,0,0
3165.3888,2.22900310755743e-07,1.14270461138548e-07,3.37170771894227e-07,1.09658337799408e-08,-2.04596278354726e-07,-2.04596278354739e-07,NaN,2.15734740721545e-07,2.43647043575254e-07,8.18670935864947e-08,1.13069295749582e-07,8.1867093586761e-08,-1.20696241068652e-07,-1.53205711339448e-08,-1.36016812202646e-07,NaN,NaN,9.02773700493167e-08,8.56163973573683e-08,9.27733854690642e-08,8.56163973573813e-08,-3.33534480421798e-08,-2.95038867757952e-07,NaN,8.49573980575346e-08,1.08915511616495e-07,NaN,-1.0171393192073e-07,1.01713931920342e-07,1.21952093120397e-07,-3.31558502022346e-08,4.54323624121084e-09,NaN,NaN,5.18909669177076e-08,-1.6507655629116e-07,1.71123412362833e-07,1.20059324208579e-07,1.20059324208701e-07,4.57281915687776e-09,-3.08954991190436e-08,NaN,NaN,1.9157613755332e-08,-4.9708166259538e-08,NaN,-1.51614414090905e-06,6.8905600699173e-07,-5.42064834796508e-07,5.4206483479659e-07,-2.54328024761777e-07,0,0,0
3165.4912,2.1925958417405e-07,1.17062705132998e-07,3.36322289306984e-07,8.24903789228959e-09,-2.04332664008694e-07,-2.04332664008708e-07,NaN,2.16282238111454e-07,2.24874873028753e-07,7.93981726092994e-08,1.11174747683488e-07,7.93981726095663e-08,-1.15004976569813e-07,-1.87235887683881e-08,-1.33728565338249e-07,NaN,NaN,8.76368450508447e-08,8.96186792477297e-08,8.71310217697417e-08,8.96186792477439e-08,-3.52437754450785e-08,-3.09317066466253e-07,NaN,8.71412581977895e-08,1.08881430548714e-07,NaN,-9.91976030276731e-08,9.91976030272835e-08,1.36215283628225e-07,-3.5227771167747e-08,5.03101106429664e-09,NaN,NaN,5.51187187807735e-08,-1.60877538430777e-07,1.78712889090181e-07,1.19519644748249e-07,1.19519644748374e-07,-1.40474898488535e-09,-2.9978308320842e-08,NaN,NaN,2.01166281329223e-08,-5.46844793016571e-08,NaN,-1.49719483188622e-06,6.8899427040232e-07,-5.3520293958849e-07,5.35202939588571e-07,-2.66268503543769e-07,0,0,0
3165.5936,2.14963562170998e-07,1.20221020820829e-07,3.35184582991763e-07,6.50607644873252e-09,-2.04210677057004e-07,-2.04210677057018e-07,NaN,2.16782286335327e-07,2.07577814184188e-07,7.84752690060697e-08,1.08879893438773e-07,7.84752690063365e-08,-1.09024762074293e-07,-2.27711706793281e-08,-1.31795932753668e-07,NaN,NaN,8.61979193364697e-08,9.46299673872635e-08,7.91537646474766e-08,9.46299673872784e-08,-3.64287312959841e-08,-3.21733312140866e-07,NaN,8.92529277200333e-08,1.0908623578494e-07,NaN,-9.5868186433659e-08,9.58681864332673e-08,1.49110801356398e-07,-3.71788099366261e-08,5.76200710105706e-09,NaN,NaN,5.82579410659851e-08,-1.56514954797455e-07,1.84565176364302e-07,1.18645136655895e-07,1.18645136656022e-07,-6.60328634274024e-09,-2.87453136912991e-08,NaN,NaN,2.16786994101631e-08,-5.88695485880787e-08,NaN,-1.47027331402552e-06,6.8596672120623e-07,-5.2524115351155e-07,5.25241153511631e-07,-2.7922237439334e-07,0,0,0
3165.696,2.09246621248925e-07,1.23353808309357e-07,3.3260042955822e-07,5.66918305999341e-09,-2.03944745395359e-07,-2.03944745395371e-07,NaN,2.16921959257399e-07,1.92196920312899e-07,7.86195545261624e-08,1.06189949585651e-07,7.86195545264289e-08,-1.03018663530248e-07,-2.71790024166486e-08,-1.30197665946943e-07,NaN,NaN,8.53853887362123e-08,1.00254149315539e-07,6.94790659048146e-08,1.00254149315554e-07,-3.53757485864813e-08,-3.32779525783601e-07,NaN,9.14634628184712e-08,1.09510628511428e-07,NaN,-9.21019652747706e-08,9.21019652743771e-08,1.60863973754913e-07,-3.88792537269094e-08,6.68767374908001e-09,NaN,NaN,6.12012418572165e-08,-1.52241214678942e-07,1.88783664849639e-07,1.17570904424485e-07,1.17570904424614e-07,-1.12225592595976e-08,-2.72264342420354e-08,NaN,NaN,2.37965170736812e-08,-6.20577435048874e-08,NaN,-1.43522937862397e-06,6.80437181001298e-07,-5.12434871298876e-07,5.12434871298956e-07,-2.91723816038895e-07,0,0,0
3165.7984,2.01400943015288e-07,1.25985870078788e-07,3.27386813094014e-07,5.57763771285621e-09,-2.03179159687117e-07,-2.03179159687126e-07,NaN,2.16392469763389e-07,1.78954310343203e-07,7.90025283087293e-08,1.03170178312638e-07,7.9002528308996e-08,-9.73788216775619e-08,-3.14870735480232e-08,-1.28865895225631e-07,NaN,NaN,8.44237141791763e-08,1.05869555603119e-07,5.91998077569591e-08,1.05869555603134e-07,-3.09580281548873e-08,-3.4279853953269e-07,NaN,9.385477851802e-08,1.10099506189963e-07,NaN,-8.83932161756888e-08,8.83932161752938e-08,1.71798153696371e-07,-4.02034440010461e-08,7.70748346617737e-09,NaN,NaN,6.38218271799042e-08,-1.48336051037689e-07,1.91455713128527e-07,1.16510153985351e-07,1.16510153985483e-07,-1.56336227485995e-08,-2.54875274174717e-08,NaN,NaN,2.63368206366495e-08,-6.40708113266298e-08,NaN,-1.3932111124522e-06,6.73358253315935e-07,-4.97656749542882e-07,4.97656749542962e-07,-3.01796011775513e-07,0,1,0
3165.9008,1.90845356525328e-07,1.27599134979927e-07,3.18444491505195e-07,6.02715359896093e-09,-2.0157180861667e-07,-2.01571808616676e-07,NaN,2.14899091146812e-07,1.67778124908259e-07,7.85708276532223e-08,9.99272549814368e-08,7.85708276534888e-08,-9.25699142415063e-08,-3.51080613121757e-08,-1.27677975553727e-07,NaN,NaN,8.24862925849533e-08,1.10694439866542e-07,4.96911072059846e-08,1.10694439866556e-07,-2.24603191073815e-08,-3.5198665188976e-07,NaN,9.64262690384223e-08,1.10768102907623e-07,NaN,-8.529183655504e-08,8.5291836554644e-08,1.82283727566904e-07,-4.1046461084384e-08,8.67945802817214e-09,NaN,NaN,6.59950128637651e-08,-1.45056582140668e-07,1.92671348983886e-07,1.15734872391372e-07,1.15734872391506e-07,-2.03290755225979e-08,-2.363139473629e-08,NaN,NaN,2.90848568148079e-08,-6.47916641972502e-08,NaN,-1.3463497911158e-06,6.65994572552846e-07,-4.82283532500147e-07,4.82283532500226e-07,-3.0708183384275e-07,0,1,0
3166.0032,1.77157041195149e-07,1.27690403752194e-07,3.04847444947284e-07,6.8390127686483e-09,-1.98884945669251e-07,-1.98884945669253e-07,NaN,2.12185369464838e-07,1.58348282794334e-07,7.61959813497773e-08,9.66000677795972e-08,7.61959813500448e-08,-8.90645432865943e-08,-3.74093016285493e-08,-1.26473844915189e-07,NaN,NaN,7.88236786605091e-08,1.13860071710672e-07,4.23809484233372e-08,1.13860071710686e-07,-9.51261784285115e-09,-3.60415044477014e-07,NaN,9.91162686530057e-08,1.11413457143488e-07,NaN,-8.33345856425304e-08,8.33345856421339e-08,1.92688897767862e-07,-4.13310602471462e-08,9.43694373656122e-09,NaN,NaN,6.76243946548061e-08,-1.42598263659103e-07,1.92567539548063e-07,1.15536975387341e-07,1.15536975387475e-07,-2.58596871517821e-08,-2.17886135385961e-08,NaN,NaN,3.17629305172327e-08,-6.41728557065384e-08,NaN,-1.29743004574269e-06,6.59713262054383e-07,-4.68054034713248e-07,4.68054034713325e-07,-3.05066247232559e-07,0,1,0
3166.1056,1.60078760213832e-07,1.25848689847637e-07,2.85927450061411e-07,7.93167810776357e-09,-1.95054101166563e-07,-1.95054101166561e-07,NaN,2.08073664953047e-07,1.50226386883493e-07,7.08194076031554e-08,9.33568758390972e-08,7.08194076034233e-08,-8.72891474319679e-08,-3.78145394748175e-08,-1.25103686906831e-07,NaN,NaN,7.28400057242453e-08,1.144807865228e-07,3.85009113155689e-08,1.14480786522813e-07,7.93172887554425e-09,-3.68013265008509e-07,NaN,1.01820580064365e-07,1.11928167184622e-07,NaN,-8.2970664730633e-08,8.29706647302371e-08,2.03327136106464e-07,-4.1007724400098e-08,9.80910564847285e-09,NaN,NaN,6.86591747271505e-08,-1.41079535244164e-07,1.9134029122545e-07,1.16175993022266e-07,1.16175993022401e-07,-3.27705803676638e-08,-2.00990259884858e-08,NaN,NaN,3.40662051470483e-08,-6.22151496286924e-08,NaN,-1.24958171580154e-06,6.5575632119386e-07,-4.56905018332345e-07,4.56905018332418e-07,-2.93336200911065e-07,0,0,0
3166.208,1.39520922868212e-07,1.21843682783042e-07,2.61364605651196e-07,9.36928846949103e-09,-1.9021862560949e-07,-1.90218625609482e-07,NaN,2.02505367625204e-07,1.42991440732896e-07,6.15757946192556e-08,9.0389594340708e-08,6.1575794619525e-08,-8.75851000818724e-08,-3.59045528271341e-08,-1.23489652909053e-07,NaN,NaN,6.41186745771135e-08,1.11730085693809e-07,3.88670544199527e-08,1.11730085693822e-07,2.95229102554488e-08,-3.74486424248032e-07,NaN,1.04402214756175e-07,1.12213723919117e-07,NaN,-8.44882521085696e-08,8.44882521081751e-08,2.14403719838719e-07,-4.00561699172098e-08,9.64544122101452e-09,NaN,NaN,6.90979236353356e-08,-1.40545703499284e-07,1.8920196451279e-07,1.17828471825354e-07,1.17828471825486e-07,-4.15388150185877e-08,-1.86886690331523e-08,NaN,NaN,3.5710967699723e-08,-5.89339862248813e-08,NaN,-1.20599678699559e-06,6.5504068500433e-07,-4.5078775349887e-07,4.50787753498937e-07,-2.69851488518308e-07,0,0,0
3166.3104,1.15576273302817e-07,1.15705467340866e-07,2.31281740643627e-07,1.13621807795694e-08,-1.84709034674158e-07,-1.84709034674143e-07,NaN,1.95559308029251e-07,1.36322767528693e-07,4.7894603977582e-08,8.78989951581946e-08,4.78946039778531e-08,-9.01786129116644e-08,-3.14931980005875e-08,-1.21671810912301e-07,NaN,NaN,5.24239364730316e-08,1.04940258556592e-07,4.37307898835637e-08,1.04940258556605e-07,5.4401897495509e-08,-3.7921666591277e-07,NaN,1.06700314265343e-07,1.12193611401684e-07,NaN,-8.79587570541468e-08,8.7958757053755e-08,2.25974397420283e-07,-3.84935015299869e-08,8.84502005704742e-09,NaN,NaN,6.89860427436449e-08,-1.40975402781047e-07,1.86307751755239e-07,1.20556662038548e-07,1.20556662038677e-07,-5.25029076328038e-08,-1.76477210435313e-08,NaN,NaN,3.64836454088258e-08,-5.4341466295167e-08,NaN,-1.16964815744902e-06,6.5802903878448e-07,-4.51470486396698e-07,4.51470486396755e-07,-2.33227210674202e-07,0,0,0
3166.4128,8.855440846564e-08,1.07764101149724e-07,1.96318509615307e-07,1.42041123001838e-08,-1.78998024477305e-07,-1.78998024477282e-07,NaN,1.87441527581272e-07,1.3001762759131e-07,2.95831961194049e-08,8.6070417979769e-08,2.9583196119679e-08,-9.51557514569854e-08,-2.4658221896198e-08,-1.19813973353235e-07,NaN,NaN,3.77125049441699e-08,9.37317418955677e-08,5.27308366747741e-08,9.37317418955799e-08,8.11631648754193e-08,-3.81254675907631e-07,NaN,1.08550183814204e-07,1.11826837338307e-07,NaN,-9.32179847891962e-08,9.32179847888082e-08,2.3793211155628e-07,-3.63871879844473e-08,7.38570833746844e-09,NaN,NaN,6.84142029806026e-08,-1.42280420224867e-07,1.82696920439327e-07,1.24305128565553e-07,1.24305128565676e-07,-6.57818449732895e-08,-1.70154642677897e-08,NaN,NaN,3.62769028055615e-08,-4.84607124693983e-08,NaN,-1.14298811957259e-06,6.64689742379198e-07,-4.60331135456878e-07,4.60331135456923e-07,-1.83019842797745e-07,0,0,0
3166.5152,5.90253481443843e-08,9.86245343894425e-08,1.57649882533772e-07,1.81566527383729e-08,-1.73628773703184e-07,-1.73628773703151e-07,NaN,1.78456599210177e-07,1.23964798011884e-07,6.88239787463725e-09,8.50437687479349e-08,6.88239787491466e-09,-1.02445354528133e-07,-1.57214734347971e-08,-1.18166827962986e-07,NaN,NaN,2.01681070722659e-08,7.81462814875804e-08,6.49665456490464e-08,7.81462814875924e-08,1.07971348796496e-07,-3.79477773901242e-07,NaN,1.09818090426135e-07,1.11119128154252e-07,NaN,-9.98917292480141e-08,9.9891729247631e-08,2.50028764633546e-07,-3.38664300242147e-08,5.34327199239701e-09,NaN,NaN,6.75169743488319e-08,-1.44302519923701e-07,1.78284196924526e-07,1.28918393165984e-07,1.28918393166099e-07,-8.12067917785432e-08,-1.67768504746713e-08,NaN,NaN,3.51040811638796e-08,-4.13698074189785e-08,NaN,-1.12763664997741e-06,6.74536260090104e-07,-4.78142474396049e-07,4.78142474396078e-07,-1.19977202154987e-07,0,0,0
3166.6176,2.78435199956411e-08,8.90799806335022e-08,1.16923500629089e-07,2.33235249292226e-08,-1.69129592891281e-07,-1.69129592891235e-07,NaN,1.68976417174568e-07,1.18110346993236e-07,-1.95217704540625e-08,8.48845424107856e-08,-1.95217704537829e-08,-1.11808490978214e-07,-5.19742887661864e-09,-1.17005919854893e-07,NaN,NaN,2.37017404546985e-10,5.87303256381011e-08,7.91757680515866e-08,5.87303256381129e-08,1.32817137815456e-07,-3.72892180092779e-07,NaN,1.10442470267091e-07,1.10126386516023e-07,NaN,-1.07454342388828e-07,1.07454342388451e-07,2.61927603428497e-07,-3.11234070307459e-08,2.8914268787176e-09,NaN,NaN,6.64678847054084e-08,-1.46814459363215e-07,1.7291166840363e-07,1.3416581516445e-07,1.34165815164556e-07,-9.83017299351674e-08,-1.68694712189592e-08,NaN,NaN,3.30919477211769e-08,-3.3256851100536e-08,NaN,-1.12409974732705e-06,6.86722384708014e-07,-5.04858344137556e-07,5.04858344137568e-07,-4.6184594192666e-08,0,0,0
3166.72,-3.88750522256755e-09,7.9988078928864e-08,7.61005737062443e-08,2.95685978976205e-08,-1.65919103062189e-07,-1.65919103062129e-07,NaN,1.59415386151014e-07,1.12441641352308e-07,-4.85416170116425e-08,8.55642955082659e-08,-4.85416170113605e-08,-1.2283055165366e-07,6.2620633614294e-09,-1.16568488292296e-07,NaN,NaN,-2.13741347085571e-08,3.65199398051095e-08,9.39543636798232e-08,3.65199398051209e-08,1.53837124517022e-07,-3.60972409198691e-07,NaN,1.10465610949818e-07,1.08946296681036e-07,NaN,-1.15301146684753e-07,1.15301146684383e-07,2.73273149173254e-07,-2.83977730495302e-08,2.80426429824397e-10,NaN,NaN,6.54701426248516e-08,-1.49532317035831e-07,1.66444057163124e-07,1.3976938084905e-07,1.39769380849146e-07,-1.16334921580975e-07,-1.7194469875163e-08,NaN,NaN,3.04579128931568e-08,-2.44616626523477e-08,NaN,-1.13157585118748e-06,7.00180640317236e-07,-5.39440796725243e-07,5.39440796725237e-07,3.49742671572517e-08,0,0,0
3166.8224,-3.49295870288673e-08,7.21391112873374e-08,3.72095242584201e-08,3.65103199430676e-08,-1.64216250648429e-07,-1.64216250648354e-07,NaN,1.50206320002596e-07,1.06985498097671e-07,-7.87943989545714e-08,8.69582433623167e-08,-7.87943989542874e-08,-1.3492914949878e-07,1.79214186428657e-08,-1.17007730855985e-07,NaN,NaN,-4.37636013556895e-08,1.29111899102474e-08,1.07952704534595e-07,1.29111899102586e-08,1.69598198267979e-07,-3.43901000059728e-07,NaN,1.10039865638997e-07,1.07698846858752e-07,NaN,-1.22824074662856e-07,1.22824074662492e-07,2.83758783799582e-07,-2.59456580576067e-08,-2.20148898639381e-09,NaN,NaN,6.47418050834729e-08,-1.52146307886283e-07,1.58865373124493e-07,1.4543771276757e-07,1.45437712767655e-07,-1.34435821771867e-07,-1.7627416030495e-08,NaN,NaN,2.74774884628736e-08,-1.54842614005174e-08,NaN,-1.14793243108231e-06,7.13792162981973e-07,-5.79817452178774e-07,5.79817452178749e-07,1.19111270064369e-07,0,0,0
3166.9248,-6.40706732722225e-08,6.61457142120903e-08,2.07504093982026e-09,4.35897743479107e-08,-1.63983876203009e-07,-1.63983876202919e-07,NaN,1.41765292200973e-07,1.01801705746277e-07,-1.08773576538084e-07,8.88647725708234e-08,-1.08773576537799e-07,-1.47405297410036e-07,2.90334435458801e-08,-1.18371853864231e-07,NaN,NaN,-6.59592624164261e-08,-1.05596143592815e-08,1.20033320120945e-07,-1.05596143592706e-08,1.79229040973342e-07,-3.22579502574331e-07,NaN,1.09401148492912e-07,1.06502195626407e-07,NaN,-1.2948756140191e-07,1.29487561401553e-07,2.93174308638673e-07,-2.40022952854261e-08,-4.2755126002338e-09,NaN,NaN,6.44907078584326e-08,-1.5436985194557e-07,1.50331601415884e-07,1.50901523923745e-07,1.5090152392382e-07,-1.51746022409872e-07,-1.80318600964936e-08,NaN,NaN,2.44437195048879e-08,-6.9510367676866e-09,NaN,-1.16994829956295e-06,7.26548507760185e-07,-6.2306555657699e-07,6.23065556576948e-07,2.01388114426661e-07,0,0,0
3167.0272,-9.02688575164254e-08,6.23764872051664e-08,-2.78923703113037e-08,5.01806513838592e-08,-1.64927505187686e-07,-1.64927505187581e-07,NaN,1.34446485819704e-07,9.69624836865599e-08,-1.37063017636366e-07,9.10452287355502e-08,-1.37063017636079e-07,-1.59541285488625e-07,3.89355656557937e-08,-1.20605719832911e-07,NaN,NaN,-8.70705156586302e-08,-3.24649395480578e-08,1.29404514671978e-07,-3.24649395480473e-08,1.8235714509547e-07,-2.98384665646331e-07,NaN,1.08816503206883e-07,1.05451638555945e-07,NaN,-1.34896942875333e-07,1.34896942874982e-07,3.01429563898931e-07,-2.27478213014959e-08,-5.71931260668615e-09,NaN,NaN,6.4878417226249e-08,-1.55993361156815e-07,1.41165273952902e-07,1.55937442869676e-07,1.55937442869742e-07,-1.67559874698897e-07,-1.82784040085298e-08,NaN,NaN,2.16218654391151e-08,4.62246411299009e-10,NaN,-1.19383313480685e-06,7.37646809089704e-07,-6.65813934881237e-07,6.65813934881179e-07,2.77217313751626e-07,0,1,0
3167.1296,-1.12744984099254e-07,6.09354808669927e-08,-5.18095032323029e-08,5.56972523836823e-08,-1.66545446933079e-07,-1.66545446932961e-07,NaN,1.28501586875763e-07,9.25162574692868e-08,-1.62540078062684e-07,9.32716511888146e-08,-1.62540078062398e-07,-1.70707263021221e-07,4.71382150189232e-08,-1.23569048002381e-07,NaN,NaN,-1.06415309912394e-07,-5.16885396662789e-08,1.3571916798804e-07,-5.16885396662692e-08,1.78991522584081e-07,-2.7283944841379e-07,NaN,1.08524971116642e-07,1.04605792291286e-07,NaN,-1.38845257182398e-07,1.38845257182051e-07,3.08563397513041e-07,-2.22806900881099e-08,-6.40542158697515e-09,NaN,NaN,6.59820072618721e-08,-1.56924106401671e-07,1.31818553121416e-07,1.60372519118104e-07,1.60372519118164e-07,-1.81415928239138e-07,-1.82651284436376e-08,NaN,NaN,1.92097214198107e-08,6.14513099380041e-09,NaN,-1.21585702266266e-06,7.46483601491881e-07,-7.04699791404097e-07,7.04699791404025e-07,3.42907407274205e-07,0,1,0
3167.232,-1.31025981418642e-07,6.16717410965277e-08,-6.93542403221533e-08,5.96631229444355e-08,-1.68210817739531e-07,-1.68210817739401e-07,NaN,1.24051625837726e-07,8.84366649323277e-08,-1.84497442565983e-07,9.53623351393732e-08,-1.84497442565698e-07,-1.80430847260204e-07,5.33691662477338e-08,-1.27061681012557e-07,NaN,NaN,-1.23571869730544e-07,-6.75281300640281e-08,1.39095456673426e-07,-6.75281300640188e-08,1.69563543357872e-07,-2.47452039325915e-07,NaN,1.08696865810027e-07,1.03980828950006e-07,NaN,-1.41329450754518e-07,1.41329450754175e-07,3.14750136673036e-07,-2.26004973400796e-08,-6.32360184850127e-09,NaN,NaN,6.77672214688476e-08,-1.5719973904055e-07,1.22847334510913e-07,1.640737356971e-07,1.64073735697156e-07,-1.9311458908626e-07,-1.79312098107193e-08,NaN,NaN,1.731455992264e-08,9.68208211923836e-09,NaN,-1.23282110527073e-06,7.52566067977548e-07,-7.36687423326257e-07,7.36687423326174e-07,3.96078154274357e-07,0,1,0
3167.3344,-1.44943308765262e-07,6.4208347391948e-08,-8.073496137335e-08,6.1726335696294e-08,-1.69269961569221e-07,-1.69269961569082e-07,NaN,1.21066800899938e-07,8.45701899824687e-08,-2.02634897613245e-07,9.71901243317364e-08,-2.02634897612961e-07,-1.8840953368678e-07,5.75676770335867e-08,-1.30841856653282e-07,NaN,NaN,-1.38334210295495e-07,-7.96870367191927e-08,1.40026920044652e-07,-7.9687036719184e-08,1.55164453272591e-07,-2.2381354812138e-07,NaN,1.09431155809867e-07,1.03553099544363e-07,NaN,-1.42535131957612e-07,1.42535131957271e-07,3.20308156829423e-07,-2.36050455405932e-08,-5.57989029148881e-09,NaN,NaN,7.00876338943149e-08,-1.56967656228995e-07,1.14925982704018e-07,1.6693377583171e-07,1.66933775831762e-07,-2.02657404259338e-07,-1.72588799735838e-08,NaN,NaN,1.59495697199432e-08,1.0947847579521e-08,NaN,-1.24220034828425e-06,7.55389186149441e-07,-7.59182192118594e-07,7.59182192118501e-07,4.35769843294934e-07,0,0,0
3167.4368,-1.54584436833617e-07,6.79966308987653e-08,-8.65878059348846e-08,6.16369186541609e-08,-1.69146984560874e-07,-1.69146984560729e-07,NaN,1.19356471741502e-07,8.06150231866589e-08,-2.16930553720937e-07,9.86654034038045e-08,-2.16930553720653e-07,-1.94472180571543e-07,5.9843042812474e-08,-1.34629137759159e-07,NaN,NaN,-1.50598493389059e-07,-8.81792707041828e-08,1.3919305143136e-07,-8.81792707041746e-08,1.37775013409299e-07,-2.03790194874112e-07,NaN,1.10790964487473e-07,1.03269945462448e-07,NaN,-1.42789518427551e-07,1.42789518427211e-07,3.25702164746134e-07,-2.51074254823921e-08,-4.36904686955186e-09,NaN,NaN,7.2720074255642e-08,-1.5642729302922e-07,1.08900071119939e-07,1.68860549682067e-07,1.68860549682117e-07,-2.10133645189865e-07,-1.62649673745883e-08,NaN,NaN,1.50452115646231e-08,1.01170278999e-08,NaN,-1.24201244434296e-06,7.54321669178775e-07,-7.70018143461122e-07,7.70018143461021e-07,4.62262354167281e-07,0,0,0
3167.5392,-1.60214382533163e-07,7.23976098006155e-08,-8.7816772732579e-08,5.92170234409145e-08,-1.67436924572916e-07,-1.67436924572766e-07,NaN,1.18584224722644e-07,7.61627044758103e-08,-2.27462681574369e-07,9.97107513378105e-08,-2.27462681574086e-07,-1.98515165854914e-07,6.04134637960229e-08,-1.38101702058981e-07,NaN,NaN,-1.60244700151954e-07,-9.31963967654843e-08,1.37226346458988e-07,-9.31963967654767e-08,1.20228868162726e-07,-1.89547218444441e-07,NaN,1.12853823590057e-07,1.03065997085651e-07,NaN,-1.4248613150024e-07,1.42486131499901e-07,3.31522297868189e-07,-2.68704400228148e-08,-2.92805636892913e-09,NaN,NaN,7.54278773700805e-08,-1.55751662281629e-07,1.05834246478379e-07,1.69770028404641e-07,1.69770028404691e-07,-2.15604324170051e-07,-1.49873755614257e-08,NaN,NaN,1.44687621482746e-08,7.58205207760451e-09,NaN,-1.23062353892799e-06,7.48552448907958e-07,-7.67452090959168e-07,7.67452090959063e-07,4.76705565050875e-07,0,0,0
3167.6416,-1.62204888213461e-07,7.67727312056042e-08,-8.54321570078859e-08,5.43452297062656e-08,-1.63960928283952e-07,-1.63960928283798e-07,NaN,1.18315524927251e-07,7.07982319191189e-08,-2.34272733049989e-07,1.00245197316268e-07,-2.34272733049707e-07,-2.00446661370433e-07,5.95374406769741e-08,-1.4090922069355e-07,NaN,NaN,-1.67075525456265e-07,-9.49894636914002e-08,1.34518979886631e-07,-9.49894636913926e-08,1.05810083254663e-07,-1.83261938787654e-07,NaN,1.15745607954983e-07,1.02879678300933e-07,NaN,-1.41997735677192e-07,1.41997735676853e-07,3.38427234362831e-07,-2.86459134608111e-08,-1.48747211936658e-09,NaN,NaN,7.80243425866701e-08,-1.55022366180488e-07,1.06994748680667e-07,1.69581431446745e-07,1.69581431446795e-07,-2.19030142487971e-07,-1.34721656585885e-08,NaN,NaN,1.40481458140984e-08,3.8329409471963e-09,NaN,-1.20668269533137e-06,7.37156493218258e-07,-7.50243942001183e-07,7.50243942001074e-07,4.80704086197864e-07,0,0,0
3167.744,-1.60996988132767e-07,8.05592122829889e-08,-8.04377758498066e-08,4.69571629167366e-08,-1.58765189140312e-07,-1.58765189140156e-07,NaN,1.18087755369233e-07,6.42163174509836e-08,-2.37326529585904e-07,1.00186757880048e-07,-2.37326529585623e-07,-2.00161588547061e-07,5.74470814578292e-08,-1.42714507089323e-07,NaN,NaN,-1.70836324858255e-07,-9.3798951214808e-08,1.31143031075325e-07,-9.37989512148006e-08,9.75830050751163e-08,-1.86579062220632e-07,NaN,1.19638727811607e-07,1.02664719011646e-07,NaN,-1.41601423417003e-07,1.41601423416664e-07,3.47053441253261e-07,-3.02066460352654e-08,-2.35769270572524e-10,NaN,NaN,8.04102706022785e-08,-1.54205750975332e-07,1.13731876553658e-07,1.68218045170089e-07,1.68218045170139e-07,-2.20263596603245e-07,-1.17644757899394e-08,NaN,NaN,1.35999394869335e-08,-6.33219422943307e-10,NaN,-1.16924506027465e-06,7.1928361411051e-07,-7.17798906729882e-07,7.17798906729769e-07,4.75957229882098e-07,0,0,0
3167.8464,-1.57092179261955e-07,8.33166865496428e-08,-7.37754927123414e-08,3.70545383342345e-08,-1.52070080050629e-07,-1.52070080050473e-07,NaN,1.17485903487321e-07,5.63111403706329e-08,-2.36573303591041e-07,9.94722462550067e-08,-2.36573303590759e-07,-1.9755257276015e-07,5.42948612694363e-08,-1.43257711490805e-07,NaN,NaN,-1.71298009963722e-07,-8.9837194629333e-08,1.2690359917735e-07,-8.98371946293255e-08,9.76631700225706e-08,-1.99994270864292e-07,NaN,1.24712744865925e-07,1.02394511945313e-07,NaN,-1.41434473493415e-07,1.41434473493074e-07,3.57908848462343e-07,-3.13664191646384e-08,6.96893097530357e-10,NaN,NaN,8.25740792515192e-08,-1.53178581507885e-07,1.27273971998453e-07,1.65614947659672e-07,1.65614947659723e-07,-2.19096277230098e-07,-9.90423746046327e-09,NaN,NaN,1.2960306203429e-08,-5.34175283148053e-09,NaN,-1.11802447509206e-06,6.9440221443512e-07,-6.70293428620782e-07,6.70293428620667e-07,4.64002012639001e-07,0,0,0
3167.9488,-1.51046148527925e-07,8.47448161369898e-08,-6.63013323909646e-08,2.47137328964094e-08,-1.44199176475554e-07,-1.44199176475399e-07,NaN,1.16207948194188e-07,4.72203184945564e-08,-2.32056364849484e-07,9.80849194894992e-08,-2.32056364849201e-07,-1.92551373111387e-07,5.01315026953885e-08,-1.42419870416088e-07,NaN,NaN,-1.68359657005293e-07,-8.33102770339267e-08,1.2148832842681e-07,-8.33102770339191e-08,1.06665630907376e-07,-2.22408658111361e-07,NaN,1.31091331799754e-07,1.020607696449e-07,NaN,-1.4148803135752e-07,1.41488031357179e-07,3.71278776370509e-07,-3.19900900269871e-08,1.2368021783812e-09,NaN,NaN,8.45562171968695e-08,-1.51794995129997e-07,1.48481813737364e-07,1.61727789740152e-07,1.61727789740201e-07,-2.15332651326453e-07,-7.92701350751323e-09,NaN,NaN,1.2012626976724e-08,-9.82415194213524e-09,NaN,-1.05366689301808e-06,6.62518084944796e-07,-6.08749308784886e-07,6.0874930878477e-07,4.4609900133149e-07,0,0,0
3168.0512,-1.43436802534995e-07,8.46758526838115e-08,-5.87609498512149e-08,1.0083342082696e-08,-1.35525318543104e-07,-1.3552531854295e-07,NaN,1.14103512445217e-07,3.73164978948425e-08,-2.24010835573583e-07,9.60732348847071e-08,-2.24010835573299e-07,-1.85187889661714e-07,4.49318207906465e-08,-1.40256068871157e-07,NaN,NaN,-1.62120682544262e-07,-7.44592244275888e-08,1.14663623008042e-07,-7.44592244275807e-08,1.23529588910516e-07,-2.51069863389306e-07,NaN,1.3878290807292e-07,1.01669890482458e-07,NaN,-1.41635580902643e-07,1.416355809023e-07,3.87173248222921e-07,-3.19982860444476e-08,1.35210079611419e-09,NaN,NaN,8.6391276938749e-08,-1.49971219546931e-07,1.7763512496314e-07,1.56534696296492e-07,1.56534696296541e-07,-2.08858737806813e-07,-5.8704648578657e-09,NaN,NaN,1.07023575268547e-08,-1.35979769438327e-08,NaN,-9.77933141422896e-07,6.24313990917849e-07,-5.35084831756339e-07,5.35084831756221e-07,4.23293062894392e-07,0,0,0
3168.1536,-1.34799309376366e-07,8.30483728278626e-08,-5.17509365485366e-08,-6.63391879096122e-09,-1.26452938343609e-07,-1.26452938343457e-07,NaN,1.1117484930813e-07,2.71451719640546e-08,-2.12895292599727e-07,9.3545773198746e-08,-2.12895292599443e-07,-1.75646517182151e-07,3.86678937809129e-08,-1.36978623401327e-07,NaN,NaN,-1.52885366066175e-07,-6.35970286048866e-08,1.06461530458395e-07,-6.35970286048779e-08,1.45776343797358e-07,-2.81955982514655e-07,NaN,1.47653893330489e-07,1.01240404172469e-07,NaN,-1.41686800109252e-07,1.41686800108908e-07,4.05332425928184e-07,-3.13703939206773e-08,1.03403273693422e-09,NaN,NaN,8.80525844117683e-08,-1.47753921897745e-07,2.14322413334363e-07,1.5003135501072e-07,1.50031355010769e-07,-1.99686486762663e-07,-3.78554044991139e-09,NaN,NaN,9.03241508954833e-09,-1.61852213895787e-08,NaN,-8.93688847469685e-07,5.81172979554774e-07,-4.52148261617232e-07,4.52148261617112e-07,3.96614165946824e-07,0,0,0
3168.256,-1.25556766735029e-07,7.98785302391295e-08,-4.56782364959359e-08,-2.51974311894657e-08,-1.17420068663087e-07,-1.17420068662939e-07,NaN,1.07546676468407e-07,1.732026638664e-08,-1.99344012816314e-07,9.0642981434714e-08,-1.99344012816027e-07,-1.6429560213076e-07,3.13988422250153e-08,-1.32896759905833e-07,NaN,NaN,-1.41099040951534e-07,-5.11232239837276e-08,9.72730231665175e-08,-5.11232239837184e-08,1.70060050681546e-07,-3.10455431302809e-07,NaN,1.57444371177025e-07,1.00802450302269e-07,NaN,-1.41450027841696e-07,1.4145002784135e-07,4.25279146607111e-07,-3.01471175143808e-08,2.84975106619353e-10,NaN,NaN,8.94292201711391e-08,-1.4534080665071e-07,2.5746706655575e-07,1.42230935689145e-07,1.42230935689193e-07,-1.87971973729057e-07,-1.74708586608478e-09,NaN,NaN,7.04256968307202e-09,-1.71853268655045e-08,NaN,-8.04639614181619e-07,5.35063994479215e-07,-3.63643705096264e-07,3.63643705096143e-07,3.67282537570754e-07,0,0,0
3168.3584,-1.15990844278809e-07,7.52500846871012e-08,-4.0740759591747e-08,-4.53161758771664e-08,-1.08884641610471e-07,-1.08884641610326e-07,NaN,1.03427606875398e-07,8.40344199914766e-09,-1.84073974827344e-07,8.75033205572336e-08,-1.84073974827055e-07,-1.51670725283867e-07,2.33292285270467e-08,-1.28341496756908e-07,NaN,NaN,-1.2725561249611e-07,-3.75130265671944e-08,8.77783184240619e-08,-3.75130265671842e-08,1.92800469505423e-07,-3.32140743020104e-07,NaN,1.67810838341118e-07,1.00396036431794e-07,NaN,-1.4078138151261e-07,1.40781381512264e-07,4.46388732183324e-07,-2.84306541150383e-08,-8.80172734011429e-10,NaN,NaN,9.03530454774891e-08,-1.43042690297636e-07,3.05467478671864e-07,1.33181212155082e-07,1.33181212155129e-07,-1.74019116604885e-07,1.44912462236395e-10,NaN,NaN,4.78656417494709e-09,-1.63769435840819e-08,NaN,-7.14845786181247e-07,4.88297861818033e-07,-2.73837489294868e-07,2.73837489294744e-07,3.36766971211916e-07,0,1,0
3168.4608,-1.06269005392347e-07,6.93286905152576e-08,-3.69403148771311e-08,-6.66079068940311e-08,-1.01281374009205e-07,-1.01281374009064e-07,NaN,9.90817372481227e-08,7.99698457911329e-10,-1.67797258879273e-07,8.42427316163912e-08,-1.67797258878982e-07,-1.3840832835796e-07,1.48039754637402e-08,-1.23604352894307e-07,NaN,NaN,-1.11825121226468e-07,-2.32892674830939e-08,7.87369318423427e-08,-2.32892674830823e-08,2.10778272601504e-07,-3.43502389843521e-07,NaN,1.78373014364312e-07,1.0006392806347e-07,NaN,-1.39604536075118e-07,1.39604536074771e-07,4.67956197987119e-07,-2.63780519416447e-08,-2.42348352951132e-09,NaN,NaN,9.06649967786576e-08,-1.41204610732854e-07,3.56398099481333e-07,1.22997645232756e-07,1.22997645232802e-07,-1.58282208396654e-07,1.77909268430482e-09,NaN,NaN,2.32041059750569e-09,-1.37955632285164e-08,NaN,-6.28148635297113e-07,4.43193364851514e-07,-1.87050556426443e-07,1.87050556426317e-07,3.06662142025715e-07,0,1,0
3168.5632,-9.65032489117262e-08,6.23857696481845e-08,-3.41174792635859e-08,-8.85589162063504e-08,-9.49692976985959e-08,-9.49692976984585e-08,NaN,9.4806443765952e-08,-5.30393612979701e-09,-1.5116191864248e-07,8.09507630938693e-08,-1.51161918642187e-07,-1.25145559129727e-07,6.24237726588519e-09,-1.18903181863929e-07,NaN,NaN,-9.52222683473099e-08,-8.98332623841203e-09,7.07360697878399e-08,-8.98332623839887e-09,2.21653490664074e-07,-3.42548446059276e-07,NaN,1.88751232601071e-07,9.98405892308745e-08,NaN,-1.37898149248471e-07,1.37898149248124e-07,4.89257300149908e-07,-2.41850744048365e-08,-4.27391325585752e-09,NaN,NaN,9.02885288374205e-08,-1.40118102707942e-07,4.08216434836372e-07,1.11899342916799e-07,1.11899342916844e-07,-1.41365285845319e-07,3.05828247405934e-09,NaN,NaN,-2.94541296199699e-10,-9.74865723289294e-09,NaN,-5.47646442389289e-07,4.01718807245246e-07,-1.07083690682363e-07,1.07083690682235e-07,2.78473121015316e-07,0,1,0
3168.6656,-8.68016986537183e-08,5.48098683504734e-08,-3.19918303032924e-08,-1.10511301504963e-07,-9.01949837822965e-08,-9.01949837821621e-08,NaN,9.08971813603581e-08,-9.94808486812422e-09,-1.34704431569092e-07,7.76890412775538e-08,-1.34704431568796e-07,-1.12412608268732e-07,-1.95957167062945e-09,-1.14372179939449e-07,NaN,NaN,-7.77997847078102e-08,4.91577018246962e-09,6.39857044034263e-08,4.91577018248436e-09,2.24362835428875e-07,-3.29191156298066e-07,NaN,1.98593984843466e-07,9.97437445264624e-08,NaN,-1.35659804713284e-07,1.35659804712937e-07,5.0960227613885e-07,-2.20630088796877e-08,-6.32293092171163e-09,NaN,NaN,8.92768190290276e-08,-1.39954426597507e-07,4.58936686666271e-07,1.00233335725156e-07,1.00233335725197e-07,-1.23998657495198e-07,3.92639769044203e-09,NaN,NaN,-2.97957006584995e-09,-4.77070998064789e-09,NaN,-4.75273893707426e-07,3.65195060799732e-07,-3.67511821528936e-08,3.67511821527614e-08,2.53406284186164e-07,0,0,0
3168.768,-7.72895213770298e-08,4.70850033658758e-08,-3.02045180112045e-08,-1.3169111625879e-07,-8.7079188658932e-08,-8.70791886588009e-08,NaN,8.75934808327822e-08,-1.33651899183747e-08,-1.18793185438464e-07,7.44770849619817e-08,-1.18793185438164e-07,-1.0054238176832e-07,-9.52060656188457e-09,-1.10062988330293e-07,NaN,NaN,-5.98390989157136e-08,1.80226769860249e-08,5.82122520631953e-08,1.80226769860408e-08,2.1932902961064e-07,-3.05356977721874e-07,NaN,2.07603597739295e-07,9.97720329925709e-08,NaN,-1.32865455868215e-07,1.32865455867868e-07,5.2838435099023e-07,-2.0212992457326e-08,-8.42791162788829e-09,NaN,NaN,8.78125358476435e-08,-1.40741865856937e-07,5.06765074776985e-07,8.84717004555954e-08,8.8471700455635e-08,-1.06978494407977e-07,4.38617557703058e-09,NaN,NaN,-5.62700995448263e-09,4.57510553091298e-10,NaN,-4.11490006464459e-07,3.34134025884841e-07,2.23842512750943e-08,-2.23842512752302e-08,2.32215178918604e-07,0,0,0
3168.8704,-6.80973187982304e-08,3.97278358492527e-08,-2.83694829490308e-08,-1.51277668208896e-07,-8.56223296408261e-08,-8.56223296406983e-08,NaN,8.50281383766545e-08,-1.5907887754424e-08,-1.0358231795882e-07,7.12691960468383e-08,-1.03582317958518e-07,-8.96193985153047e-08,-1.63272818177777e-08,-1.05946680333172e-07,NaN,NaN,-4.15360022593606e-08,3.01107569127756e-08,5.26876106853748e-08,3.01107569127922e-08,2.08417185862557e-07,-2.74756633300884e-07,NaN,2.15562992009887e-07,9.99051409520872e-08,NaN,-1.29447164266333e-07,1.29447164265987e-07,5.45129663685189e-07,-1.88006568866428e-08,-1.04266468777033e-08,NaN,NaN,8.61590594692685e-08,-1.42398137110345e-07,5.502168719879e-07,7.71684799548909e-08,7.71684799549277e-08,-9.10839600494635e-08,4.50283974579627e-09,NaN,NaN,-8.09745428663373e-09,5.20952428977521e-09,NaN,-3.55144800525557e-07,3.08229447294115e-07,7.00684375768307e-08,-7.00684375769703e-08,2.15130843460766e-07,0,0,0
3168.9728,-5.93317547547667e-08,3.31971768446555e-08,-2.61345779101665e-08,-1.6849341456773e-07,-8.5720493157815e-08,-8.57204931576899e-08,NaN,8.32054175833931e-08,-1.796157409496e-08,-8.9021463609356e-08,6.79412410933968e-08,-8.90214636090513e-08,-7.94876206394952e-08,-2.24302430075893e-08,-1.01917863647175e-07,NaN,NaN,-2.30033693597077e-08,4.11353425889872e-08,4.63936983448989e-08,4.11353425890048e-08,1.94626034853996e-07,-2.42313897341926e-07,NaN,2.2235060255107e-07,1.00101479119269e-07,NaN,-1.25303761587272e-07,1.25303761586927e-07,5.59542832260205e-07,-1.79337265614208e-08,-1.21638331325352e-08,NaN,NaN,8.45829626624637e-08,-1.44807399239204e-07,5.88216432019534e-07,6.68820269353515e-08,6.68820269353864e-08,-7.70036232053323e-08,4.39446646679993e-09,NaN,NaN,-1.02294930345441e-08,8.82493649126411e-09,NaN,-3.03638223569569e-07,2.86464670362471e-07,1.07227299376828e-07,-1.0722729937697e-07,2.01908217306427e-07,0,0,0
3169.0752,-5.10470112739115e-08,2.78000915918452e-08,-2.32469196821229e-08,-1.82680955671612e-07,-8.71853734404024e-08,-8.71853734402786e-08,NaN,8.20080543274971e-08,-1.987640595655e-08,-7.49368249138886e-08,6.42999612892927e-08,-7.49368249135809e-08,-6.9824252862379e-08,-2.79812535395626e-08,-9.78055064020325e-08,NaN,NaN,-4.29844863140965e-09,5.12170754133345e-08,3.82656223399741e-08,5.12170754133527e-08,1.81592879093892e-07,-2.13377360060436e-07,NaN,2.27927882244463e-07,1.00293698233469e-07,NaN,-1.20345530296424e-07,1.2034553029608e-07,5.7152825049974e-07,-1.76474499189833e-08,-1.35226499893332e-08,NaN,NaN,8.32760578792732e-08,-1.47911845798575e-07,6.20153667590642e-07,5.80913093673378e-08,5.80913093673713e-08,-6.52863104248069e-08,4.21230642035533e-09,NaN,NaN,-1.18604597597121e-08,1.08151809023694e-08,NaN,-2.53386199504897e-07,2.67294152008393e-07,1.35688531953983e-07,-1.35688531954128e-07,1.91985780038913e-07,0,0,0
3169.1776,-4.32198284419592e-08,2.3613094541905e-08,-1.96067339001113e-08,-1.93345392222363e-07,-8.97683259622878e-08,-8.97683259621645e-08,NaN,8.12115274436567e-08,-2.19462322887169e-08,-6.11454789000246e-08,6.01112642919371e-08,-6.11454788997146e-08,-6.02615979592988e-08,-3.31248933559752e-08,-9.33864913153655e-08,NaN,NaN,1.45492747191395e-08,6.06028091972157e-08,2.74441006158514e-08,6.06028091972337e-08,1.73036887188028e-07,-1.92896468900002e-07,NaN,2.32304092461381e-07,1.00387228212047e-07,NaN,-1.14563909985358e-07,1.14563909985015e-07,5.81178365114547e-07,-1.79029290269936e-08,-1.44495586185854e-08,NaN,NaN,8.23001343766225e-08,-1.51780274307866e-07,6.45886209493893e-07,5.1136745902439e-08,5.11367459024722e-08,-5.63031780415142e-08,4.11426988609559e-09,NaN,NaN,-1.28548156248409e-08,1.09358594930405e-08,NaN,-2.00475847592531e-07,2.48873698953239e-07,1.5781039199867e-07,-1.57810391998815e-07,1.8469071907931e-07,0,0,0
3169.28,-3.5715013196282e-08,2.04324236447469e-08,-1.52825895515921e-08,-2.00161675352715e-07,-9.31891245822888e-08,-9.31891245821634e-08,NaN,8.04883961280196e-08,-2.44342059608595e-08,-4.7545349286467e-08,5.51349496360049e-08,-4.75453492861558e-08,-5.0516765707065e-08,-3.78756202102535e-08,-8.83923859174104e-08,NaN,NaN,3.35368673566226e-08,6.96247165401779e-08,1.34935336082028e-08,6.9624716540195e-08,1.72243894927694e-07,-1.84718886949332e-07,NaN,2.3550099598171e-07,1.00266652575805e-07,NaN,-1.08106731723456e-07,1.08106731723114e-07,5.88740651903143e-07,-1.85997769443908e-08,-1.49630068214564e-08,NaN,NaN,8.1568677596986e-08,-1.566222323172e-07,6.65711021444855e-07,4.61964280532928e-08,4.61964280533256e-08,-5.02073163448631e-08,4.235079538427e-09,NaN,NaN,-1.31362799484049e-08,9.20016755407903e-09,NaN,-1.41341538220812e-07,2.29318279802631e-07,1.76084071641869e-07,-1.76084071642014e-07,1.79395076258395e-07,0,0,0
3169.3824,-2.82423947060543e-08,1.77686781114007e-08,-1.04737165947103e-08,-2.02958363398761e-07,-9.71582923945108e-08,-9.71582923943825e-08,NaN,7.94044117253472e-08,-2.76301204813503e-08,-3.41537653700052e-08,4.91540670452863e-08,-3.41537653696919e-08,-4.04862588326118e-08,-4.20244196060305e-08,-8.25106784387341e-08,NaN,NaN,5.27107404815253e-08,7.86609259886458e-08,-3.44988314010237e-09,7.86609259886624e-08,1.81658682926866e-07,-1.91131858361794e-07,NaN,2.37532717166827e-07,9.98097493038507e-08,NaN,-1.01326521136114e-07,1.01326521135773e-07,5.94574190676185e-07,-1.95993382134309e-08,-1.51448493851583e-08,NaN,NaN,8.08686094220261e-08,-1.62739504631535e-07,6.8032511592248e-07,4.32900752070864e-08,4.32900752071189e-08,-4.69079782106633e-08,4.65863660338749e-09,NaN,NaN,-1.27154446771536e-08,5.82833142285272e-09,NaN,-7.33039178571508e-08,2.06945213537388e-07,1.92771655176505e-07,-1.92771655176648e-07,1.75579322858192e-07,0,0,0
3169.4848,-2.0334560622314e-08,1.48982143279537e-08,-5.43634629441605e-09,-2.01690085177274e-07,-1.01377056114712e-07,-1.0137705611458e-07,NaN,7.74233795918984e-08,-3.19277409407457e-08,-2.11111548343582e-08,4.19939831783979e-08,-2.11111548340434e-08,-3.02830685672573e-08,-4.51142530484473e-08,-7.53973216157964e-08,NaN,NaN,7.21840689825765e-08,8.80894314507013e-08,-2.26434558136832e-08,8.80894314507167e-08,2.02611890381699e-07,-2.12711657847098e-07,NaN,2.38395890414311e-07,9.89045524433978e-08,NaN,-9.4770675146904e-08,9.47706751465643e-08,5.99091836293252e-07,-2.07521527345494e-08,-1.51199876632288e-08,NaN,NaN,7.99115722947417e-08,-1.70435089231366e-07,6.90760098375155e-07,4.23010468345248e-08,4.2301046834557e-08,-4.60943753526911e-08,5.39981208714827e-09,NaN,NaN,-1.17000534862953e-08,1.15873426171601e-09,NaN,5.1329771092017e-09,1.80447867306138e-07,2.0963221148447e-07,-2.09632211484611e-07,1.72834303884352e-07,1,0,0
3169.5872,-1.13794607451801e-08,1.09715662416598e-08,-4.07894503574665e-10,-1.96408203195963e-07,-1.05515555987593e-07,-1.05515555987456e-07,NaN,7.39388096088394e-08,-3.79082429038834e-08,-8.67811309617773e-09,3.35349088280661e-08,-8.67811309586255e-09,-2.02215892598033e-08,-4.64936855405322e-08,-6.67152748004272e-08,NaN,NaN,9.21232635794161e-08,9.82337013664645e-08,-4.28479782363296e-08,9.82337013664785e-08,2.35188615351512e-07,-2.4846304502709e-07,NaN,2.38057529391272e-07,9.74645059024069e-08,NaN,-8.91082849388995e-08,8.9108284938561e-08,6.02681983796993e-07,-2.19249588133199e-08,-1.50304663934728e-08,NaN,NaN,7.83980021214375e-08,-1.79912173358641e-07,6.98262719470301e-07,4.30107965705323e-08,4.30107965705626e-08,-4.73214172722049e-08,6.40115472263812e-09,NaN,NaN,-1.02793608805203e-08,-4.4399409271886e-09,NaN,9.42339791525488e-08,1.48971500365409e-07,2.2776583785743e-07,-2.27765837857567e-07,1.70856538932822e-07,1,0,0
3169.6896,-7.21462128265384e-10,5.15851720438687e-09,4.43705507606863e-09,-1.87238486359679e-07,-1.09189108870888e-07,-1.09189108870748e-07,NaN,6.83375602937259e-08,-4.64008080838814e-08,2.76783678814228e-09,2.37243529947517e-08,2.76783678845831e-09,-1.07673968922468e-08,-4.54301528822335e-08,-5.61975497745719e-08,NaN,NaN,1.12699904788338e-07,1.09310540876698e-07,-6.25669574664996e-08,1.09310540876711e-07,2.78272112874336e-07,-2.96184289210764e-07,NaN,2.36437564453597e-07,9.54389682375732e-08,NaN,-8.50171961547627e-08,8.50171961544253e-08,6.05618577608891e-07,-2.30233300023936e-08,-1.50096652289428e-08,NaN,NaN,7.60791337933458e-08,-1.91191649286477e-07,7.04119403359471e-07,4.51365837875187e-08,4.51365837875465e-08,-5.01325875302603e-08,7.54471193218429e-09,NaN,NaN,-8.68640176295298e-09,-1.0629754603631e-08,NaN,1.93159184558122e-07,1.12110744315949e-07,2.4757129895862e-07,-2.47571298958754e-07,1.69468398484149e-07,1,0,0
3169.792,1.21878745327942e-08,-3.20512740977546e-09,8.9827471229676e-09,-1.74374671165339e-07,-1.11954898070193e-07,-1.11954898070049e-07,NaN,6.00855840185642e-08,-5.84756499623957e-08,1.27580967034853e-08,1.25905518855096e-08,1.27580967038027e-08,-2.4611592674015e-09,-4.12592799970869e-08,-4.37204392645801e-08,NaN,NaN,1.34023899667114e-07,1.21393688351095e-07,-8.03435309464172e-08,1.21393688351107e-07,3.29802115515183e-07,-3.52974335251885e-07,NaN,2.33398648265206e-07,9.2818737594801e-08,NaN,-8.30625031271601e-08,8.30625031268242e-08,6.07984859160725e-07,-2.40042037277967e-08,-1.51623818552768e-08,NaN,NaN,7.28055316473192e-08,-2.04065142487308e-07,7.09458546494524e-07,4.83582455442541e-08,4.83582455442798e-08,-5.41706070694325e-08,8.67435176845063e-09,NaN,NaN,-7.15156742810435e-09,-1.71335520108228e-08,NaN,3.00181835303775e-07,6.98711982666678e-08,2.68799646797261e-07,-2.68799646797392e-07,1.68654971708877e-07,0,0,0
3169.8944,2.76366398077291e-08,-1.45005746044834e-08,1.31360652031962e-08,-1.58094449053906e-07,-1.13345356317375e-07,-1.13345356317226e-07,NaN,4.88215574533509e-08,-7.53227085805139e-08,2.08123597916686e-08,2.53776964772808e-10,2.0812359791988e-08,4.1815503431538e-09,-3.3545785289034e-08,-2.93642349459723e-08,NaN,NaN,1.56082984639781e-07,1.34401865068531e-07,-9.50236549134445e-08,1.34401865068541e-07,3.87200978146036e-07,-4.15753081148705e-07,NaN,2.28764422543376e-07,8.96376944830184e-08,NaN,-8.35913794392705e-08,8.35913794389359e-08,6.09644358329666e-07,-2.48737622978577e-08,-1.55536805400638e-08,NaN,NaN,6.85556939363061e-08,-2.18088140604232e-07,7.15086872641425e-07,5.23258350391205e-08,5.23258350391433e-08,-5.92240333696497e-08,9.62268783154416e-09,NaN,NaN,-5.86272869745758e-09,-2.37455203783266e-08,NaN,4.1293827245223e-07,2.26328819388001e-08,2.90694328340464e-07,-2.90694328340591e-07,1.68572744897427e-07,0,0,0
3169.9968,4.55417539268074e-08,-2.87614684947558e-08,1.67802854320035e-08,-1.38796926044929e-07,-1.12944295729135e-07,-1.12944295728983e-07,NaN,3.44493622213635e-08,-9.79957207572676e-08,2.65726659971259e-08,-1.30641672863679e-08,2.65726659974474e-08,8.78327290029909e-09,-2.22201066914467e-08,-1.34368337912407e-08,NaN,NaN,1.78705909148655e-07,1.48110754197616e-07,-1.059161335326e-07,1.48110754197624e-07,4.47812113390067e-07,-4.81625513018354e-07,NaN,2.2237686167808e-07,8.59707099234748e-08,NaN,-8.66641026493404e-08,8.66641026490073e-08,6.10281481413457e-07,-2.5670735059264e-08,-1.62059406762483e-08,NaN,NaN,6.34426928438942e-08,-2.32614989677786e-07,7.21415397586204e-07,5.66560043290607e-08,5.665600432908e-08,-6.51883548751008e-08,1.02369548064237e-08,NaN,NaN,-4.94564227017027e-09,-3.03392090855072e-08,NaN,5.28620661580075e-07,-2.88447001752316e-08,3.12186721173955e-07,-3.12186721174078e-07,1.69488488042533e-07,0,0,0
3170.0992,6.53971583175815e-08,-4.56729675966166e-08,1.97241907209181e-08,-1.17042065271162e-07,-1.10490356691377e-07,-1.10490356691222e-07,NaN,1.72190130237604e-08,-1.27060642945367e-07,2.99479665871463e-08,-2.70282924099123e-08,2.99479665874703e-08,1.12035188105695e-08,-7.6526738639998e-09,3.55084494647512e-09,NaN,NaN,2.01550171812658e-07,1.62177611084254e-07,-1.12826974382233e-07,1.62177611084261e-07,5.09192577271235e-07,-5.4798414496507e-07,NaN,2.14175182215096e-07,8.19268261808366e-08,NaN,-9.20316770551072e-08,9.20316770547753e-08,6.09499192589934e-07,-2.64391095496725e-08,-1.71024419540735e-08,NaN,NaN,5.76986311198353e-08,-2.46875164345044e-07,7.2849077128379e-07,6.09349797537328e-08,6.09349797537481e-08,-7.19680362186153e-08,1.03995252958616e-08,NaN,NaN,-4.47101353600596e-09,-3.68791909209737e-08,NaN,6.44002439924787e-07,-8.33533905667012e-08,3.32076345867932e-07,-3.32076345868052e-07,1.71658067350458e-07,0,0,0
3170.2016,8.62821555527719e-08,-6.46222061224054e-08,2.16599494303211e-08,-9.3554376355558e-08,-1.05969089044072e-07,-1.05969089043916e-07,NaN,-2.22826547392205e-09,-1.62255405142888e-07,3.12133663288846e-08,-4.11782770144707e-08,3.12133663292107e-08,1.15958575861818e-08,9.34926410882287e-09,2.09451216949079e-08,NaN,NaN,2.24114176974303e-07,1.7616682948666e-07,-1.16007174400721e-07,1.76166829486665e-07,5.69201423973671e-07,-6.12396185033782e-07,NaN,2.04256901273971e-07,7.76385083523707e-08,NaN,-9.91528416161507e-08,9.915284161582e-08,6.06926050880219e-07,-2.71985564783912e-08,-1.81939757096574e-08,NaN,NaN,5.16420888344432e-08,-2.60072648609196e-07,7.36085660544594e-07,6.47381109674189e-08,6.47381109674294e-08,-7.9372923923807e-08,1.00424754025588e-08,NaN,NaN,-4.47842879329944e-09,-4.34258763864294e-08,NaN,7.55305378666846e-07,-1.39156452711913e-07,3.49143748989377e-07,-3.49143748989494e-07,1.75197099343109e-07,0,0,0
3170.304,1.06934945217161e-07,-8.47699773596023e-08,2.21649678575147e-08,-6.91630758199891e-08,-9.96509954272969e-08,-9.96509954271385e-08,NaN,-2.2882473218692e-08,-2.02299918015486e-07,3.10307319767583e-08,-5.49297006731177e-08,3.10307319770862e-08,1.04084030798927e-08,2.76099741542898e-08,3.80183772340832e-08,NaN,NaN,2.45782618985984e-07,1.89575156024309e-07,-1.16077110387488e-07,1.89575156024313e-07,6.25908540456e-07,-6.72409145981919e-07,NaN,1.92889160598452e-07,7.32504654477729e-08,NaN,-1.07237403922831e-07,1.07237403922502e-07,6.02285828895111e-07,-2.79238546164892e-08,-1.9404514646296e-08,NaN,NaN,4.56401708679113e-08,-2.71476801129406e-07,7.43782316800433e-07,6.76629478564571e-08,6.76629478564618e-08,-8.70570063285799e-08,9.1576985934665e-09,NaN,NaN,-4.99644284606839e-09,-5.01195051741396e-08,NaN,8.58097138990766e-07,-1.94011370985797e-07,3.62212098164777e-07,-3.62212098164891e-07,1.7998780580598e-07,0,0,0
