time,S1-D1,S1-D8,S1-D9,S1-D15,S2-D1,S2-D2,S2-D3,S2-D9,S3-D1,S3-D2,S3-D16,S4-D2,S4-D3,S4-D5,S5-D3,S5-D4,S5-D5,S6-D2,S6-D5,S6-D17,S7-D6,S7-D7,S8-D6,S8-D7,S8-D18,S9-D3,S9-D4,S9-D9,S9-D11,S9-D19,S10-D8,S10-D9,S10-D10,S10-D11,S11-D8,S11-D10,S11-D20,S12-D10,S12-D11,S12-D12,S13-D4,S13-D11,S13-D12,S14-D10,S14-D12,S14-D21,S15-D13,S15-D14,S16-D13,S16-D14,S16-D22,SART_Target,SART_NonTarget,SART_Probe
1888.4608,3.05555569377065e-08,-9.59369408500916e-08,-6.53813839124051e-08,8.16277298009693e-08,-3.21034062747929e-08,-3.21034062745768e-08,NaN,NaN,3.03522879871178e-06,-1.50062547316499e-07,-2.20086771861969e-07,-1.5006254731632e-07,-3.12998029551277e-08,-8.33558600690996e-08,-1.14655663024431e-07,NaN,NaN,-3.37615153154149e-07,-4.31569131470879e-07,-7.00400512846902e-07,-4.31569131470219e-07,1.12132391450763e-06,NaN,NaN,1.58076703205427e-08,-8.1627887802464e-08,NaN,NaN,5.34031130934685e-07,2.97772458095192e-07,-1.18179519067305e-06,NaN,2.01881156352873e-09,1.31525302982452e-08,-1.3628869147204e-07,-1.23136161173877e-07,-2.14443008793338e-07,8.06315133789285e-09,8.06315133803918e-09,-2.66006147155889e-07,-2.05408994872943e-07,-4.71415142028699e-07,NaN,-3.06130212953482e-07,-7.41246119602252e-08,7.07251796795104e-08,-2.31643413305726e-07,-2.31643413305546e-07,-1.50490537416784e-07,4.15418733038872e-08,NaN,0,1,0
1888.5632,3.68289578874294e-08,-9.77542967865088e-08,-6.09253388990994e-08,7.83761845942206e-08,-3.02654612808259e-08,-3.02654612806094e-08,NaN,NaN,3.02092909081121e-06,-1.42155032410589e-07,-2.26617335479145e-07,-1.42155032410413e-07,-2.95863093126306e-08,-8.48051933227021e-08,-1.14391502635537e-07,NaN,NaN,-3.26288140229395e-07,-4.28011897821536e-07,-7.39908227024725e-07,-4.28011897820887e-07,1.12113065582929e-06,NaN,NaN,2.05889798899296e-08,-8.11448233845564e-08,NaN,NaN,5.10477686682666e-07,2.96828909653847e-07,-1.15713618377055e-06,NaN,-1.89734127668363e-08,1.10370078019119e-08,-1.36675199483723e-07,-1.25638191681894e-07,-2.02791364743511e-07,3.80331520914885e-09,3.8033152093006e-09,-2.68943852876794e-07,-2.05234352174789e-07,-4.74178205051449e-07,NaN,-3.09096304680608e-07,-7.68074316167617e-08,7.28639054316904e-08,-2.34295168160246e-07,-2.3429516816007e-07,-1.57582525927788e-07,4.5305366190005e-08,NaN,0,1,0
1888.6656,4.22938026777503e-08,-9.93483527145515e-08,-5.70545500368208e-08,7.54140932836573e-08,-2.79401655677275e-08,-2.79401655675114e-08,NaN,NaN,3.0012086892088e-06,-1.35008169920067e-07,-2.33574369589989e-07,-1.35008169919893e-07,-2.76181864342045e-08,-8.65515037421192e-08,-1.14169690176528e-07,NaN,NaN,-3.13081753590414e-07,-4.19639588690783e-07,-7.62202641453514e-07,-4.19639588690148e-07,1.12179080244362e-06,NaN,NaN,2.50067441305778e-08,-8.0600258791387e-08,NaN,NaN,4.86920996858554e-07,2.95669261598425e-07,-1.13092624382244e-06,NaN,-4.24592998140828e-08,9.56231974894775e-09,-1.36918125270137e-07,-1.27355805521273e-07,-1.92569070051631e-07,-1.68681502559948e-10,-1.68681502403339e-10,-2.71271983776936e-07,-2.05014432168071e-07,-4.7628641594487e-07,NaN,-3.11191790225139e-07,-7.87666066408354e-08,7.43334571449144e-08,-2.35723199962485e-07,-2.35723199962313e-07,-1.63531965942815e-07,4.84430806842724e-08,NaN,0,1,0
1888.768,4.66741662588549e-08,-1.00652472582085e-07,-5.39783063232481e-08,7.28364435816139e-08,-2.51439860561245e-08,-2.51439860559088e-08,NaN,NaN,2.97762061072476e-06,-1.28624955655668e-07,-2.4063804083623e-07,-1.28624955655496e-07,-2.53597481601485e-08,-8.84221035854818e-08,-1.13781851745835e-07,NaN,NaN,-2.98155534368726e-07,-4.06640632430706e-07,-7.67419415815416e-07,-4.06640632430091e-07,1.12295490715778e-06,NaN,NaN,2.88279702734e-08,-8.00218594079714e-08,NaN,NaN,4.65301353960586e-07,2.94551528076628e-07,-1.10551064477669e-06,NaN,-6.66285389066252e-08,8.72225556203294e-09,-1.37049454151089e-07,-1.2832719858914e-07,-1.84068470449957e-07,-3.74972577945416e-09,-3.74972577929265e-09,-2.7299683883911e-07,-2.04810612231546e-07,-4.77807451070517e-07,NaN,-3.12558255944768e-07,-8.01842024070819e-08,7.47265826370763e-08,-2.36062953041255e-07,-2.36062953041085e-07,-1.68121636408365e-07,5.06979008896549e-08,NaN,0,0,0
1888.8704,4.97159884791039e-08,-1.01617264709056e-07,-5.19012762299681e-08,7.06535412017646e-08,-2.1958507753997e-08,-2.1958507753782e-08,NaN,NaN,2.95158157375706e-06,-1.22950084826901e-07,-2.47426302662631e-07,-1.2295008482673e-07,-2.28030548715325e-08,-9.01896211278713e-08,-1.12992675999609e-07,NaN,NaN,-2.81741912109575e-07,-3.89257476941855e-07,-7.55845733833269e-07,-3.89257476941261e-07,1.12419864952999e-06,NaN,NaN,3.17664741814083e-08,-7.94459056317011e-08,NaN,NaN,4.47595007336525e-07,2.93761523373329e-07,-1.08325024841855e-06,NaN,-8.92243134912558e-08,8.49233813234016e-09,-1.37101475271806e-07,-1.2860913713955e-07,-1.77690575782673e-07,-6.84489182478242e-09,-6.84489182461684e-09,-2.74142653662607e-07,-2.04674617582826e-07,-4.78817271245291e-07,NaN,-3.13365543019093e-07,-8.12803911920485e-08,7.3520319547858e-08,-2.35503321948214e-07,-2.35503321948045e-07,-1.71302976160247e-07,5.19558982557559e-08,NaN,0,0,0
1888.9728,5.12840932766576e-08,-1.02216805693139e-07,-5.09327124164957e-08,6.88330100698715e-08,-1.85015623074009e-08,-1.85015623071863e-08,NaN,NaN,2.92418646056471e-06,-1.17853013879184e-07,-2.53505714474887e-07,-1.17853013879014e-07,-1.99524672938201e-08,-9.158935465694e-08,-1.11541821950965e-07,NaN,NaN,-2.64130695418003e-07,-3.67624445271311e-07,-7.27626376447828e-07,-3.67624445270742e-07,1.12499458115966e-06,NaN,NaN,3.3608338289991e-08,-7.8910661235663e-08,NaN,NaN,4.35772867452959e-07,2.9363524238822e-07,-1.06633891714128e-06,NaN,-1.07733400173201e-07,8.80574552082342e-09,-1.37110539580616e-07,-1.28304794059877e-07,-1.73810496730691e-07,-9.35840022827344e-09,-9.35840022810369e-09,-2.74687239271377e-07,-2.04635824660076e-07,-4.79323063931309e-07,NaN,-3.1371240272072e-07,-8.22495783247565e-08,7.03293729378391e-08,-2.34186156098199e-07,-2.3418615609803e-07,-1.73115752502562e-07,5.22256870666326e-08,NaN,0,0,0
1889.0752,5.14482424053009e-08,-1.02454101850246e-07,-5.10058594449564e-08,6.73541815629749e-08,-1.4892068964608e-08,-1.48920689643942e-08,NaN,NaN,2.89620383888168e-06,-1.13132399400906e-07,-2.58439443611863e-07,-1.13132399400736e-07,-1.68169186017705e-08,-9.2359556338668e-08,-1.09176474940643e-07,NaN,NaN,-2.45681748290848e-07,-3.41837361295957e-07,-6.83007108288338e-07,-3.41837361295415e-07,1.1247112646874e-06,NaN,NaN,3.43343884943662e-08,-7.844934580507e-08,NaN,NaN,4.31572925962672e-07,2.94550813019391e-07,-1.05652466348214e-06,NaN,-1.19729050880921e-07,9.5404960009498e-09,-1.37120668937616e-07,-1.27580172936751e-07,-1.7260727459472e-07,-1.11963497409509e-08,-1.11963497407776e-08,-2.74560082212132e-07,-2.04702895869609e-07,-4.79262978081593e-07,NaN,-3.13600598288665e-07,-8.32344865703831e-08,6.51642429532568e-08,-2.32173219986661e-07,-2.32173219986492e-07,-1.73625229482367e-07,5.15962324527398e-08,NaN,0,0,0
1889.1776,5.05000673822851e-08,-1.02360675060222e-07,-5.18606076779454e-08,6.62421181711957e-08,-1.12260955615952e-08,-1.1226095561382e-08,NaN,NaN,2.86818177325494e-06,-1.08549317489269e-07,-2.61866987523793e-07,-1.08549317489097e-07,-1.34140541668296e-08,-9.22941013899959e-08,-1.05708155557029e-07,NaN,NaN,-2.2683163342602e-07,-3.12201945193131e-07,-6.22884954543095e-07,-3.12201945192616e-07,1.12267064300199e-06,NaN,NaN,3.41649140685791e-08,-7.80844689285645e-08,NaN,NaN,4.36135883975773e-07,2.9686748829609e-07,-1.05482672026291e-06,NaN,-1.23292545160184e-07,1.05305288917699e-08,-1.37181273165517e-07,-1.26650744273832e-07,-1.73957892255839e-07,-1.22860840514379e-08,-1.22860840512612e-08,-2.73699872316977e-07,-2.04875612468508e-07,-4.78575484785336e-07,NaN,-3.12985561377977e-07,-8.43356211220246e-08,5.85290558207686e-08,-2.29478607547774e-07,-2.29478607547602e-07,-1.72903008605358e-07,5.02075640392168e-08,NaN,0,0,0
1889.28,4.88834618668568e-08,-1.0198839674032e-07,-5.31049348734686e-08,6.55654268042685e-08,-7.57529756408189e-09,-7.57529756387025e-09,NaN,NaN,2.84052790961295e-06,-1.03879821419417e-07,-2.63580116114569e-07,-1.03879821419243e-07,-9.7850263435769e-09,-9.1284652591772e-08,-1.01069678935551e-07,NaN,NaN,-2.08067403421096e-07,-2.79475706388545e-07,-5.49194088414689e-07,-2.79475706388055e-07,1.11822397796708e-06,NaN,NaN,3.35026410285187e-08,-7.78253934108806e-08,NaN,NaN,4.49698589107117e-07,3.00818579466298e-07,-1.06137959466914e-06,NaN,-1.17392216003725e-07,1.15978454563801e-08,-1.37338213568563e-07,-1.25740368112268e-07,-1.77451351346402e-07,-1.26036153591458e-08,-1.26036153589668e-08,-2.72127353749966e-07,-2.05156631397579e-07,-4.77283985147392e-07,NaN,-3.11833517224885e-07,-8.56266782408169e-08,5.12827587604262e-08,-2.26115876381786e-07,-2.26115876381611e-07,-1.71038007837291e-07,4.82417195131925e-08,NaN,0,0,0
1889.3824,4.70649397892239e-08,-1.01397711666375e-07,-5.43327718771531e-08,6.53940473794261e-08,-4.00462047079585e-09,-4.00462047058597e-09,NaN,NaN,2.81347247025901e-06,-9.89690837973049e-08,-2.63556662374115e-07,-9.8969083797129e-08,-6.01155326889693e-09,-8.93316515241157e-08,-9.53432047932131e-08,NaN,NaN,-1.89875677847367e-07,-2.44942507495939e-07,-4.64718767052361e-07,-2.44942507495472e-07,1.11078370856236e-06,NaN,NaN,3.27928609040678e-08,-7.76712171551625e-08,NaN,NaN,4.71565358202663e-07,3.06417255826392e-07,-1.07548539012051e-06,NaN,-1.02079151313306e-07,1.25956413201169e-08,-1.37622103309943e-07,-1.25026461989911e-07,-1.8252444067964e-07,-1.21915200151978e-08,-1.21915200150167e-08,-2.69988775790513e-07,-2.05558255097868e-07,-4.75547030888226e-07,NaN,-3.10129131602719e-07,-8.71539575664075e-08,4.43102264874957e-08,-2.22128567010943e-07,-2.22128567010765e-07,-1.68152902014997e-07,4.59197171669262e-08,NaN,0,0,0
1889.4848,4.5397830526229e-08,-1.00649987517866e-07,-5.52521569916343e-08,6.5726523052715e-08,-5.94054444119461e-10,-5.94054443911709e-10,NaN,NaN,2.78695348129488e-06,-9.37713680868839e-08,-2.61940043543006e-07,-9.37713680867048e-08,-2.22362755494016e-09,-8.65210253147161e-08,-8.87446528698548e-08,NaN,NaN,-1.72696394477483e-07,-2.10285504138929e-07,-3.72396296488495e-07,-2.1028550413848e-07,1.09982841297345e-06,NaN,NaN,3.23472549265154e-08,-7.76181664741114e-08,NaN,NaN,5.00417525445695e-07,3.13442377104744e-07,-1.09587868559352e-06,NaN,-7.84278288631854e-08,1.3449843029228e-08,-1.38038577217903e-07,-1.2458873418876e-07,-1.8867536812981e-07,-1.11549492491894e-08,-1.11549492490069e-08,-2.67551501003773e-07,-2.06106152445089e-07,-4.73657653448706e-07,NaN,-3.078604722854e-07,-8.89294195105074e-08,3.81571323650145e-08,-2.17620882399281e-07,-2.17620882399099e-07,-1.6440937088625e-07,4.34903139079448e-08,NaN,0,0,0
1889.5872,4.40391502762971e-08,-9.98081009325457e-08,-5.57689506562425e-08,6.64188452147152e-08,2.55037068898872e-09,2.55037068919381e-09,NaN,NaN,2.76057225060084e-06,-8.83652038226623e-08,-2.58982981531105e-07,-8.83652038224793e-08,1.40773582060413e-09,-8.29817991115348e-08,-8.15740632911271e-08,NaN,NaN,-1.56892334380552e-07,-1.77338661423162e-07,-2.74730234352946e-07,-1.77338661422728e-07,1.08496387259308e-06,NaN,NaN,3.22003442146077e-08,-7.76655442763793e-08,NaN,NaN,5.34768774452416e-07,3.2151020173097e-07,-1.12114159404317e-06,NaN,-4.82847308741286e-08,1.41834867219388e-08,-1.38564120843749e-07,-1.24380634121895e-07,-1.95673296066196e-07,-9.63818380655879e-09,-9.63818380637502e-09,-2.65153547424709e-07,-2.06840618276112e-07,-4.71994165700662e-07,NaN,-3.05042161025795e-07,-9.0943628169918e-08,3.28166465255164e-08,-2.12806009375707e-07,-2.12806009375523e-07,-1.60007124787183e-07,4.12137794719318e-08,NaN,0,0,0
1889.6896,4.29562704261485e-08,-9.89393636658252e-08,-5.59830932396671e-08,6.71637543564977e-08,5.30447932183056e-09,5.30447932203323e-09,NaN,NaN,2.73373477203173e-06,-8.29358826516698e-08,-2.54989553804153e-07,-8.2935882651483e-08,4.69145471498547e-09,-7.88473970733008e-08,-7.41559423585093e-08,NaN,NaN,-1.42720166771485e-07,-1.47824336597531e-07,-1.7391096225925e-07,-1.47824336597109e-07,1.066073815329e-06,NaN,NaN,3.20736259328698e-08,-7.78131431930532e-08,NaN,NaN,5.73242498380271e-07,3.30188132295911e-07,-1.15009417522408e-06,NaN,-1.39546130246033e-08,1.49092517078733e-08,-1.39149437013911e-07,-1.24240185306122e-07,-2.03663417819115e-07,-7.79232438392301e-09,-7.79232438373891e-09,-2.63118714032143e-07,-2.07809104549062e-07,-4.70927818581044e-07,NaN,-3.01777793881868e-07,-9.32065712583852e-08,2.77799733766411e-08,-2.08039591865793e-07,-2.08039591865606e-07,-1.55194565504738e-07,3.93544034871206e-08,NaN,0,0,0
1889.792,4.20166015449231e-08,-9.81105254871381e-08,-5.60939239422021e-08,6.75543252966477e-08,7.55321859125687e-09,7.55321859145647e-09,NaN,NaN,2.7059376922808e-06,-7.77262429456012e-08,-2.50282104737984e-07,-7.77262429454108e-08,7.44596024101203e-09,-7.42388002257872e-08,-6.67928399849666e-08,NaN,NaN,-1.30303646840187e-07,-1.23148307114066e-07,-7.25624604394587e-08,-1.23148307113653e-07,1.0434948641584e-06,NaN,NaN,3.14860841292536e-08,-7.80493126961773e-08,NaN,NaN,6.14494185157845e-07,3.39102343045882e-07,-1.18190724881784e-06,NaN,2.20897810324235e-08,1.57874490201078e-08,-1.39729955203586e-07,-1.23942506183562e-07,-2.13096416000176e-07,-5.74368059860342e-09,-5.74368059841947e-09,-2.61667462161777e-07,-2.09044896550879e-07,-4.70712358712494e-07,NaN,-2.98297822346205e-07,-9.57921913976485e-08,2.23247910271119e-08,-2.03784539488971e-07,-2.03784539488781e-07,-1.50287454671832e-07,3.81804579028245e-08,NaN,0,1,0
1889.8944,4.11114081582491e-08,-9.73721247169887e-08,-5.62607165587243e-08,6.72148348496232e-08,9.22545102544861e-09,9.22545102564532e-09,NaN,NaN,2.677057188533e-06,-7.29714647877002e-08,-2.45194058146832e-07,-7.29714647875059e-08,9.52970222085976e-09,-6.92732456287087e-08,-5.9743543408038e-08,NaN,NaN,-1.1964170193965e-07,-1.04298806461295e-07,2.54728183685073e-08,-1.0429880646089e-07,1.01809402236427e-06,NaN,NaN,2.99697031513337e-08,-7.83378075805981e-08,NaN,NaN,6.56906864300214e-07,3.48001933900338e-07,-1.21584850931798e-06,NaN,5.74510045250945e-08,1.6965711109802e-08,-1.40241052139429e-07,-1.23275341029711e-07,-2.24498462885664e-07,-3.57226768711431e-09,-3.57226768693069e-09,-2.60864307276026e-07,-2.10539464959939e-07,-4.71403772235801e-07,NaN,-2.94923896771449e-07,-9.88539602192022e-08,1.5895772378824e-08,-2.00499661238737e-07,-2.00499661238543e-07,-1.45667932533636e-07,3.79540234884283e-08,NaN,0,1,0
1889.9968,4.02525954819661e-08,-9.67391445088826e-08,-5.64865490268985e-08,6.59354940143726e-08,1.03179526851079e-08,1.03179526853019e-08,NaN,NaN,2.64751028934478e-06,-6.88385670109446e-08,-2.40068488748367e-07,-6.88385670107472e-08,1.08662536146631e-08,-6.40854460447242e-08,-5.32191924302477e-08,NaN,NaN,-1.10663964242133e-07,-9.18394420516034e-08,1.14883348493543e-07,-9.18394420512066e-08,9.91160901006065e-07,NaN,NaN,2.72846088575638e-08,-7.86145692283508e-08,NaN,NaN,6.98369932587413e-07,3.56771558542169e-07,-1.25087299449534e-06,NaN,9.00041877498163e-08,1.85269795896792e-08,-1.40634316012388e-07,-1.22107336422793e-07,-2.38188799206116e-07,-1.30815742478021e-09,-1.30815742459791e-09,-2.60615274177021e-07,-2.1222510621629e-07,-4.72840380393146e-07,NaN,-2.91973781344253e-07,-1.02598843362483e-07,8.38874300330817e-09,-1.98499510145777e-07,-1.98499510145581e-07,-1.41742565238657e-07,3.88985791609153e-08,NaN,0,1,0
1890.0992,3.9600956076147e-08,-9.61782052511486e-08,-5.65772491749814e-08,6.37485307136377e-08,1.09007719029574e-08,1.09007719031488e-08,NaN,NaN,2.61817859121591e-06,-6.53882696166178e-08,-2.35243054141622e-07,-6.53882696164172e-08,1.14599519405277e-08,-5.88425405410401e-08,-4.73825886006969e-08,NaN,NaN,-1.03287276811935e-07,-8.58857284743653e-08,1.89585458668663e-07,-8.5885728473973e-08,9.64139916070373e-07,NaN,NaN,2.35382132995146e-08,-7.87995006614996e-08,NaN,NaN,7.36369992932577e-07,3.65412689041428e-07,-1.28535518008275e-06,NaN,1.18056008592411e-07,2.04670284872668e-08,-1.40889916423382e-07,-1.204228879362e-07,-2.5407294228463e-07,1.05559653268008e-09,1.05559653286144e-09,-2.60695491621749e-07,-2.13979392897083e-07,-4.74674884518664e-07,NaN,-2.89655321000054e-07,-1.07224180443765e-07,2.13834962120145e-10,-1.97840959681402e-07,-1.97840959681202e-07,-1.38862702015982e-07,4.11489666029226e-08,NaN,0,0,0
1890.2016,3.94169217677e-08,-9.56086133902985e-08,-5.61916916225759e-08,6.09208369892502e-08,1.11074185077828e-08,1.11074185079713e-08,NaN,NaN,2.5900738536249e-06,-6.25742951627671e-08,-2.31018268820961e-07,-6.2574295162564e-08,1.13965362936631e-08,-5.3741633198572e-08,-4.23450969050916e-08,NaN,NaN,-9.74241796472151e-08,-8.59884222500937e-08,2.44352524062511e-07,-8.59884222497024e-08,9.38316458947266e-07,NaN,NaN,1.9170634515195e-08,-7.88186997747581e-08,NaN,NaN,7.68381273288057e-07,3.74006626950979e-07,-1.31712302484253e-06,NaN,1.40475551686346e-07,2.27078972564911e-08,-1.41020339657334e-07,-1.18312442400927e-07,-2.71593196227704e-07,3.54328174584365e-09,3.54328174602383e-09,-2.60792662966895e-07,-2.15651031203662e-07,-4.76443694170387e-07,NaN,-2.87995530027016e-07,-1.1283297559652e-07,-7.8605638117163e-09,-1.98275881862537e-07,-1.98275881862335e-07,-1.37242870394459e-07,4.47055811636256e-08,NaN,0,0,0
1890.304,3.99562164773089e-08,-9.49181683679491e-08,-5.49619518906155e-08,5.78741702266768e-08,1.11114964737999e-08,1.11114964739854e-08,NaN,NaN,2.5639357456718e-06,-6.02838322764763e-08,-2.27620833884495e-07,-6.02838322762715e-08,1.0824077922953e-08,-4.8989112463726e-08,-3.81650345409541e-08,NaN,NaN,-9.29574083284911e-08,-9.10193593464694e-08,2.76567169173283e-07,-9.10193593460741e-08,9.14581552086488e-07,NaN,NaN,1.48196816317631e-08,-7.86268766919493e-08,NaN,NaN,7.92367507218641e-07,3.82660593123293e-07,-1.34381403444525e-06,NaN,1.567879386943e-07,2.51374951516061e-08,-1.41063631458727e-07,-1.15926136307207e-07,-2.8985209809406e-07,6.17964492526439e-09,6.1796449254431e-09,-2.60574347715155e-07,-2.17098447763707e-07,-4.77672795478689e-07,NaN,-2.86845342973973e-07,-1.1936558963464e-07,-1.49828079688905e-08,-1.99300011380408e-07,-1.99300011380204e-07,-1.3692905801964e-07,4.94202897078997e-08,NaN,0,0,0
1890.4064,4.13559377310555e-08,-9.39900839739896e-08,-5.26341462429074e-08,5.50627976194862e-08,1.10891140809482e-08,1.10891140811308e-08,NaN,NaN,2.54005117606785e-06,-5.84040264817913e-08,-2.25177941766862e-07,-5.84040264815848e-08,9.91616196522081e-09,-4.47687558578569e-08,-3.48525938928161e-08,NaN,NaN,-8.97328468068452e-08,-9.92354473046217e-08,2.86934980706408e-07,-9.92354473042171e-08,8.93372066754941e-07,NaN,NaN,1.11131667868912e-08,-7.82202218579089e-08,NaN,NaN,8.07197462799953e-07,3.91442184089404e-07,-1.36344351874164e-06,NaN,1.6718092644147e-07,2.76564379784339e-08,-1.41068382332139e-07,-1.13411944353792e-07,-3.07861313667333e-07,8.97843452109275e-09,8.97843452127011e-09,-2.5978193567902e-07,-2.18229785975235e-07,-4.7801172165408e-07,NaN,-2.85980802496285e-07,-1.26593069024299e-07,-2.04811557082737e-08,-2.00306454073702e-07,-2.00306454073498e-07,-1.37839678765797e-07,5.50243015287057e-08,NaN,0,0,0
1890.5088,4.35618338397908e-08,-9.27353390270498e-08,-4.91735051872306e-08,5.28487417333708e-08,1.11741920107711e-08,1.11741920109504e-08,NaN,NaN,2.51840718529011e-06,-5.68885784482849e-08,-2.23713564165017e-07,-5.68885784480768e-08,8.82716797187245e-09,-4.12117665124885e-08,-3.23845985407949e-08,NaN,NaN,-8.7603474024914e-08,-1.08616717242385e-07,2.78629969056709e-07,-1.08616717241967e-07,8.74801235804484e-07,NaN,NaN,8.46329810022035e-09,-7.763473633975e-08,NaN,NaN,8.12838138472315e-07,4.00307086451067e-07,-1.37494815853313e-06,NaN,1.72372055960553e-07,3.02139989525628e-08,-1.41076246694181e-07,-1.10862247741706e-07,-3.2481981678015e-07,1.19333793296878e-08,1.19333793298638e-08,-2.58321918886235e-07,-2.19031524114943e-07,-4.77353443001001e-07,NaN,-2.85261288945507e-07,-1.3418046858016e-07,-2.40121253863029e-08,-2.00796116062181e-07,-2.00796116061978e-07,-1.39855333211534e-07,6.11869449026714e-08,NaN,0,0,0
1890.6112,4.63291100075777e-08,-9.1119483311755e-08,-4.47903733041475e-08,5.14205554659604e-08,1.14239082600441e-08,1.14239082602207e-08,NaN,NaN,2.499013135214e-06,-5.57969795241489e-08,-2.23167954043149e-07,-5.57969795239393e-08,7.6556578990186e-09,-3.83821362839673e-08,-3.07264783851266e-08,NaN,NaN,-8.65129631563122e-08,-1.17413485091791e-07,2.55427492479157e-07,-1.17413485091356e-07,8.58862704784255e-07,NaN,NaN,6.9479698190762e-09,-7.69309410856415e-08,NaN,NaN,8.10247350545581e-07,4.09032403678008e-07,-1.37846031487137e-06,NaN,1.73357206991486e-07,3.28199765212162e-08,-1.41108616653621e-07,-1.08288640132494e-07,-3.4030921052848e-07,1.50109859091184e-08,1.50109859092933e-08,-2.562993300715e-07,-2.19571658713282e-07,-4.75870988784603e-07,NaN,-2.84743598249215e-07,-1.41780713532683e-07,-2.55598045675177e-08,-2.00539132594863e-07,-2.00539132594661e-07,-1.42905810465374e-07,6.75848670840042e-08,NaN,0,0,0
1890.7136,4.92952042774424e-08,-8.91708220189337e-08,-3.987561774146e-08,5.07875519509632e-08,1.18130356428839e-08,1.18130356430574e-08,NaN,NaN,2.48210983381684e-06,-5.52870968962715e-08,-2.23430192680783e-07,-5.52870968960608e-08,6.43074643948498e-09,-3.62816490516838e-08,-2.98509026123761e-08,NaN,NaN,-8.65660938808184e-08,-1.24661711724459e-07,2.20036091934008e-07,-1.24661711724004e-07,8.45549927072737e-07,NaN,NaN,6.33277717815471e-09,-7.61715545092352e-08,NaN,NaN,8.00997757038873e-07,4.17189483633579e-07,-1.37520737193147e-06,NaN,1.71136709688899e-07,3.55278099922821e-08,-1.4116136216482e-07,-1.05633552172628e-07,-3.54328891053501e-07,1.81512602982313e-08,1.81512602984051e-08,-2.5395816882628e-07,-2.19971765472743e-07,-4.73929934298842e-07,NaN,-2.84663530255251e-07,-1.49107727768392e-07,-2.53225312989407e-08,-1.99593205780368e-07,-1.99593205780168e-07,-1.46997963362942e-07,7.39525210722394e-08,NaN,0,0,0
1890.816,5.20907217948798e-08,-8.69677365269454e-08,-3.48770147320323e-08,5.08388893184713e-08,1.22629620150826e-08,1.2262962015253e-08,NaN,NaN,2.46810329049195e-06,-5.55652151412249e-08,-2.24367302383797e-07,-5.5565215141013e-08,5.12360045480567e-09,-3.48662252247836e-08,-2.97426247701548e-08,NaN,NaN,-8.80199938981777e-08,-1.30387442059391e-07,1.7357821762595e-07,-1.30387442058911e-07,8.34839608574922e-07,NaN,NaN,6.21177032299107e-09,-7.54021987082832e-08,NaN,NaN,7.86824277797772e-07,4.24190575480866e-07,-1.36711669228448e-06,NaN,1.66510747261956e-07,3.83999061008426e-08,-1.41207904818258e-07,-1.02807998717507e-07,-3.67177511861639e-07,2.12820081948958e-08,2.12820081950685e-08,-2.51556137647526e-07,-2.20361923859166e-07,-4.7191806150651e-07,NaN,-2.8529160525641e-07,-1.55963161112692e-07,-2.35607364760254e-08,-1.981814224414e-07,-1.98181422441202e-07,-1.5215865868082e-07,8.00879837471162e-08,NaN,0,0,0
1890.9184,5.44416681581327e-08,-8.46142044483372e-08,-3.01725362901694e-08,5.14200504858162e-08,1.26900291270481e-08,1.26900291272161e-08,NaN,NaN,2.45730681696582e-06,-5.68176361949006e-08,-2.25836440952798e-07,-5.68176361946874e-08,3.6747501107156e-09,-3.40586750163681e-08,-3.03839249058294e-08,NaN,NaN,-9.1172656400927e-08,-1.35410248610378e-07,1.162742709065e-07,-1.35410248609871e-07,8.26593091502077e-07,NaN,NaN,6.17898428243477e-09,-7.46431915227376e-08,NaN,NaN,7.69342691622346e-07,4.29423850594696e-07,-1.35634511147738e-06,NaN,1.59992721247922e-07,4.14757568897185e-08,-1.4120873587193e-07,-9.97329789823044e-08,-3.79263850720276e-07,2.43433143941718e-08,2.43433143943432e-08,-2.49241956671344e-07,-2.20843846389571e-07,-4.70085803060731e-07,NaN,-2.8676055285079e-07,-1.62225516361602e-07,-2.04815423931432e-08,-1.96522789869474e-07,-1.96522789869278e-07,-1.58329365573192e-07,8.58244482183353e-08,NaN,0,0,0
1891.0208,5.62281934091406e-08,-8.22115302182423e-08,-2.59833368090653e-08,5.23846426489306e-08,1.30472439043555e-08,1.30472439045217e-08,NaN,NaN,2.44972156299155e-06,-5.91462720499506e-08,-2.27675886400232e-07,-5.91462720497361e-08,2.02813065033428e-09,-3.37477642829086e-08,-3.17196336327512e-08,NaN,NaN,-9.61988458703426e-08,-1.40898421032225e-07,4.86681649981061e-08,-1.40898421031688e-07,8.20424865989836e-07,NaN,NaN,5.94575876387722e-09,-7.38942306126854e-08,NaN,NaN,7.50050311424539e-07,4.32465693139077e-07,-1.34497820900032e-06,NaN,1.51859575659864e-07,4.4755393815925e-08,-1.41124862261509e-07,-9.63694684456782e-08,-3.90938521654781e-07,2.73111327533164e-08,2.73111327534867e-08,-2.4698500028713e-07,-2.21477876578007e-07,-4.68462876864951e-07,NaN,-2.88969470860288e-07,-1.67829089092314e-07,-1.62083603741303e-08,-1.94712633522705e-07,-1.94712633522513e-07,-1.65286244667399e-07,9.10125703423306e-08,NaN,0,1,0
1891.1232,5.74883746470534e-08,-7.98328902794387e-08,-2.2344515632348e-08,5.36087838815929e-08,1.33423565381398e-08,1.3342356538304e-08,NaN,NaN,2.44499489546756e-06,-6.25255838266593e-08,-2.29686657944686e-07,-6.25255838264438e-08,1.62833971529932e-10,-3.37790971204971e-08,-3.36162631491442e-08,NaN,NaN,-1.030123488092e-07,-1.47921597141403e-07,-2.73665349901699e-08,-1.47921597140833e-07,8.15580634069379e-07,NaN,NaN,5.37070731826203e-09,-7.31480548649359e-08,NaN,NaN,7.30479955304192e-07,4.33297561673101e-07,-1.33497363676061e-06,NaN,1.42302099136633e-07,4.82001212943268e-08,-1.40931804690338e-07,-9.27316833961072e-08,-4.02398064783115e-07,3.02081724894163e-08,3.02081724895854e-08,-2.44572051431462e-07,-2.22292281438532e-07,-4.66864332869806e-07,NaN,-2.91605139854217e-07,-1.72753157826747e-07,-1.08352852387601e-08,-1.92696840614198e-07,-1.9269684061401e-07,-1.72634026226692e-07,9.55412968915262e-08,NaN,0,1,0
1891.2256,5.83759141608161e-08,-7.75116525272306e-08,-1.91357383663758e-08,5.49751041898455e-08,1.36315756847456e-08,1.36315756849084e-08,NaN,NaN,2.4425166316283e-06,-6.67996414053691e-08,-2.3163096815444e-07,-6.67996414051526e-08,-1.8903202463647e-09,-3.39566238692526e-08,-3.58469441157945e-08,NaN,NaN,-1.11196848501247e-07,-1.57169862779354e-07,-1.08338679403093e-07,-1.57169862778749e-07,8.10924339451097e-07,NaN,NaN,4.41531689168895e-09,-7.24056134817425e-08,NaN,NaN,7.12231789445431e-07,4.32399715674181e-07,-1.32814254936582e-06,NaN,1.3157511858655e-07,5.17498129388062e-08,-1.40629127945069e-07,-8.88793150063601e-08,-4.13675767228578e-07,3.30958007335834e-08,3.30958007337514e-08,-2.41670942271076e-07,-2.23303457545017e-07,-4.64974399815904e-07,NaN,-2.94253863513932e-07,-1.77021704599879e-07,-4.51722475171281e-09,-1.9033580549987e-07,-1.90335805499687e-07,-1.79870416920686e-07,9.93764886717691e-08,NaN,0,1,0
1891.328,5.90953482011386e-08,-7.52494170810492e-08,-1.61540688798702e-08,5.63458480823656e-08,1.39973742917628e-08,1.39973742919242e-08,NaN,NaN,2.4415682773514e-06,-7.17253028814533e-08,-2.33262702751878e-07,-7.17253028812354e-08,-4.05491052123211e-09,-3.4066883447926e-08,-3.81217939693351e-08,NaN,NaN,-1.20015935075733e-07,-1.68857510357939e-07,-1.89724629780315e-07,-1.68857510357298e-07,8.05115749852135e-07,NaN,NaN,3.06707354916771e-09,-7.16844948448762e-08,NaN,NaN,6.96731541786839e-07,4.3065002278862e-07,-1.32593885631973e-06,NaN,1.20064763357058e-07,5.53491878966086e-08,-1.40241313369701e-07,-8.48921254731917e-08,-4.24699051374805e-07,3.60505346349115e-08,3.60505346350788e-08,-2.37940459603123e-07,-2.2453280301884e-07,-4.62473262621773e-07,NaN,-2.96539763634737e-07,-1.80701775997804e-07,2.47463396866624e-09,-1.87513578759567e-07,-1.87513578759389e-07,-1.86487169898646e-07,1.02579472441146e-07,NaN,0,0,0
1891.4304,5.98439025059626e-08,-7.30346716749187e-08,-1.31907691689148e-08,5.75568100232082e-08,1.45216958349899e-08,1.45216958351493e-08,NaN,NaN,2.44149179609786e-06,-7.70413709242043e-08,-2.34375065525774e-07,-7.70413709239847e-08,-6.23221853842577e-09,-3.39179594597935e-08,-4.01501779983962e-08,NaN,NaN,-1.28516476430129e-07,-1.82738658846858e-07,-2.67152763012618e-07,-1.82738658846183e-07,7.96922662440763e-07,NaN,NaN,1.28954008193364e-09,-7.10161218488173e-08,NaN,NaN,6.84848836893916e-07,4.29084666073499e-07,-1.32912532329153e-06,NaN,1.08264406341886e-07,5.89648996390174e-08,-1.39810280925761e-07,-8.08453812868443e-08,-4.3535461621288e-07,3.91372637496501e-08,3.91372637498162e-08,-2.33132450823268e-07,-2.26007977676528e-07,-4.59140428499604e-07,NaN,-2.98212194967016e-07,-1.8388812621254e-07,9.78565244256578e-09,-1.84212319671511e-07,-1.84212319671337e-07,-1.92063997647373e-07,1.05288114492103e-07,NaN,0,0,0
1891.5328,6.07803632189248e-08,-7.08562503815012e-08,-1.00758871625343e-08,5.84566505985102e-08,1.52680890027236e-08,1.52680890028804e-08,NaN,NaN,2.44185079925601e-06,-8.25293609142451e-08,-2.34838720283539e-07,-8.2529360914024e-08,-8.32911563714098e-09,-3.3375218120604e-08,-4.17043337579214e-08,NaN,NaN,-1.35723800731598e-07,-1.98185163639889e-07,-3.37557310909139e-07,-1.98185163639183e-07,7.85519584985233e-07,NaN,NaN,-9.54154530101851e-10,-7.04339655403852e-08,NaN,NaN,6.76628073531586e-07,4.28651401735262e-07,-1.33756858510957e-06,NaN,9.67066004090894e-08,6.25790913255903e-08,-1.39383791974685e-07,-7.68047006491974e-08,-4.45494167644169e-07,4.23915000153084e-08,4.23915000154738e-08,-2.27131846099572e-07,-2.2774600895328e-07,-4.5487785505266e-07,NaN,-2.99134747771872e-07,-1.86670906078419e-07,1.71023177902828e-08,-1.8048855396699e-07,-1.80488553966822e-07,-1.96315667687496e-07,1.07664511262186e-07,NaN,0,0,0
1891.6352,6.20210516928321e-08,-6.87040429848481e-08,-6.68299129197289e-09,5.89791331094653e-08,1.62817411760328e-08,1.62817411761872e-08,NaN,NaN,2.44254024580652e-06,-8.8040653054446e-08,-2.34617734191768e-07,-8.80406530542227e-08,-1.02817011468313e-08,-3.23802928937944e-08,-4.26619940408013e-08,NaN,NaN,-1.40876351077182e-07,-2.14320075881564e-07,-3.99732927798911e-07,-2.1432007588083e-07,7.70667532758823e-07,NaN,NaN,-3.6127240302009e-09,-6.9960222346428e-08,NaN,NaN,6.71283450463564e-07,4.30063636443956e-07,-1.35030058486291e-06,NaN,8.59092594884979e-08,6.6164647619544e-08,-1.39004604277941e-07,-7.28399566585019e-08,-4.54862183390704e-07,4.58139396254271e-08,4.58139396255921e-08,-2.19930636728416e-07,-2.29729678930245e-07,-4.49660315658468e-07,NaN,-2.99201748113411e-07,-1.8909952191415e-07,2.4302684772597e-08,-1.76369161216472e-07,-1.76369161216308e-07,-1.99084497475898e-07,1.09828183150518e-07,NaN,0,0,0
1891.7376,6.36460887709259e-08,-6.65632551478888e-08,-2.91716637691912e-09,5.92015970865791e-08,1.76012135866149e-08,1.76012135867668e-08,NaN,NaN,2.44382661066217e-06,-9.34909653257785e-08,-2.33763814345175e-07,-9.3490965325553e-08,-1.20743007680815e-08,-3.09492872495779e-08,-4.30235880178337e-08,NaN,NaN,-1.43625862934504e-07,-2.30190853165631e-07,-4.54193289023931e-07,-2.30190853164874e-07,7.52765216842557e-07,NaN,NaN,-6.45596721772475e-09,-6.95986677528304e-08,NaN,NaN,6.67475095367826e-07,4.33775445490483e-07,-1.3658239902485e-06,NaN,7.63500185489892e-08,6.96620466177329e-08,-1.38703556528834e-07,-6.90415099112072e-08,-4.629966363976e-07,4.93710118788137e-08,4.93710118789791e-08,-2.11582717533531e-07,-2.31894940770238e-07,-4.43477658303574e-07,NaN,-2.98259008895861e-07,-1.91162661438093e-07,3.15392624169979e-08,-1.71757394759137e-07,-1.71757394758978e-07,-2.00311756705553e-07,1.11805520571961e-07,NaN,0,0,0
1891.84,6.56997699161136e-08,-6.44158540391757e-08,1.28391587698339e-09,5.93467138213644e-08,1.92648329252176e-08,1.92648329253675e-08,NaN,NaN,2.44633455080197e-06,-9.88439570143601e-08,-2.32392637893531e-07,-9.88439570141327e-08,-1.37559403682775e-08,-2.91571471690469e-08,-4.29130875374972e-08,NaN,NaN,-1.44157866537546e-07,-2.4494978889217e-07,-5.02681162313736e-07,-2.44949788891394e-07,7.32824524400828e-07,NaN,NaN,-9.04744144725376e-09,-6.93364595360187e-08,NaN,NaN,6.63751048785603e-07,4.40011814128857e-07,-1.38252330401033e-06,NaN,6.84343665908373e-08,7.29740114810387e-08,-1.3849635374555e-07,-6.55223422646193e-08,-4.69180192529005e-07,5.29932424793362e-08,5.29932424795022e-08,-2.02190723159147e-07,-2.34139383481673e-07,-4.36330106640624e-07,NaN,-2.96088354407485e-07,-1.92793267122747e-07,3.92115352157063e-08,-1.66433351182969e-07,-1.66433351182814e-07,-2.00023662223803e-07,1.13517413540441e-07,NaN,0,0,0
1891.9424,6.81811902237756e-08,-6.22573958871987e-08,5.92379433662399e-09,5.97148528780899e-08,2.12991849701303e-08,2.12991849702781e-08,NaN,NaN,2.45101292661978e-06,-1.04099499418263e-07,-2.30648881955107e-07,-1.04099499418034e-07,-1.54530689778101e-08,-2.71183851284925e-08,-4.25714541064737e-08,NaN,NaN,-1.43211484103322e-07,-2.58020035007706e-07,-5.47813081816183e-07,-2.58020035006915e-07,7.12417404259563e-07,NaN,NaN,-1.08071471830431e-08,-6.9151249308884e-08,NaN,NaN,6.5894513174552e-07,4.4877867876923e-07,-1.39899986681972e-06,NaN,6.24369754768075e-08,7.59802675906028e-08,-1.38380975811547e-07,-6.24007082210543e-08,-4.72490603422371e-07,5.65677592101752e-08,5.65677592103425e-08,-1.91941105295381e-07,-2.36347838892991e-07,-4.28288944188175e-07,NaN,-2.92466195496543e-07,-1.93894528949865e-07,4.78414379926305e-08,-1.60165098586941e-07,-1.6016509858679e-07,-1.98335113262827e-07,1.14801792019448e-07,NaN,0,0,0
1892.0448,7.10286173672947e-08,-6.01227025696704e-08,1.0905914797673e-08,6.05645323196944e-08,2.36881398354619e-08,2.36881398356077e-08,NaN,NaN,2.45914460317076e-06,-1.09281894408452e-07,-2.28666384636667e-07,-1.09281894408221e-07,-1.737468771222e-08,-2.49643731532274e-08,-4.23390608656167e-08,NaN,NaN,-1.41990453805074e-07,-2.69236958417673e-07,-5.93187859248612e-07,-2.69236958416869e-07,6.93564338820601e-07,NaN,NaN,-1.11512555670109e-08,-6.90179927218807e-08,NaN,NaN,6.52409267515951e-07,4.59850775883891e-07,-1.41430930991404e-06,NaN,5.84311088052514e-08,7.85630077315392e-08,-1.38334312510232e-07,-5.9771304778805e-08,-4.71951613534858e-07,5.9927819972229e-08,5.9927819972398e-08,-1.81163557449072e-07,-2.38423815680676e-07,-4.19587373129552e-07,NaN,-2.8727378093193e-07,-1.94382410354545e-07,5.78778605380959e-08,-1.52881676455193e-07,-1.52881676455047e-07,-1.95452768793e-07,1.15454436708077e-07,NaN,0,0,0
1892.1472,7.40990918441346e-08,-5.81021701443879e-08,1.59969216997966e-08,6.19820465576834e-08,2.633116570776e-08,2.63311657079038e-08,NaN,NaN,2.47243246211748e-06,-1.144204087219e-07,-2.2652722222414e-07,-1.14420408721668e-07,-1.98025278443824e-08,-2.28129543278792e-08,-4.26154821724289e-08,NaN,NaN,-1.41993228232201e-07,-2.78935268480557e-07,-6.43792313972563e-07,-2.78935268479742e-07,6.78491455612214e-07,NaN,NaN,-9.66622343624444e-09,-6.8913561351028e-08,NaN,NaN,6.44128473666604e-07,4.72807409425896e-07,-1.42821331701026e-06,NaN,5.62350241929815e-08,8.06294194869914e-08,-1.38310037431102e-07,-5.76806179442252e-08,-4.66745386246457e-07,6.28481250697229e-08,6.28481250698943e-08,-1.70365223059103e-07,-2.40316162705315e-07,-4.10681385764221e-07,NaN,-2.8061652418286e-07,-1.94237153592093e-07,6.94710174595218e-08,-1.4483016975922e-07,-1.44830169759077e-07,-1.91654783738712e-07,1.15269485934378e-07,NaN,0,0,0
1892.2496,7.71466712892628e-08,-5.63356431265419e-08,2.08110281627712e-08,6.37923876768125e-08,2.90120795448177e-08,2.90120795449599e-08,NaN,NaN,2.49302083037994e-06,-1.19529079497199e-07,-2.24228550155553e-07,-1.19529079496965e-07,-2.30575993008788e-08,-2.07398494746309e-08,-4.3797448775675e-08,NaN,NaN,-1.44816949052122e-07,-2.87914367169967e-07,-7.05920499614168e-07,-2.87914367169142e-07,6.69285964393421e-07,NaN,NaN,-6.25081036952884e-09,-6.88203436041723e-08,NaN,NaN,6.34767849981831e-07,4.87158669211736e-07,-1.44136820099122e-06,NaN,5.54208971198342e-08,8.21223648284755e-08,-1.38238346968397e-07,-5.61159821400378e-08,-4.5641667540679e-07,6.50550689684586e-08,6.50550689686329e-08,-1.60189631630975e-07,-2.42031972274693e-07,-4.02221603905472e-07,NaN,-2.72886599936028e-07,-1.93535283999971e-07,8.22954723749761e-08,-1.36636413272486e-07,-1.36636413272348e-07,-1.87222400775781e-07,1.1405455838353e-07,NaN,0,1,0
1892.352,7.98178965895087e-08,-5.49875745542966e-08,2.48303220352627e-08,6.5553131245165e-08,3.14053165960749e-08,3.14053165962158e-08,NaN,NaN,2.52323447717093e-06,-1.24597158644894e-07,-2.21669838007119e-07,-1.24597158644661e-07,-2.74438463127126e-08,-1.87714001142981e-08,-4.62152464271743e-08,NaN,NaN,-1.51976279229774e-07,-2.97226710127069e-07,-7.85892707466854e-07,-2.97226710126234e-07,6.67597519636031e-07,NaN,NaN,-1.15498052913828e-09,-6.8728664916628e-08,NaN,NaN,6.25607815613462e-07,5.0251579671543e-07,-1.45518174790194e-06,NaN,5.54314669209737e-08,8.30175118389508e-08,-1.38026145441202e-07,-5.50086336023702e-08,-4.40984060938706e-07,6.62553123345478e-08,6.62553123347249e-08,-1.51291340456579e-07,-2.43629185985019e-07,-3.94920526441404e-07,NaN,-2.64709801304982e-07,-1.92426675253832e-07,9.55205014886093e-08,-1.29221544708894e-07,-1.29221544708761e-07,-1.82314165364661e-07,1.11599131648377e-07,NaN,0,1,0
1892.4544,8.16898153630517e-08,-5.42132809476376e-08,2.74765344154639e-08,6.66429874519646e-08,3.31284888207244e-08,3.31284888208647e-08,NaN,NaN,2.56506389083005e-06,-1.29586489543542e-07,-2.18664221240976e-07,-1.2958648954331e-07,-3.31835004726937e-08,-1.69045589204165e-08,-5.00880593932725e-08,NaN,NaN,-1.64757077384039e-07,-3.07845482053388e-07,-8.87919601206924e-07,-3.07845482052544e-07,6.74465728101449e-07,NaN,NaN,5.11676205100123e-09,-6.86364921629617e-08,NaN,NaN,6.18339628125895e-07,5.18733931276623e-07,-1.47126997687505e-06,NaN,5.57891837086016e-08,8.33078093279276e-08,-1.37560620521304e-07,-5.42528111934964e-08,-4.20900485410796e-07,6.61789129635087e-08,6.61789129636892e-08,-1.44182236709e-07,-2.45190651596606e-07,-3.89372888305415e-07,NaN,-2.56785618697998e-07,-1.91065973159305e-07,1.07970012121339e-07,-1.2360546773158e-07,-1.23605467731453e-07,-1.76824836294708e-07,1.0761578446466e-07,NaN,0,1,0
1892.5568,8.23509959979446e-08,-5.41204453310478e-08,2.82305506669447e-08,6.64150569585896e-08,3.38175438428038e-08,3.3817543842944e-08,NaN,NaN,2.619700961796e-06,-1.34421711142986e-07,-2.14969625521367e-07,-1.34421711142758e-07,-4.03638036032139e-08,-1.51390204784072e-08,-5.55028240817827e-08,NaN,NaN,-1.84112257372303e-07,-3.2037224950607e-07,-1.01238148734992e-06,-3.20372249505219e-07,6.90216707995402e-07,NaN,NaN,1.19934760889064e-08,-6.85466350702207e-08,NaN,NaN,6.14761039042205e-07,5.3599196001477e-07,-1.49078224886438e-06,NaN,5.63049334947637e-08,8.29801009457325e-08,-1.36722241449176e-07,-5.37421405035662e-08,-3.96884835303419e-07,6.46269787913071e-08,6.46269787914923e-08,-1.39127183002735e-07,-2.46791695243363e-07,-3.85918878245911e-07,NaN,-2.49707627220628e-07,-1.89558196560954e-07,1.18392917575082e-07,-1.20696037047403e-07,-1.20696037047282e-07,-1.70311650335873e-07,1.01714275162847e-07,NaN,0,0,0
1892.6592,8.1491247927903e-08,-5.47312954896567e-08,2.67599524382921e-08,6.43538525199036e-08,3.31898936989401e-08,3.31898936990811e-08,NaN,NaN,2.68734304947509e-06,-1.3897274769573e-07,-2.10335276530534e-07,-1.38972747695506e-07,-4.89093593744335e-08,-1.35035865224547e-08,-6.24129458970494e-08,NaN,NaN,-2.10591653033364e-07,-3.34900067716461e-07,-1.15540910964123e-06,-3.34900067715608e-07,7.14382648341529e-07,NaN,NaN,1.90188745408688e-08,-6.84640786795032e-08,NaN,NaN,6.16414849249429e-07,5.54789874090814e-07,-1.51390440018891e-06,NaN,5.71751717773164e-08,8.19968643505005e-08,-1.3540682729375e-07,-5.34099629433734e-08,-3.69721529731593e-07,6.15106572580533e-08,6.15106572582427e-08,-1.36121794324977e-07,-2.48476374825785e-07,-3.8459816915058e-07,NaN,-2.43854381659003e-07,-1.87960445973635e-07,1.25699530528939e-07,-1.21148922212676e-07,-1.21148922212562e-07,-1.62035100433375e-07,9.3440932597728e-08,NaN,0,0,0
1892.7616,7.8958641198336e-08,-5.59566708387773e-08,2.30019703596014e-08,6.01817321404965e-08,3.10774693991659e-08,3.10774693993085e-08,NaN,NaN,2.76721136309291e-06,-1.43046618574853e-07,-2.04554621597248e-07,-1.43046618574636e-07,-5.85846087691378e-08,-1.20705523479742e-08,-7.06551611172732e-08,NaN,NaN,-2.44292700855473e-07,-3.51038930207696e-07,-1.30960721271305e-06,-3.51038930206846e-07,7.45658179885932e-07,NaN,NaN,2.59447178530099e-08,-6.8396432603439e-08,NaN,NaN,6.24213701358819e-07,5.75844035352243e-07,-1.53966073405598e-06,NaN,5.89068066897097e-08,8.02961480477148e-08,-1.33549494178728e-07,-5.32533461311393e-08,-3.40128355284578e-07,5.6872734134102e-08,5.68727341342963e-08,-1.34933599342357e-07,-2.50250727352726e-07,-3.85184326694906e-07,NaN,-2.39375197712477e-07,-1.86325198431402e-07,1.29068836717333e-07,-1.25315077945787e-07,-1.2531507794568e-07,-1.51094268075788e-07,8.23637396067241e-08,NaN,0,0,0
1892.864,7.47654927703871e-08,-5.75900434443135e-08,1.71754493261137e-08,5.38931014463169e-08,2.74294193314325e-08,2.74294193315772e-08,NaN,NaN,2.85766100523614e-06,-1.46400361978306e-07,-1.97508505454974e-07,-1.46400361978097e-07,-6.90231992019667e-08,-1.09557680983005e-08,-7.99789673004287e-08,NaN,NaN,-2.84823604363432e-07,-3.68078056451673e-07,-1.46543415034861e-06,-3.68078056450834e-07,7.81871680306733e-07,NaN,NaN,3.27147581175626e-08,-6.83576176268682e-08,NaN,NaN,6.38166625564227e-07,5.99892734527822e-07,-1.56603592864115e-06,NaN,6.20946540114749e-08,7.78104169976518e-08,-1.3114397760525e-07,-5.33335606077256e-08,-3.0873816012141e-07,5.0891763311028e-08,5.08917633112272e-08,-1.35173798197762e-07,-2.52090270298595e-07,-3.87264068496187e-07,NaN,-2.36244514063782e-07,-1.84753476639296e-07,1.27914097577345e-07,-1.33251564617745e-07,-1.33251564617645e-07,-1.36620697602913e-07,6.81831774104207e-08,NaN,0,0,0
1892.9664,6.90544496153566e-08,-5.93240035187343e-08,9.73044609665989e-09,4.57192432779327e-08,2.22942800094409e-08,2.22942800095881e-08,NaN,NaN,2.95633997031795e-06,-1.48772029754457e-07,-1.89189348131847e-07,-1.48772029754258e-07,-7.97781603433416e-08,-1.02984345472219e-08,-9.00765948907256e-08,NaN,NaN,-3.31269103299768e-07,-3.85223806273986e-07,-1.61297311331777e-06,-3.85223806273167e-07,8.19968313976163e-07,NaN,NaN,3.93647597654271e-08,-6.83704370689092e-08,NaN,NaN,6.57351668191356e-07,6.27472203358428e-07,-1.59041562424612e-06,NaN,6.71523330593233e-08,7.44949283601757e-08,-1.28252056573412e-07,-5.37571282133645e-08,-2.76177865767901e-07,4.38708756900678e-08,4.38708756902727e-08,-1.36372484388102e-07,-2.53951630284472e-07,-3.90324114672409e-07,NaN,-2.34343299552094e-07,-1.83433977193842e-07,1.21756132624163e-07,-1.44764968399874e-07,-1.44764968399781e-07,-1.18002985257804e-07,5.08568106294647e-08,NaN,0,0,0
1893.0688,6.20526413645645e-08,-6.07925564260554e-08,1.26008493854428e-09,3.60393288338455e-08,1.57995630755308e-08,1.57995630756809e-08,NaN,NaN,3.0603406275333e-06,-1.49924147467332e-07,-1.7971129152966e-07,-1.49924147467142e-07,-9.0385463465758e-08,-1.02225142727362e-08,-1.00607977738657e-07,NaN,NaN,-3.82161263921461e-07,-4.0177838034477e-07,-1.74371613059024e-06,-4.01778380343984e-07,8.56144602557799e-07,NaN,NaN,4.58936074513211e-08,-6.84623106759998e-08,NaN,NaN,6.80147991246637e-07,6.58733832880277e-07,-1.61020812918031e-06,NaN,7.41171446747908e-08,7.0356086713795e-08,-1.24996475222545e-07,-5.46403885088788e-08,-2.43178374052459e-07,3.62098737167803e-08,3.62098737169911e-08,-1.38035399717027e-07,-2.55777703905034e-07,-3.93813103621904e-07,NaN,-2.33513072830577e-07,-1.82634691635193e-07,1.10105183102163e-07,-1.59448526426368e-07,-1.59448526426281e-07,-9.50990179737308e-08,3.07007436015898e-08,NaN,0,0,0
1893.1712,5.4042685450306e-08,-6.16399016773736e-08,-7.59721622703434e-09,2.52707175202313e-08,8.14575751990736e-09,8.14575752006061e-09,NaN,NaN,3.16627423980314e-06,-1.49691114396953e-07,-1.69309488302174e-07,-1.49691114396774e-07,-1.00430717687157e-07,-1.07956249298793e-08,-1.11226342617199e-07,NaN,NaN,-4.35497303289586e-07,-4.17169737129395e-07,-1.85179957676463e-06,-4.17169737128653e-07,8.86298538274337e-07,NaN,NaN,5.21756925447668e-08,-6.86526703905721e-08,NaN,NaN,7.04601927027685e-07,6.9334189570968e-07,-1.62338236042917e-06,NaN,8.26080233778716e-08,6.54705712228752e-08,-1.21535993311443e-07,-5.60654220886977e-08,-2.1062838290001e-07,2.83620174874226e-08,2.83620174876387e-08,-1.39674979216166e-07,-2.57491279484801e-07,-3.97166258700817e-07,NaN,-2.33546441738706e-07,-1.82625879820373e-07,9.24704246576466e-08,-1.76685863027634e-07,-1.76685863027553e-07,-6.8377261700401e-08,8.42128549654027e-09,NaN,0,0,0
1893.2736,4.53644693355922e-08,-6.16012778774328e-08,-1.62368085418086e-08,1.37848139628002e-08,-3.82399684408267e-10,-3.8239968425099e-10,NaN,NaN,3.27033769197885e-06,-1.4801023136935e-07,-1.58322054311521e-07,-1.48010231369181e-07,-1.09606093874833e-07,-1.20014523535914e-08,-1.21607546228587e-07,NaN,NaN,-4.88867625243632e-07,-4.30892599768809e-07,-1.93442520502131e-06,-4.30892599768122e-07,9.06754403799581e-07,NaN,NaN,5.79641362322512e-08,-6.89373785591935e-08,NaN,NaN,7.28815018174234e-07,7.30465664421337e-07,-1.62874160660036e-06,NaN,9.1941994954811e-08,5.99856208428604e-08,-1.18033260374835e-07,-5.80476395321045e-08,-1.79515695249534e-07,2.07860630110809e-08,2.0786063011302e-08,-1.40836788819355e-07,-2.58981765884137e-07,-3.99818554703348e-07,NaN,-2.34143710342159e-07,-1.83569234465109e-07,6.85542346271461e-08,-1.9564373353889e-07,-1.95643733538811e-07,-3.89372383024619e-08,-1.49476948707263e-08,NaN,0,0,0
1893.376,3.64321762571303e-08,-6.05667425355827e-08,-2.41345662784203e-08,1.87717536242499e-09,-9.40234469982594e-09,-9.40234469966476e-09,NaN,NaN,3.36854069365387e-06,-1.44919273684892e-07,-1.47153676352736e-07,-1.44919273684733e-07,-1.17745247249053e-07,-1.37313031388149e-08,-1.31476550388031e-07,NaN,NaN,-5.39719074224744e-07,-4.42464881255671e-07,-1.99161731477332e-06,-4.4246488125505e-07,9.15016540815361e-07,NaN,NaN,6.29743379704051e-08,-6.92795982699598e-08,NaN,NaN,7.51291000863439e-07,7.68873918438952e-07,-1.62593072488911e-06,NaN,1.01343129165186e-07,5.40988135247548e-08,-1.14630122264983e-07,-6.0531308740358e-08,-1.50768088430163e-07,1.39058094380666e-08,1.39058094382922e-08,-1.41150096417296e-07,-2.60097811425918e-07,-4.01247907843077e-07,NaN,-2.34896196289764e-07,-1.85437569793627e-07,3.85505409270213e-08,-2.15303673755629e-07,-2.15303673755552e-07,-8.39006955323395e-09,-3.81932742200966e-08,NaN,0,0,0
1893.4784,2.77280474778594e-08,-5.86012204299383e-08,-3.08731729520468e-08,-1.02185758105994e-08,-1.84427087757097e-08,-1.84427087755451e-08,NaN,NaN,3.45714253123428e-06,-1.40525737915847e-07,-1.36229706453839e-07,-1.40525737915698e-07,-1.24829225909008e-07,-1.57931440274056e-08,-1.40622369936577e-07,NaN,NaN,-5.85707693643084e-07,-4.51425762944765e-07,-2.02559735852815e-06,-4.51425762944217e-07,9.10284479148475e-07,NaN,NaN,6.69853458454846e-08,-6.96136210022311e-08,NaN,NaN,7.7116021844001e-07,8.07116986751859e-07,-1.61528714256201e-06,NaN,1.10148216237037e-07,4.80263913906324e-08,-1.11435368244257e-07,-6.3408976853753e-08,-1.25064702291717e-07,8.07980464259242e-09,8.07980464282205e-09,-1.40394962689555e-07,-2.60656653781583e-07,-4.01051616471008e-07,NaN,-2.35318230636841e-07,-1.87999871694665e-07,3.35207721229296e-09,-2.34552339499451e-07,-2.34552339499374e-07,2.13781544364451e-08,-6.01156230892326e-08,NaN,0,1,0
1893.5808,1.9746415117279e-08,-5.59109808346906e-08,-3.61645657173786e-08,-2.23037006557928e-08,-2.699084519156e-08,-2.6990845191392e-08,NaN,NaN,3.53318255003241e-06,-1.34962868074929e-07,-1.25949678776851e-07,-1.34962868074789e-07,-1.30961176164768e-07,-1.79340258603249e-08,-1.48895202025257e-07,NaN,NaN,-6.25038856232791e-07,-4.57352374150624e-07,-2.04002890168322e-06,-4.57352374150154e-07,8.93561835637406e-07,NaN,NaN,6.98989864434708e-08,-6.98602142960721e-08,NaN,NaN,7.88203486662277e-07,8.4374551667852e-07,-1.59769294136791e-06,NaN,1.1793917082061e-07,4.19700723210003e-08,-1.08520341456352e-07,-6.65502691354793e-08,-1.02700965939106e-07,3.5744576647946e-09,3.5744576650275e-09,-1.3854087174375e-07,-2.60470255964783e-07,-3.9901112770841e-07,NaN,-2.34912895177041e-07,-1.90868924373346e-07,-3.5500951385538e-08,-2.52304691122431e-07,-2.52304691122352e-07,4.84980897816731e-08,-7.97078331492031e-08,NaN,0,1,0
1893.6832,1.29007644961916e-08,-5.27678777193886e-08,-3.98671132231637e-08,-3.41932809270447e-08,-3.45690832797795e-08,-3.45690832796085e-08,NaN,NaN,3.59496318679035e-06,-1.28344087602626e-07,-1.16649061909769e-07,-1.28344087602494e-07,-1.36312070255686e-07,-1.98723819488911e-08,-1.56184452204741e-07,NaN,NaN,-6.56683444965619e-07,-4.59888757182934e-07,-2.03933736820261e-06,-4.59888757182544e-07,8.67340223029545e-07,NaN,NaN,7.17405015441636e-08,-6.99468283414561e-08,NaN,NaN,8.02674599449243e-07,8.77501364357398e-07,-1.57454133891009e-06,NaN,1.24586778843507e-07,3.60874002377008e-08,-1.05917769899251e-07,-6.98303696616763e-08,-8.35564900160108e-08,5.33053350337329e-10,5.33053350572884e-10,-1.35724005359882e-07,-2.59380684850403e-07,-3.95104690210166e-07,NaN,-2.33251257361384e-07,-1.93586920929584e-07,-7.61300972190523e-08,-2.67614269786955e-07,-2.67614269786873e-07,7.13762262606482e-08,-9.6277165570434e-08,NaN,0,1,0
1893.7856,7.43372747918877e-09,-4.94231744338929e-08,-4.19894469546701e-08,-4.57020142680986e-08,-4.08109991214197e-08,-4.08109991212459e-08,NaN,NaN,3.64239222859304e-06,-1.20734402954233e-07,-1.08575820504537e-07,-1.2073440295411e-07,-1.41051584838017e-07,-2.13379203234101e-08,-1.62389505161592e-07,NaN,NaN,-6.80423581814154e-07,-4.58803151367777e-07,-2.02821660736472e-06,-4.58803151367465e-07,8.35037135334416e-07,NaN,NaN,7.2622805997096e-08,-6.9826008807807e-08,NaN,NaN,8.15010479241254e-07,9.07423006232781e-07,-1.5478017866872e-06,NaN,1.30236930225714e-07,3.04696477869513e-08,-1.03622614478297e-07,-7.31529666914701e-08,-6.71670271978383e-08,-1.06058237422121e-09,-1.06058237398297e-09,-1.32174735185839e-07,-2.57296946448597e-07,-3.89471681634323e-07,NaN,-2.30040348728386e-07,-1.95709088607409e-07,-1.16709799062901e-07,-2.79740553090185e-07,-2.797405530901e-07,8.88483955563066e-08,-1.09478946955279e-07,NaN,0,0,0
1893.888,3.36623674567176e-09,-4.60494611763412e-08,-4.26832244306344e-08,-5.66354368539535e-08,-4.55095847046389e-08,-4.55095847044627e-08,NaN,NaN,3.67711952291686e-06,-1.12156460457239e-07,-1.01877729035647e-07,-1.12156460457123e-07,-1.45288121347346e-07,-2.21124753314195e-08,-1.6740059667893e-07,NaN,NaN,-6.96774380611963e-07,-4.54071784901873e-07,-2.01131861578889e-06,-4.54071784901638e-07,8.00494060936229e-07,NaN,NaN,7.27051040813827e-08,-6.94863925007621e-08,NaN,NaN,8.25548160757556e-07,9.32843481874227e-07,-1.52005929127817e-06,NaN,1.35289344113336e-07,2.51311611090005e-08,-1.01594074072175e-07,-7.64629129632981e-08,-5.28684555839264e-08,-1.41281655125955e-09,-1.412816551019e-09,-1.28130224392577e-07,-2.54223616804762e-07,-3.82353841197231e-07,NaN,-2.25154551422829e-07,-1.96851311141874e-07,-1.55725409261572e-07,-2.8817517708182e-07,-2.88175177081733e-07,1.00218917728067e-07,-1.19265188109064e-07,NaN,0,0,0
1893.9904,5.03624114109077e-10,-4.27316249986496e-08,-4.22280008845047e-08,-6.67902137110945e-08,-4.86195662357424e-08,-4.86195662355642e-08,NaN,NaN,3.70242640877565e-06,-1.02622936515337e-07,-9.65932411146109e-08,-1.02622936515227e-07,-1.49036419987118e-07,-2.20562528952688e-08,-1.71092672882551e-07,NaN,NaN,-7.06853239343023e-07,-4.45930491364568e-07,-1.99304808744277e-06,-4.45930491364406e-07,7.67724542555627e-07,NaN,NaN,7.21657279133495e-08,-6.8951942738966e-08,NaN,NaN,8.34335241292186e-07,9.53326856368579e-07,-1.49438394701098e-06,NaN,1.40399240724175e-07,2.00101780121148e-08,-9.97572360873412e-08,-7.97470580753486e-08,-3.99623259555424e-08,-9.18777219526146e-10,-9.18777219282796e-10,-1.23758757130259e-07,-2.50266420550717e-07,-3.74025177680871e-07,NaN,-2.1862050256916e-07,-1.96697297849916e-07,-1.91996216099282e-07,-2.92636245645199e-07,-2.92636245645109e-07,1.05233000492317e-07,-1.25784576701018e-07,NaN,0,0,0
1894.0928,-1.50213015232752e-09,-3.95015593324399e-08,-4.10036894847305e-08,-7.59602130646892e-08,-5.02123046224411e-08,-5.02123046222614e-08,NaN,NaN,3.72286126336492e-06,-9.21695817207428e-08,-9.26493587594742e-08,-9.21695817206383e-08,-1.52221534397327e-07,-2.11028662223306e-08,-1.73324400619823e-07,NaN,NaN,-7.12231714640202e-07,-4.34817820660858e-07,-1.97737473963634e-06,-4.34817820660763e-07,7.40831653468289e-07,NaN,NaN,7.11932644694285e-08,-6.82688301678061e-08,NaN,NaN,8.41087482700219e-07,9.68616872935336e-07,-1.47396244406558e-06,NaN,1.4647854789512e-07,1.49790342785333e-08,-9.80042958787785e-08,-8.30252616003662e-08,-2.78424862080986e-08,-1.00227994674056e-10,-1.00227994427927e-10,-1.19118803338276e-07,-2.4560338079945e-07,-3.64722184137623e-07,NaN,-2.10563574678285e-07,-1.94983840211977e-07,-2.24518322494739e-07,-2.93025685997742e-07,-2.9302568599765e-07,1.04028403439848e-07,-1.29276249245631e-07,NaN,0,0,0
1894.1952,-3.05331556180945e-09,-3.63951248286258e-08,-3.94484403903972e-08,-8.39352962468173e-08,-5.04042305697896e-08,-5.04042305696086e-08,NaN,NaN,3.74366051867208e-06,-8.08720919883732e-08,-8.98759429166723e-08,-8.08720919882732e-08,-1.54719631238638e-07,-1.92223989542776e-08,-1.73942030193081e-07,NaN,NaN,-7.14779610324253e-07,-4.21206125346643e-07,-1.96762286859094e-06,-4.21206125346607e-07,7.23870035980959e-07,NaN,NaN,6.99847847238537e-08,-6.74850273963821e-08,NaN,NaN,8.45309444855144e-07,9.78624320415213e-07,-1.46156415816121e-06,NaN,1.54637445138991e-07,9.86379742792443e-09,-9.61979284282513e-08,-8.6334131000447e-08,-1.60415479304837e-08,5.16742379578388e-10,5.16742379827885e-10,-1.14178161789437e-07,-2.40427433624673e-07,-3.54605595414011e-07,NaN,-2.01139711087762e-07,-1.91487408762437e-07,-2.52282953199509e-07,-2.89351890872076e-07,-2.89351890871983e-07,9.70745429891075e-08,-1.29976006775029e-07,NaN,0,0,0
1894.2976,-4.50396990446889e-09,-3.35020502022549e-08,-3.80060201066849e-08,-9.04860427604058e-08,-4.92943235896418e-08,-4.92943235894601e-08,NaN,NaN,3.77005811571234e-06,-6.88461522293512e-08,-8.80409278987919e-08,-6.88461522292547e-08,-1.5642011301544e-07,-1.63745865053509e-08,-1.72794699520957e-07,NaN,NaN,-7.16497908524466e-07,-4.05407833127732e-07,-1.96626788897373e-06,-4.05407833127746e-07,7.20511035525631e-07,NaN,NaN,6.87366806718391e-08,-6.66321469237422e-08,NaN,NaN,8.46503377337385e-07,9.8343198769044e-07,-1.45902850979809e-06,NaN,1.66036703881411e-07,4.47307492080175e-09,-9.41816838430954e-08,-8.9708608922413e-08,-4.20609354559647e-09,5.38743472786028e-10,5.38743473038476e-10,-1.08889002316228e-07,-2.34886115835712e-07,-3.43775118151843e-07,NaN,-1.90483608290396e-07,-1.86027996539425e-07,-2.74220858798264e-07,-2.81645747062571e-07,-2.81645747062478e-07,8.50807796524956e-08,-1.28031196611794e-07,NaN,0,0,0
1894.4,-6.08813359225592e-09,-3.09802357047828e-08,-3.7068369296999e-08,-9.53465549267682e-08,-4.69389020238047e-08,-4.69389020236223e-08,NaN,NaN,3.80663896919818e-06,-5.62429971375546e-08,-8.69051781452891e-08,-5.62429971374606e-08,-1.57279640696457e-07,-1.24839170763085e-08,-1.6976355777293e-07,NaN,NaN,-7.19325625088841e-07,-3.87473006648107e-07,-1.97481068051413e-06,-3.87473006648158e-07,7.33562537900714e-07,NaN,NaN,6.76251860635142e-08,-6.57183807441314e-08,NaN,NaN,8.4431337113643e-07,9.83290655995703e-07,-1.46696154984528e-06,NaN,1.81684855144113e-07,-1.36779601201089e-09,-9.1801450310334e-08,-9.31692463224639e-08,7.95169869789335e-09,-2.09428382857618e-10,-2.09428382602158e-10,-1.03268348939629e-07,-2.29050317778531e-07,-3.32318666718065e-07,NaN,-1.78688217069373e-07,-1.78486110171082e-07,-2.89316882091694e-07,-2.6990398046883e-07,-2.69903980468738e-07,6.88694892162712e-08,-1.23427393073575e-07,NaN,0,0,0
1894.5024,-7.89727484807948e-09,-2.9025638496599e-08,-3.69229133446385e-08,-9.82213533145682e-08,-4.33684813052255e-08,-4.33684813050432e-08,NaN,NaN,3.85685146582099e-06,-4.32553016063988e-08,-8.62878433413016e-08,-4.32553016063065e-08,-1.5734435833737e-07,-7.45625579327061e-09,-1.64800614130805e-07,NaN,NaN,-7.24925986701632e-07,-3.67252287391265e-07,-1.9937793825962e-06,-3.6725228739134e-07,7.64532528439027e-07,NaN,NaN,6.67825189684546e-08,-6.47345785638806e-08,NaN,NaN,8.38486480407909e-07,9.7859158112801e-07,-1.48472634730393e-06,NaN,2.02246880869057e-07,-7.78260571851205e-09,-8.89348539133257e-08,-9.67174596319567e-08,2.06763852932294e-08,-1.69058575363301e-09,-1.6905857533745e-09,-9.74315963367948e-08,-2.229286331579e-07,-3.20360229494602e-07,NaN,-1.65807203243052e-07,-1.68813981905207e-07,-2.96823070452823e-07,-2.54080528107551e-07,-2.54080528107462e-07,4.92476506086354e-08,-1.15957571051492e-07,NaN,0,0,0
1894.6048,-9.90035096871744e-09,-2.78191390538449e-08,-3.77194900225221e-08,-9.88326642252471e-08,-3.86288626888472e-08,-3.86288626886655e-08,NaN,NaN,3.92266694800683e-06,-3.01330910045852e-08,-8.61206906309597e-08,-3.01330910044925e-08,-1.56738874229782e-07,-1.22952515662375e-09,-1.57968399386569e-07,NaN,NaN,-7.34493225188127e-07,-3.44605726061435e-07,-2.02284703734323e-06,-3.44605726061522e-07,8.13405687162077e-07,NaN,NaN,6.62719870511901e-08,-6.36667552276391e-08,NaN,NaN,8.28669473378888e-07,9.69820364744619e-07,-1.51066950572399e-06,NaN,2.27909593709722e-07,-1.48156483880249e-08,-8.55164161228321e-08,-1.00332064510976e-07,3.41368818163578e-08,-3.73297113719492e-09,-3.73297113693269e-09,-9.15778151741194e-08,-2.16513274829307e-07,-3.08091090003334e-07,NaN,-1.51869169874304e-07,-1.57034220810686e-07,-2.9646865054331e-07,-2.341340155085e-07,-2.34134015508414e-07,2.69224417312331e-08,-1.05264955862569e-07,NaN,0,1,0
1894.7072,-1.19854959275313e-08,-2.74844495918309e-08,-3.94699455193211e-08,-9.69951382574352e-08,-3.28210078632598e-08,-3.28210078630792e-08,NaN,NaN,4.00431699697968e-06,-1.71917169141534e-08,-8.64698564274244e-08,-1.71917169140587e-08,-1.55638750765672e-07,6.17080304103272e-09,-1.49467947724802e-07,NaN,NaN,-7.48621400233985e-07,-3.19652150770279e-07,-2.06100390822503e-06,-3.19652150770365e-07,8.78684021353342e-07,NaN,NaN,6.60626113431035e-08,-6.25042213554904e-08,NaN,NaN,8.14188813705671e-07,9.57514729137815e-07,-1.54242441228504e-06,NaN,2.58307706742719e-07,-2.24143206711344e-08,-8.15459652835192e-08,-1.03960285954774e-07,4.83392066222243e-08,-6.11666524998981e-09,-6.1166652497243e-09,-8.59673722973626e-08,-2.0982259700153e-07,-2.95789969298802e-07,NaN,-1.36902702659809e-07,-1.43237464003689e-07,-2.886003737029e-07,-2.10122550085e-07,-2.10122550084918e-07,2.47723227402224e-09,-9.09477209509591e-08,NaN,0,1,0
1894.8096,-1.40083677632834e-08,-2.80753111877361e-08,-4.20836789509792e-08,-9.26897321649093e-08,-2.61215170282308e-08,-2.61215170280519e-08,NaN,NaN,4.10010496761738e-06,-4.79219345953282e-09,-8.75225242092349e-08,-4.79219345943445e-09,-1.54241988574518e-07,1.4598550958569e-08,-1.39643437616109e-07,NaN,NaN,-7.67249153444598e-07,-2.92939243695271e-07,-2.10672295472403e-06,-2.92939243695347e-07,9.5765689274038e-07,NaN,NaN,6.60119077015568e-08,-6.12365428091444e-08,NaN,NaN,7.9395900592198e-07,9.4223744062855e-07,-1.57715441996864e-06,NaN,2.92506277651332e-07,-3.04281658783063e-08,-7.70778111123211e-08,-1.07505976990748e-07,6.30189766455891e-08,-8.61549148780409e-09,-8.61549148753513e-09,-8.09136278645168e-08,-2.02912425625662e-07,-2.83826053490088e-07,NaN,-1.20965619995339e-07,-1.27586353888107e-07,-2.74214705744618e-07,-1.82312060645582e-07,-1.82312060645506e-07,-2.36121418889412e-08,-7.26711865101829e-08,NaN,0,1,0
1894.912,-1.58459113968905e-08,-2.95824806078295e-08,-4.54283920046801e-08,-8.61223196503526e-08,-1.87759884965316e-08,-1.87759884963548e-08,NaN,NaN,4.2063501385398e-06,6.71885403918344e-09,-8.95520555714396e-08,6.71885403928702e-09,-1.52741743096326e-07,2.3786251767335e-08,-1.28955491329149e-07,NaN,NaN,-7.8968020977796e-07,-2.65456970215458e-07,-2.15809271747327e-06,-2.65456970215517e-07,1.0468230826189e-06,NaN,NaN,6.58774726750194e-08,-5.98412755100084e-08,NaN,NaN,7.66539665662844e-07,9.24546476250084e-07,-1.61173209152688e-06,NaN,3.29056677725852e-07,-3.86286079832117e-08,-7.2198758451854e-08,-1.10827366435188e-07,7.75825290480698e-08,-1.09891952531853e-08,-1.09891952529135e-08,-7.67654628634823e-08,-1.95851729893836e-07,-2.72617192757228e-07,NaN,-1.04150377014494e-07,-1.10319427677111e-07,-2.5486916791985e-07,-1.51246316902726e-07,-1.51246316902655e-07,-5.09555955100001e-08,-5.02325875120772e-08,NaN,0,0,0
1895.0144,-1.74587571326306e-08,-3.19333875504333e-08,-4.93921446830243e-08,-7.77667795376524e-08,-1.10670272916993e-08,-1.10670272915244e-08,NaN,NaN,4.3175266159363e-06,1.71122562228475e-08,-9.28753455333215e-08,1.71122562229573e-08,-1.51295269393653e-07,3.33745357365381e-08,-1.17920733657271e-07,NaN,NaN,-8.14674729170918e-07,-2.38480841766632e-07,-2.21292164306294e-06,-2.38480841766671e-07,1.14234160933532e-06,NaN,NaN,6.53723520610444e-08,-5.82713541756691e-08,NaN,NaN,7.30273971765459e-07,9.04942205060664e-07,-1.64294408908123e-06,NaN,3.66139009481379e-07,-4.6750154725932e-08,-6.70064969289975e-08,-1.13756651655053e-07,9.11665516192851e-08,-1.29595836439439e-08,-1.29595836436685e-08,-7.38555053762539e-08,-1.88677297262563e-07,-2.62532802638727e-07,NaN,-8.65431539670119e-08,-9.1749879821925e-08,-2.32517325040673e-07,-1.17736276387871e-07,-1.17736276387806e-07,-7.92441086582122e-08,-2.35612312907116e-08,NaN,0,0,0
1895.1168,-1.89522471810406e-08,-3.49675303462862e-08,-5.39197775272873e-08,-6.83853064229398e-08,-3.27120555632151e-09,-3.27120555614874e-09,NaN,NaN,4.42661399261077e-06,2.63971090737262e-08,-9.78100338458073e-08,2.63971090738428e-08,-1.49988974332556e-07,4.29588923239152e-08,-1.07030082008794e-07,NaN,NaN,-8.40588565132242e-07,-2.13302753437435e-07,-2.26883022835339e-06,-2.13302753437452e-07,1.24037396324922e-06,NaN,NaN,6.42510391948151e-08,-5.6451828404687e-08,NaN,NaN,6.83472633509122e-07,8.83804417051217e-07,-1.6677656029602e-06,NaN,4.01757640826356e-07,-5.45440302097391e-08,-6.1596269313214e-08,-1.16140299523079e-07,1.02826121372112e-07,-1.42106110995666e-08,-1.42106110992881e-08,-7.24259134582798e-08,-1.81351220053177e-07,-2.53777133511367e-07,NaN,-6.81595631903809e-08,-7.22641035353405e-08,-2.09348568028012e-07,-8.27696612967885e-08,-8.27696612967282e-08,-1.08259302279105e-07,7.31887515542785e-09,NaN,0,0,0
1895.2192,-2.06038813238497e-08,-3.84047191806761e-08,-5.90086005044856e-08,-5.90104904425477e-08,4.37349548575087e-09,4.37349548592146e-09,NaN,NaN,4.5255853277156e-06,3.49030948488465e-08,-1.04630577689485e-07,3.49030948489702e-08,-1.48808964127949e-07,5.21335158362341e-08,-9.66754482918664e-08,NaN,NaN,-8.65525119302349e-07,-1.90945059595318e-07,-2.32334670614676e-06,-1.90945059595315e-07,1.33724549338025e-06,NaN,NaN,6.23902338651333e-08,-5.42894957091113e-08,NaN,NaN,6.24664398021285e-07,8.6136201692252e-07,-1.68365187154056e-06,NaN,4.33921047750755e-07,-6.18255077831167e-08,-5.60567118163412e-08,-1.17882219599585e-07,1.11782378563562e-07,-1.44274720440633e-08,-1.44274720437822e-08,-7.25651835640864e-08,-1.73742458893715e-07,-2.4630764245771e-07,NaN,-4.89089097889867e-08,-5.23242752831061e-08,-1.87673230190741e-07,-4.73878442050289e-08,-4.73878442049735e-08,-1.37870888807372e-07,4.230915695428e-08,NaN,0,0,0
1895.3216,-2.2824503161094e-08,-4.18425131873615e-08,-6.4667016348415e-08,-5.08797519245618e-08,1.16788442990318e-08,1.16788442992006e-08,NaN,NaN,4.60597041522127e-06,4.32755302111973e-08,-1.1351610581743e-07,4.32755302113275e-08,-1.47629564931871e-07,6.05182492906051e-08,-8.71113156414155e-08,NaN,NaN,-8.87483776930497e-07,-1.71940686595995e-07,-2.374011739724e-06,-1.71940686595977e-07,1.42947091630111e-06,NaN,NaN,5.98329183648367e-08,-5.16901899606903e-08,NaN,NaN,5.52922859916428e-07,8.37727089857212e-07,-1.68877022464129e-06,NaN,4.60767787845986e-07,-6.84989099647546e-08,-5.04698702926694e-08,-1.18968780257553e-07,1.17638122562132e-07,-1.33576152608022e-08,-1.33576152605187e-08,-7.41865330474306e-08,-1.65641146373928e-07,-2.39827679421265e-07,NaN,-2.86201222906179e-08,-3.24727891603396e-08,-1.69823587784663e-07,-1.25875965407657e-08,-1.2587596540715e-08,-1.67993301051684e-07,8.11905868443127e-08,NaN,0,0,0
1895.424,-2.60542350684235e-08,-4.4801019347454e-08,-7.08552544158356e-08,-4.53189174730229e-08,1.85030443764929e-08,1.85030443766601e-08,NaN,NaN,4.65960725719477e-06,5.23715836238249e-08,-1.24490903507501e-07,5.23715836239601e-08,-1.46225909127608e-07,6.7771320996302e-08,-7.84545881314559e-08,NaN,NaN,-9.0452235635902e-07,-1.56235694106447e-07,-2.4185044197489e-06,-1.56235694106421e-07,1.5137772446817e-06,NaN,NaN,5.67813058286547e-08,-4.85750937534985e-08,NaN,NaN,4.68217014861561e-07,8.12983400046256e-07,-1.6821321797446e-06,NaN,4.80673855851104e-07,-7.45565230186233e-08,-4.49088849531555e-08,-1.19465407971909e-07,1.20501001593609e-07,-1.0866080615982e-08,-1.08660806156959e-08,-7.70687864636209e-08,-1.56803229294452e-07,-2.33872015757977e-07,NaN,-7.1375257452609e-09,-1.33384968165774e-08,-1.58010371820658e-07,2.07160828155441e-08,2.07160828155909e-08,-1.98513675018804e-07,1.23522667666875e-07,NaN,0,0,0
1895.5264,-3.06308833337606e-08,-4.68030880046989e-08,-7.74339713384161e-08,-4.35763411857471e-08,2.47452517039754e-08,2.4745251704141e-08,NaN,NaN,4.6797243569913e-06,6.30762009077057e-08,-1.3737413375241e-07,6.30762009078436e-08,-1.44306932145365e-07,7.35995130372732e-08,-7.07074191082413e-08,NaN,NaN,-9.14955137421083e-07,-1.4323406441525e-07,-2.45482278833689e-06,-1.4323406441523e-07,1.58723037272133e-06,NaN,NaN,5.3537445920303e-08,-4.48917921389452e-08,NaN,NaN,3.71679067000483e-07,7.8729614686648e-07,-1.66362845547486e-06,NaN,4.92398048223515e-07,-8.00567951291577e-08,-3.94307362216964e-08,-1.19487531350985e-07,1.20990385610156e-07,-6.96590666179019e-09,-6.96590666150162e-09,-8.09574680658095e-08,-1.47017681453212e-07,-2.27975149518923e-07,NaN,1.55201634822139e-08,4.3548439281026e-09,-1.54098506014141e-07,5.16657869882105e-08,5.16657869882542e-08,-2.292455350954e-07,1.6856465211492e-07,NaN,0,0,0
1895.6288,-3.66808348449363e-08,-4.74603865870521e-08,-8.41412214319434e-08,-4.66302163845278e-08,3.03449896477385e-08,3.03449896479028e-08,NaN,NaN,4.66220161814062e-06,7.60849191193541e-08,-1.51763123543866e-07,7.60849191194914e-08,-1.41558178119753e-07,7.77745775628021e-08,-6.37836005571021e-08,NaN,NaN,-9.17562846259985e-07,-1.31939842492596e-07,-2.48152782268865e-06,-1.31939842492595e-07,1.64743857725755e-06,NaN,NaN,5.04057531220131e-08,-4.06204718359563e-08,NaN,NaN,2.65671877754187e-07,7.61011593427287e-07,-1.63400068565557e-06,NaN,4.95260610020316e-07,-8.50906844167473e-08,-3.40677020418496e-08,-1.19158386458728e-07,1.20133780188802e-07,-1.81371152975574e-09,-1.81371152946422e-09,-8.56867780375631e-08,-1.36178777582597e-07,-2.21865555620059e-07,NaN,3.89915750741299e-08,1.9795493422449e-08,-1.59342698264248e-07,7.94252528028009e-08,7.94252528028412e-08,-2.59935047805658e-07,2.15281926756056e-07,NaN,0,0,0
1895.7312,-4.40738685108008e-08,-4.65346315160094e-08,-9.06085000267634e-08,-5.50219699839623e-08,3.52895211773333e-08,3.52895211774969e-08,NaN,NaN,4.60656762679339e-06,9.17281768607682e-08,-1.6706881936126e-07,9.1728176860902e-08,-1.3768223337771e-07,8.01574216982054e-08,-5.75248116796588e-08,NaN,NaN,-9.11749399966224e-07,-1.21122542758951e-07,-2.49797693978111e-06,-1.21122542758986e-07,1.69273518224439e-06,NaN,NaN,4.75900545069106e-08,-3.57751453993524e-08,NaN,NaN,1.53586919395316e-07,7.34708611887547e-07,-1.59476090038622e-06,NaN,4.89288311427797e-07,-8.97466494315871e-08,-2.88229997459343e-08,-1.18569649177652e-07,1.1918282257622e-07,4.32914296972386e-09,4.32914297001837e-09,-9.12617543401759e-08,-1.2433426331559e-07,-2.15596017655662e-07,NaN,6.25053226236421e-08,3.21412600425794e-08,-1.74191592290851e-07,1.03206751821843e-07,1.0320675182188e-07,-2.90288513673059e-07,2.62429471340645e-07,NaN,0,0,0
1895.8336,-5.24599599606382e-08,-4.39593501794039e-08,-9.64193101399936e-08,-6.87706675151328e-08,3.962882549388e-08,3.9628825494044e-08,NaN,NaN,4.51636405685554e-06,1.09899764630928e-07,-1.82602856932471e-07,1.09899764631055e-07,-1.3242817815006e-07,8.0723346522155e-08,-5.1704831628062e-08,NaN,NaN,-8.97609348471396e-07,-1.09505785546299e-07,-2.50441561869957e-06,-1.09505785546385e-07,1.72232705211414e-06,NaN,NaN,4.51251438670903e-08,-3.03982953246067e-08,NaN,NaN,3.94165039245348e-08,7.09164560193904e-07,-1.54801442035707e-06,NaN,4.75258023996885e-07,-9.4084473403763e-08,-2.36716347685113e-08,-1.17756108172403e-07,1.19382553664676e-07,1.11551693698444e-08,1.11551693701421e-08,-9.7857300938407e-08,-1.11685204952045e-07,-2.09542505890345e-07,NaN,8.49875661200113e-08,4.06432975190969e-08,-1.98233940633829e-07,1.22391199970955e-07,1.22391199970988e-07,-3.19991066320772e-07,3.08674217749664e-07,NaN,0,1,0
1895.936,-6.13721601862301e-08,-3.98277201344593e-08,-1.01199880320639e-07,-8.73875280884671e-08,4.34899347580091e-08,4.34899347581743e-08,NaN,NaN,4.39883023261039e-06,1.30100291985575e-07,-1.97691177886363e-07,1.30100291985693e-07,-1.25610215158844e-07,7.95780677221831e-08,-4.60321474368221e-08,NaN,NaN,-8.75923676950856e-07,-9.60446823614939e-08,-2.50185701912293e-06,-9.60446823616459e-08,1.73644223829177e-06,NaN,NaN,4.28704583975876e-08,-2.45498171434216e-08,NaN,NaN,-7.27433825553815e-08,6.85237504502495e-07,-1.49617083668923e-06,NaN,4.54613015611855e-07,-9.81253438656336e-08,-1.8563699254941e-08,-1.16689043120702e-07,1.21715892747114e-07,1.83658777399531e-08,1.83658777402545e-08,-1.05739489816009e-07,-9.8536210077204e-08,-2.04275699893103e-07,NaN,1.0530051192696e-07,4.48020973065616e-08,-2.30271224244262e-07,1.36684981011666e-07,1.36684981011695e-07,-3.48727583670545e-07,3.52735280010706e-07,NaN,0,1,0
1896.0384,-7.03524747896412e-08,-3.43604443277774e-08,-1.04712919117367e-07,-1.09971102219907e-07,4.70760960924877e-08,4.70760960926549e-08,NaN,NaN,4.26406113145184e-06,1.51559968134269e-07,-2.11777014548007e-07,1.51559968134373e-07,-1.1712597992833e-07,7.69591237350916e-08,-4.01668561934037e-08,NaN,NaN,-8.48097448436147e-07,-8.02603112383966e-08,-2.49182681221339e-06,-8.02603112386289e-08,1.73641011441325e-06,NaN,NaN,4.05656232296338e-08,-1.82951659172279e-08,NaN,NaN,-1.79106620176158e-07,6.63716261809707e-07,-1.44163682393316e-06,NaN,4.29273304840493e-07,-1.01859760720967e-07,-1.34293360765149e-08,-1.15289096797607e-07,1.26652404273723e-07,2.57054139358451e-08,2.57054139361508e-08,-1.15158668970383e-07,-8.52172886611427e-08,-2.00375957631414e-07,NaN,1.22499454765358e-07,4.44943026069397e-08,-2.68476893592801e-07,1.46227778756151e-07,1.46227778756176e-07,-3.76218045897125e-07,3.93523161088163e-07,NaN,0,1,0
1896.1408,-7.90496166314077e-08,-2.78714483001029e-08,-1.06921064931458e-07,-1.35344304922624e-07,5.0641827491803e-08,5.06418274919727e-08,NaN,NaN,4.1237655772702e-06,1.73381409246008e-07,-2.24483761713268e-07,1.73381409246099e-07,-1.06985039156877e-07,7.32217511894168e-08,-3.37632879676298e-08,NaN,NaN,-8.16029548565881e-07,-6.24620275328797e-08,-2.47612352915043e-06,-6.24620275332006e-08,1.72458355771754e-06,NaN,NaN,3.79216541856071e-08,-1.16987497079069e-08,NaN,NaN,-2.76482967498322e-07,6.45205607225567e-07,-1.38660875066042e-06,NaN,4.01392304449232e-07,-1.0526654039064e-07,-8.1885308372327e-09,-1.13455071227996e-07,1.33965394748715e-07,3.29707354766266e-08,3.29707354769375e-08,-1.26262605195859e-07,-7.20092655812324e-08,-1.98271870776979e-07,NaN,1.36017163296803e-07,4.00251251112857e-08,-3.10608366979313e-07,1.51602145506163e-07,1.51602145506184e-07,-4.02248836772707e-07,4.30240647895839e-07,NaN,0,0,0
1896.2432,-8.72451809515065e-08,-2.07497827686578e-08,-1.07994963720111e-07,-1.62187306523837e-07,5.44482905513026e-08,5.4448290551475e-08,NaN,NaN,3.98970780801838e-06,1.94640636049373e-07,-2.35626473033982e-07,1.94640636049448e-07,-9.53457036281857e-08,6.88074283240365e-08,-2.65382753043233e-08,NaN,NaN,-7.81921156656062e-07,-4.37309324385196e-08,-2.45667847230733e-06,-4.37309324389342e-08,1.70410681766656e-06,NaN,NaN,3.47140806331767e-08,-4.82642418689127e-09,NaN,NaN,-3.62458719104963e-07,6.30091066952604e-07,-1.3329970377755e-06,NaN,3.73124464634079e-07,-1.08332375959575e-07,-2.76881221019465e-09,-1.11101188169891e-07,1.42690061970946e-07,4.0011250017953e-08,4.00112500182692e-08,-1.39040369049741e-07,-5.90998224497672e-08,-1.98140191499394e-07,NaN,1.45730789628657e-07,3.20871422504396e-08,-3.54218215213928e-07,1.5373941240648e-07,1.53739412406497e-07,-4.26686778364497e-07,4.62422206575667e-07,NaN,0,0,0
1896.3456,-9.47953862324552e-08,-1.34585575426497e-08,-1.08253943775052e-07,-1.8913430639517e-07,5.8711451238725e-08,5.87114512389001e-08,NaN,NaN,3.87203481940369e-06,2.14421261339613e-07,-2.45180142938131e-07,2.14421261339674e-07,-8.25463686365106e-08,6.41964795089057e-08,-1.83498891277827e-08,NaN,NaN,-7.48045918594576e-07,-2.56928728192473e-08,-2.43550927337002e-06,-2.56928728197546e-08,1.67854131975028e-06,NaN,NaN,3.08523145256292e-08,2.24380852062034e-09,NaN,NaN,-4.35473300131219e-07,6.18575287296155e-07,-1.28247253946424e-06,NaN,3.46452493872616e-07,-1.11065773029609e-07,2.87167795107521e-09,-1.08194095078652e-07,1.51238059865906e-07,4.67316376777143e-08,4.67316376780355e-08,-1.53290793795126e-07,-4.65777245484374e-08,-1.99868518343448e-07,NaN,1.51910042423725e-07,2.16254842609528e-08,-3.96830185320296e-07,1.53744752468672e-07,1.53744752468685e-07,-4.49498568677321e-07,4.89937801174161e-07,NaN,0,0,0
1896.448,-1.01528775082322e-07,-6.52893313957214e-09,-1.08057708221841e-07,-2.14839420144609e-07,6.35545401470031e-08,6.35545401471804e-08,NaN,NaN,3.77791357736876e-06,2.31821016359766e-07,-2.53227960755089e-07,2.31821016359812e-07,-6.91128920953253e-08,5.9855503418662e-08,-9.25738867684398e-09,NaN,NaN,-7.16499003699117e-07,-1.01822281101827e-08,-2.41472673823609e-06,-1.01822281107757e-08,1.65135839467052e-06,NaN,NaN,2.6412129423907e-08,9.40907108838684e-09,NaN,NaN,-4.94789983218916e-07,6.10722473684699e-07,-1.23663711799278e-06,NaN,3.23075895098063e-07,-1.13503577266895e-07,8.72420305099886e-09,-1.04779374216013e-07,1.57613305912248e-07,5.30959225779823e-08,5.30959225783088e-08,-1.6862826339964e-07,-3.44531626565851e-08,-2.03081426056108e-07,NaN,1.55085676648742e-07,9.63987999980614e-09,-4.36100977700044e-07,1.52684486459013e-07,1.52684486459022e-07,-4.70798153814514e-07,5.13002038873879e-07,NaN,0,0,0
1896.5504,-1.07173160217807e-07,-5.28154673713435e-10,-1.07701314891466e-07,-2.38041482519483e-07,6.89719527324644e-08,6.89719527326429e-08,NaN,NaN,3.71091929052634e-06,2.45993720897011e-07,-2.59914695146218e-07,2.45993720897045e-07,-5.57269873718819e-08,5.61935661547362e-08,4.66578782671557e-10,NaN,NaN,-6.88949257561463e-07,1.12566747712595e-09,-2.39654105077168e-06,1.12566747646071e-09,1.62541561944562e-06,NaN,NaN,2.1630246037436e-08,1.65337206709692e-08,NaN,NaN,-5.40403227864441e-07,6.06443562887284e-07,-1.19725711312061e-06,NaN,3.04324245673192e-07,-1.15707569655011e-07,1.47198524287237e-08,-1.00987717226403e-07,1.59661817482035e-07,5.91163110616019e-08,5.91163110619329e-08,-1.84544347392568e-07,-2.26877641218337e-08,-2.07232111514282e-07,NaN,1.55898399957054e-07,-3.01181504322775e-09,-4.69994993081755e-07,1.51390627649479e-07,1.51390627649484e-07,-4.90900597314891e-07,5.32186220151336e-07,NaN,0,0,0
1896.6528,-1.1136278762634e-07,4.00050030608567e-09,-1.073622873202e-07,-2.57652935057018e-07,7.48114530249219e-08,7.48114530251001e-08,NaN,NaN,3.67123722561065e-06,2.56247609097202e-07,-2.65418021649231e-07,2.56247609097225e-07,-4.31533990616717e-08,5.3533278639916e-08,1.03798795780605e-08,NaN,NaN,-6.6643821080284e-07,7.05845291376978e-09,-2.38319966183588e-06,7.05845291305388e-09,1.60259363947995e-06,NaN,NaN,1.68678595967515e-08,2.34497413147107e-08,NaN,NaN,-5.72938456672765e-07,6.05421757819244e-07,-1.16639389419599e-06,NaN,2.91055442452004e-07,-1.1774896743463e-07,2.07318604383246e-08,-9.70171069964209e-08,1.55328733859601e-07,6.48190028093245e-08,6.48190028096581e-08,-2.00510706093961e-07,-1.12240865673122e-08,-2.11734792661151e-07,NaN,1.5498613460506e-07,-1.57389635365444e-08,-4.96967482069564e-07,1.50339853551565e-07,1.50339853551567e-07,-5.10329630043945e-07,5.48389929492528e-07,NaN,0,0,0
1896.7552,-1.13722089104536e-07,6.61300158936296e-09,-1.07109087515117e-07,-2.72875772615261e-07,8.07830388032485e-08,8.07830388034245e-08,NaN,NaN,3.65630858379938e-06,2.62165316953654e-07,-2.6993557575809e-07,2.62165316953671e-07,-3.21402218353499e-08,5.20942774837543e-08,1.99540556482206e-08,NaN,NaN,-6.49277501406506e-07,7.19646284055377e-09,-2.37680408106023e-06,7.1964628398124e-09,1.5836880707917e-06,NaN,NaN,1.25518281223104e-08,2.99670754571468e-08,NaN,NaN,-5.9356775235662e-07,6.07048238499556e-07,-1.14627473065338e-06,NaN,2.83530068517117e-07,-1.19683791189886e-07,2.65887088048678e-08,-9.30950823851334e-08,1.42927707365566e-07,7.02036134491297e-08,7.02036134494628e-08,-2.16076290239971e-07,-1.00368231600214e-11,-2.16086327063006e-07,NaN,1.52943741140355e-07,-2.82358223291013e-08,-5.16130036861567e-07,1.49646780114884e-07,1.49646780114883e-07,-5.29742275859858e-07,5.62737275946015e-07,NaN,0,0,0
1896.8576,-1.13975559171351e-07,7.03248709257946e-09,-1.06943072078714e-07,-2.83310884450982e-07,8.64959069071191e-08,8.64959069072913e-08,NaN,NaN,3.66150541626385e-06,2.63684757844877e-07,-2.73675549906997e-07,2.6368475784489e-07,-2.33187753495075e-08,5.19851629707961e-08,2.86663876211055e-08,NaN,NaN,-6.37085017321515e-07,1.95882252367056e-09,-2.37902107754989e-06,1.95882252293243e-09,1.56852746124744e-06,NaN,NaN,9.10211558635006e-09,3.58937930112638e-08,NaN,NaN,-6.03931833994519e-07,6.10439460275104e-07,-1.13889414895565e-06,NaN,2.81311502070419e-07,-1.21527316466696e-07,3.20961340388973e-08,-8.94311824279139e-08,1.21415984958717e-07,7.5221650886791e-08,7.52216508871215e-08,-2.30918212760119e-07,1.09815292377591e-08,-2.19936683522232e-07,NaN,1.50346854534571e-07,-4.04055102306991e-08,-5.27356631817482e-07,1.49168148144963e-07,1.4916814814496e-07,-5.49781106099609e-07,5.76402313983588e-07,NaN,0,0,0
1896.96,-1.12018815145329e-07,5.18392372576335e-09,-1.06834891419505e-07,-2.8900256143074e-07,9.15146703882984e-08,9.1514670388465e-08,NaN,NaN,3.68066263188749e-06,2.61089463088099e-07,-2.76836788405533e-07,2.61089463088112e-07,-1.71291428072323e-08,5.32022579169715e-08,3.60731151095577e-08,NaN,NaN,-6.28965080227948e-07,-7.48351211877249e-09,-2.39078061112022e-06,-7.48351211947923e-09,1.55622244495867e-06,NaN,NaN,6.85473280779126e-09,4.10613964690426e-08,NaN,NaN,-6.06033279662581e-07,6.14558038883359e-07,-1.14548089727758e-06,NaN,2.83281607889356e-07,-1.23237363995596e-07,3.7063792700996e-08,-8.61735712947157e-08,9.06341464513293e-08,7.97852310693275e-08,7.97852310696516e-08,-2.44833978188301e-07,2.17343769476384e-08,-2.23099601240531e-07,NaN,1.47797658229152e-07,-5.22423718874423e-08,-5.31286623021705e-07,1.48671122453421e-07,1.48671122453414e-07,-5.70901633501936e-07,5.90399942392089e-07,NaN,0,0,0
1897.0624,-1.07918559021681e-07,1.18599914901516e-09,-1.06732559872603e-07,-2.90388559832794e-07,9.54237647008169e-08,9.54237647009764e-08,NaN,NaN,3.70651399622227e-06,2.54909814080042e-07,-2.795766803476e-07,2.54909814080058e-07,-1.37803380536041e-08,5.56354110346588e-08,4.18550729808754e-08,NaN,NaN,-6.23778664174816e-07,-1.94063363778494e-08,-2.41206385325093e-06,-1.94063363784975e-08,1.54545373358964e-06,NaN,NaN,5.9911801408026e-09,4.53491151760074e-08,NaN,NaN,-6.02070170396754e-07,6.18408662068097e-07,-1.16598374311062e-06,NaN,2.87832291110388e-07,-1.2471404156725e-07,4.1331866474743e-08,-8.33821750926234e-08,5.14470323162989e-08,8.38008052122715e-08,8.38008052125866e-08,-2.57683075262455e-07,3.21730637487198e-08,-2.255100115136e-07,NaN,1.45947001635009e-07,-6.37319819846121e-08,-5.29213475584984e-07,1.48000023636991e-07,1.48000023636983e-07,-5.93225095101083e-07,6.05391650557265e-07,NaN,0,1,0
1897.1648,-1.01868844748355e-07,-4.68189615352461e-09,-1.06550740901814e-07,-2.88187511673106e-07,9.78902549985026e-08,9.78902549986539e-08,NaN,NaN,3.73118543650981e-06,2.45803099929931e-07,-2.81984043699794e-07,2.45803099929954e-07,-1.32335475283689e-08,5.90819964725365e-08,4.58484489439909e-08,NaN,NaN,-6.20399674248321e-07,-3.17560339573797e-08,-2.44184112413198e-06,-3.1756033957946e-08,1.53473405718481e-06,NaN,NaN,6.490083387349e-09,4.87039795512374e-08,NaN,NaN,-5.94225129689435e-07,6.21243791623059e-07,-1.19868162732294e-06,NaN,2.93197498269139e-07,-1.25818374559031e-07,4.47943361455497e-08,-8.1024038413599e-08,5.72548983353697e-09,8.7213963665177e-08,8.72139636654816e-08,-2.69298243678189e-07,4.21600264562095e-08,-2.27138217221841e-07,NaN,1.45465118153897e-07,-7.48064036732296e-08,-5.22884472804745e-07,1.47181563721763e-07,1.47181563721754e-07,-6.16453320154275e-07,6.21559344894489e-07,NaN,0,1,0
1897.2672,-9.41623937567228e-08,-1.20119064077874e-08,-1.0617430016444e-07,-2.83286508371591e-07,9.87131870324814e-08,9.87131870326245e-08,NaN,NaN,3.74685622605856e-06,2.34484328949305e-07,-2.8407981439222e-07,2.34484328949335e-07,-1.51962054135576e-08,6.32681009680218e-08,4.80718955542901e-08,NaN,NaN,-6.17866717893776e-07,-4.23465392415653e-08,-2.4781726270493e-06,-4.23465392420367e-08,1.52261906360931e-06,NaN,NaN,8.12148612765923e-09,5.11532727456276e-08,NaN,NaN,-5.8445408726096e-07,6.22703658272857e-07,-1.24003056788161e-06,NaN,2.97789851980422e-07,-1.26404497459506e-07,4.74149619253124e-08,-7.89895355343115e-08,-4.3857692850236e-08,9.00461321718983e-08,9.00461321721905e-08,-2.79399736882526e-07,5.1513965039804e-08,-2.2788577184258e-07,NaN,1.46962269758614e-07,-8.53549265033179e-08,-5.14249178649659e-07,1.46440022878607e-07,1.46440022878596e-07,-6.39869552193693e-07,6.385848350819e-07,NaN,0,1,0
1897.3696,-8.52118164826709e-08,-2.0290779214443e-08,-1.05502595697041e-07,-2.76674193492511e-07,9.78452141455152e-08,9.78452141456499e-08,NaN,NaN,3.74647829033162e-06,2.2171672326601e-07,-2.85853251575469e-07,2.21716723266049e-07,-1.91324485474639e-08,6.78708838354935e-08,4.8738435287858e-08,NaN,NaN,-6.15408781923616e-07,-4.90358863918618e-08,-2.51844546021044e-06,-4.90358863922304e-08,1.50787474091024e-06,NaN,NaN,1.04944650944541e-08,5.28044710158496e-08,NaN,NaN,-5.74322536528261e-07,6.2283793422017e-07,-1.28485297542702e-06,NaN,3.00393916105536e-07,-1.26352376220251e-07,4.92317409943751e-08,-7.71206352259945e-08,-9.41871130380651e-08,9.24066075759488e-08,9.24066075762279e-08,-2.8754946632777e-07,6.00456026313836e-08,-2.27503863696243e-07,NaN,1.50894782538167e-07,-9.52572027023331e-08,-5.05213136972247e-07,1.46139106904694e-07,1.4613910690468e-07,-6.62420381639202e-07,6.5572920258397e-07,NaN,0,0,0
1897.472,-7.56020489930188e-08,-2.89255101165072e-08,-1.0452755910945e-07,-2.69424090020694e-07,9.53759504913435e-08,9.53759504914705e-08,NaN,NaN,3.72424375619437e-06,2.08317575123926e-07,-2.87313980337834e-07,2.08317575123974e-07,-2.43052523219093e-08,7.25344423390573e-08,4.82291900169788e-08,NaN,NaN,-6.12384594398212e-07,-4.98935298905013e-08,-2.55969543539631e-06,-4.98935298907724e-08,1.48959527622465e-06,NaN,NaN,1.31401049840739e-08,5.38316029977864e-08,NaN,NaN,-5.64940569094185e-07,6.21998907965028e-07,-1.32684586077187e-06,NaN,3.00170843288547e-07,-1.25586587283079e-07,5.03489358165985e-08,-7.52376514665991e-08,-1.42131574282598e-07,9.44789657332664e-08,9.44789657335322e-08,-2.93159526168731e-07,6.75968799803994e-08,-2.25562646188187e-07,NaN,1.57509433345389e-07,-1.04398482051387e-07,-4.97470508553576e-07,1.46696857192047e-07,1.46696857192032e-07,-6.82839382656322e-07,6.7197123870869e-07,NaN,0,0,0
1897.5744,-6.61165695339769e-08,-3.72881925322236e-08,-1.03404762066122e-07,-2.62688028154739e-07,9.14803513837113e-08,9.14803513838315e-08,NaN,NaN,3.67561371173126e-06,1.95131116750581e-07,-2.88525381361827e-07,1.95131116750638e-07,-2.98552044831535e-08,7.68778371460953e-08,4.70226326627749e-08,NaN,NaN,-6.08206104776514e-07,-4.33353772024578e-08,-2.59895225351148e-06,-4.33353772026426e-08,1.46724576603594e-06,NaN,NaN,1.55931218442632e-08,5.44514763472875e-08,NaN,NaN,-5.57008606613076e-07,6.20654831573166e-07,-1.35925053728682e-06,NaN,2.96556008580297e-07,-1.24075482004217e-07,5.09190773628973e-08,-7.31564046414386e-08,-1.84922980592402e-07,9.64952195592488e-08,9.64952195595028e-08,-2.9553996520417e-07,7.4067520371421e-08,-2.21472444832602e-07,NaN,1.66856910327091e-07,-1.1264989984516e-07,-4.92443494276099e-07,1.4851992678243e-07,1.48519926782413e-07,-6.99775708717465e-07,6.86164510573423e-07,NaN,0,0,0
1897.6768,-5.76885456652423e-08,-4.47837558950315e-08,-1.02472301560193e-07,-2.57639267987284e-07,8.63520372115221e-08,8.63520372116362e-08,NaN,NaN,3.59712618528412e-06,1.82955585281677e-07,-2.89603141630209e-07,1.8295558528174e-07,-3.49051644095021e-08,8.05051775263426e-08,4.56000131166756e-08,NaN,NaN,-6.02318015211538e-07,-2.82295627803815e-08,-2.63354107961372e-06,-2.82295627804984e-08,1.44063742006274e-06,NaN,NaN,1.74489023984564e-08,5.48944810835898e-08,NaN,NaN,-5.50913699688405e-07,6.19217843020973e-07,-1.3755448226301e-06,NaN,2.89174604884402e-07,-1.2181784592388e-07,5.11191877332735e-08,-7.06986581907251e-08,-2.20398421456175e-07,9.8707835691236e-08,9.87078356914798e-08,-2.93971600857088e-07,7.941905015663e-08,-2.14552550700311e-07,NaN,1.78852318731792e-07,-1.19831571283577e-07,-4.91277554302198e-07,1.51971390921401e-07,1.51971390921383e-07,-7.11921638953078e-07,6.97189211907219e-07,NaN,0,0,0
1897.7792,-5.12759020658216e-08,-5.09261543829886e-08,-1.02202056448728e-07,-2.55342661474868e-07,8.01484500964552e-08,8.01484500965644e-08,NaN,NaN,3.48642928873647e-06,1.72457416882764e-07,-2.90691109929093e-07,1.72457416882832e-07,-3.86709259909954e-08,8.30322535919153e-08,4.43613276007566e-08,NaN,NaN,-5.94260391618131e-07,-4.01547579431002e-09,-2.66129531636082e-06,-4.01547579438371e-09,1.40990444778717e-06,NaN,NaN,1.83952853294361e-08,5.53760249325997e-08,NaN,NaN,-5.46791855987941e-07,6.17955814020576e-07,-1.37012711240723e-06,NaN,2.77836770100913e-07,-1.18829409427536e-07,5.11271900765134e-08,-6.77022193511405e-08,-2.47083487786709e-07,1.01358562066032e-07,1.01358562066268e-07,-2.87807030084062e-07,8.36578639481263e-08,-2.04149166135788e-07,NaN,1.93326909232943e-07,-1.25694159730321e-07,-4.94823116627317e-07,1.57343109509981e-07,1.57343109509962e-07,-7.18142962697961e-07,7.04086947993432e-07,NaN,0,0,0
1897.8816,-4.77000085185396e-08,-5.54012429325609e-08,-1.03101251451017e-07,-2.56590158991065e-07,7.29704380433445e-08,7.29704380434505e-08,NaN,NaN,3.34276814792005e-06,1.64111697298714e-07,-2.91929872875066e-07,1.64111697298783e-07,-4.05536014592265e-08,8.41331806279266e-08,4.35795791685378e-08,NaN,NaN,-5.83773732987773e-07,2.91740924632462e-08,-2.68069346883206e-06,2.91740924631895e-08,1.37556842021639e-06,NaN,NaN,1.82241704839188e-08,5.60733179989836e-08,NaN,NaN,-5.44509619147575e-07,6.169872473447e-07,-1.33901093289515e-06,NaN,2.62584861654562e-07,-1.15137106268417e-07,5.11025647206213e-08,-6.40345415479133e-08,-2.64157676313556e-07,1.04641164535771e-07,1.04641164536002e-07,-2.76595674777504e-07,8.68067930180105e-08,-1.89788881759346e-07,NaN,2.10034159863115e-07,-1.29943489888838e-07,-5.03579277903546e-07,1.64803758393774e-07,1.64803758393753e-07,-7.17601965513374e-07,7.06167921975075e-07,NaN,0,0,0
1897.984,-4.74907618675816e-08,-5.81016139699883e-08,-1.05592375837484e-07,-2.61754682488304e-07,6.48847211914056e-08,6.48847211915101e-08,NaN,NaN,3.16776433271771e-06,1.58169822729252e-07,-2.93421484561104e-07,1.58169822729319e-07,-4.01929856256416e-08,8.35933322320263e-08,4.3400346606223e-08,NaN,NaN,-5.70881707013077e-07,7.04654740508833e-08,-2.69096869280104e-06,7.04654740508155e-08,1.33870791210249e-06,NaN,NaN,1.68279023468136e-08,5.71057399688342e-08,NaN,NaN,-5.43599000797203e-07,6.16325811404112e-07,-1.28048715169067e-06,NaN,2.4375260595869e-07,-1.10782295383508e-07,5.1169816744682e-08,-5.96124786389432e-08,-2.71379632215925e-07,1.08659721057084e-07,1.08659721057314e-07,-2.60204198541251e-07,8.88752324784643e-08,-1.7132896606264e-07,NaN,2.28615847891852e-07,-1.32307906286613e-07,-5.17613483902557e-07,1.74337785278626e-07,1.74337785278602e-07,-7.09860356690807e-07,7.03078831853552e-07,NaN,0,0,0
1898.0864,-5.07656655739201e-08,-5.91313741514796e-08,-1.09897039725313e-07,-2.70693912730311e-07,5.59757098826683e-08,5.59757098827725e-08,NaN,NaN,2.96610692464486e-06,1.54634886148417e-07,-2.95195801796377e-07,1.54634886148481e-07,-3.74777958016674e-08,8.13497427069559e-08,4.3871946905127e-08,NaN,NaN,-5.55916350519486e-07,1.18317677530738e-07,-2.69220801747008e-06,1.1831767753063e-07,1.30115082354337e-06,NaN,NaN,1.41923921718736e-08,5.85151512056175e-08,NaN,NaN,-5.43251862528191e-07,6.15947530726378e-07,-1.19560599819607e-06,NaN,2.2203361828225e-07,-1.05829437617056e-07,5.14027250717754e-08,-5.44267125453974e-08,-2.69052911515174e-07,1.13389035147003e-07,1.13389035147234e-07,-2.38895920207483e-07,8.98370269156701e-08,-1.49058893291666e-07,NaN,2.48557111121482e-07,-1.32625369370328e-07,-5.36473284235053e-07,1.85706608127844e-07,1.85706608127817e-07,-6.94966717038297e-07,6.94835062988074e-07,NaN,0,0,0
1898.1888,-5.71701086740528e-08,-5.87827799967091e-08,-1.15952888670674e-07,-2.82733909444431e-07,4.63981601294957e-08,4.63981601296007e-08,NaN,NaN,2.74578570011126e-06,1.5325308151896e-07,-2.97196445239467e-07,1.53253081519017e-07,-3.25245880246697e-08,7.75087362028057e-08,4.49841481779745e-08,NaN,NaN,-5.39481851256267e-07,1.7067822995435e-07,-2.68539509608808e-06,1.70678229954178e-07,1.26555378980675e-06,NaN,NaN,1.04003127659864e-08,6.02506807042497e-08,NaN,NaN,-5.4244275343666e-07,6.15852588669004e-07,-1.08830801547982e-06,NaN,1.98537971577419e-07,-1.00373191862115e-07,5.18131873118893e-08,-4.85600045503421e-08,-2.58062527643583e-07,1.18650525897482e-07,1.18650525897716e-07,-2.13349991730353e-07,8.96248331510276e-08,-1.2372515857918e-07,NaN,2.69158759735626e-07,-1.30914181549523e-07,-5.59111791573998e-07,1.98432891807758e-07,1.98432891807727e-07,-6.73531330987509e-07,6.81834233231051e-07,NaN,0,0,0
1898.2912,-6.59144795096539e-08,-5.7479210024637e-08,-1.23393689534203e-07,-2.96770716678609e-07,3.64051759841979e-08,3.64051759843048e-08,NaN,NaN,2.51764538359748e-06,1.53557617300547e-07,-2.99301400802192e-07,1.53557617300596e-07,-2.56355132043064e-08,7.23374031707509e-08,4.67018899662829e-08,NaN,NaN,-5.22358418476058e-07,2.25166666932304e-07,-2.6723203468409e-06,2.25166666932048e-07,1.23523566230447e-06,NaN,NaN,5.64311471347853e-09,6.21699128226393e-08,NaN,NaN,-5.4013643916074e-07,6.16089794596749e-07,-9.65099385387774e-07,NaN,1.74757622788552e-07,-9.45360525379487e-08,5.23516806402232e-08,-4.21843718978408e-08,-2.39923500182651e-07,1.24117714074007e-07,1.24117714074248e-07,-1.8462071880737e-07,8.81454270100555e-08,-9.64752917971699e-08,NaN,2.89547108481582e-07,-1.2739804522978e-07,-5.83888650059036e-07,2.11794542960264e-07,2.11794542960229e-07,-6.4674812812957e-07,6.6484247004667e-07,NaN,0,1,0
1898.3936,-7.59266429682999e-08,-5.56803639279339e-08,-1.31607006896145e-07,-3.11498750003085e-07,2.63387542151367e-08,2.63387542152456e-08,NaN,NaN,2.29419830035969e-06,1.54981902527803e-07,-3.01371863712655e-07,1.54981902527844e-07,-1.72370099940176e-08,6.62252930858387e-08,4.89882830916593e-08,NaN,NaN,-5.05342545573389e-07,2.79308966295498e-07,-2.65531940137357e-06,2.79308966295147e-07,1.21369049719749e-06,NaN,NaN,2.25576732831858e-10,6.40648622805581e-08,NaN,NaN,-5.35507460329998e-07,6.16721741539503e-07,-8.34215253549984e-07,NaN,1.52383424218372e-07,-8.84525591430848e-08,5.2922859174517e-08,-3.55296999686826e-08,-2.16731578185672e-07,1.29352892416161e-07,1.2935289241641e-07,-1.54039452930303e-07,8.53129798488493e-08,-6.87264730813098e-08,NaN,3.0873550411386e-07,-1.22477212224819e-07,-6.08723304773198e-07,2.24839465010845e-07,2.24839465010807e-07,-6.16298282786395e-07,6.4491551144362e-07,NaN,0,1,0
1898.496,-8.60886527686812e-08,-5.37686571447451e-08,-1.39857309913337e-07,-3.25712252537836e-07,1.65849704895641e-08,1.65849704896751e-08,NaN,NaN,2.08781783048647e-06,1.57007823988089e-07,-3.03306779905086e-07,1.57007823988121e-07,-7.80694848660167e-09,5.9617793733715e-08,5.18108452469516e-08,NaN,NaN,-4.89035912615658e-07,3.30869175065668e-07,-2.63688007128205e-06,3.30869175065221e-07,1.20387051052923e-06,NaN,NaN,-5.45084675926455e-09,6.57085924534773e-08,NaN,NaN,-5.2815649539472e-07,6.17726038607721e-07,-7.04302790809769e-07,NaN,1.33020812935895e-07,-8.22426199324458e-08,5.34136981856414e-08,-2.88289217469189e-08,-1.90953933492884e-07,1.33862363972427e-07,1.33862363972685e-07,-1.23067140567413e-07,8.10899652890658e-08,-4.19771752782046e-08,NaN,3.25734335087643e-07,-1.16652427317171e-07,-6.31397826087704e-07,2.36444535449295e-07,2.36444535449254e-07,-5.84129262768873e-07,6.23249902403213e-07,NaN,0,1,0
1898.5984,-9.54793039770676e-08,-5.19594977934251e-08,-1.47438801770404e-07,-3.38574643858654e-07,7.51101075838899e-09,7.51101075850197e-09,NaN,NaN,1.90878284587913e-06,1.59280715574015e-07,-3.05079154656303e-07,1.59280715574041e-07,2.19083157620147e-09,5.2937031132948e-08,5.51278627089883e-08,NaN,NaN,-4.736552356289e-07,3.7818895587829e-07,-2.61920848252633e-06,3.78188955877752e-07,1.20753759822704e-06,NaN,NaN,-1.09255481008544e-08,6.69051666913997e-08,NaN,NaN,-5.18299726983739e-07,6.18861909290339e-07,-5.82910456263122e-07,NaN,1.17918965608911e-07,-7.59812194136826e-08,5.37254164485442e-08,-2.22558029652528e-08,-1.65102075132812e-07,1.37152114289387e-07,1.37152114289654e-07,-9.31334833734941e-08,7.5518032834321e-08,-1.76154505390309e-08,NaN,3.39674448197031e-07,-1.10417830878919e-07,-6.49895276723144e-07,2.4541881280483e-07,2.45418812804785e-07,-5.52192863978992e-07,6.01021870109847e-07,NaN,0,0,0
1898.7008,-1.03537415573023e-07,-5.02758787261194e-08,-1.53813294299052e-07,-3.49749827650771e-07,-5.92615977298783e-10,-5.92615977183626e-10,NaN,NaN,1.76392283420252e-06,1.61631190745978e-07,-3.06734576164601e-07,1.61631190745998e-07,1.23490988537865e-08,4.65131027614912e-08,5.88622016151178e-08,NaN,NaN,-4.58988141912423e-07,4.20338205856083e-07,-2.60383863841877e-06,4.20338205855466e-07,1.22502130426237e-06,NaN,NaN,-1.57283838443905e-08,6.75222922663428e-08,NaN,NaN,-5.06831246660623e-07,6.195766469809e-07,-4.75283930611511e-07,NaN,1.07802843799697e-07,-6.96727684843948e-08,5.37970184565029e-08,-1.58757500280064e-08,-1.41391102428847e-07,1.38765592422833e-07,1.38765592423107e-07,-6.55081178481205e-08,6.87191131527768e-08,3.2109953047984e-09,NaN,3.49899420556073e-07,-1.04152199254243e-07,-6.62642988194544e-07,2.50630449962143e-07,2.50630449962094e-07,-5.22236813128891e-07,5.79275084592473e-07,NaN,0,0,0
1898.8032,-1.10100185689444e-07,-4.85994309917073e-08,-1.5869961668106e-07,-3.59354611400103e-07,-7.54727842660962e-09,-7.54727842649365e-09,NaN,NaN,1.65634871679185e-06,1.63991926779738e-07,-3.08346769456027e-07,1.63991926779753e-07,2.23377286362395e-08,4.05383234234023e-08,6.28760520594832e-08,NaN,NaN,-4.44562828662935e-07,4.57001757831424e-07,-2.59135914428465e-06,4.57001757830745e-07,1.25551037186115e-06,NaN,NaN,-1.94327364256909e-08,6.7497076592375e-08,NaN,NaN,-4.95170054252287e-07,6.1902379789771e-07,-3.83835822709144e-07,NaN,1.02834120474303e-07,-6.32371994408854e-08,5.36132668961992e-08,-9.62393254480115e-09,-1.21469384371962e-07,1.38293237658063e-07,1.38293237658344e-07,-4.12166880228977e-08,6.0860260668481e-08,1.96435726457257e-08,NaN,3.56010204216027e-07,-9.80414655975593e-08,-6.68609356194995e-07,2.51142505158259e-07,2.51142505158205e-07,-4.95680619440279e-07,5.58867924483932e-07,NaN,0,0,0
1898.9056,-1.1532890738537e-07,-4.67707105817171e-08,-1.62099617966996e-07,-3.67779107960924e-07,-1.32900765631914e-08,-1.32900765630763e-08,NaN,NaN,1.58609998423927e-06,1.66256671429229e-07,-3.09954944769849e-07,1.66256671429241e-07,3.19117503818211e-08,3.50467182535508e-08,6.69584686352152e-08,NaN,NaN,-4.29945377650098e-07,4.88221241976373e-07,-2.58133823709819e-06,4.88221241975653e-07,1.29768118594771e-06,NaN,NaN,-2.17042589816928e-08,6.68212874867961e-08,NaN,NaN,-4.8490964106524e-07,6.16195622723364e-07,-3.08323078822738e-07,NaN,1.02681910957037e-07,-5.65136923044653e-08,5.31993796085807e-08,-3.31431269600005e-09,-1.06251999684268e-07,1.35364859096977e-07,1.35364859097265e-07,-2.09871433401868e-08,5.20996763553661e-08,3.1112533015323e-08,NaN,3.57870515801842e-07,-9.20510966556468e-08,-6.67275307422479e-07,2.46348163365454e-07,2.46348163365393e-07,-4.73558316046663e-07,5.40460308922897e-07,NaN,0,0,0
1899.008,-1.19576767170587e-07,-4.46813612465527e-08,-1.64258128417049e-07,-3.75463703180454e-07,-1.78464983764395e-08,-1.78464983763265e-08,NaN,NaN,1.55119735981549e-06,1.68163429393995e-07,-3.1152673286481e-07,1.68163429394005e-07,4.0913850544088e-08,2.99242923361878e-08,7.08381428801214e-08,NaN,NaN,-4.14989732398279e-07,5.14137431579236e-07,-2.5724944542724e-06,5.14137431578498e-07,1.35025359497999e-06,NaN,NaN,-2.23369535898279e-08,6.55199460733841e-08,NaN,NaN,-4.77365762306394e-07,6.10113918725585e-07,-2.46570882667347e-07,NaN,1.06664792343404e-07,-4.92865502804158e-08,5.26077705623418e-08,3.32122028181007e-09,-9.58750583195484e-08,1.29654178518217e-07,1.29654178518511e-07,-5.21674273151026e-09,4.25456567743633e-08,3.73289140429983e-08,NaN,3.55582837196319e-07,-8.59525174862211e-08,-6.5853334941718e-07,2.36082677603794e-07,2.36082677603726e-07,-4.56508825956439e-07,5.24526987264282e-07,NaN,0,0,0
1899.1104,-1.23262461746109e-07,-4.23062905128314e-08,-1.6556875225885e-07,-3.82712036566869e-07,-2.12853416133054e-08,-2.12853416131952e-08,NaN,NaN,1.54872317220196e-06,1.69276011607924e-07,-3.12970493423805e-07,1.69276011607933e-07,4.92748445504245e-08,2.49572859043006e-08,7.42321304545733e-08,NaN,NaN,-3.99928964798628e-07,5.34809420925178e-07,-2.56307313339894e-06,5.34809420924443e-07,1.41214398713853e-06,NaN,NaN,-2.12695425555929e-08,6.36340118019118e-08,NaN,NaN,-4.73161306746743e-07,6.0002594219794e-07,-1.95502614297467e-07,NaN,1.13932143130134e-07,-4.1333682643184e-08,5.19000580048443e-08,1.05663753615439e-08,-8.97966587380645e-08,1.20916820148437e-07,1.20916820148736e-07,6.03492240294532e-09,3.22525999453346e-08,3.82875223484276e-08,NaN,3.49443778896845e-07,-7.94021056603748e-08,-6.42589547423067e-07,2.20672691044808e-07,2.20672691044731e-07,-4.44805994007999e-07,5.11391651025595e-07,NaN,0,0,0
1899.2128,-1.2678979140532e-07,-3.96679774302432e-08,-1.66457768835474e-07,-3.89595985620484e-07,-2.36800687371434e-08,-2.3680068737036e-08,NaN,NaN,1.57566636336868e-06,1.6908630989393e-07,-3.14182025390903e-07,1.69086309893939e-07,5.70112096840256e-08,1.99102204074754e-08,7.69214300913519e-08,NaN,NaN,-3.85312195258655e-07,5.50166403560314e-07,-2.55131509817162e-06,5.50166403559602e-07,1.48218154286754e-06,NaN,NaN,-1.85810991003896e-08,6.12119117241593e-08,NaN,NaN,-4.7202193714854e-07,5.85572377002173e-07,-1.52124220850484e-07,NaN,1.23665717547723e-07,-3.24892510565321e-08,5.11293813153257e-08,1.86401302586766e-08,-8.70331515802964e-08,1.09057068978921e-07,1.09057068979223e-07,1.30143800382313e-08,2.12559468818209e-08,3.42703269202028e-08,NaN,3.39888042880625e-07,-7.20597074691427e-08,-6.19936164015591e-07,2.00887092639092e-07,2.00887092639004e-07,-4.38419133649573e-07,5.01268397371258e-07,NaN,0,0,0
1899.3152,-1.30514686059662e-07,-3.67726337408142e-08,-1.67287319800388e-07,-3.95972583477904e-07,-2.509675775479e-08,-2.50967577546857e-08,NaN,NaN,1.629226929095e-06,1.67187145773443e-07,-3.15092226431756e-07,1.67187145773453e-07,6.42127676447316e-08,1.46066620009063e-08,7.88194296454921e-08,NaN,NaN,-3.71851813986322e-07,5.60114516551827e-07,-2.5358791131627e-06,5.60114516551153e-07,1.5586153873386e-06,NaN,NaN,-1.44738187986237e-08,5.83103021886615e-08,NaN,NaN,-4.72901556773256e-07,5.66896198850093e-07,-1.14088120465632e-07,NaN,1.35266635760851e-07,-2.27028547929918e-08,5.03308261443609e-08,2.76279713512518e-08,-8.64370057729167e-08,9.42014025927363e-08,9.4201402593042e-08,1.62065142349251e-08,9.62748092986626e-09,2.58339951649452e-08,NaN,3.27430528879498e-07,-6.37122679295641e-08,-5.91398711409385e-07,1.77795110132696e-07,1.77795110132598e-07,-4.37074559170606e-07,4.9428523980797e-07,NaN,0,0,0
1899.4176,-1.34732698035435e-07,-3.35720823793094e-08,-1.68304780414656e-07,-4.01582168438038e-07,-2.56115721332763e-08,-2.5611572133176e-08,NaN,NaN,1.70643619703485e-06,1.63427145122263e-07,-3.15689861010585e-07,1.63427145122275e-07,7.10151780811267e-08,8.98416369975875e-09,7.9999341780743e-08,NaN,NaN,-3.60251020291943e-07,5.64734660503844e-07,-2.51611262074648e-06,5.6473466050322e-07,1.63873581022884e-06,NaN,NaN,-9.25453528110983e-09,5.50008456671113e-08,NaN,NaN,-4.74399796301149e-07,5.44664992388955e-07,-7.96839558398825e-08,NaN,1.48482638408977e-07,-1.20772647997742e-08,4.95233515996985e-08,3.74460867998063e-08,-8.68966668661141e-08,7.67539076764766e-08,7.67539076767849e-08,1.62664709384021e-08,-2.47458660695109e-09,1.37918843316082e-08,NaN,3.12624447110756e-07,-5.43588224905635e-08,-5.58202856186043e-07,1.52592991790745e-07,1.52592991790635e-07,-4.40277527586289e-07,4.90468849092964e-07,NaN,0,0,0
1899.52,-1.39658197266841e-07,-2.99810764281047e-08,-1.69639273694856e-07,-4.06168826540998e-07,-2.53440318388704e-08,-2.53440318387747e-08,NaN,NaN,1.80332940414533e-06,1.57979301042781e-07,-3.16011473228745e-07,1.57979301042796e-07,7.75581420297455e-08,3.10966762799292e-09,8.06678096575996e-08,NaN,NaN,-3.51064372560394e-07,5.64456232897055e-07,-2.49214143047506e-06,5.64456232896488e-07,1.71885909436725e-06,NaN,NaN,-3.32066292785152e-09,5.1377972233888e-08,NaN,NaN,-4.75306462667751e-07,5.19995017393847e-07,-4.74269088904387e-08,NaN,1.63462941286341e-07,-8.75139127682594e-10,4.87196136589815e-08,4.78444745311807e-08,-8.74111381574523e-08,5.7411248955841e-08,5.74112489561519e-08,1.39890296050909e-08,-1.47796248274599e-08,-7.90595222208635e-10,NaN,2.96053973212341e-07,-4.42265756289128e-08,-5.2200168018364e-07,1.26470148986037e-07,1.26470148985914e-07,-4.47289924442874e-07,4.89699051877845e-07,NaN,0,1,0
1899.6224,-1.45388141401228e-07,-2.59408358039517e-08,-1.71328977205089e-07,-4.09576470233095e-07,-2.44860799767737e-08,-2.44860799766829e-08,NaN,NaN,1.91418254314245e-06,1.51299859573024e-07,-3.1610461099625e-07,1.51299859573042e-07,8.39344493254831e-08,-2.84178975041391e-09,8.10926595749344e-08,NaN,NaN,-3.44626739371656e-07,5.60104331519047e-07,-2.46480464495312e-06,5.60104331518539e-07,1.79475566348535e-06,NaN,NaN,2.85378141893556e-09,4.75639139754051e-08,NaN,NaN,-4.75076346396387e-07,4.94278480895858e-07,-1.55760651483453e-08,NaN,1.80748678827336e-07,1.05058914059354e-08,4.79380588618545e-08,5.84439502676714e-08,-8.70842189993222e-08,3.71211097532228e-08,3.71211097535356e-08,1.03054967411956e-08,-2.69096203096641e-08,-1.66041235683052e-08,NaN,2.78356372779669e-07,-3.37108443576872e-08,-4.84808626651204e-07,1.00540835213347e-07,1.00540835213212e-07,-4.5711656803758e-07,4.9167195183294e-07,NaN,0,1,0
1899.7248,-1.51864688590532e-07,-2.1490143346034e-08,-1.73354831936474e-07,-4.11798832119512e-07,-2.33103580611299e-08,-2.33103580610434e-08,NaN,NaN,2.03134226569004e-06,1.4399569540998e-07,-3.15972210617701e-07,1.43995695410002e-07,9.01428236145365e-08,-8.63112259695561e-09,8.151170101745e-08,NaN,NaN,-3.4106483693896e-07,5.52775621626708e-07,-2.43548424207239e-06,5.52775621626253e-07,1.86239161463243e-06,NaN,NaN,8.74292711769149e-09,4.37083037520399e-08,NaN,NaN,-4.74057815854384e-07,4.68937481482877e-07,1.81380557115847e-08,NaN,2.01193535528459e-07,2.15823106806975e-08,4.72115362121659e-08,6.87938468927445e-08,-8.51209327403318e-08,1.69806997092331e-08,1.69806997095488e-08,6.26047317107117e-09,-3.84119116114014e-08,-3.21514384401641e-08,NaN,2.60239027587137e-07,-2.32629496397033e-08,-4.48790553064337e-07,7.58170606951009e-08,7.58170606949543e-08,-4.68567770991621e-07,4.95912354422762e-07,NaN,0,1,0
1899.8272,-1.58851271662656e-07,-1.68017594751672e-08,-1.7565303113773e-07,-4.12985652618291e-07,-2.21521918015449e-08,-2.21521918014626e-08,NaN,NaN,2.14583610911118e-06,1.36653031869689e-07,-3.15502341743653e-07,1.36653031869716e-07,9.60642104869906e-08,-1.40049835771469e-08,8.20592269097169e-08,NaN,NaN,-3.40360960251659e-07,5.4360630605112e-07,-2.40589472499837e-06,5.43606306050712e-07,1.9186316063185e-06,NaN,NaN,1.38107652320514e-08,3.99799697036725e-08,NaN,NaN,-4.73395468593975e-07,4.45170802485178e-07,5.6487711688959e-08,NaN,2.25819867847623e-07,3.18430821411118e-08,4.65872414948462e-08,7.84303236358388e-08,-8.08787645159536e-08,-1.90564117758179e-09,-1.90564117726365e-09,2.93874751566088e-09,-4.88084143642764e-08,-4.58696668484474e-08,NaN,2.42449778601597e-07,-1.32821713683445e-08,-4.15944359346718e-07,5.31753470153697e-08,5.31753470152128e-08,-4.80414813551727e-07,5.01846327130275e-07,NaN,0,0,0
1899.9296,-1.65929487487806e-07,-1.21681978758636e-08,-1.78097685363575e-07,-4.13431115956743e-07,-2.13743876079853e-08,-2.1374387607906e-08,NaN,NaN,2.24841918352698e-06,1.29696317543033e-07,-3.1439738803589e-07,1.29696317543064e-07,1.01472785606845e-07,-1.87397170343577e-08,8.27330685723639e-08,NaN,NaN,-3.42410332215286e-07,5.33555870882447e-07,-2.37787120182058e-06,5.33555870882071e-07,1.9615213052423e-06,NaN,NaN,1.75587363682941e-08,3.65522236451338e-08,NaN,NaN,-4.74704805025776e-07,4.23777203832015e-07,1.02539681768517e-07,NaN,2.55653499582882e-07,4.08037927317734e-08,4.61181220532094e-08,8.69219147848632e-08,-7.39586068251236e-08,-1.8565638757256e-08,-1.85656387569342e-08,1.352950182452e-09,-5.76460603949794e-08,-5.6293110212358e-08,NaN,2.25687794306865e-07,-4.06173506120332e-09,-3.87780502437181e-07,3.32860438791869e-08,3.32860438790213e-08,-4.91579709850592e-07,5.08903240397685e-07,NaN,0,0,0
1900.032,-1.72528319146827e-07,-7.95259190535873e-09,-1.80480911052091e-07,-4.1356923481962e-07,-2.13302637609368e-08,-2.13302637608599e-08,NaN,NaN,2.33055296060054e-06,1.23326805343684e-07,-3.12136938876756e-07,1.23326805343719e-07,1.06075210735194e-07,-2.26742762497861e-08,8.34009344852888e-08,NaN,NaN,-3.47048710165501e-07,5.23249552980532e-07,-2.3531355116762e-06,5.23249552980177e-07,1.99006140488336e-06,NaN,NaN,1.95570058209048e-08,3.35865567190081e-08,NaN,NaN,-4.79705336563665e-07,4.05095028125066e-07,1.59419351120948e-07,NaN,2.915841886015e-07,4.8053342249436e-08,4.58508286742555e-08,9.39041709235716e-08,-6.42750339465489e-08,-3.22489783950449e-08,-3.22489783947199e-08,2.31280432043944e-09,-6.45371263183532e-08,-6.22243219977442e-08,NaN,2.10488469554874e-07,4.20784004546062e-09,-3.65154497735076e-07,1.65201154335269e-08,1.65201154333537e-08,-5.01269974282714e-07,5.16595851184651e-07,NaN,0,0,0
1900.1344,-1.77995110763322e-07,-4.52899742774371e-09,-1.82524108190971e-07,-4.13968982265076e-07,-2.23338051423891e-08,-2.23338051423141e-08,NaN,NaN,2.38512660982762e-06,1.17543979919169e-07,-3.08007559501948e-07,1.17543979919208e-07,1.09560974868051e-07,-2.57289865459113e-08,8.3831988322024e-08,NaN,NaN,-3.54068749904893e-07,5.12856743090188e-07,-2.33303323649916e-06,5.12856743089841e-07,2.00371572675244e-06,NaN,NaN,1.94508453685362e-08,3.12177692025697e-08,NaN,NaN,-4.89912510003701e-07,3.89043210830509e-07,2.30064988223361e-07,NaN,3.34250846521507e-07,5.32942336512619e-08,4.58138537725489e-08,9.91080874236907e-08,-5.20554987804027e-08,-4.24542806994585e-08,-4.24542806991297e-08,6.28476128997669e-09,-6.91875619360163e-08,-6.29028006458708e-08,NaN,1.97136255934514e-07,1.14076260888536e-08,-3.48293336580675e-07,2.87805265757509e-09,2.8780526573955e-09,-5.09011203933902e-07,5.24546104583506e-07,NaN,0,0,0
1900.2368,-1.81695729218199e-07,-2.22590823816432e-09,-1.8392163745627e-07,-4.15302613447489e-07,-2.46356149551527e-08,-2.46356149550793e-08,NaN,NaN,2.40702606523928e-06,1.12217656575036e-07,-3.01201637102214e-07,1.12217656575077e-07,1.11648349073381e-07,-2.79087056817407e-08,8.37396433915276e-08,NaN,NaN,-3.63226788994572e-07,5.02052978534651e-07,-2.31832334107397e-06,5.02052978534302e-07,2.00197831919996e-06,NaN,NaN,1.69569362040917e-08,2.95407360389564e-08,NaN,NaN,-5.06385165812258e-07,3.75233179831817e-07,3.16882428056921e-07,NaN,3.83909457020819e-07,5.63718559393791e-08,4.60073838080208e-08,1.02379239747279e-07,-3.7756910598069e-08,-4.89174980949207e-08,-4.89174980945874e-08,1.32567758749173e-08,-7.14166169752605e-08,-5.81598411001765e-08,NaN,1.85641065567719e-07,1.74581825621681e-08,-3.36961448650666e-07,-8.0248143247936e-09,-8.02481432497847e-09,-5.14601693161682e-07,5.32464629024034e-07,NaN,0,0,0
1900.3392,-1.83115095310062e-07,-1.27791653883501e-09,-1.84393011848805e-07,-4.18276346350745e-07,-2.83993871354404e-08,-2.83993871353675e-08,NaN,NaN,2.39364858328469e-06,1.0717320558006e-07,-2.90956378915556e-07,1.07173205580103e-07,1.12120280446711e-07,-2.92934145668169e-08,8.28268658797845e-08,NaN,NaN,-3.74221450141656e-07,4.90136877098246e-07,-2.30912313401676e-06,4.90136877097889e-07,1.984223674007e-06,NaN,NaN,1.1869712385771e-08,2.86001268518254e-08,NaN,NaN,-5.2952197068034e-07,3.63117388986127e-07,4.21267725517105e-07,NaN,4.40265261643834e-07,5.72861791260563e-08,4.63975427619523e-08,1.03683721887888e-07,-2.19254857326552e-08,-5.15938832216777e-08,-5.15938832213398e-08,2.26484931290824e-08,-7.11700637191742e-08,-4.85215705899287e-08,NaN,1.7578590997652e-07,2.23030301952277e-08,-3.30682107851276e-07,-1.69012656873421e-08,-1.69012656875317e-08,-5.18050569613481e-07,5.4012037796601e-07,NaN,0,0,0
1900.4416,-1.81936279180454e-07,-1.7924718486879e-09,-1.83728751029053e-07,-4.23535436084078e-07,-3.36794201745774e-08,-3.36794201745046e-08,NaN,NaN,2.34528664457997e-06,1.02256865620213e-07,-2.76693193800997e-07,1.02256865620258e-07,1.10852280056583e-07,-3.00232497517239e-08,8.08290303047525e-08,NaN,NaN,-3.86657823320089e-07,4.76259314606105e-07,-2.30500919423283e-06,4.76259314605735e-07,1.94990842804022e-06,NaN,NaN,4.0845131322262e-09,2.83856867208644e-08,NaN,NaN,-5.58936358852466e-07,3.52128108390222e-07,5.43104398389007e-07,NaN,5.02306192819846e-07,5.61862173137409e-08,4.69172155178201e-08,1.0310343283144e-07,-5.05152543424179e-09,-5.06449753931231e-08,-5.064497539278e-08,3.33202801336809e-08,-6.85285139450977e-08,-3.52082338112581e-08,NaN,1.67234960463729e-07,2.59183887064199e-08,-3.28943284469155e-07,-2.46601015992869e-08,-2.46601015994814e-08,-5.19541955138952e-07,5.47335022695233e-07,NaN,0,0,0
1900.544,-1.78090936254835e-07,-3.74239379354356e-09,-1.81833330048294e-07,-4.31563041326974e-07,-4.0408550557934e-08,-4.04085505578606e-08,NaN,NaN,2.26518441478204e-06,9.73568295918305e-08,-2.58125713613283e-07,9.73568295918745e-08,1.07832014969317e-07,-3.02831805530855e-08,7.75488344161284e-08,NaN,NaN,-4.00032957658921e-07,4.59663147731846e-07,-2.30518335390164e-06,4.59663147731458e-07,1.89900368369275e-06,NaN,NaN,-6.36705380816399e-09,2.88334365946335e-08,NaN,NaN,-5.93445548744028e-07,3.41769031090925e-07,6.80383300680638e-07,NaN,5.68187614876608e-07,5.33533050545825e-08,4.74720644658734e-08,1.00825369520335e-07,1.25322918335026e-08,-4.6423867671236e-08,-4.64238676708877e-08,4.37106979466708e-08,-6.37118728384859e-08,-2.00011748916618e-08,NaN,1.59676289018199e-07,2.83475284830487e-08,-3.31330819099238e-07,-3.22193884800568e-08,-3.22193884802564e-08,-5.19421389348096e-07,5.54005887379708e-07,NaN,0,0,0
1900.6464,-1.71776820824169e-07,-6.98760845414568e-09,-1.78764429278237e-07,-4.42592787878859e-07,-4.8407352918659e-08,-4.84073529185841e-08,NaN,NaN,2.15911217571725e-06,9.23754235332809e-08,-2.35317279601848e-07,9.23754235333234e-08,1.03165172805604e-07,-3.02877692683506e-08,7.28774035371534e-08,NaN,NaN,-4.13750889583969e-07,4.3990511837241e-07,-2.30862817722583e-06,4.39905118372003e-07,1.83238550399669e-06,NaN,NaN,-1.92772021879983e-08,2.9829377546169e-08,NaN,NaN,-6.31193541005525e-07,3.31652975931523e-07,8.29042922288663e-07,NaN,6.35205268649718e-07,4.91778120737326e-08,4.79479445132347e-08,9.71257565868458e-08,3.06924907044804e-08,-3.94543648532743e-08,-3.94543648529204e-08,5.20822343784731e-08,-5.70789905996275e-08,-4.99675622100751e-09,NaN,1.52956630351069e-07,2.97409841271322e-08,-3.37556731808745e-07,-4.03189042605849e-08,-4.03189042607895e-08,-5.18174292803482e-07,5.60130885748459e-07,NaN,0,0,0
1900.7488,-1.63431473215058e-07,-1.13178038006374e-08,-1.74749277015624e-07,-4.56561141776126e-07,-5.74169938028264e-08,-5.74169938027499e-08,NaN,NaN,2.03446286801902e-06,8.71676295536496e-08,-2.08670966400609e-07,8.71676295536894e-08,9.70649967351893e-08,-3.02663718150755e-08,6.67986249200172e-08,NaN,NaN,-4.27160651455477e-07,4.17081759485251e-07,-2.31423115356465e-06,4.17081759484824e-07,1.75194819875866e-06,NaN,NaN,-3.42316634834869e-08,3.12126798537667e-08,NaN,NaN,-6.69906984301946e-07,3.2149261501707e-07,9.83152625249484e-07,NaN,6.99924069454241e-07,4.41296624645044e-08,4.82183587892674e-08,9.23480212536499e-08,4.94850827005988e-08,-3.04077212554047e-08,-3.04077212550455e-08,5.68169264747156e-08,-4.91193077666945e-08,7.69761870816064e-09,NaN,1.47159094440343e-07,3.03757422144864e-08,-3.47391590816236e-07,-4.94011090868501e-08,-4.94011090870602e-08,-5.16372787264938e-07,5.65807193824588e-07,NaN,1,0,0
1900.8512,-1.53656262542351e-07,-1.65048121501872e-08,-1.70161074692475e-07,-4.73126941449556e-07,-6.71441535283092e-08,-6.71441535282306e-08,NaN,NaN,1.89903629300915e-06,8.14768162317759e-08,-1.78844978720414e-07,8.1476816231812e-08,8.98284729006592e-08,-3.04508529659177e-08,5.93776199346482e-08,NaN,NaN,-4.39623890867068e-07,3.92026087388379e-07,-2.32087875359405e-06,3.92026087387928e-07,1.66042281940932e-06,NaN,NaN,-5.06097514147252e-08,3.27820172255782e-08,NaN,NaN,-7.0724015560664e-07,3.11040073821086e-07,1.13558580033479e-06,NaN,7.58550293535228e-07,3.87209092480322e-08,4.81564139750877e-08,8.68773232229978e-08,6.91089060081783e-08,-2.00769395973635e-08,-2.00769395969992e-08,5.66931366785929e-08,-4.042964358381e-08,1.62634930949142e-08,NaN,1.42596542095919e-07,3.06370262830245e-08,-3.60544639164868e-07,-5.96035477592195e-08,-5.9603547759436e-08,-5.14586793424218e-07,5.71192701742571e-07,NaN,1,0,0
1900.9536,-1.43106956326541e-07,-2.23547204332413e-08,-1.65461676759727e-07,-4.91756875994338e-07,-7.72977747597308e-08,-7.72977747596498e-08,NaN,NaN,1.75981694910621e-06,7.49067384178206e-08,-1.46621743639729e-07,7.49067384178525e-08,8.18024481381673e-08,-3.10649229730553e-08,5.07375251650215e-08,NaN,NaN,-4.50611266000473e-07,3.66375434533393e-07,-2.32752429809538e-06,3.66375434532918e-07,1.56104756414066e-06,NaN,NaN,-6.76240623642846e-08,3.43128674454396e-08,NaN,NaN,-7.41106157171006e-07,2.99977432107334e-07,1.27910933233916e-06,NaN,8.07506888149951e-07,3.34609639138743e-08,4.76565692625251e-08,8.11175331762772e-08,8.98406555253335e-08,-9.34295398876858e-09,-9.34295398839938e-09,5.10827490490583e-08,-3.16695451222336e-08,1.94132039269472e-08,NaN,1.39732272392312e-07,3.09669345086335e-08,-3.76544207931844e-07,-7.08485309511577e-08,-7.08485309513806e-08,-5.13277133372076e-07,5.76436386909027e-07,NaN,1,0,0
1901.056,-1.32382734196786e-07,-2.87468256917307e-08,-1.6112955988847e-07,-5.11833615222515e-07,-8.76033856993734e-08,-8.76033856992903e-08,NaN,NaN,1.6221228292489e-06,6.69562137496909e-08,-1.12786606249862e-07,6.69562137497177e-08,7.33428180718809e-08,-3.23113472273658e-08,4.10314708444272e-08,NaN,NaN,-4.59799477142215e-07,3.42409115589662e-07,-2.33323238063462e-06,3.42409115589162e-07,1.45722201727137e-06,NaN,NaN,-8.43885992203952e-08,3.55883833809328e-08,NaN,NaN,-7.69891267452676e-07,2.87799577735444e-07,1.40750160474359e-06,NaN,8.43978787828726e-07,2.88097341196843e-08,4.66639966039224e-08,7.54737307234847e-08,1.1197350712222e-07,8.70488447365881e-10,8.70488447740005e-10,4.00297904655016e-08,-2.3497768248828e-08,1.65320222167864e-08,NaN,1.39063596814087e-07,3.17955536209742e-08,-3.94659274266284e-07,-8.29741046053971e-08,-8.29741046056269e-08,-5.12703095039249e-07,5.81598289439683e-07,NaN,0,0,0
1901.1584,-1.21942320762195e-07,-3.56471829269032e-08,-1.57589503689059e-07,-5.32739954762242e-07,-9.77961488999606e-08,-9.77961488998751e-08,NaN,NaN,1.48932817173294e-06,5.71119145619131e-08,-7.80566677987428e-08,5.7111914561934e-08,6.47725209750037e-08,-3.43560957481186e-08,3.04164252267995e-08,NaN,NaN,-4.67123545040916e-07,3.22618055712618e-07,-2.33719932177674e-06,3.22618055712096e-07,1.35220660169775e-06,NaN,NaN,-1.00001417169413e-07,3.64389683174874e-08,NaN,NaN,-7.92547558348912e-07,2.73746879299016e-07,1.51631984636934e-06,NaN,8.66202265544353e-07,2.51354519104713e-08,4.52022130040242e-08,7.03376649143743e-08,1.35774417475556e-07,9.65387121962624e-09,9.65387122000489e-09,2.4206162080107e-08,-1.64999261754739e-08,7.70623590473528e-09,NaN,1.41005455626234e-07,3.34698730645977e-08,-4.1388912739349e-07,-9.5848436539888e-08,-9.58484365401247e-08,-5.12871123773212e-07,5.86591107256613e-07,NaN,0,0,0
1901.2608,-1.12064854510444e-07,-4.30940691820508e-08,-1.55158923692464e-07,-5.53905893670216e-07,-1.07606214123168e-07,-1.07606214123079e-07,NaN,NaN,1.36303690635056e-06,4.49634461522268e-08,-4.30629239607096e-08,4.49634461522414e-08,5.63441791003249e-08,-3.73131081246148e-08,1.90310709756265e-08,NaN,NaN,-4.72749868332399e-07,3.09103826602909e-07,-2.33876343936938e-06,3.09103826602369e-07,1.2489137808489e-06,NaN,NaN,-1.13634566410908e-07,3.67821804196594e-08,NaN,NaN,-8.08640661411629e-07,2.56807735713262e-07,1.60321720891136e-06,NaN,8.73477593710975e-07,2.26830451772445e-08,4.33893194142965e-08,6.60723645914208e-08,1.61463112489882e-07,1.61774662074532e-08,1.6177466207836e-08,4.7733655036822e-09,-1.11182703489223e-08,-6.34490484514914e-09,NaN,1.4580518318909e-07,3.619643143124e-08,-4.3302907532627e-07,-1.09431803872068e-07,-1.09431803872312e-07,-5.13536864842456e-07,5.91174985077647e-07,NaN,0,0,0
1901.3632,-1.02869197693166e-07,-5.11615225681952e-08,-1.54030720261337e-07,-5.74826528172321e-07,-1.1675015972364e-07,-1.16750159723548e-07,NaN,NaN,1.24348753167306e-06,3.02923809378759e-08,-8.37106006066685e-09,3.02923809378841e-08,4.82120108741226e-08,-4.123454014294e-08,6.97747073110069e-09,NaN,NaN,-4.76987491428059e-07,3.03016321941089e-07,-2.33742096613173e-06,3.03016321940537e-07,1.14984899472155e-06,NaN,NaN,-1.24617515858141e-07,3.66522681557465e-08,NaN,NaN,-8.1838152200066e-07,2.35777733599559e-07,1.66787575320594e-06,NaN,8.66016655509988e-07,2.1559392475488e-08,4.14374397809432e-08,6.29968322563124e-08,1.89200129482946e-07,1.97552279356694e-08,1.97552279360561e-08,-1.68145897701942e-08,-7.59678494636485e-09,-2.44113747164798e-08,NaN,1.53508006553789e-07,4.00160483898774e-08,-4.50787771064909e-07,-1.23775614083245e-07,-1.23775614083497e-07,-5.14263094401373e-07,5.95015020621309e-07,NaN,0,0,0
1901.4656,-9.44042544465998e-08,-5.99079670203845e-08,-1.54312221466967e-07,-5.95057550645945e-07,-1.24932287145357e-07,-1.24932287145262e-07,NaN,NaN,1.13010171134046e-06,1.31081227356366e-08,2.54674298243631e-08,1.31081227356386e-08,4.04193291604349e-08,-4.61081296762121e-08,-5.68880051585731e-09,NaN,NaN,-4.80200576861473e-07,3.04188200365954e-07,-2.33282169964098e-06,3.04188200365398e-07,1.05721309953659e-06,NaN,NaN,-1.3249222533482e-07,3.62077958491708e-08,NaN,NaN,-8.22579156897852e-07,2.09372566542474e-07,1.71164261131502e-06,NaN,8.44718620373918e-07,2.17398615812294e-08,3.96344198922012e-08,6.13742814733137e-08,2.19057826469648e-07,1.98993106938027e-08,1.9899310694193e-08,-3.9047919806148e-08,-5.95469195056378e-09,-4.50026117566446e-08,NaN,1.63972797433935e-07,4.48198251898943e-08,-4.6591741656811e-07,-1.38968237515528e-07,-1.38968237515789e-07,-5.14520637401836e-07,5.977767124863e-07,NaN,0,0,0
1901.568,-8.67934683659665e-08,-6.93190984089191e-08,-1.56112566774877e-07,-6.1419451274688e-07,-1.31854807978326e-07,-1.31854807978228e-07,NaN,NaN,1.02207670250744e-06,-6.36112802731583e-09,5.78454817803848e-08,-6.36112802731928e-09,3.29058678479403e-08,-5.1859577193797e-08,-1.89537093459354e-08,NaN,NaN,-4.82756645169399e-07,3.11015798353704e-07,-2.32472016095984e-06,3.11015798353153e-07,9.73064485488232e-07,NaN,NaN,-1.37027104409903e-07,3.57111279189049e-08,NaN,NaN,-8.22462627755993e-07,1.76406195105353e-07,1.73701068279147e-06,NaN,8.10940049826167e-07,2.30923169790393e-08,3.83096436636709e-08,6.14019606425955e-08,2.50958513013622e-07,1.63624451299936e-08,1.63624451303873e-08,-6.06097582051652e-08,-5.99264668453978e-09,-6.66024048896505e-08,NaN,1.76919233047237e-07,5.03935975192428e-08,-4.77340381892273e-07,-1.55053679732435e-07,-1.55053679732706e-07,-5.1380669900331e-07,5.99222186521474e-07,NaN,0,0,0
1901.6704,-8.03617744564878e-08,-7.92641525146585e-08,-1.59625926971147e-07,-6.31846771656815e-07,-1.37239505772554e-07,-1.37239505772453e-07,NaN,NaN,9.18762934829302e-07,-2.77053348663235e-08,8.80509105780789e-08,-2.77053348663305e-08,2.55301581939723e-08,-5.83578542029856e-08,-3.28276960090911e-08,NaN,NaN,-4.84991716410486e-07,3.20628607038108e-07,-2.31293546013421e-06,3.2062860703757e-07,8.99378678761896e-07,NaN,NaN,-1.38196627495586e-07,3.54834150473952e-08,NaN,NaN,-8.19416643035545e-07,1.36026574216063e-07,1.74713273839459e-06,NaN,7.66332698451568e-07,2.54071035057205e-08,3.77887767474069e-08,6.31958802530151e-08,2.84596860545598e-07,9.16182924280978e-09,9.16182924320696e-09,-8.0567514433441e-08,-7.32702339197432e-09,-8.78945378253734e-08,NaN,1.91981791417429e-07,5.64646577253857e-08,-4.84272759465634e-07,-1.71955633877953e-07,-1.71955633878234e-07,-5.11762535972961e-07,5.99286930305923e-07,NaN,0,0,0
