time,S1-D1,S1-D8,S1-D9,S1-D15,S2-D1,S2-D2,S2-D3,S2-D9,S3-D1,S3-D2,S3-D16,S4-D2,S4-D3,S4-D5,S5-D3,S5-D4,S5-D5,S6-D2,S6-D5,S6-D17,S7-D6,S7-D7,S8-D6,S8-D7,S8-D18,S9-D3,S9-D4,S9-D9,S9-D11,S9-D19,S10-D8,S10-D9,S10-D10,S10-D11,S11-D8,S11-D10,S11-D20,S12-D10,S12-D11,S12-D12,S13-D4,S13-D11,S13-D12,S14-D10,S14-D12,S14-D21,S15-D13,S15-D14,S16-D13,S16-D14,S16-D22,SART_Target,SART_NonTarget,SART_Probe
1868.0832,-1.57506674844043e-07,-8.6507665493391e-08,-2.44014340337515e-07,1.9746291187814e-07,-1.05373364183185e-08,-1.05373364183164e-08,1.99055903656539e-07,NaN,1.56912639259255e-07,2.932462712868e-07,3.57487375021932e-08,2.93246271286676e-07,1.05885286098904e-07,6.27575123815604e-08,1.68642798480441e-07,-5.54949676778866e-08,NaN,4.50295109539135e-09,NaN,-1.76942706113258e-07,-2.3672763983208e-07,-4.28131126732506e-07,4.36996628310043e-07,8.86550157762729e-09,1.43483667591484e-08,-2.22310029966111e-08,-2.22310029966094e-08,-4.65790835826971e-09,4.65790835826215e-09,-9.48968927034417e-08,3.20160736447394e-07,5.12078804634784e-08,NaN,-1.47945799210184e-07,1.63376360670785e-07,1.54305614606692e-08,7.35670867190474e-08,1.90377502715123e-08,1.90377502715817e-08,-6.25603840017497e-07,3.64696549246954e-07,-2.60907290770359e-07,-8.60572979329587e-08,5.97230951579632e-08,-2.63342027749959e-08,4.4320882687948e-08,-2.61262437426091e-07,-2.61262437426039e-07,NaN,-5.86539005001395e-07,3.70088015185025e-07,0,1,0
1868.1856,-1.54586631330669e-07,-8.44510341685417e-08,-2.39037665499293e-07,1.9774820345685e-07,-1.15505688946927e-08,-1.15505688946915e-08,1.88069324770751e-07,NaN,1.54494411991175e-07,2.81115518080646e-07,3.60027339139434e-08,2.81115518080521e-07,9.79454285294099e-08,6.08975485628686e-08,1.58842977092255e-07,-5.92286416406221e-08,NaN,3.70084191287643e-09,NaN,-1.91351317507788e-07,-2.34254351106232e-07,-4.0010663414345e-07,4.11441963301948e-07,1.13353291585878e-08,1.2537712479623e-08,-2.24176258211671e-08,-2.24176258211663e-08,-2.52545905187622e-10,2.52545905179246e-10,-9.05372787550193e-08,3.24092900757709e-07,4.98442125991661e-08,NaN,-1.45950725891641e-07,1.60866389649833e-07,1.49156637582597e-08,7.30019526729681e-08,1.86713153478228e-08,1.86713153478932e-08,-6.31266751244436e-07,3.68070675053909e-07,-2.63196076190345e-07,-8.22359698040326e-08,5.53421896995784e-08,-2.68937801044553e-08,4.87629358811556e-08,-2.60168372664995e-07,-2.60168372664944e-07,NaN,-6.13948533550937e-07,3.64382755529886e-07,0,1,0
1868.288,-1.50130205581077e-07,-8.25627711800649e-08,-2.32692976761225e-07,1.97927384666142e-07,-1.2298272801261e-08,-1.22982728012608e-08,1.76762017698438e-07,NaN,1.51217988362757e-07,2.68506818646017e-07,3.73895183334471e-08,2.68506818645891e-07,8.90632054975097e-08,5.85590474698466e-08,1.47622252967333e-07,-5.95547063651507e-08,NaN,6.02698483625306e-09,NaN,-2.09105352810056e-07,-2.33008659922969e-07,-3.71268557062726e-07,3.84837971213743e-07,1.35694141511071e-08,1.09478394286646e-08,-2.27601391571193e-08,-2.27601391571195e-08,4.33359616080019e-09,-4.33359616080955e-09,-8.61375367699577e-08,3.25107383329391e-07,4.90899617572745e-08,NaN,-1.44167252451564e-07,1.57757171095644e-07,1.35899186441472e-08,7.29054839444622e-08,1.80450248082665e-08,1.80450248083378e-08,-6.36736147948786e-07,3.70334263899949e-07,-2.66401884048656e-07,-7.84138655537603e-08,5.14185998338869e-08,-2.69952657198758e-08,5.29075120889251e-08,-2.57971552664146e-07,-2.57971552664096e-07,NaN,-6.43404795647284e-07,3.55631374024649e-07,0,1,0
1868.3904,-1.44443067178979e-07,-8.07105763884116e-08,-2.25153643567474e-07,1.97938621733083e-07,-1.28094491031865e-08,-1.28094491031872e-08,1.65295537393209e-07,NaN,1.47061992117798e-07,2.55867131091279e-07,3.96203157999776e-08,2.55867131091153e-07,7.94483141586984e-08,5.59089923752524e-08,1.35357306533927e-07,-5.66916491461511e-08,NaN,1.13105205583392e-08,NaN,-2.30377843990395e-07,-2.33041623210393e-07,-3.42172247372857e-07,3.57753432658238e-07,1.5581185285471e-08,9.60710188158714e-09,-2.31369513010901e-08,-2.31369513010916e-08,9.1971931092594e-09,-9.19719310926977e-09,-8.17990024742042e-08,3.23152177503016e-07,4.92942647004707e-08,NaN,-1.42566391114279e-07,1.54234766693827e-07,1.1668375579613e-08,7.31904507999381e-08,1.72192611865756e-08,1.72192611866479e-08,-6.41352789242625e-07,3.70712118462109e-07,-2.70640670780336e-07,-7.45612936868061e-08,4.80065995300747e-08,-2.65546941567354e-08,5.71406774246489e-08,-2.54821484079769e-07,-2.5482148407972e-07,NaN,-6.75376318905191e-07,3.44216735369674e-07,0,0,0
1868.4928,-1.37942835761347e-07,-7.88142607688267e-08,-2.16757096530259e-07,1.97774941981234e-07,-1.3154614167396e-08,-1.31546141673976e-08,1.53920531275261e-07,NaN,1.42107733583855e-07,2.43601387730458e-07,4.23723911999241e-08,2.43601387730332e-07,6.94296289964552e-08,5.3122811400469e-08,1.225524403969e-07,-5.08952237449916e-08,NaN,1.92361294014861e-08,NaN,-2.54790189620577e-07,-2.34395896715133e-07,-3.13456159352387e-07,3.30861565524984e-07,1.74054061726866e-08,8.55571607204588e-09,-2.34485736279996e-08,-2.34485736280024e-08,1.4364018733593e-08,-1.43640187336044e-08,-7.76420640118659e-08,3.18370721523467e-07,5.06428443802169e-08,NaN,-1.41075045270351e-07,1.50472104703151e-07,9.39705943286339e-09,7.38235526095707e-08,1.62704863524352e-08,1.62704863525084e-08,-6.44381817111303e-07,3.68564287360217e-07,-2.75817529750908e-07,-7.06831860372798e-08,4.51335007166429e-08,-2.5549685320643e-08,6.18530444761141e-08,-2.50962590418625e-07,-2.50962590418577e-07,NaN,-7.09817327099089e-07,3.3067491594518e-07,0,0,0
1868.5952,-1.31127865741565e-07,-7.68531957079359e-08,-2.07981061449587e-07,1.97534826602157e-07,-1.34121631123898e-08,-1.34121631123925e-08,1.42981490012566e-07,NaN,1.36539171619674e-07,2.32115436258752e-07,4.53175776578458e-08,2.32115436258626e-07,5.94205843002439e-08,5.03658479126123e-08,1.09786432212832e-07,-4.24462684773009e-08,NaN,2.93557014223036e-08,NaN,-2.81442980164771e-07,-2.37097214941922e-07,-2.85857931934583e-07,3.04937092743672e-07,1.90791608091793e-08,7.84599195985523e-09,-2.36205344717156e-08,-2.36205344717198e-08,1.97601144636529e-08,-1.97601144636653e-08,-7.3778555423694e-08,3.11065886034235e-07,5.31307233999962e-08,NaN,-1.39572060024169e-07,1.46609055018984e-07,7.0369949948763e-09,7.4823938973542e-08,1.52821042750934e-08,1.52821042751675e-08,-6.45168136415464e-07,3.63510648929952e-07,-2.81657487485336e-07,-6.68139643619429e-08,4.27986292617314e-08,-2.40153351002197e-08,6.72971622133938e-08,-2.46705575731084e-07,-2.46705575731037e-07,NaN,-7.46030863785148e-07,3.1569234609844e-07,0,0,0
1868.6976,-1.24527597242831e-07,-7.48541225459015e-08,-1.99381719788819e-07,1.97416664223316e-07,-1.36437803038386e-08,-1.36437803038422e-08,1.32884042411281e-07,NaN,1.30613053980212e-07,2.21788768069397e-07,4.81499415377707e-08,2.2178876806927e-07,4.98584426134896e-08,4.77796685259479e-08,9.7638111139413e-08,-3.16661140538701e-08,NaN,4.11003060754479e-08,NaN,-3.09061010830878e-07,-2.41101833069038e-07,-2.60194201528849e-07,2.80810640540163e-07,2.06164390114052e-08,7.53196156103328e-09,-2.35992185946529e-08,-2.35992185946584e-08,2.52206298070667e-08,-2.52206298070799e-08,-7.02820248318014e-08,3.01632885458819e-07,5.65780902595837e-08,NaN,-1.37908080058344e-07,1.4275138782581e-07,4.84330776752502e-09,7.62413584933521e-08,1.43351614123369e-08,1.43351614124118e-08,-6.43245715389963e-07,3.55467250911291e-07,-2.87778464478498e-07,-6.30034937110776e-08,4.09772852916287e-08,-2.20262084194593e-08,7.35101491973229e-08,-2.42380015402316e-07,-2.4238001540227e-07,NaN,-7.82727393028874e-07,3.00063535274113e-07,0,0,0
1868.8,-1.18639383519278e-07,-7.2864626033746e-08,-1.91504009553111e-07,1.97649903605188e-07,-1.38852920407069e-08,-1.38852920407115e-08,1.24029388810321e-07,NaN,1.24610842786165e-07,2.12896947874413e-07,5.06085003963157e-08,2.12896947874287e-07,4.11301536135144e-08,4.54725732018625e-08,8.66027268153523e-08,-1.89302727894494e-08,NaN,5.3804253504987e-08,NaN,-3.36207082265418e-07,-2.46214821789412e-07,-2.37303457825096e-07,2.59276551574217e-07,2.1973093749212e-08,7.64828479260719e-09,-2.33465334868152e-08,-2.3346533486822e-08,3.05349963816591e-08,-3.0534996381673e-08,-6.71715953578944e-08,2.90481662440993e-07,6.06803981023328e-08,NaN,-1.35939888854779e-07,1.38981166490043e-07,3.04127763532074e-09,7.81173147955653e-08,1.35011231748051e-08,1.35011231748808e-08,-6.3837640765014e-07,3.44606032058194e-07,-2.93770375591774e-07,-5.9305432167858e-08,3.96290954722209e-08,-1.96763366956497e-08,8.03130474364995e-08,-2.38287029138276e-07,-2.38287029138231e-07,NaN,-8.18271540583299e-07,2.84598587626249e-07,0,0,0
1868.9024,-1.13870638242606e-07,-7.09235208019702e-08,-1.84794159044664e-07,1.98391892685598e-07,-1.41518907186218e-08,-1.41518907186271e-08,1.16741309312788e-07,NaN,1.18791857398935e-07,2.05524373579215e-07,5.24925630993789e-08,2.05524373579089e-07,3.35109640231059e-08,4.35169054152635e-08,7.70278694383447e-08,-4.66311770156459e-09,NaN,6.67470379395005e-08,NaN,-3.61502149057461e-07,-2.52031806856292e-07,-2.17994808066621e-07,2.40993566366187e-07,2.29987582996578e-08,8.1827775152947e-09,-2.28379078564728e-08,-2.28379078564805e-08,3.55073003694974e-08,-3.55073003695118e-08,-6.44187738462333e-08,2.77967503398501e-07,6.50701591421248e-08,NaN,-1.33564309752967e-07,1.35370668535168e-07,1.80635878225538e-09,8.04419790685971e-08,1.28360376818669e-08,1.28360376819428e-08,-6.30523226736511e-07,3.31275208834577e-07,-2.99248017901763e-07,-5.57758665429545e-08,3.87053972999975e-08,-1.70704692429715e-08,8.73669064004008e-08,-2.34665243822111e-07,-2.34665243822067e-07,NaN,-8.51025468022641e-07,2.70005039437568e-07,0,0,0
1869.0048,-1.10510360744835e-07,-6.90408422602762e-08,-1.79551203005198e-07,1.99647220187305e-07,-1.44508920575648e-08,-1.4450892057571e-08,1.11216315951096e-07,NaN,1.13364934619814e-07,1.9950644924546e-07,5.36701299812358e-08,1.99506449245335e-07,2.71398417089553e-08,4.19552853306365e-08,6.90951270395673e-08,1.06918040030105e-08,NaN,7.92154262073593e-08,NaN,-3.8377778285342e-07,-2.57941949511689e-07,-2.03004790972482e-07,2.2640232153292e-07,2.33975305605311e-08,9.05520317846201e-09,-2.20646568380059e-08,-2.20646568380151e-08,4.00030851833961e-08,-4.00030851834109e-08,-6.19702513070951e-08,2.64341502589963e-07,6.93628939030677e-08,NaN,-1.30737748053095e-07,1.31993973042595e-07,1.25622498955194e-09,8.31285203412409e-08,1.23754199486046e-08,1.23754199486807e-08,-6.19779762909879e-07,3.159227973266e-07,-3.03856965583109e-07,-5.24869659993957e-08,3.81535073012952e-08,-1.43334586981167e-08,9.42538444546424e-08,-2.3167775955306e-07,-2.31677759553016e-07,NaN,-8.79651061186059e-07,2.56786906753853e-07,0,0,0
1869.1072,-1.08739065631132e-07,-6.71935379189084e-08,-1.75932603550128e-07,2.01265476831444e-07,-1.47893798375153e-08,-1.47893798375222e-08,1.07509756589643e-07,NaN,1.08483030516586e-07,1.94445614990199e-07,5.40783259710381e-08,1.94445614990074e-07,2.20387890892778e-08,4.08136554624721e-08,6.28524445517256e-08,2.67193889688841e-08,NaN,9.05845226934836e-08,NaN,-4.02128315330021e-07,-2.63184949441056e-07,-1.92921524781484e-07,2.15668230196766e-07,2.27467054153748e-08,1.01180067791211e-08,-2.10367407390622e-08,-2.10367407390726e-08,4.39656058880789e-08,-4.39656058880938e-08,-5.97646128095431e-08,2.49729305345155e-07,7.3172271732024e-08,NaN,-1.27472976029449e-07,1.28932364004809e-07,1.45938797541047e-09,8.6021351728107e-08,1.21315357654188e-08,1.2131535765495e-08,-6.06296069731324e-07,2.99050682545818e-07,-3.07245387185338e-07,-4.95519330914995e-08,3.79221926300026e-08,-1.16297404615146e-08,1.00545568719858e-07,-2.29419010782689e-07,-2.29419010782645e-07,NaN,-9.03253705120799e-07,2.45203773180128e-07,0,0,0
1869.2096,-1.08664252212201e-07,-6.53351263878335e-08,-1.73999378600122e-07,2.03023204428662e-07,-1.51685955923055e-08,-1.5168595592313e-08,1.05550667807492e-07,NaN,1.04251235438847e-07,1.89822564706589e-07,5.37135510079708e-08,1.89822564706465e-07,1.81630428247235e-08,4.01146158526991e-08,5.82776586773984e-08,4.30762581352388e-08,NaN,1.0040075795629e-07,NaN,-4.1590544843934e-07,-2.66945914456134e-07,-1.8808847577595e-07,2.08684110568561e-07,2.05956347927046e-08,1.11814407712137e-08,-1.9780874765033e-08,-1.97808747650446e-08,4.74079587920413e-08,-4.74079587920562e-08,-5.77277751898501e-08,2.34141106055552e-07,7.61076372300837e-08,NaN,-1.23816180495324e-07,1.26272576200844e-07,2.45639570556856e-09,8.89339647836366e-08,1.2094380999884e-08,1.20943809999602e-08,-5.90246900974199e-07,2.81197871996645e-07,-3.09049028977387e-07,-4.71473220082467e-08,3.79752138311505e-08,-9.17210817711487e-09,1.05836617372218e-07,-2.27929995835912e-07,-2.27929995835869e-07,NaN,-9.21344534540044e-07,2.35314834979929e-07,0,0,0
1869.312,-1.10356396927693e-07,-6.34137398385026e-08,-1.73770136766282e-07,2.04733248335104e-07,-1.55714554549532e-08,-1.55714554549615e-08,1.05174730769251e-07,NaN,1.00736209733019e-07,1.85161306257895e-07,5.26146241430478e-08,1.8516130625777e-07,1.5456364794857e-08,3.98838268553689e-08,5.53401916502021e-08,5.95012821983589e-08,NaN,1.08432659547661e-07,NaN,-4.24734514126747e-07,-2.68485845772951e-07,-1.8855985768716e-07,2.05162113483482e-07,1.66022557964147e-08,1.204729168905e-08,-1.83338288536223e-08,-1.83338288536351e-08,5.04004725249664e-08,-5.04004725249812e-08,-5.57543448738562e-08,2.17505005995432e-07,7.77837458528454e-08,NaN,-1.19819741738995e-07,1.24100254614459e-07,4.28051287551121e-09,9.16919886856097e-08,1.22341708333669e-08,1.22341708334431e-08,-5.71856453954667e-07,2.62923474670838e-07,-3.08932979283661e-07,-4.55168772104598e-08,3.83144431692132e-08,-7.20243404126587e-09,1.09755970817036e-07,-2.27208222713133e-07,-2.27208222713089e-07,NaN,-9.33720233301465e-07,2.27092693338569e-07,0,1,0
1869.4144,-1.1386007237957e-07,-6.13909186535258e-08,-1.75250991033182e-07,2.06314367994597e-07,-1.59561982815603e-08,-1.5956198281569e-08,1.06166459948585e-07,NaN,9.79712023508595e-08,1.80166324074637e-07,5.08483711025144e-08,1.80166324074511e-07,1.38868787325933e-08,4.01464173216925e-08,5.40332960542625e-08,7.57808789489248e-08,NaN,1.14662951862333e-07,NaN,-4.28591515415241e-07,-2.6728768965159e-07,-1.94150585713422e-07,2.04788760689183e-07,1.06381749758533e-08,1.25337675097015e-08,-1.67349223333178e-08,-1.6734922333331e-08,5.30637193502884e-08,-5.30637193503031e-08,-5.36926879899354e-08,1.99712006846932e-07,7.78562730874245e-08,NaN,-1.15528581572918e-07,1.22492245281856e-07,6.9636637089839e-09,9.41566398874642e-08,1.2501769298114e-08,1.25017692981902e-08,-5.51439499038367e-07,2.44744887587954e-07,-3.06694611450245e-07,-4.49498441117393e-08,3.90044470820437e-08,-5.94539702971524e-09,1.11990530121558e-07,-2.27206139391838e-07,-2.27206139391794e-07,NaN,-9.40390542801768e-07,2.20552493689097e-07,0,1,0
1869.5168,-1.19166051614421e-07,-5.92522375098492e-08,-1.78418289124357e-07,2.07792330777518e-07,-1.62622882902815e-08,-1.62622882902908e-08,1.08294564420882e-07,NaN,9.59531866813012e-08,1.7476768574661e-07,4.85025244829911e-08,1.74767685746484e-07,1.34518197727689e-08,4.09156275509488e-08,5.43674473236949e-08,9.1685336542806e-08,NaN,1.1922569746923e-07,NaN,-4.27893560548509e-07,-2.63166770078017e-07,-2.04548174803455e-07,2.07370543888484e-07,2.82236908512071e-09,1.24864010082368e-08,-1.50213765997789e-08,-1.50213765997922e-08,5.55607485000501e-08,-5.55607485000646e-08,-5.13453134446527e-08,1.80667770768987e-07,7.60651327951904e-08,NaN,-1.10986934235017e-07,1.21509624476766e-07,1.05226902417943e-08,9.62213787487134e-08,1.28270080726437e-08,1.28270080727202e-08,-5.29394833899772e-07,2.27013771383571e-07,-3.02381062516033e-07,-4.57394930003635e-08,4.01841743921678e-08,-5.55531860821542e-09,1.12337432067006e-07,-2.27821269652442e-07,-2.27821269652399e-07,NaN,-9.41582613322719e-07,2.15830946366429e-07,0,1,0
1869.6192,-1.26152751056768e-07,-5.70045244763879e-08,-1.83157275533243e-07,2.09244607710157e-07,-1.64259345619448e-08,-1.6425934561955e-08,1.11321552311183e-07,NaN,9.46287438916454e-08,1.69060576678872e-07,4.56807209125113e-08,1.69060576678744e-07,1.41549366067042e-08,4.21779238874458e-08,5.63328604941276e-08,1.06915476120067e-07,NaN,1.22318656500591e-07,NaN,-4.23499891217683e-07,-2.56300020609925e-07,-2.19401019147284e-07,2.12886309164381e-07,-6.51470998281238e-09,1.17792254747739e-08,-1.32284263841807e-08,-1.32284263841939e-08,5.80768380801682e-08,-5.80768380801825e-08,-4.848836341143e-08,1.60350154251928e-07,7.22548182674014e-08,NaN,-1.06256562685974e-07,1.21190302204178e-07,1.49337395182487e-08,9.77937149584591e-08,1.31195103222715e-08,1.31195103223483e-08,-5.06125167676153e-07,2.09781350394848e-07,-2.96343817281136e-07,-4.81343635183996e-08,4.2052189476687e-08,-6.08217404173201e-09,1.10771309167388e-07,-2.28886753131048e-07,-2.28886753131006e-07,NaN,-9.37755577803618e-07,2.13171337746912e-07,0,0,0
1869.7216,-1.34526645941986e-07,-5.46644283705853e-08,-1.89191074312659e-07,2.10730221643544e-07,-1.639761732884e-08,-1.63976173288511e-08,1.14982534264603e-07,NaN,9.38727858956671e-08,1.63181196013966e-07,4.24949685488191e-08,1.63181196013835e-07,1.59729130518296e-08,4.38782192040693e-08,5.98511322558771e-08,1.21099365797069e-07,NaN,1.24131494477535e-07,NaN,-4.16556972181578e-07,-2.47171769825116e-07,-2.38309771242632e-07,2.21402339575222e-07,-1.69074316673198e-08,1.03159136300989e-08,-1.13941160391708e-08,-1.13941160391837e-08,6.07850625397446e-08,-6.07850625397586e-08,-4.49075799911582e-08,1.3886116458606e-07,6.63586951548056e-08,NaN,-1.01429139500728e-07,1.21538452135652e-07,2.01093126349683e-08,9.87844360978937e-08,1.32768682779103e-08,1.32768682779877e-08,-4.81927577316399e-07,1.92747278569866e-07,-2.89180298746363e-07,-5.22932383695721e-08,4.48228310190902e-08,-7.47040735050082e-09,1.07492162912298e-07,-2.30172485577029e-07,-2.30172485576988e-07,NaN,-9.29564095490989e-07,2.12820940650796e-07,0,0,0
1869.824,-1.4379488640285e-07,-5.2251360033463e-08,-1.96046246436401e-07,2.12256948165717e-07,-1.61519512050668e-08,-1.61519512050787e-08,1.18945877160223e-07,NaN,9.34761625147952e-08,1.57195837571631e-07,3.90601822568063e-08,1.57195837571498e-07,1.88315419631003e-08,4.59086019810926e-08,6.47401439441717e-08,1.33846702228817e-07,NaN,1.24821121869444e-07,NaN,-4.08221995975145e-07,-2.36475141436154e-07,-2.60723361883708e-07,2.32894784288952e-07,-2.78285775946675e-08,8.04415336570058e-09,-9.56613010310528e-09,-9.56613010311748e-09,6.38095886148913e-08,-6.38095886149051e-08,-4.04388959207084e-08,1.16447604283421e-07,5.83644356327955e-08,NaN,-9.6621395954115e-08,1.22510176605583e-07,2.58887806515125e-08,9.91238937118929e-08,1.32002275421498e-08,1.32002275422279e-08,-4.56937713470441e-07,1.75354389633111e-07,-2.81583323837159e-07,-5.82508619710464e-08,4.86681318885535e-08,-9.58273008251103e-09,1.02921674666e-07,-2.31405937451856e-07,-2.31405937451815e-07,NaN,-9.17749706607748e-07,2.14901793345557e-07,0,0,0
1869.9264,-1.53285863503969e-07,-4.97941224741537e-08,-2.03079985978213e-07,2.13808128372083e-07,-1.5683689683956e-08,-1.56836896839688e-08,1.22776415712063e-07,NaN,9.31612090308245e-08,1.51066998739247e-07,3.54950357096094e-08,1.5106699873911e-07,2.26007167199649e-08,4.81032299932582e-08,7.07039467132023e-08,1.44821249909581e-07,NaN,1.24530095432643e-07,NaN,-3.99381715075735e-07,-2.25009613320417e-07,-2.8579968293425e-07,2.47077897402011e-07,-3.87217855321523e-08,4.98767331917976e-09,-7.80657927211731e-09,-7.80657927212903e-09,6.71994468468259e-08,-6.71994468468395e-08,-3.49989674283345e-08,9.34740357344544e-08,4.82920853325887e-08,NaN,-9.19552988287023e-08,1.23998828154999e-07,3.20435293263415e-08,9.88056326421169e-08,1.28127627938199e-08,1.28127627938991e-08,-4.31188554006267e-07,1.57016053108778e-07,-2.74172500897317e-07,-6.58970316567755e-08,5.36690856022317e-08,-1.2227946054561e-08,9.76408510980157e-08,-2.32313595098889e-07,-2.32313595098849e-07,NaN,-9.02978033904509e-07,2.1932622767192e-07,0,0,0
1870.0288,-1.62207470535521e-07,-4.73468346398202e-08,-2.09554305175433e-07,2.15398622825803e-07,-1.49934542952791e-08,-1.49934542952929e-08,1.25920352060572e-07,NaN,9.26289706069954e-08,1.44699636988062e-07,3.19241761387063e-08,1.44699636987922e-07,2.70981777068464e-08,5.02397304657026e-08,7.73379081725285e-08,1.53773699504507e-07,NaN,1.2340772644017e-07,NaN,-3.90484892104292e-07,-2.1358851722184e-07,-3.12287841684419e-07,2.63304021657563e-07,-4.89838200267708e-08,1.28050612012539e-09,-6.19169883578928e-09,-6.1916988358003e-09,7.09154239113004e-08,-7.09154239113137e-08,-2.86016095863681e-08,7.03653561310719e-08,3.62027095143744e-08,NaN,-8.75345533164599e-08,1.25825217073003e-07,3.82906637565889e-08,9.79326881440452e-08,1.20760347223349e-08,1.20760347224154e-08,-4.04780134280366e-07,1.3739915291156e-07,-2.67380981368634e-07,-7.49681009270018e-08,5.97929517490653e-08,-1.51751491779525e-08,9.22918095348907e-08,-2.32668605945354e-07,-2.32668605945314e-07,NaN,-8.85686139140691e-07,2.25782393032035e-07,0,0,0
1870.1312,-1.69718880201535e-07,-4.50001699017959e-08,-2.14719050103424e-07,2.17108578788993e-07,-1.40763412548201e-08,-1.40763412548347e-08,1.27722836383479e-07,NaN,9.16175000710563e-08,1.3800530557293e-07,2.84761211970612e-08,1.38005305572786e-07,3.20880940519307e-08,5.20474482668906e-08,8.41355423188011e-08,1.60512174296842e-07,NaN,1.21597904644886e-07,NaN,-3.81528231015124e-07,-2.02960689829103e-07,-3.38487107286833e-07,2.80557268076297e-07,-5.79298392104527e-08,-2.82035563651499e-09,-4.80648604979674e-09,-4.80648604980722e-09,7.48302755757221e-08,-7.48302755757353e-08,-2.1366513956331e-08,4.75561267893689e-08,2.22292175829386e-08,NaN,-8.34289148139027e-08,1.27738161602174e-07,4.43092467883174e-08,9.67348477656356e-08,1.10004922514464e-08,1.10004922515282e-08,-3.78083407542294e-07,1.16656186621396e-07,-2.61427220920726e-07,-8.50505563862542e-08,6.68988349294817e-08,-1.81517214567872e-08,8.74816578437754e-08,-2.32322464149265e-07,-2.32322464149225e-07,NaN,-8.66001633921018e-07,2.33767366061802e-07,0,0,0
1870.2336,-1.75001451828407e-07,-4.2876425279865e-08,-2.17877877108365e-07,2.19068834594457e-07,-1.29261000200981e-08,-1.2926100020114e-08,1.27481365246994e-07,NaN,8.99431421026765e-08,1.30915723395718e-07,2.5276839132623e-08,1.3091572339557e-07,3.72754093877777e-08,5.32260994853837e-08,9.05015088731414e-08,1.64842296837644e-07,NaN,1.19196559569262e-07,NaN,-3.72155315730625e-07,-1.93759810779839e-07,-3.62357009905751e-07,2.97556998142473e-07,-6.48000117631969e-08,-6.95654605180514e-09,-3.73673784429315e-09,-3.73673784430321e-09,7.87478895915187e-08,-7.87478895915319e-08,-1.35233161164479e-08,2.54698168114737e-08,6.60558184828447e-09,NaN,-7.96710985452158e-08,1.29431045430509e-07,4.97599468853412e-08,9.55413998532446e-08,9.64739460925055e-09,9.64739460933362e-09,-3.51860307191907e-07,9.55074928800221e-08,-2.56352814311712e-07,-9.56014004408389e-08,7.47620755869443e-08,-2.08393248539079e-08,8.37200633323747e-08,-2.3120959164454e-07,-2.312095916445e-07,NaN,-8.43746176610302e-07,2.42641373921987e-07,0,0,0
1870.336,-1.77334129282867e-07,-4.11063223336925e-08,-2.18440451616652e-07,2.21408559893297e-07,-1.15537370738709e-08,-1.15537370738878e-08,1.24535916272473e-07,NaN,8.75150751110374e-08,1.23343333726679e-07,2.24377998425054e-08,1.23343333726528e-07,4.23095029656723e-08,5.34782466902485e-08,9.57877496559011e-08,1.66530806887766e-07,NaN,1.16214742830767e-07,NaN,-3.61810973616357e-07,-1.86490344332094e-07,-3.81801148216619e-07,3.12957824671883e-07,-6.88433235446562e-08,-1.07216762772835e-08,-3.05971317580869e-09,-3.05971317581836e-09,8.24423804049423e-08,-8.24423804049553e-08,-5.4041266326349e-09,4.51947208131102e-09,-1.03257829604994e-08,NaN,-7.62613350027669e-08,1.30576410422372e-07,5.43150754196535e-08,9.47161297901035e-08,8.1215545626939e-09,8.12155456277792e-09,-3.27214368776045e-07,7.51322839328346e-08,-2.52082084843039e-07,-1.05995913130783e-07,8.31060775273242e-08,-2.28898356034703e-08,8.13965997856756e-08,-2.2933288346095e-07,-2.2933288346091e-07,NaN,-8.18514431160972e-07,2.51692369915906e-07,0,0,0
1870.4384,-1.76180533227958e-07,-3.97952088157454e-08,-2.15975742043795e-07,2.24197950095362e-07,-1.00035444060434e-08,-1.00035444060614e-08,1.18389420004359e-07,NaN,8.43339761233548e-08,1.15151642927534e-07,2.00355220475219e-08,1.15151642927381e-07,4.68074875533712e-08,5.25523798758634e-08,9.93598674292151e-08,1.6532598056664e-07,NaN,1.12586654565486e-07,NaN,-3.49914182680615e-07,-1.81541887556537e-07,-3.950227041177e-07,3.25566617134132e-07,-6.94560869834908e-08,-1.37341547068681e-08,-2.83216346814461e-09,-2.83216346815437e-09,8.57028400208352e-08,-8.57028400208482e-08,2.58464267184103e-09,-1.49027271087562e-08,-2.81330369420809e-08,NaN,-7.31708583129944e-08,1.30872160874976e-07,5.77013025620316e-08,9.45767306400893e-08,6.55664372093888e-09,6.55664372102348e-09,-3.0537752003031e-07,5.69165815158128e-08,-2.48460938514325e-07,-1.15608413855821e-07,9.16350417642874e-08,-2.39733720915437e-08,8.07788499560934e-08,-2.26748662479087e-07,-2.26748662479046e-07,NaN,-7.89823397292568e-07,2.60206144115034e-07,0,0,0
1870.5408,-1.71273175249741e-07,-3.89926804109507e-08,-2.10265855660781e-07,2.27419634918647e-07,-8.34894298924971e-09,-8.34894298926878e-09,1.08831056039955e-07,NaN,8.04863556492321e-08,1.06190997295256e-07,1.80875244228459e-08,1.06190997295102e-07,5.03953348261296e-08,5.02859461019645e-08,1.00681280928075e-07,1.61030286525392e-07,NaN,1.08230755549563e-07,NaN,-3.36024134707403e-07,-1.79210037771855e-07,-4.00802168178628e-07,3.34487395494633e-07,-6.63147726839212e-08,-1.57090379861274e-08,-3.0760489254493e-09,-3.07604892545984e-09,8.83636728646937e-08,-8.83636728647064e-08,1.00096987688786e-08,-3.24709376040283e-08,-4.63278688443183e-08,NaN,-7.03419676282072e-08,1.30086031072526e-07,5.974406344437e-08,9.53274433349228e-08,5.09527833155145e-09,5.09527833163616e-09,-2.87421227629593e-07,4.21583630678586e-08,-2.45262864561562e-07,-1.23909046412874e-07,1.00062954047482e-07,-2.38460923654018e-08,8.20103953871163e-08,-2.23563484341707e-07,-2.23563484341666e-07,NaN,-7.57313769731384e-07,2.6753963713238e-07,0,0,0
1870.6432,-1.62663648513383e-07,-3.8678090053079e-08,-2.0134173856655e-07,2.30981361497465e-07,-6.66768568165646e-09,-6.66768568167659e-09,9.60182434146754e-08,NaN,7.61338603622994e-08,9.63880088478205e-08,1.65379626401543e-08,9.63880088476656e-08,5.2755865868734e-08,4.66361112296438e-08,9.93919770983586e-08,1.53589922435017e-07,NaN,1.03127367696742e-07,NaN,-3.19969660670937e-07,-1.79692890178715e-07,-3.98634888225861e-07,3.39179798078149e-07,-5.9455090147642e-08,-1.65056429612042e-08,-3.76698890600823e-09,-3.76698890601938e-09,9.03142156182264e-08,-9.03142156182388e-08,1.64614452315351e-08,-4.79915424828051e-08,-6.43956659543848e-08,NaN,-6.76898270531894e-08,1.28085022919378e-07,6.03951958662407e-08,9.70276962064044e-08,3.86626015005577e-09,3.86626015014009e-09,-2.74002328244458e-07,3.18136692768348e-08,-2.42188658967451e-07,-1.30541458122765e-07,1.08134227474526e-07,-2.2407230648247e-08,8.51042917395155e-08,-2.19937966308926e-07,-2.19937966308884e-07,NaN,-7.20951686243869e-07,2.73194715527919e-07,0,1,0
1870.7456,-1.50719187993898e-07,-3.87662144967367e-08,-1.89485402490718e-07,2.34755764124559e-07,-5.01351335470092e-09,-5.01351335472236e-09,8.04820116562321e-08,NaN,7.14917899814702e-08,8.58214528708231e-08,1.52643432741579e-08,8.58214528706687e-08,5.36713832236066e-08,4.16910267796035e-08,9.5362410003191e-08,1.43162066246555e-07,NaN,9.73643722239241e-08,NaN,-3.01912603549738e-07,-1.83047054269092e-07,-3.88767259510042e-07,3.39481376839255e-07,-4.92858826707198e-08,-1.61370516996039e-08,-4.83218813788063e-09,-4.8321881378925e-09,9.14977659982034e-08,-9.14977659982154e-08,2.15915828308756e-08,-6.14512012062455e-08,-8.18174607220513e-08,NaN,-6.51119085873832e-08,1.24843825237925e-07,5.97319166505938e-08,9.96016055059141e-08,2.96278045278521e-09,2.96278045286867e-09,-2.65212966135236e-07,2.63213382744648e-08,-2.38891627860599e-07,-1.35356409437437e-07,1.15636530209434e-07,-1.97198792280106e-08,8.99424872166595e-08,-2.16082335550396e-07,-2.16082335550353e-07,NaN,-6.81159940816235e-07,2.76880091559538e-07,0,1,0
1870.848,-1.36069901704171e-07,-3.91298141555604e-08,-1.75199715859812e-07,2.3862204375902e-07,-3.40227679436135e-09,-3.40227679438407e-09,6.3050747451622e-08,NaN,6.6797465738279e-08,7.47297830631042e-08,1.4106839468419e-08,7.47297830629516e-08,5.3053497262235e-08,3.56610771825281e-08,8.8714574444744e-08,1.30141995270932e-07,NaN,9.11346873177878e-08,NaN,-2.8233608335749e-07,-1.89130282568364e-07,-3.72180989984629e-07,3.35633130964837e-07,-3.65478590197285e-08,-1.47439006609154e-08,-6.16067544856969e-09,-6.16067544858249e-09,9.19093647976879e-08,-9.19093647976994e-08,2.51365104971802e-08,-7.30246001908494e-08,-9.80889829898806e-08,NaN,-6.25060945416817e-08,1.20435296943434e-07,5.79292024018054e-08,1.02876715249767e-07,2.42675218966292e-09,2.42675218974531e-09,-2.60546888986565e-07,2.55169198277357e-08,-2.35029969158657e-07,-1.38399926360218e-07,1.22410542572913e-07,-1.59893837873106e-08,9.62931851146918e-08,-2.1223427671614e-07,-2.12234276716096e-07,NaN,-6.38831428951452e-07,2.78540558945576e-07,0,1,0
1870.9504,-1.19524135122719e-07,-3.96306234083578e-08,-1.59154758531154e-07,2.42488602218194e-07,-1.81716893830143e-09,-1.81716893832563e-09,4.47192420480144e-08,NaN,6.22744060860268e-08,6.34537970918024e-08,1.29097828585677e-08,6.34537970916519e-08,5.09571600425675e-08,2.8853804601736e-08,7.98109646442845e-08,1.15148469227443e-07,NaN,8.47021373421918e-08,NaN,-2.61969129380574e-07,-1.97580310354644e-07,-3.50525100855816e-07,3.28297705493838e-07,-2.22273953619185e-08,-1.25484739376593e-08,-7.62280890524859e-09,-7.6228089052623e-09,9.15902185000794e-08,-9.15902185000905e-08,2.69315377527813e-08,-8.30463965528785e-08,-1.1274247016971e-07,NaN,-5.97922116563749e-08,1.15010043912584e-07,5.52178322562625e-08,1.06632842697745e-07,2.24413774704068e-09,2.24413774712173e-09,-2.58975408379173e-07,2.86548256398252e-08,-2.30320582739176e-07,-1.39867596322691e-07,1.28356366706744e-07,-1.15112296159522e-08,1.03846772176658e-07,-2.08621681185654e-07,-2.08621681185609e-07,NaN,-5.95217873250112e-07,2.78338308470868e-07,0,0,0
1871.0528,-1.0197145807947e-07,-4.01468058277492e-08,-1.42118263907293e-07,2.46288699183267e-07,-2.23681519171312e-10,-2.23681519197021e-10,2.65038493925363e-08,NaN,5.80980185547015e-08,5.23603681656894e-08,1.15581279181711e-08,5.2360368165541e-08,4.75770605995061e-08,2.16376480322055e-08,6.92147086316926e-08,9.89723168014801e-08,NaN,7.83600052167012e-08,NaN,-2.4166349231091e-07,-2.07854535063048e-07,-3.25972381162888e-07,3.18531715785185e-07,-7.44066537764704e-09,-9.81049540548848e-09,-9.09248342668916e-09,-9.09248342670357e-09,9.06119027629583e-08,-9.06119027629688e-08,2.69149769037087e-08,-9.19626578327849e-08,-1.25373529808092e-07,NaN,-5.69287636428482e-08,1.08771162464687e-07,5.18423988218924e-08,1.10642016718524e-07,2.35306656280185e-09,2.35306656288154e-09,-2.59127910171028e-07,3.45607948539177e-08,-2.2456711531694e-07,-1.40040490455351e-07,1.33429465622131e-07,-6.6110248332254e-09,1.12260138342912e-07,-2.05422967380155e-07,-2.05422967380109e-07,NaN,-5.51717593641222e-07,2.7659378844243e-07,0,0,0
1871.1552,-8.42889142839204e-08,-4.05879885130315e-08,-1.24876902797023e-07,2.4996159866458e-07,1.41962737021012e-09,1.41962737018282e-09,9.31891370350698e-09,NaN,5.43693150239425e-08,4.17933840250743e-08,9.99656505228263e-09,4.1793384024928e-08,4.32260906239891e-08,1.43995751881288e-08,5.76256658120991e-08,8.25073455636856e-08,NaN,7.24002186152632e-08,NaN,-2.22246197647121e-07,-2.19315690935857e-07,-3.0100567198941e-07,3.07689798853424e-07,6.68412686406664e-09,-6.79663180484968e-09,-1.04657949836548e-08,-1.04657949836699e-08,8.90495045151778e-08,-8.90495045151879e-08,2.5120291221197e-08,-1.00274629070056e-07,-1.35672751141524e-07,NaN,-5.39187011723662e-08,1.01947757354295e-07,4.80290561819817e-08,1.14691605944642e-07,2.66110147331638e-09,2.66110147339476e-09,-2.5953797836798e-07,4.18810219348752e-08,-2.17656956432935e-07,-1.3921595468472e-07,1.37619369786275e-07,-1.59658489844839e-09,1.21197437207167e-07,-2.02741034439672e-07,-2.02741034439625e-07,NaN,-5.09621996748681e-07,2.73715203842005e-07,0,0,0
1871.2576,-6.72578167712461e-08,-4.08980473308389e-08,-1.08155864102154e-07,2.5344266302203e-07,3.1602582306429e-09,3.16025823061445e-09,-6.1014396719342e-09,NaN,5.11055722441247e-08,3.20632444794828e-08,8.23089208944813e-09,3.20632444793391e-08,3.8297626724093e-08,7.50130201941509e-09,4.57989287434893e-08,6.66877866560462e-08,NaN,6.70981076827986e-08,NaN,-2.04388609609888e-07,-2.3132489820329e-07,-2.78173115679931e-07,2.97275658118431e-07,1.9102542438549e-08,-3.75674411599108e-09,-1.16730025089131e-08,-1.16730025089289e-08,8.69540109938755e-08,-8.69540109938853e-08,2.16567144928405e-08,-1.08483065197129e-07,-1.43454109884731e-07,NaN,-5.08026634205171e-08,9.47674848766346e-08,4.39648214561708e-08,1.18599544012834e-07,3.06410750049537e-09,3.06410750057271e-09,-2.58869649403048e-07,4.93221517709045e-08,-2.09547497631975e-07,-1.37637892490335e-07,1.40911491322184e-07,3.27359883184538e-09,1.30357910157923e-07,-2.00596095636475e-07,-2.00596095636429e-07,NaN,-4.6990722172672e-07,2.70139611358181e-07,0,0,0
1871.36,-5.1491335178191e-08,-4.10514435378627e-08,-9.25427787161213e-08,2.56672944043888e-07,5.05356015894254e-09,5.05356015891292e-09,-1.92251605520337e-08,NaN,4.82558509933173e-08,2.34450109220736e-08,6.31973689002691e-09,2.3445010921932e-08,3.32147241481053e-08,1.23905271575336e-09,3.44537768638399e-08,5.24341353201684e-08,NaN,6.27030236522623e-08,NaN,-1.8853418105265e-07,-2.43305842787445e-07,-2.59851867196023e-07,2.88774385320373e-07,2.89225181243986e-08,-8.94770632945137e-10,-1.26836778076417e-08,-1.26836778076577e-08,8.43398752517353e-08,-8.4339875251745e-08,1.66802434792242e-08,-1.17039245060237e-07,-1.48663465432183e-07,NaN,-4.76424949275364e-08,8.74278189257664e-08,3.97853239982831e-08,1.22233349888666e-07,3.46026142338063e-09,3.46026142345705e-09,-2.56047891428579e-07,5.57796299705994e-08,-2.00268261457813e-07,-1.35432116037441e-07,1.43245783287505e-07,7.81366725006095e-09,1.39487619947725e-07,-1.98927474757334e-07,-1.98927474757287e-07,NaN,-4.33140141697736e-07,2.66286070871293e-07,0,0,0
1871.4624,-3.737445434464e-08,-4.10473239765337e-08,-7.84217783212403e-08,2.5961598708924e-07,7.15675426638152e-09,7.15675426635099e-09,-2.96954833726937e-08,NaN,4.57413902802248e-08,1.61543779270118e-08,4.36474036881592e-09,1.61543779268717e-08,2.8374496540412e-08,-4.18686271838976e-09,2.41876338220034e-08,4.05885218096039e-08,NaN,5.9422279529973e-08,NaN,-1.74898626547036e-07,-2.54771898079124e-07,-2.48041287692152e-07,2.8349373131861e-07,3.5452443626505e-08,1.66196385615839e-09,-1.35061649363638e-08,-1.350616493638e-08,8.11954558823951e-08,-8.11954558824046e-08,1.03643017867606e-08,-1.26306940178226e-07,-1.51357860558205e-07,NaN,-4.45013309255423e-08,8.00714040317454e-08,3.55700731062561e-08,1.25529334685823e-07,3.75739844815485e-09,3.75739844823047e-09,-2.50284901208249e-07,6.03369996261119e-08,-1.89947901581973e-07,-1.32565750194258e-07,1.44496702224914e-07,1.19309520306543e-08,1.48380668681987e-07,-1.9759546779268e-07,-1.97595467792634e-07,NaN,-3.99515201884654e-07,2.62517319320456e-07,0,0,0
1871.5648,-2.50276174008452e-08,-4.09017380329739e-08,-6.59293554338849e-08,2.62257920179896e-07,9.51353060799589e-09,9.51353060796415e-09,-3.72800144196476e-08,NaN,4.35081519165281e-08,1.03122653147811e-08,2.50040744854376e-09,1.03122653146421e-08,2.41015795782697e-08,-8.68576277488144e-09,1.54158168033694e-08,3.18309181349997e-08,NaN,5.7395213334939e-08,NaN,-1.63518544136163e-07,-2.65333221680415e-07,-2.44208356296834e-07,2.82439358230136e-07,3.82310019333486e-08,3.87813519958931e-09,-1.41822492073035e-08,-1.41822492073197e-08,7.75086602333573e-08,-7.75086602333668e-08,2.88178986859228e-09,-1.36535760719274e-07,-1.51666097584463e-07,NaN,-4.14289292658696e-08,7.27758045762545e-08,3.13468753104377e-08,1.28496064031219e-07,3.87590226601209e-09,3.87590226608695e-09,-2.41060389024762e-07,6.22128760284544e-08,-1.78847512996146e-07,-1.28851238943419e-07,1.44490987238058e-07,1.56397482946366e-08,1.56878951334077e-07,-1.96388492032154e-07,-1.96388492032109e-07,NaN,-3.68984712452691e-07,2.59118439704332e-07,0,0,0
1871.6672,-1.43120396118785e-08,-4.06365435397302e-08,-5.4948583151674e-08,2.64575639317902e-07,1.21364653692488e-08,1.2136465369216e-08,-4.18268898644428e-08,NaN,4.15694755845656e-08,5.93625030797484e-09,8.79036241997567e-10,5.93625030783678e-09,2.06204838729434e-08,-1.22698904619973e-08,8.35059341092707e-09,2.65932851053567e-08,NaN,5.66628072401903e-08,NaN,-1.54308652145258e-07,-2.74698659828355e-07,-2.49218057615412e-07,2.86250247485505e-07,3.70321898701397e-08,5.79930493712058e-09,-1.4776714993378e-08,-1.47767149933938e-08,7.32912152225126e-08,-7.32912152225221e-08,-5.60114422048803e-09,-1.47840898642578e-07,-1.49750585072263e-07,NaN,-3.84587787041805e-08,6.55640572098707e-08,2.7105278505743e-08,1.31192229849026e-07,3.75088094485352e-09,3.75088094492794e-09,-2.28122615329881e-07,6.07574488095165e-08,-1.67365166520205e-07,-1.23998308770792e-07,1.4305819117339e-07,1.90598824025965e-08,1.6487556328448e-07,-1.95046588574655e-07,-1.9504658857461e-07,NaN,-3.41415910483394e-07,2.56299367998931e-07,0,0,0
1871.7696,-4.88539623291552e-09,-4.02648258590455e-08,-4.51502220920258e-08,2.66484904028519e-07,1.49961913240756e-08,1.49961913240421e-08,-4.32558582242591e-08,NaN,4.00188672414681e-08,2.97956632156749e-09,-3.52220079619015e-10,2.97956632143069e-09,1.80461318913735e-08,-1.5030353640885e-08,3.01577825046942e-09,2.50024670395716e-08,NaN,5.71420872770914e-08,NaN,-1.47098738335117e-07,-2.82674119726815e-07,-2.63349058276932e-07,2.95194424726955e-07,3.1845366450069e-08,7.51729027387625e-09,-1.53611766728547e-08,-1.536117667287e-08,6.8589851650773e-08,-6.85898516507825e-08,-1.49279981680451e-08,-1.60180115304178e-07,-1.45786168693601e-07,NaN,-3.56142334833505e-08,5.84320910638481e-08,2.28178575805504e-08,1.3368437295837e-07,3.3372486076901e-09,3.33724860776432e-09,-2.11525112830932e-07,5.55346846820952e-08,-1.55990428148681e-07,-1.17699361183313e-07,1.40093482850984e-07,2.23941216676706e-08,1.72320272796065e-07,-1.9330400725914e-07,-1.93304007259096e-07,NaN,-3.16714167304111e-07,2.54212302499875e-07,0,0,0
1871.872,3.70387066190031e-09,-3.97770024551185e-08,-3.60731317932827e-08,2.67805055529595e-07,1.80228247980589e-08,1.80228247980244e-08,-4.15960215530666e-08,NaN,3.90091708080602e-08,1.40302042274159e-09,-1.08014597001636e-09,1.40302042260639e-09,1.63869160383743e-08,-1.71050100799542e-08,-7.18094041599168e-10,2.687355334813e-08,NaN,5.86143428077058e-08,NaN,-1.41644859326115e-07,-2.89156194259007e-07,-2.86340778680167e-07,3.09186267656736e-07,2.28454889766164e-08,9.12587816401272e-09,-1.59948026627141e-08,-1.5994802662729e-08,6.34880067605292e-08,-6.34880067605389e-08,-2.49557824442082e-08,-1.73322901893474e-07,-1.39961060182335e-07,NaN,-3.2912399576921e-08,5.13802666419715e-08,1.84678670651036e-08,1.3599986735394e-07,2.61909863175162e-09,2.61909863182571e-09,-1.9166964689487e-07,4.64429818148434e-08,-1.45226665079873e-07,-1.09723574922876e-07,1.35610187977352e-07,2.58866130544757e-08,1.79221538402557e-07,-1.90942515006882e-07,-1.90942515006839e-07,NaN,-2.94889929547141e-07,2.52972261764035e-07,0,1,0
1871.9744,1.19103857805853e-08,-3.91355421095783e-08,-2.72251563290577e-08,2.68272462758505e-07,2.11184251884644e-08,2.11184251884293e-08,-3.70529088305967e-08,NaN,3.87139120565529e-08,1.24165746174795e-09,-1.2537689942281e-09,1.24165746161369e-09,1.55564541063753e-08,-1.86485068135808e-08,-3.09205270722491e-09,3.17501063472639e-08,NaN,6.07286493248398e-08,NaN,-1.37633842049871e-07,-2.94120516898898e-07,-3.174119400849e-07,3.27783509653211e-07,1.03715695683599e-08,1.06849831021605e-08,-1.67083646947857e-08,-1.67083646948e-08,5.8111175844809e-08,-5.8111175844819e-08,-3.55561209719613e-08,-1.86819610968814e-07,-1.32491531530647e-07,NaN,-3.03573970422125e-08,4.44355643709819e-08,1.40781673288228e-08,1.38094146098644e-07,1.6203621884322e-09,1.62036218850626e-09,-1.69330632125631e-07,3.3805525358461e-08,-1.3552510676702e-07,-9.99908780184516e-08,1.29766713249502e-07,2.97758352310509e-08,1.85639966661339e-07,-1.87839689746534e-07,-1.87839689746492e-07,NaN,-2.76092861812877e-07,2.52677936696451e-07,0,1,0
1872.0768,2.01019847752463e-08,-3.82816780427446e-08,-1.81796932675633e-08,2.67600463035069e-07,2.41737123691881e-08,2.41737123691522e-08,-3.00678159499969e-08,NaN,3.92910657766768e-08,2.62738105049565e-09,-9.01896187363119e-10,2.62738105036267e-09,1.53918557095157e-08,-1.98090245397905e-08,-4.41716883029468e-09,3.8969641373223e-08,NaN,6.30151934394923e-08,NaN,-1.34714507232049e-07,-2.97598237535734e-07,-3.55242124273235e-07,3.50160789676609e-07,-5.08133459657531e-09,1.22062881511404e-08,-1.74962091426214e-08,-1.74962091426349e-08,5.26413431466463e-08,-5.26413431466567e-08,-4.66068888191069e-08,-1.99991286626061e-07,-1.23636157585746e-07,NaN,-2.79267799801509e-08,3.7659012370607e-08,9.73223239051002e-09,1.39848241806941e-07,4.10805422587112e-10,4.10805422661153e-10,-1.45650023691864e-07,1.83885198702632e-08,-1.27261503821454e-07,-8.86044709113856e-08,1.22864461672329e-07,3.42599907609447e-08,1.91670235289711e-07,-1.83994301852578e-07,-1.83994301852536e-07,NaN,-2.60646492682369e-07,2.53421743180192e-07,0,1,0
1872.1792,2.85051974871586e-08,-3.71460317444881e-08,-8.64083425739559e-09,2.65550602988118e-07,2.70854196409884e-08,2.7085419640952e-08,-2.13385511112241e-08,NaN,4.08594984322341e-08,5.75728676253344e-09,-1.31815894587532e-10,5.75728676240151e-09,1.56766513722288e-08,-2.07098159177863e-08,-5.03316454557759e-09,4.77367374961356e-08,NaN,6.49093212133708e-08,NaN,-1.32579750882624e-07,-2.99632478907796e-07,-3.97976704570828e-07,3.75102454672942e-07,-2.2874249897832e-08,1.36612380948581e-08,-1.83139996183447e-08,-1.83139996183574e-08,4.733046052831e-08,-4.7330460528321e-08,-5.79735559004732e-08,-2.11967402750607e-07,-1.13700275840541e-07,NaN,-2.55645639455889e-08,3.11426255797405e-08,5.57806163420665e-09,1.41098760518287e-07,-8.96897557675901e-10,-8.96897557601771e-10,-1.22085021602597e-07,1.33289468487524e-09,-1.20752126917579e-07,-7.58394938751848e-08,1.15324233097342e-07,3.94847392221601e-08,1.97412555255082e-07,-1.79518409577888e-07,-1.79518409577848e-07,NaN,-2.49077910822446e-07,2.55263958104214e-07,0,0,0
1872.2816,3.71935656093453e-08,-3.56506890893821e-08,1.54287651989612e-09,2.61975953669379e-07,2.97775856252696e-08,2.97775856252329e-08,-1.17840721695166e-08,NaN,4.34884280083987e-08,1.08358422207784e-08,8.87963900570044e-10,1.08358422206475e-08,1.61665682318614e-08,-2.14339053028617e-08,-5.26733707102078e-09,5.71967387333983e-08,NaN,6.57954992963751e-08,NaN,-1.31085168203102e-07,-3.00220158278417e-07,-4.43343256170516e-07,4.01072383057702e-07,-4.22708731127577e-08,1.50029191231047e-08,-1.90764099803753e-08,-1.90764099803873e-08,4.24951008948179e-08,-4.24951008948297e-08,-6.94903330916282e-08,-2.2178760531189e-07,-1.03026560409366e-07,NaN,-2.31926231900564e-08,2.50031104929184e-08,1.81048730291862e-09,1.41686117601373e-07,-2.15869455516503e-09,-2.1586945550908e-09,-1.00287374472545e-07,-1.59931908177875e-08,-1.16280565290194e-07,-6.2101212945917e-08,1.07651943668581e-07,4.55507307226686e-08,2.02939601569723e-07,-1.74599734682158e-07,-1.74599734682118e-07,NaN,-2.42096231789968e-07,2.58162412824827e-07,0,0,0
1872.384,4.61171493889042e-08,-3.36991563698342e-08,1.24179930190018e-08,2.56820306227885e-07,3.22280345585445e-08,3.22280345585078e-08,-2.44659169454298e-09,NaN,4.71948572606407e-08,1.80268108787626e-08,1.94981596822524e-09,1.80268108786327e-08,1.66127008749957e-08,-2.20160021486509e-08,-5.40330127367595e-09,6.65054332434292e-08,NaN,6.50741786780499e-08,NaN,-1.30344895673866e-07,-2.99254873931083e-07,-4.88893971679179e-07,4.26373342375887e-07,-6.25206293032324e-08,1.61915171675351e-08,-1.96525416265954e-08,-1.96525416266062e-08,3.84810513854867e-08,-3.84810513854995e-08,-8.09543639933398e-08,-2.28550582580885e-07,-9.1973176690379e-08,NaN,-2.0739386202083e-08,1.93751106544776e-08,-1.36427554754692e-09,1.41503325875932e-07,-3.21533111507798e-09,-3.21533111500354e-09,-8.19141906212247e-08,-3.21879392121492e-08,-1.1410212983324e-07,-4.7872451113742e-08,1.00402041142534e-07,5.25295900287981e-08,2.08262490226047e-07,-1.69447604123239e-07,-1.694476041232e-07,NaN,-2.40483607292053e-07,2.61881849659594e-07,0,0,0
1872.4864,5.51595399705363e-08,-3.11632009496103e-08,2.39963390208566e-08,2.50086288963177e-07,3.44915274704944e-08,3.44915274704577e-08,5.65128958762283e-09,NaN,5.19418205345182e-08,2.74271390270907e-08,2.82547254097391e-09,2.74271390269616e-08,1.67750763543296e-08,-2.24474329607223e-08,-5.67235660641385e-09,7.48901990979758e-08,NaN,6.22431438178218e-08,NaN,-1.30734184863618e-07,-2.96485456160758e-07,-5.32268037290463e-07,4.49334946579816e-07,-8.29330907105835e-08,1.72141113367261e-08,-1.98638150727567e-08,-1.98638150727662e-08,3.56032807560233e-08,-3.56032807560371e-08,-9.21356644735481e-08,-2.31568304209711e-07,-8.08894799804688e-08,NaN,-1.81707167402105e-08,1.44019212017738e-08,-3.76879553837623e-09,1.40533203392812e-07,-3.90832660425717e-09,-3.90832660418241e-09,-6.84079106753582e-08,-4.59993341533088e-08,-1.14407244828538e-07,-3.36682443215089e-08,9.41422146220598e-08,6.04739703005587e-08,2.13291892324658e-07,-1.64238637158337e-07,-1.64238637158298e-07,NaN,-2.44912346180332e-07,2.65922994571238e-07,0,0,0
1872.5888,6.41933371022365e-08,-2.78820740519092e-08,3.63112630502564e-08,2.41805041086869e-07,3.67057776864161e-08,3.67057776863793e-08,1.16523527302403e-08,NaN,5.76335347752514e-08,3.90554968227388e-08,3.27952456900365e-09,3.90554968226102e-08,1.64309757284447e-08,-2.26933461078426e-08,-6.2623703794193e-09,8.17028063293929e-08,NaN,5.69797356750788e-08,NaN,-1.32765434710805e-07,-2.91516170952774e-07,-5.71355387092639e-07,4.6845821132769e-07,-1.02897175764881e-07,1.80925479395489e-08,-1.94934196270183e-08,-1.94934196270265e-08,3.40799655214339e-08,-3.40799655214488e-08,-1.02792724224641e-07,-2.30493611776785e-07,-7.00996760453337e-08,NaN,-1.55044715118758e-08,1.02216257681704e-08,-5.28284574364298e-09,1.38864007464854e-07,-4.09288195851739e-09,-4.09288195844229e-09,-6.08067021976434e-08,-5.64409840850709e-08,-1.1724768628259e-07,-2.0002174278674e-08,8.94134571444212e-08,6.94112828657567e-08,2.1779665484275e-07,-1.59078539373037e-07,-1.59078539373e-07,NaN,-2.55727356329947e-07,2.69514170465766e-07,0,0,0
1872.6912,7.31037788036664e-08,-2.36857573062614e-08,4.94180214973315e-08,2.32040258294413e-07,3.90720751000838e-08,3.90720751000472e-08,1.49730528450851e-08,NaN,6.41107938853878e-08,5.2842765086841e-08,3.0800230644183e-09,5.28427650867125e-08,1.53934765083009e-08,-2.27134795383371e-08,-7.32000303005788e-09,8.64695939336236e-08,NaN,4.92092834329884e-08,NaN,-1.36869412990185e-07,-2.8388112892143e-07,-6.04344755339377e-07,4.82497615251783e-07,-1.21847140087523e-07,1.88801773601709e-08,-1.83131276758274e-08,-1.8313127675834e-08,3.39810952493608e-08,-3.3981095249377e-08,-1.12680883044137e-07,-2.25411659529175e-07,-5.98950715830071e-08,NaN,-1.28006356984079e-08,6.94938145555241e-09,-5.85125424279126e-09,1.36675837119689e-07,-3.64818967189798e-09,-3.64818967182228e-09,-5.96267583325106e-08,-6.2822862619998e-08,-1.22449620952389e-07,-7.35541500193243e-09,8.66746872373504e-08,7.93192722354293e-08,2.21384113892386e-07,-1.53993322269225e-07,-1.53993322269188e-07,NaN,-2.72728208538895e-07,2.71693196469799e-07,0,0,0
1872.7936,8.17728375670488e-08,-1.84402257471187e-08,6.33326118198538e-08,2.20934164687894e-07,4.18152674057174e-08,4.18152674056809e-08,1.53543520791792e-08,NaN,7.11533025700606e-08,6.86117352237866e-08,2.00848124704498e-09,6.86117352236578e-08,1.35444455660527e-08,-2.24774875668262e-08,-8.93304200079517e-09,8.8939560507804e-08,NaN,3.91468630689851e-08,NaN,-1.43169164238592e-07,-2.73182302734625e-07,-6.29702757768124e-07,4.90489034473087e-07,-1.39213723294961e-07,1.96528730011013e-08,-1.61227209451799e-08,-1.61227209451848e-08,3.52064873119433e-08,-3.52064873119608e-08,-1.21547525830781e-07,-2.16888603984162e-07,-5.05304258902186e-08,NaN,-1.01360255101222e-08,4.65934843173173e-09,-5.47667707832501e-09,1.34201864693742e-07,-2.48702184546164e-09,-2.48702184538516e-09,-6.48143212763875e-08,-6.47374559320223e-08,-1.29551777208294e-07,3.85396074231889e-09,8.62359163177811e-08,9.00898770601129e-08,2.23535448625249e-07,-1.48952027727679e-07,-1.48952027727643e-07,NaN,-2.9500629725483e-07,2.71461637865867e-07,0,0,0
1872.896,9.00434685949133e-08,-1.20985614181293e-08,7.79449071767038e-08,2.08768363647177e-07,4.51381510948209e-08,4.51381510947848e-08,1.28540777565704e-08,NaN,7.84922755906792e-08,8.60443586269796e-08,-1.27060606409804e-10,8.60443586268499e-08,1.08660717190758e-08,-2.19719997802551e-08,-1.11059280612009e-08,8.91148101020245e-08,NaN,2.73017097962336e-08,NaN,-1.51346790613387e-07,-2.59227946608608e-07,-6.4612566520011e-07,4.91730409056721e-07,-1.54395256143309e-07,2.04966242167883e-08,-1.27885913920342e-08,-1.27885913920375e-08,3.74988306816747e-08,-3.74988306816933e-08,-1.29118364732746e-07,-2.0595805231743e-07,-4.22250308788686e-08,NaN,-7.58271075731078e-09,3.3720508385349e-09,-4.21065991870973e-09,1.31681908358246e-07,-5.65077569283308e-10,-5.65077569205896e-10,-7.57518178405863e-08,-6.20545891057047e-08,-1.37806406946179e-07,1.32906271135126e-08,8.82040938503763e-08,1.01494720963903e-07,2.23707790711172e-07,-1.43906356909092e-07,-1.43906356909058e-07,NaN,-3.20922159758039e-07,2.67952335234668e-07,0,0,0
1872.9984,9.76951272082815e-08,-4.7371873266998e-09,9.29579398814968e-08,1.95997603391688e-07,4.91857884381593e-08,4.91857884381235e-08,7.79152675607227e-09,NaN,8.58348117237523e-08,1.04658545126906e-07,-3.47137308332543e-09,1.04658545126775e-07,7.45391712848231e-09,-2.12010534399332e-08,-1.37471363114722e-08,8.72416286292544e-08,NaN,1.4433501801337e-08,NaN,-1.60667016889128e-07,-2.42114139397326e-07,-6.52516052710937e-07,4.85745986313591e-07,-1.66770066397262e-07,2.14916400908259e-08,-8.26861389085418e-09,-8.26861389085605e-09,4.04853514245568e-08,-4.04853514245765e-08,-1.3508853007618e-07,-1.94020577441992e-07,-3.51703159713142e-08,NaN,-5.20262336288993e-09,3.05213215992682e-09,-2.15049120289708e-09,1.29326976254002e-07,2.11112749579716e-09,2.1111274958754e-09,-9.1325793670031e-08,-5.49333902693176e-08,-1.46259183939239e-07,2.07067727659276e-08,9.24645143371455e-08,1.13171287103088e-07,2.21476783223816e-07,-1.38825631237202e-07,-1.38825631237171e-07,NaN,-3.48278205111347e-07,2.60556601351562e-07,0,1,0
1873.1008,1.04457168819547e-07,3.4370231149366e-09,1.07894191934394e-07,1.83226211906196e-07,5.4028303638415e-08,5.40283036383795e-08,6.5925407472943e-10,NaN,9.29019516269331e-08,1.23829580179495e-07,-8.09369261619782e-09,1.23829580179362e-07,3.50753508403693e-09,-2.01825753147848e-08,-1.66750402307688e-08,8.37536840249128e-08,NaN,1.45534744219438e-09,NaN,-1.70156373905007e-07,-2.22234824469954e-07,-6.48054364437313e-07,4.7229195704962e-07,-1.75762407387606e-07,2.26968252131137e-08,-2.61808880291017e-09,-2.61808880291095e-09,4.37329907022778e-08,-4.37329907022983e-08,-1.39137483726372e-07,-1.82646224321848e-07,-2.95356791975598e-08,NaN,-3.05482753176877e-09,3.61574544645792e-09,5.60917914754241e-10,1.27301730783024e-07,5.47943076891505e-09,5.47943076899442e-09,-1.10077981006539e-07,-4.38167616438742e-08,-1.53894742650305e-07,2.59456352185634e-08,9.87015614934525e-08,1.24647196712032e-07,2.16668351123146e-07,-1.33715424196175e-07,-1.33715424196146e-07,NaN,-3.74663007895471e-07,2.48996069321831e-07,0,1,0
1873.2032,1.10069572260611e-07,1.21097057822649e-08,1.22179278042783e-07,1.71122264017764e-07,5.9660310018017e-08,5.96603100179816e-08,-7.97891301971577e-09,NaN,9.94735463673179e-08,1.42867317773066e-07,-1.39573128331564e-08,1.4286731777293e-07,-6.96650651463645e-10,-1.89443036739468e-08,-1.96409543254308e-08,7.91764504227534e-08,NaN,-1.07019931926071e-08,NaN,-1.78867681648428e-07,-2.00239781040271e-07,-6.32401073660669e-07,4.51448927027595e-07,-1.80952146632985e-07,2.41396693147226e-08,4.01877509004404e-09,4.01877509004412e-09,4.68022802004951e-08,-4.68022802005161e-08,-1.40979732965192e-07,-1.7330617452002e-07,-2.54590897806964e-08,NaN,-1.203929535486e-09,4.9408053836407e-09,3.73687584821784e-09,1.25718722677997e-07,9.42085387786522e-09,9.42085387794588e-09,-1.30435424212527e-07,-2.93740215554338e-08,-1.59809445767852e-07,2.89554634904936e-08,1.06447608027583e-07,1.35403071518092e-07,2.09434489815061e-07,-1.28620324910774e-07,-1.28620324910747e-07,NaN,-3.97860536585582e-07,2.33355784590085e-07,0,1,0
1873.3056,1.14371465744687e-07,2.08998390983082e-08,1.35271304842899e-07,1.60292273694356e-07,6.60057339389736e-08,6.60057339389381e-08,-1.75753032321216e-08,NaN,1.05421372965078e-07,1.61114873350968e-07,-2.08945241460284e-08,1.6111487335083e-07,-4.84165508138875e-09,-1.75220210372605e-08,-2.23636761186688e-08,7.40138896678176e-08,NaN,-2.12271813310303e-08,NaN,-1.8611847758468e-07,-1.76980531096136e-07,-6.05984976713259e-07,4.23794092810792e-07,-1.82190883902378e-07,2.58108957891195e-08,1.14220158641844e-08,1.14220158641846e-08,4.92901883530256e-08,-4.92901883530469e-08,-1.40442306645778e-07,-1.67104190065304e-07,-2.30187811691625e-08,NaN,2.78313453386811e-10,6.87379424685275e-09,7.15210770030002e-09,1.2463393375974e-07,1.37614188523907e-08,1.37614188524724e-08,-1.50969599626546e-07,-1.23880356332161e-08,-1.63357635259651e-07,2.98057946005297e-08,1.15145871265528e-07,1.44951665866073e-07,2.00257185219445e-07,-1.23614997993239e-07,-1.23614997993214e-07,NaN,-4.16178266745364e-07,2.14101998110071e-07,0,0,0
1873.408,1.17371756951579e-07,2.94017290094746e-08,1.46773485960955e-07,1.51161790808146e-07,7.29167752835932e-08,7.29167752835577e-08,-2.76473379384457e-08,NaN,1.10716502829182e-07,1.78016780347322e-07,-2.85959022841885e-08,1.78016780347181e-07,-8.60427137621733e-09,-1.59597803604873e-08,-2.45640517367232e-08,6.86489960335212e-08,NaN,-2.95252140964819e-08,NaN,-1.91608111267291e-07,-1.53478749959704e-07,-5.70249414843741e-07,3.90566566592461e-07,-1.79682848251191e-07,2.76599612530311e-08,1.93078421066446e-08,1.93078421066444e-08,5.08572706313382e-08,-5.08572706313597e-08,-1.3753964477965e-07,-1.64591072108042e-07,-2.21966109896912e-08,NaN,1.32089674087259e-09,9.23407681757614e-09,1.05549735585059e-08,1.24038877126188e-07,1.82772915675863e-08,1.82772915676689e-08,-1.70610935821336e-07,6.3864426341047e-09,-1.64224493187118e-07,2.86895780718127e-08,1.24214851342171e-07,1.52904429413998e-07,1.89897651894799e-07,-1.18791835386748e-07,-1.18791835386726e-07,NaN,-4.28606724757497e-07,1.92095462572615e-07,0,0,0
1873.5104,1.19258135577788e-07,3.72190468390525e-08,1.56477182416739e-07,1.43912855648027e-07,8.01679163262165e-08,8.01679163261809e-08,-3.77933164016751e-08,NaN,1.15412447095666e-07,1.93131099581838e-07,-3.66241518747068e-08,1.93131099581695e-07,-1.16802017235083e-08,-1.43090123503911e-08,-2.59892140739168e-08,6.32957554425162e-08,NaN,-3.52512953414123e-08,NaN,-1.95381217214716e-07,-1.30907234371802e-07,-5.27690126889693e-07,3.53688309898557e-07,-1.74001816991048e-07,2.9591967809697e-08,2.73424198745635e-08,2.73424198745625e-08,5.12396102994748e-08,-5.12396102994962e-08,-1.32511951398755e-07,-1.65706661544964e-07,-2.28545872830635e-08,NaN,1.87020069524141e-09,1.18225268544303e-08,1.3692727549725e-08,1.23854291195916e-07,2.27067365082982e-08,2.27067365083818e-08,-1.88762283803499e-07,2.63509726473397e-08,-1.62411311156042e-07,2.59064418910554e-08,1.33103036459663e-07,1.59009478350731e-07,1.79323574944875e-07,-1.14257023429098e-07,-1.14257023429078e-07,NaN,-4.34826044220049e-07,1.6858515475907e-07,0,0,0
1873.6128,1.20338426331361e-07,4.39943722228376e-08,1.64332798554096e-07,1.38502514191921e-07,8.74597693175594e-08,8.74597693175233e-08,-4.77025831887905e-08,NaN,1.1961295128468e-07,2.061002564874e-07,-4.44570167893835e-08,2.06100256487254e-07,-1.38043965474807e-08,-1.26247818373979e-08,-2.64291783848948e-08,5.80210538312666e-08,NaN,-3.82841697826166e-08,NaN,-1.97679482085771e-07,-1.10528826746629e-07,-4.8157619961247e-07,3.15553209511716e-07,-1.66022990100668e-07,3.14707348464352e-08,3.51649392137485e-08,3.51649392137464e-08,5.02508780815591e-08,-5.02508780815803e-08,-1.25808073872698e-07,-1.69842594869594e-07,-2.47441708979356e-08,NaN,1.90886159531593e-09,1.44384372190176e-08,1.6347298814383e-08,1.23935461116632e-07,2.67729003180858e-08,2.67729003181703e-08,-2.05292507574703e-07,4.71343143711154e-08,-1.58158193203467e-07,2.18342291287807e-08,1.41325797279818e-07,1.63160026408611e-07,1.69631630578119e-07,-1.10136012010027e-07,-1.10136012010009e-07,NaN,-4.35115041241614e-07,1.45142668565447e-07,0,0,0
1873.7152,1.20951936100576e-07,4.94429620091515e-08,1.70394898109624e-07,1.34735674526452e-07,9.44469349985632e-08,9.44469349985263e-08,-5.71757008756711e-08,NaN,1.23429841449064e-07,2.16613529845795e-07,-5.15530112939371e-08,2.16613529845647e-07,-1.47798915752105e-08,-1.09616955084339e-08,-2.57415870836596e-08,5.28131939983575e-08,NaN,-3.86625927785935e-08,NaN,-1.9877137273458e-07,-9.35504979853866e-08,-4.35391141788898e-07,2.78625466273139e-07,-1.56765675515674e-07,3.31297111177929e-08,4.24232106824588e-08,4.24232106824554e-08,4.77811317841124e-08,-4.77811317841334e-08,-1.1802160449828e-07,-1.75992112445036e-07,-2.75455280752372e-08,NaN,1.4661035303134e-09,1.69010397832474e-08,1.83671433136067e-08,1.24093776760006e-07,3.02169139554023e-08,3.02169139554875e-08,-2.20425947032592e-07,6.85787136522109e-08,-1.51847233380257e-07,1.68959438813082e-08,1.4848400197818e-07,1.65379945859499e-07,1.61957478030798e-07,-1.06573987722879e-07,-1.06573987722862e-07,NaN,-4.30209639693421e-07,1.23503807192887e-07,0,0,0
1873.8176,1.21397145424777e-07,5.33934160175532e-08,1.74790561442225e-07,1.32336709605827e-07,1.00787626374509e-07,1.00787626374471e-07,-6.61441449796981e-08,NaN,1.26933170764219e-07,2.24382624628246e-07,-5.74262869489825e-08,2.24382624628097e-07,-1.45237104829669e-08,-9.37336528908573e-09,-2.38970757720669e-08,4.7653522198807e-08,NaN,-3.65168765043478e-08,NaN,-1.98833971050184e-07,-8.09109551424989e-08,-3.92176012422646e-07,2.44989863623951e-07,-1.47186148798613e-07,3.43880393424946e-08,4.88166324277108e-08,4.88166324277061e-08,4.37936278383313e-08,-4.37936278383521e-08,-1.09807908057942e-07,-1.82948846901268e-07,-3.09125485148264e-08,NaN,6.12739061050067e-10,1.90688686502596e-08,1.96816077113525e-08,1.24128091783654e-07,3.28353324070817e-08,3.28353324071674e-08,-2.34568073760393e-07,9.06523980540593e-08,-1.43915675706208e-07,1.15283279084851e-08,1.54270114465426e-07,1.65798442373921e-07,1.5736144660427e-07,-1.03719728704329e-07,-1.03719728704314e-07,NaN,-4.21144873028013e-07,1.05328859920902e-07,0,0,0
1873.92,1.21892341711963e-07,5.58269727226766e-08,1.77719314434535e-07,1.30986336019713e-07,1.06198107979856e-07,1.06198107979817e-07,-7.46666538537378e-08,NaN,1.30102560831072e-07,2.291343159528e-07,-6.17151473143496e-08,2.2913431595265e-07,-1.31214335276935e-08,-7.91556427174198e-09,-2.10369977994492e-08,4.25664356972986e-08,NaN,-3.20180648731298e-08,NaN,-1.97899290498072e-07,-7.30737451259898e-08,-3.54004745103985e-07,2.16008554963268e-07,-1.37996190140637e-07,3.50690846945835e-08,5.41354739301103e-08,5.41354739301045e-08,3.83142460738159e-08,-3.83142460738367e-08,-1.01803985487368e-07,-1.89526987105736e-07,-3.45013619992603e-08,NaN,-5.56649837833025e-10,2.08537251558119e-08,2.02970753180196e-08,1.23852120273865e-07,3.45139006668649e-08,3.4513900666951e-08,-2.48127983623209e-07,1.13341372710188e-07,-1.34786610912895e-07,6.16210082670016e-09,1.58467273484704e-07,1.64629374311413e-07,1.56691786614713e-07,-1.01697076606835e-07,-1.0169707660682e-07,NaN,-4.09085351302354e-07,9.19426551914709e-08,0,0,0
1874.0224,1.22554225804687e-07,5.68997696232788e-08,1.79453995427863e-07,1.30332414766095e-07,1.10492797022146e-07,1.10492797022106e-07,-8.28883242063618e-08,NaN,1.327981931393e-07,2.30619394114677e-07,-6.42295266390847e-08,2.30619394114527e-07,-1.08652320809884e-08,-6.64870629301422e-09,-1.75139383740162e-08,3.7644529910745e-08,NaN,-2.53539129427481e-08,NaN,-1.95841986601561e-07,-6.99078184919301e-08,-3.21746386036475e-07,1.9217943593506e-07,-1.29566950101337e-07,3.50186504102956e-08,5.82849999472007e-08,5.82849999471939e-08,3.14113613636874e-08,-3.14113613637084e-08,-9.45566815149176e-08,-1.94781985640958e-07,-3.79763813663968e-08,NaN,-1.94444355226205e-09,2.22297043969291e-08,2.02852608447069e-08,1.23105010443025e-07,3.52503339968864e-08,3.52503339969726e-08,-2.61406563265671e-07,1.3658633211049e-07,-1.24820231155057e-07,1.21746188217567e-09,1.60944077946712e-07,1.62161539828896e-07,1.60444863553152e-07,-1.00575670508286e-07,-1.00575670508272e-07,NaN,-3.95132453788489e-07,8.41308209360915e-08,0,0,0
1874.1248,1.23376451038358e-07,5.69333611531302e-08,1.80309812191387e-07,1.30003153359469e-07,1.13597881733464e-07,1.13597881733423e-07,-9.09727035249308e-08,NaN,1.34767536619815e-07,2.28638385542941e-07,-6.49662254362912e-08,2.28638385542791e-07,-8.24981812632511e-09,-5.63565434429487e-09,-1.38854724706338e-08,3.30548903442795e-08,NaN,-1.67328823938441e-08,NaN,-1.9239897572127e-07,-7.06983745860391e-08,-2.9512808234246e-07,1.73199972782606e-07,-1.21928109559778e-07,3.41191138415449e-08,6.12873785620707e-08,6.12873785620634e-08,2.31764724608518e-08,-2.31764724608734e-08,-8.84616744326172e-08,-1.9819375884186e-07,-4.10044006451363e-08,NaN,-3.46280062240213e-09,2.32361241378158e-08,1.97733235154539e-08,1.21743434932199e-07,3.51606461874311e-08,3.51606461875175e-08,-2.74584206244748e-07,1.60290507835128e-07,-1.142936984095e-07,-2.89819239568676e-09,1.61647622121923e-07,1.58749429726245e-07,1.68659796284668e-07,-1.0034913814999e-07,-1.00349138149975e-07,NaN,-3.80131507691149e-07,8.20415582375619e-08,0,0,0
1874.2272,1.24209854213333e-07,5.63679882682276e-08,1.8057784248146e-07,1.29641053962526e-07,1.15538229612361e-07,1.1553822961232e-07,-9.90357863827514e-08,NaN,1.35689604930382e-07,2.23080986080488e-07,-6.4088963478611e-08,2.2308098608034e-07,-5.92009158348812e-09,-4.93567398946817e-09,-1.08557655729706e-08,2.90390337859848e-08,NaN,-6.40835117357168e-09,NaN,-1.87226293860837e-07,-7.426786867491e-08,-2.73005728511922e-07,1.58164537766903e-07,-1.14841190744943e-07,3.22992850517678e-08,6.32618010169294e-08,6.3261801016922e-08,1.37224824185446e-08,-1.37224824185672e-08,-8.37247131430279e-08,-1.99757030167032e-07,-4.32552632807265e-08,NaN,-5.03474037163917e-09,2.39695575505031e-08,1.89348171789056e-08,1.1963080572124e-07,3.44665455126097e-08,3.44665455126963e-08,-2.87772244367561e-07,1.84358475176066e-07,-1.0341376919138e-07,-5.80402645733963e-09,1.60596469073806e-07,1.54792442616477e-07,1.80889935475203e-07,-1.00926218237878e-07,-1.00926218237862e-07,NaN,-3.64542213312175e-07,8.51974703860601e-08,0,1,0
1874.3296,1.24763269303739e-07,5.56853596749873e-08,1.80448628978628e-07,1.28952401910593e-07,1.16406546075763e-07,1.16406546075721e-07,-1.07105586935159e-07,NaN,1.35242390476433e-07,2.13968777771402e-07,-6.18794394187638e-08,2.13968777771256e-07,-4.58176968790458e-09,-4.59779219783135e-09,-9.17956188575105e-09,2.59079267581584e-08,NaN,5.29054693487835e-09,NaN,-1.79986205901374e-07,-7.9155546710426e-08,-2.53735856904739e-07,1.45815137826617e-07,-1.07920719078047e-07,2.95453917138067e-08,6.43892027977702e-08,6.43892027977629e-08,3.20646234629689e-09,-3.20646234632093e-09,-8.03576970129076e-08,-1.99941354474698e-07,-4.4419820256733e-08,NaN,-6.58810340626179e-09,2.45624267726862e-08,1.79743233664686e-08,1.16644768817686e-07,3.34642002648791e-08,3.34642002649659e-08,-3.01053765482547e-07,2.08696899707071e-07,-9.23568657753683e-08,-7.16817978498238e-09,1.57872324551128e-07,1.50704144766157e-07,1.96268808862486e-07,-1.02137995818848e-07,-1.02137995818832e-07,NaN,-3.48420175155548e-07,9.25969216009078e-08,0,1,0
1874.432,1.24642356597329e-07,5.53169892366716e-08,1.79959345833903e-07,1.27751395403682e-07,1.16324887828596e-07,1.16324887828553e-07,-1.15109207086768e-07,NaN,1.33171529696818e-07,2.0149028031333e-07,-5.86705453597081e-08,2.01490280313186e-07,-4.88764949858323e-09,-4.65438939454584e-09,-9.54203889314514e-09,2.40078411118173e-08,NaN,1.7929763319964e-08,NaN,-1.70438762242757e-07,-8.38218881570512e-08,-2.3558992689751e-07,1.34813257641131e-07,-1.00776669256304e-07,2.59172187324657e-08,6.48698228826212e-08,6.48698228826145e-08,-8.13585709116213e-09,8.13585709113625e-09,-7.82080848286824e-08,-1.99530926638225e-07,-4.42395392951968e-08,NaN,-8.04879406488386e-09,2.5153384755085e-08,1.71045906902486e-08,1.12707151819678e-07,3.24774246075254e-08,3.24774246076125e-08,-3.14466192685502e-07,2.33142272683614e-07,-8.13239200017903e-08,-6.7292765989581e-09,1.53609856079328e-07,1.46880579480383e-07,2.13647384044374e-07,-1.03756277909035e-07,-1.03756277909018e-07,NaN,-3.31501230533682e-07,1.02886828125683e-07,0,1,0
1874.5344,1.23427510001402e-07,5.55607760469431e-08,1.78988286048249e-07,1.25977962037125e-07,1.15409066536942e-07,1.15409066536898e-07,-1.22875768915591e-07,NaN,1.29345239177115e-07,1.86025937250244e-07,-5.47777958420827e-08,1.86025937250103e-07,-7.31527267945599e-09,-5.11476960982179e-09,-1.24300422892948e-08,2.36357524275796e-08,NaN,3.09471137943535e-08,NaN,-1.5851037249468e-07,-8.68601849710426e-08,-2.17167497807178e-07,1.24016556039897e-07,-9.31509417672051e-08,2.15630667409404e-08,6.48836956233238e-08,6.48836956233176e-08,-1.9966914266704e-08,1.9966914266676e-08,-7.70053228732955e-08,-1.99400563956267e-07,-4.25349153014164e-08,NaN,-9.33709360200111e-09,2.5859252835024e-08,1.65221592330744e-08,1.07818514024631e-07,3.18042091167472e-08,3.18042091168347e-08,-3.27934641104388e-07,2.57348468163522e-07,-7.0586172940778e-08,-4.31515004387763e-09,1.47987952278636e-07,1.43672802234773e-07,2.31757430943629e-07,-1.05511367549423e-07,-1.05511367549405e-07,NaN,-3.1333997494716e-07,1.14583077607883e-07,0,0,0
1874.6368,1.20771917980508e-07,5.65330537502352e-08,1.77304971730648e-07,1.23678859989389e-07,1.13748462824657e-07,1.1374846282461e-07,-1.30153080541827e-07,NaN,1.23790670490267e-07,1.68161917408663e-07,-5.04507765629213e-08,1.68161917408525e-07,-1.20664363986166e-08,-5.96047358314894e-09,-1.80269099817835e-08,2.4927062126379e-08,NaN,4.36496605719281e-08,NaN,-1.44327708528415e-07,-8.7177080264865e-08,-1.97714246985059e-07,1.12698567277831e-07,-8.50156797071523e-08,1.67184625269254e-08,6.45660855116625e-08,6.45660855116567e-08,-3.18508703900085e-08,3.18508703899782e-08,-7.64070075470896e-08,-2.00302779555427e-07,-3.92270993509538e-08,NaN,-1.03687573778217e-08,2.67563579638968e-08,1.63876005861309e-08,1.02075941637029e-07,3.16717820229793e-08,3.16717820230674e-08,-3.41206298421615e-07,2.80715725493962e-07,-6.04905729275765e-08,1.34006445884637e-10,1.41227605794039e-07,1.4136161223994e-07,2.49362144240954e-07,-1.07102367095342e-07,-1.07102367095323e-07,NaN,-2.93455939605495e-07,1.2628744737425e-07,0,0,0
1874.7392,1.16487074806299e-07,5.81753974015733e-08,1.74662472207778e-07,1.20960734311942e-07,1.11407402306976e-07,1.11407402306928e-07,-1.36653209279538e-07,NaN,1.16706003511674e-07,1.48681689911609e-07,-4.5861055529386e-08,1.48681689911474e-07,-1.90225750100983e-08,-7.14352170217511e-09,-2.61660967122925e-08,2.77796744726286e-08,NaN,5.52561579779146e-08,NaN,-1.28220835629824e-07,-8.40916915663508e-08,-1.77227878299046e-07,1.00627884699435e-07,-7.65999935995352e-08,1.16806752603744e-08,6.40046672050608e-08,6.40046672050556e-08,-4.32855221009985e-08,4.32855221009657e-08,-7.60380535298726e-08,-2.02722776447338e-07,-3.43534472473959e-08,NaN,-1.1060843477589e-08,2.78751967572427e-08,1.68143532797139e-08,9.56678458629564e-08,3.22134940251699e-08,3.22134940252587e-08,-3.53837077594253e-07,3.02425909102515e-07,-5.14111684916718e-08,6.52928379848889e-09,1.33600219259527e-07,1.40129503058034e-07,2.65371064882512e-07,-1.08205304207182e-07,-1.08205304207163e-07,NaN,-2.71465675786189e-07,1.36844065882213e-07,0,0,0
1874.8416,1.10585179350713e-07,6.03114227805723e-08,1.70896602131191e-07,1.17940092155429e-07,1.08440875551217e-07,1.08440875551168e-07,-1.42136745284524e-07,NaN,1.0843952050623e-07,1.28524413806546e-07,-4.11241535140299e-08,1.28524413806414e-07,-2.77681177167598e-08,-8.58541391910788e-09,-3.63535316358876e-08,3.18670178504708e-08,NaN,6.49927595578566e-08,NaN,-1.10698366588957e-07,-7.73400658093134e-08,-1.56325244914702e-07,8.79874994744557e-08,-6.83377454401705e-08,6.77116391755842e-09,6.32543035252783e-08,6.32543035252734e-08,-5.37576082358835e-08,5.37576082358481e-08,-7.55260561822212e-08,-2.06816745204316e-07,-2.80727442205726e-08,NaN,-1.1341804615903e-08,2.92099605977763e-08,1.78681559819376e-08,8.88547013591453e-08,3.34706744581377e-08,3.34706744582272e-08,-3.65238238475492e-07,3.21571662109299e-07,-4.36665763661377e-08,1.45931541151585e-08,1.25440708270853e-07,1.40033862386031e-07,2.7891174672379e-07,-1.08490005249565e-07,-1.08490005249546e-07,NaN,-2.47188272206534e-07,1.45412598509921e-07,0,0,0
1874.944,1.03267974892235e-07,6.27274688800776e-08,1.65995443772218e-07,1.14709579480135e-07,1.04910575449538e-07,1.04910575449487e-07,-1.46513604300256e-07,NaN,9.94338055285994e-08,1.08713613926191e-07,-3.63366650106015e-08,1.08713613926061e-07,-3.76640495002149e-08,-1.01736365127928e-08,-4.78376860130282e-08,3.67276682853187e-08,NaN,7.22153564096033e-08,NaN,-9.23895842995102e-08,-6.7021200704897e-08,-1.35977618770566e-07,7.52087217710364e-08,-6.07688969994534e-08,2.30821948165796e-09,6.23586536554229e-08,6.23586536554183e-08,-6.28147110356785e-08,6.28147110356407e-08,-7.45361741837644e-08,-2.12416302442054e-07,-2.06532108670936e-08,NaN,-1.11673651928768e-08,3.07427263767073e-08,1.95753611838989e-08,8.19448726871532e-08,3.54129267667534e-08,3.54129267668435e-08,-3.74743659021294e-07,3.37303002714844e-07,-3.74406563064035e-08,2.3852939101487e-08,1.17144304051004e-07,1.40997243152511e-07,2.89366432992559e-07,-1.07648131478145e-07,-1.07648131478126e-07,NaN,-2.20689180375387e-07,1.51466160300189e-07,0,0,0
1875.0464,9.48772514236383e-08,6.52468364141822e-08,1.60124087837726e-07,1.11320662847083e-07,1.00890559970224e-07,1.00890559970173e-07,-1.49905873690916e-07,NaN,9.01452630959334e-08,9.02701313337645e-08,-3.16060822445353e-08,9.02701313336362e-08,-4.79403796038859e-08,-1.17561878858762e-08,-5.96965674897833e-08,4.18613437251368e-08,NaN,7.65106885313051e-08,NaN,-7.3962024339562e-08,-5.35249327107795e-08,-1.17259074327914e-07,6.28218755542328e-08,-5.44371987736066e-08,-1.40240719102177e-09,6.13679381647688e-08,6.13679381647644e-08,-7.01395055536018e-08,7.01395055535617e-08,-7.28021629924763e-08,-2.19077370727818e-07,-1.24440942100914e-08,NaN,-1.05421265550514e-08,3.24763861590018e-08,2.19342596040223e-08,7.52638436617057e-08,3.79648111267166e-08,3.79648111268074e-08,-3.81664932345845e-07,3.48925023051389e-07,-3.27399092944168e-08,3.36976612818187e-08,1.09127526562434e-07,1.42825187844274e-07,2.96390763297471e-07,-1.05421653901037e-07,-1.05421653901017e-07,NaN,-1.922216941563e-07,1.54728615169721e-07,0,0,0
1875.1488,8.58362562404434e-08,6.77747628843778e-08,1.53611019124726e-07,1.07773608254284e-07,9.64602065113457e-08,9.64602065112929e-08,-1.52615440499625e-07,NaN,8.09596321224371e-08,7.41280985493388e-08,-2.70598734872394e-08,7.4128098549212e-08,-5.77837184200175e-08,-1.31410360040644e-08,-7.09247544241034e-08,4.67675735339486e-08,NaN,7.77365661567517e-08,NaN,-5.60515220815057e-08,-3.74458742436186e-08,-1.01173332305028e-07,5.13695632844035e-08,-4.9803769020551e-08,-4.07470718460515e-09,6.03455299264574e-08,6.03455299264526e-08,-7.56008722680422e-08,7.5600872268e-08,-7.01478879505421e-08,-2.26155985139158e-07,-3.83933524288217e-09,NaN,-9.53866891204338e-09,3.4461212340781e-08,2.49225434288126e-08,6.91103994457539e-08,4.10253358706333e-08,4.10253358707246e-08,-3.85345971571014e-07,3.55935898665559e-07,-2.9410072905422e-08,4.34841717430794e-08,1.01760521300804e-07,1.45244693043906e-07,2.99925500011131e-07,-1.01620590825575e-07,-1.01620590825555e-07,NaN,-1.6208840957569e-07,1.55077674595547e-07,0,0,0
1875.2512,7.66048120287176e-08,7.03050269245424e-08,1.46909838953164e-07,1.04008148687877e-07,9.1692010967602e-08,9.16920109675481e-08,-1.54986400541525e-07,NaN,7.212953155947e-08,6.10769420203024e-08,-2.28385124702129e-08,6.10769420201767e-08,-6.64090598156532e-08,-1.4108812375477e-08,-8.05178721911518e-08,5.09232975360386e-08,NaN,7.59937600407888e-08,NaN,-3.92419470607234e-08,-1.94692954278658e-08,-8.85340969996176e-08,4.13593424681163e-08,-4.71747545314295e-08,-5.46780791000682e-09,5.93623790040269e-08,5.93623790040212e-08,-7.92586308238539e-08,7.92586308238101e-08,-6.64977455102364e-08,-2.32892204307351e-07,4.75601853815019e-09,NaN,-8.30053262838169e-09,3.67987510678114e-08,2.84982184395071e-08,6.37028562631293e-08,4.44722973998847e-08,4.44722973999764e-08,-3.85244695491819e-07,3.58031993192167e-07,-2.72127022996217e-08,5.26472954783269e-08,9.53006020925526e-08,1.47947897570901e-07,3.00197340509331e-07,-9.61322467342128e-08,-9.61322467341921e-08,NaN,-1.30519011119801e-07,1.52464011608146e-07,0,0,0
1875.3536,6.76519671145263e-08,7.28948561006268e-08,1.40546823215057e-07,9.98948622947711e-08,8.66474182136629e-08,8.66474182136082e-08,-1.57223779300442e-07,NaN,6.37552452701039e-08,5.174548988018e-08,-1.90910038920336e-08,5.17454898800549e-08,-7.31109787861437e-08,-1.44402425699386e-08,-8.75512213561038e-08,5.37514454625111e-08,NaN,7.15583553285541e-08,NaN,-2.40965467979481e-08,-2.41191957063626e-10,-7.98529974365285e-08,3.32142685000212e-08,-4.66387289364372e-08,-5.43037243967344e-09,5.8484714388129e-08,5.84847143881223e-08,-8.13202236573218e-08,8.13202236572766e-08,-6.1876519379269e-08,-2.38493810810579e-07,1.29494813558854e-08,NaN,-7.01946671020929e-09,3.96174534358484e-08,3.25979867257183e-08,5.91329403318635e-08,4.81549855321017e-08,4.81549855321938e-08,-3.81046730517924e-07,3.55111808967921e-07,-2.59349215499743e-08,6.07762885440178e-08,8.98526354042452e-08,1.50628923948285e-07,2.97694667451656e-07,-8.89363109851294e-08,-8.8936310985108e-08,NaN,-9.76574208799491e-08,1.46898522615746e-07,0,0,0
1875.456,5.94371736755078e-08,7.56237628513611e-08,1.35060936526773e-07,9.52367647166777e-08,8.13898257306706e-08,8.13898257306153e-08,-1.59256889788876e-07,NaN,5.58158615450889e-08,4.6622661429197e-08,-1.59847933583789e-08,4.66226614290723e-08,-7.72949089387828e-08,-1.3952170600017e-08,-9.12470795388211e-08,5.46358765955254e-08,NaN,6.48155473773876e-08,NaN,-1.12128208184916e-08,1.97329747302912e-08,-7.52198460462639e-08,2.72048504317161e-08,-4.80149956144797e-08,-3.94359012156259e-09,5.77614512201138e-08,5.7761451220106e-08,-8.20698253792696e-08,8.20698253792232e-08,-5.63981113328435e-08,-2.42227739696866e-07,2.03745983411078e-08,NaN,-5.8872718042514e-09,4.30265109470212e-08,3.713923914285e-08,5.53496689940226e-08,5.18869039515284e-08,5.18869039516205e-08,-3.72790054656517e-07,3.47295864194135e-07,-2.54941904623537e-08,6.7645453157695e-08,8.5361932304886e-08,1.53007385462602e-07,2.93107157885392e-07,-8.01391239524482e-08,-8.0139123952426e-08,NaN,-6.3680559286762e-08,1.38518123977573e-07,0,1,0
1875.5584,5.23910422614562e-08,7.85533738238887e-08,1.3094441608525e-07,8.97936454747836e-08,7.60125726812077e-08,7.60125726811517e-08,-1.60701106654435e-07,NaN,4.8238431855996e-08,4.60879930467866e-08,-1.37206749414831e-08,4.60879930466626e-08,-7.84993287024236e-08,-1.25323313304437e-08,-9.10316600328881e-08,5.29910497565688e-08,NaN,5.62177722537924e-08,NaN,-1.26897291740928e-09,4.01232304829425e-08,-7.41979860316165e-08,2.33774640787953e-08,-5.08205219527554e-08,-1.13932964055905e-09,5.72152171352172e-08,5.72152171352085e-08,-8.1796239440233e-08,8.17962394401856e-08,-5.02438553251964e-08,-2.43516742671178e-07,2.66947835518486e-08,NaN,-5.03715165396663e-09,4.70629173146322e-08,4.20257656607462e-08,5.21838976282601e-08,5.54492904252654e-08,5.54492904253573e-08,-3.6095186372107e-07,3.34947539356427e-07,-2.60043243646134e-08,7.32052894065937e-08,8.16321901625777e-08,1.54837479569192e-07,2.87232346509172e-07,-7.00231979073154e-08,-7.00231979072924e-08,NaN,-2.89875688497794e-08,1.27676887409552e-07,0,1,0
1875.6608,4.68893791065879e-08,8.17036446178178e-08,1.28593023724312e-07,8.33298808944266e-08,7.06672957421147e-08,7.06672957420582e-08,-1.60928828146312e-07,NaN,4.09724651347207e-08,5.04180073851552e-08,-1.25308826665771e-08,5.04180073850317e-08,-7.64234344984336e-08,-1.01614942447668e-08,-8.65849287432207e-08,4.8351714780129e-08,NaN,4.62641373893385e-08,NaN,4.96468518419395e-09,6.07459769966439e-08,-7.57806804040961e-08,2.150921872743e-08,-5.42714616766025e-08,2.71665091541759e-09,5.68399059951921e-08,5.68399059951819e-08,-8.07392111562207e-08,8.07392111561725e-08,-4.36332150794665e-08,-2.42018104461837e-07,3.15972669881926e-08,NaN,-4.50236201422337e-09,5.1653339825062e-08,4.71509778109192e-08,4.94035244104917e-08,5.86099021222928e-08,5.86099021223844e-08,-3.46424168288493e-07,3.18650540680627e-07,-2.7773627607835e-08,7.75470287916896e-08,7.83624912352529e-08,1.55909520026963e-07,2.80867798967145e-07,-5.90845881149682e-08,-5.90845881149446e-08,NaN,5.66310763593219e-09,1.14979301852452e-07,0,1,0
1875.7632,4.32165920024287e-08,8.50526545838412e-08,1.28269246586176e-07,7.56721308173208e-08,6.5571757881486e-08,6.55717578814291e-08,-1.59233952449953e-07,NaN,3.40301968856084e-08,5.97452683442221e-08,-1.26463545853902e-08,5.9745268344099e-08,-7.09619358720006e-08,-6.91398806215566e-09,-7.78759239341759e-08,4.0445851269043e-08,NaN,3.54845775645953e-08,NaN,6.67603354428412e-09,8.15016074561438e-08,-7.84540317204633e-08,2.11147566119522e-08,-5.73392751084495e-08,7.2696197375601e-09,5.66061563844839e-08,5.66061563844727e-08,-7.90637686458446e-08,7.90637686457956e-08,-3.67900286776867e-08,-2.37667245955816e-07,3.47870761880273e-08,NaN,-4.21507613776379e-09,5.66102975057786e-08,5.23952213680949e-08,4.67757259109729e-08,6.11541267219447e-08,6.11541267220359e-08,-3.30333350012731e-07,2.99114252015075e-07,-3.12190979976234e-08,8.08539832948903e-08,7.52017538299092e-08,1.56055737124819e-07,2.74717737727133e-07,-4.80234483914466e-08,-4.80234483914222e-08,NaN,3.91865611189176e-08,1.01213238311354e-07,0,0,0
1875.8656,4.15264417377281e-08,8.85534090401018e-08,1.30079850777737e-07,6.6761393017592e-08,6.09843134319046e-08,6.09843134318473e-08,-1.55044368518956e-07,NaN,2.74719843512164e-08,7.39703163771585e-08,-1.42374328757358e-08,7.39703163770352e-08,-6.22305824166362e-08,-2.93703518342676e-09,-6.51676176000821e-08,2.92322833071534e-08,NaN,2.44147832434317e-08,NaN,3.14761192748463e-09,1.02304030483197e-07,-8.03815616051096e-08,2.15122167404665e-08,-5.88693448645825e-08,1.21301582244761e-08,5.64713169466193e-08,5.64713169466071e-08,-7.68621948079453e-08,7.68621948078956e-08,-2.99100108269064e-08,-2.30681037505216e-07,3.59959650060503e-08,NaN,-4.04602939467284e-09,6.16658890833991e-08,5.76198596888054e-08,4.4113912482857e-08,6.29178848008283e-08,6.29178848009193e-08,-3.13752169418253e-07,2.77041542541996e-07,-3.67106268762224e-08,8.3349648436361e-08,7.18147231560408e-08,1.55164371592421e-07,2.69342426010339e-07,-3.76713030072923e-08,-3.76713030072677e-08,NaN,7.04012747362343e-08,8.72113039883753e-08,0,0,0
1875.968,4.18213231632965e-08,9.21532797206984e-08,1.33974602883901e-07,5.66890743515759e-08,5.71515152586306e-08,5.71515152585733e-08,-1.48108598831513e-07,NaN,2.13487764417717e-08,9.2650678461027e-08,-1.73463519269817e-08,9.26506784609029e-08,-5.05647634148091e-08,1.57963509523111e-09,-4.89851283195964e-08,1.48990520642766e-08,NaN,1.35624122215766e-08,NaN,-6.02482771214463e-09,1.23009913937958e-07,-7.96732817655416e-08,2.19291803209834e-08,-5.77441014444979e-08,1.69177185726599e-08,5.63870947488951e-08,5.63870947488823e-08,-7.41762329384733e-08,7.4176232938423e-08,-2.31379118503336e-08,-2.2151609683358e-07,3.50039681908395e-08,NaN,-3.86626402348154e-09,6.65267789265748e-08,6.26605149031711e-08,4.12983177189698e-08,6.38087161769007e-08,6.38087161769916e-08,-2.97428561094129e-07,2.53038962087343e-07,-4.43895990067513e-08,8.52471801502784e-08,6.79453358645757e-08,1.53192516014873e-07,2.65160641601227e-07,-2.88672060253768e-08,-2.88672060253522e-08,NaN,9.83695362145473e-08,7.36986895292671e-08,0,0,0
1876.0704,4.39619372105624e-08,9.58041128305965e-08,1.39766050041064e-07,4.57086990782405e-08,5.42498670000786e-08,5.42498670000214e-08,-1.38590424427719e-07,NaN,1.56364393577837e-08,1.14910265638169e-07,-2.1834660994186e-08,1.14910265638044e-07,-3.64889094361082e-08,6.42997475935993e-09,-3.00589346767662e-08,-2.16520914666043e-09,NaN,3.38256490437098e-09,NaN,-2.07021319957869e-08,1.43349812220036e-07,-7.46621388289415e-08,2.16073499735438e-08,-5.30547888553368e-08,2.12846978589233e-08,5.63014316337529e-08,5.63014316337398e-08,-7.10293497271513e-08,7.10293497271003e-08,-1.65584048646187e-08,-2.107966081046e-07,3.16571821580794e-08,NaN,-3.6071301707435e-09,7.09277920155814e-08,6.73206618449143e-08,3.8274234832997e-08,6.38083924809731e-08,6.38083924810641e-08,-2.81639438659268e-07,2.27616934061978e-07,-5.40225045972548e-08,8.67041110376457e-08,6.34627470692133e-08,1.50166858106878e-07,2.62488358490576e-07,-2.23170107123909e-08,-2.23170107123665e-08,NaN,1.22697511364734e-07,6.11720205760462e-08,0,0,0
1876.1728,4.76949484761465e-08,9.94573396660313e-08,1.47152288142081e-07,3.42180375312953e-08,5.23443497471243e-08,5.2344349747067e-08,-1.27054039752805e-07,NaN,1.02011525005339e-08,1.39420737334379e-07,-2.73676501268906e-08,1.39420737334251e-07,-2.06648051321599e-08,1.14070092501925e-08,-9.25779588198505e-09,-2.13978246160922e-08,NaN,-5.71437605713304e-09,NaN,-4.00822609040317e-08,1.62868748461533e-07,-6.41041371459415e-08,1.9862643574618e-08,-4.42414935712612e-08,2.49267291776678e-08,5.61576792357194e-08,5.61576792357066e-08,-6.74560544000706e-08,6.74560544000188e-08,-1.01983779428536e-08,-1.99253929964504e-07,2.58767452842723e-08,NaN,-3.29689480931503e-09,7.4668519727087e-08,7.1371624917847e-08,3.50452816883994e-08,6.29613630827047e-08,6.29613630827961e-08,-2.66195350958974e-07,2.01250533386864e-07,-6.49448175720752e-08,8.77871291810656e-08,5.83840642783151e-08,1.46171193459399e-07,2.61581099875461e-07,-1.84765739746756e-08,-1.84765739746517e-08,NaN,1.43648687478952e-07,4.98382018572386e-08,0,0,0
1876.2752,5.26804449487196e-08,1.03046120538714e-07,1.55726565487335e-07,2.27181654537228e-08,5.13797047031609e-08,5.13797047031038e-08,-1.14370869998604e-07,NaN,4.82048129230346e-09,1.64490383022333e-07,-3.34499592418098e-08,1.64490383022203e-07,-3.82591812946757e-09,1.63092423010261e-08,1.24833241715411e-08,-4.20613871644879e-08,NaN,-1.33185792567202e-08,NaN,-6.27721723427699e-08,1.80896719676905e-07,-4.72457409451747e-08,1.60831018580526e-08,-3.11626390870583e-08,2.75903430283726e-08,5.58967926594775e-08,5.58967926594647e-08,-6.35139969752336e-08,6.3513996975181e-08,-4.0391809029447e-09,-1.87701852286741e-07,1.7668588066745e-08,NaN,-3.05895949520178e-09,7.76265661582646e-08,7.45676066631361e-08,3.16792230616651e-08,6.13580848399191e-08,6.13580848400111e-08,-2.50548315666032e-07,1.74431299280434e-07,-7.61170163855647e-08,8.84493370365648e-08,5.28756799460511e-08,1.41325016982634e-07,2.62653441401699e-07,-1.74881580179364e-08,-1.74881580179131e-08,NaN,1.62012204452686e-07,3.96239173965921e-08,0,0,0
1876.3776,5.85159031070849e-08,1.06465985668099e-07,1.64981888775083e-07,1.17670321277476e-08,5.12075231554384e-08,5.12075231553813e-08,-1.01590830641459e-07,NaN,-7.47999593499141e-10,1.88258219024191e-07,-3.95070155350926e-08,1.88258219024059e-07,1.32936085204134e-08,2.0943795717011e-08,3.42374042374071e-08,-6.32259457726886e-08,NaN,-1.89692429914467e-08,NaN,-8.7020771276714e-08,1.96582313213355e-07,-2.37730062521482e-08,9.69718649899341e-09,-1.40758197530886e-08,2.90864299933794e-08,5.54657086458437e-08,5.54657086458315e-08,-5.92738579401771e-08,5.92738579401237e-08,1.9594030959794e-09,-1.77015236266731e-07,7.13830691822379e-09,NaN,-3.07259167192828e-09,7.97492722871714e-08,7.66766806153148e-08,2.83259155988351e-08,5.91205092530362e-08,5.91205092531289e-08,-2.33932351924626e-07,1.47660743707909e-07,-8.62716082166863e-08,8.85249095405541e-08,4.72330988972862e-08,1.35758008437859e-07,2.65869954550137e-07,-1.91796417112676e-08,-1.91796417112451e-08,NaN,1.78810779072748e-07,3.02361465086101e-08,0,0,0
1876.48,6.47620062335188e-08,1.09569563192424e-07,1.7433156942584e-07,1.93987699291516e-09,5.16349530872166e-08,5.16349530871595e-08,-8.98054187265535e-08,NaN,-6.68972667333776e-09,2.08952235217169e-07,-4.49861562096439e-08,2.08952235217034e-07,3.00214372295951e-08,2.5132521330485e-08,5.51539585600627e-08,-8.37806757888595e-08,NaN,-2.21427050616095e-08,NaN,-1.11012666937083e-07,2.09007890935462e-07,6.2673352342192e-09,1.81949037998819e-10,6.44928427228682e-09,2.93125373446382e-08,5.48301825656639e-08,5.4830182565652e-08,-5.47981083084685e-08,5.47981083084141e-08,7.82571760746643e-09,-1.68057335693911e-07,-5.49712292654462e-09,NaN,-3.51537662381181e-09,8.10341120951853e-08,7.75187354714438e-08,2.52268585044974e-08,5.63928416088929e-08,5.63928416089865e-08,-2.15494530084598e-07,1.21385979334696e-07,-9.4108550749875e-08,8.77545410112123e-08,4.18335296932101e-08,1.29588070704441e-07,2.71321609176524e-07,-2.31204599090409e-08,-2.31204599090191e-08,NaN,1.95012322475409e-07,2.12414276775839e-08,0,0,0
1876.5824,7.09709074121549e-08,1.12183067956619e-07,1.8315397536867e-07,-6.2084922147691e-09,5.24710874386461e-08,5.24710874385888e-08,-8.00190833385012e-08,NaN,-1.30874948387673e-08,2.25144650852658e-07,-4.94469396497026e-08,2.25144650852522e-07,4.57891865022988e-08,2.87245681173817e-08,7.45137546196628e-08,-1.02515664605697e-07,NaN,-2.23116807514688e-08,NaN,-1.33128632134329e-07,2.17353610032423e-07,4.2487893248548e-08,-1.28472950185885e-08,2.96405982300307e-08,2.82795226708567e-08,5.39862882977704e-08,5.39862882977589e-08,-5.01255546884019e-08,5.01255546883465e-08,1.35439858211329e-08,-1.61543898481894e-07,-1.99103311167149e-08,NaN,-4.51230930465255e-09,8.1511424492289e-08,7.69991151877055e-08,2.26951319503265e-08,5.33358296199801e-08,5.33358296200745e-08,-1.94422810332895e-07,9.59277846408873e-08,-9.84950256919855e-08,8.5850833379154e-08,3.70612866355407e-08,1.22912120014712e-07,2.79006304580439e-07,-2.87142380036681e-08,-2.8714238003647e-08,NaN,2.11357397672668e-07,1.21485880106298e-08,0,0,0
1876.6848,7.67134745253266e-08,1.14138777119995e-07,1.90852251645216e-07,-1.21941619811524e-08,5.35547768392409e-08,5.35547768391832e-08,-7.30430028415036e-08,NaN,-1.99169818762668e-08,2.35935304507493e-07,-5.26209316302544e-08,2.35935304507357e-07,6.0150946737669e-08,3.16124568080801e-08,9.17634035457311e-08,-1.18270625469577e-07,NaN,-1.9067658529376e-08,NaN,-1.52116872484672e-07,2.21042537959969e-07,8.41151846474086e-08,-2.94991888359885e-08,5.4615995811493e-08,2.61297511676715e-08,5.29650973763241e-08,5.29650973763127e-08,-4.52707257210504e-08,4.52707257209939e-08,1.90371450124854e-08,-1.57894707195645e-07,-3.56783051093269e-08,NaN,-6.10780173759418e-09,8.12379102891077e-08,7.51301085515812e-08,2.10619236199244e-08,5.01198853524715e-08,5.01198853525666e-08,-1.70095138731459e-07,7.14659371101478e-08,-9.86292016212942e-08,8.25903348950862e-08,3.32238158844445e-08,1.15814150779548e-07,2.88820461462557e-07,-3.5296131434535e-08,-3.52961314345146e-08,NaN,2.28307838857582e-07,2.49366421720346e-09,1,0,0
1876.7872,8.16025995550776e-08,1.15310115584864e-07,1.96912715139836e-07,-1.56746754781503e-08,5.47642635664364e-08,5.47642635663781e-08,-6.94166292415811e-08,NaN,-2.70652456332199e-08,2.41027608326521e-07,-5.4435920219206e-08,2.41027608326384e-07,7.27831730841211e-08,3.37437975075477e-08,1.0652697059165e-07,-1.30107632599773e-07,NaN,-1.22612944242141e-08,NaN,-1.67167469452935e-07,2.19827989641871e-07,1.29943260979217e-07,-4.95019800850765e-08,8.04412808942142e-08,2.31286154644316e-08,5.18298182089203e-08,5.18298182089084e-08,-4.02383537093744e-08,4.02383537093168e-08,2.41736712069742e-08,-1.5714283670868e-07,-5.2303386891846e-08,NaN,-8.26251176313464e-09,8.0299814446511e-08,7.20373026834427e-08,2.0600390018879e-08,4.691323050807e-08,4.69132305081656e-08,-1.4224216407669e-07,4.81015570401379e-08,-9.414060703654e-08,7.78976227136835e-08,3.0488206029994e-08,1.08385828743694e-07,3.0055424155728e-07,-4.22058703348401e-08,-4.22058703348202e-08,NaN,2.4605426967616e-07,-8.07761948529607e-09,1,0,0
1876.8896,8.5307931420854e-08,1.15636884543022e-07,2.0094481596377e-07,-1.65279038867561e-08,5.60175051935509e-08,5.6017505193492e-08,-6.93538694874865e-08,NaN,-3.43516948279305e-08,2.40703870217886e-07,-5.50115364261028e-08,2.40703870217749e-07,8.34753844560466e-08,3.51229188940721e-08,1.18598303350099e-07,-1.37448345546897e-07,NaN,-2.09987105794826e-09,NaN,-1.77919220792077e-07,2.1383271289882e-07,1.78358352263287e-07,-7.21981220484364e-08,1.06160230214924e-07,1.96174369981253e-08,5.06683430415107e-08,5.06683430414981e-08,-3.5049805047812e-08,3.50498050477533e-08,2.8797800890465e-08,-1.5893881471833e-07,-6.92332947126379e-08,NaN,-1.08651363302035e-08,7.88183460528145e-08,6.79532097226757e-08,2.14434465247278e-08,4.3864907147978e-08,4.38649071480738e-08,-1.11070544359929e-07,2.59536265032146e-08,-8.51169178567076e-08,7.18842531300297e-08,2.88601718266528e-08,1.00744424956697e-07,3.13883019856172e-07,-4.88279986306924e-08,-4.8827998630673e-08,NaN,2.64526352205911e-07,-1.97429227445081e-08,1,0,0
1876.992,8.75574094424739e-08,1.15133269948616e-07,2.02690679390986e-07,-1.49056281353252e-08,5.72693813270904e-08,5.72693813270305e-08,-7.27178827991498e-08,NaN,-4.15472365293712e-08,2.35718976881745e-07,-5.4634270799318e-08,2.35718976881609e-07,9.21183348234585e-08,3.58024797734276e-08,1.27920814596866e-07,-1.40124247072323e-07,NaN,1.08488189856464e-08,NaN,-1.84420951651212e-07,2.0355192575161e-07,2.27468143677781e-07,-9.66486017551399e-08,1.30819541922713e-07,1.59389281047933e-08,4.9583444370345e-08,4.95834443703311e-08,-2.97749631398062e-08,2.97749631397465e-08,3.27746719843673e-08,-1.62641751643262e-07,-8.58864290407982e-08,NaN,-1.3748330134069e-08,7.69497322820709e-08,6.32014021480647e-08,2.35211742052576e-08,4.10871059521709e-08,4.10871059522667e-08,-7.72785473665598e-08,5.22422176469841e-09,-7.20543256018603e-08,6.48249972647577e-08,2.82065278312073e-08,9.30315250959784e-08,3.2836377338376e-07,-5.46112258139288e-08,-5.46112258139097e-08,NaN,2.83420759794977e-07,-3.24782481889569e-08,0,0,0
1877.0944,8.81306362247593e-08,1.13876368819755e-07,2.02007005044413e-07,-1.12224219802356e-08,5.85080114244045e-08,5.85080114243437e-08,-7.90369847064453e-08,NaN,-4.83986731327707e-08,2.27126768367592e-07,-5.37107130691466e-08,2.27126768367457e-07,9.86896468027726e-08,3.5867523912104e-08,1.34557170714856e-07,-1.38323862508867e-07,NaN,2.57634571293766e-08,NaN,-1.87050563685798e-07,1.89807362987488e-07,2.7533459041852e-07,-1.21814905612395e-07,1.53519684806197e-07,1.23652272553786e-08,4.86805796206828e-08,4.86805796206673e-08,-2.45555848898182e-08,2.45555848897577e-08,3.60392082291764e-08,-1.67463139352783e-07,-1.01696506027082e-07,NaN,-1.67065742125941e-08,7.48753453030176e-08,5.81687710904845e-08,2.65479362989983e-08,3.86433059036152e-08,3.86433059037108e-08,-4.1923289351693e-08,-1.38153981924499e-08,-5.5738687544147e-08,5.70844233763988e-08,2.83056340630186e-08,8.53900574394291e-08,3.43457991897751e-07,-5.9081831170513e-08,-5.9081831170494e-08,NaN,3.02304115056445e-07,-4.61047776787828e-08,0,0,0
1877.1968,8.68581997298513e-08,1.11977972825019e-07,1.98836172554771e-07,-6.07277428777091e-09,5.97515734505218e-08,5.97515734504601e-08,-8.75641940693374e-08,NaN,-5.46580092499786e-08,2.16070781328469e-07,-5.26978962534797e-08,2.16070781328336e-07,1.0323306645589e-07,3.54138270513861e-08,1.38646893507255e-07,-1.32465926542214e-07,NaN,4.17552719947607e-08,NaN,-1.86418968112577e-07,1.7364193430444e-07,3.20275784506042e-07,-1.46773740621463e-07,1.73502043884649e-07,9.04879889222504e-09,4.80524544350228e-08,4.80524544350052e-08,-1.96024228146031e-08,1.96024228145418e-08,3.86335785797148e-08,-1.72619926123247e-07,-1.16169772580296e-07,NaN,-1.95184443766554e-08,7.27806550111704e-08,5.32622106345738e-08,3.00683891047987e-08,3.65455714203419e-08,3.65455714204372e-08,-6.16854422534512e-09,-3.09234012403418e-08,-3.70919454656964e-08,4.90280267783429e-08,2.89030847404012e-08,7.79311115187539e-08,3.5859299289299e-07,-6.18544725392758e-08,-6.18544725392572e-08,NaN,3.20759091960136e-07,-6.04011590723815e-08,0,0,0
1877.2992,8.36376633966948e-08,1.09549312686058e-07,1.93186976082656e-07,-1.22920473382582e-10,6.10468996190625e-08,6.10468996189997e-08,-9.73671261736389e-08,NaN,-6.01019362673145e-08,2.03600115349234e-07,-5.20249856777411e-08,2.03600115349104e-07,1.05827816633527e-07,3.45234499143447e-08,1.4035126654785e-07,-1.23057046092198e-07,NaN,5.80562209054253e-08,NaN,-1.83308910734417e-07,1.56179729247996e-07,3.61142429595079e-07,-1.70911628004885e-07,1.90230801590262e-07,5.99472211601339e-09,4.77613679124808e-08,4.77613679124614e-08,-1.51598971677161e-08,1.51598971676543e-08,4.0712337859486e-08,-1.77457242831423e-07,-1.28920089019787e-07,NaN,-2.19714942273289e-08,7.08267108325361e-08,4.88552166052636e-08,3.35392484968832e-08,3.47603685138033e-08,3.47603685138983e-08,2.8981851599277e-08,-4.60211326999016e-08,-1.70392811006392e-08,4.09524118837174e-08,2.97512051727175e-08,7.07036170564424e-08,3.732419310496e-07,-6.2635092403328e-08,-6.26350924033102e-08,NaN,3.38430764696842e-07,-7.52238747559241e-08,0,0,0
1877.4016,7.84683938160502e-08,1.06674538110645e-07,1.851429319266e-07,5.9606338748936e-09,6.24697824687565e-08,6.24697824686927e-08,-1.07430695489274e-07,NaN,-6.45311767582764e-08,1.90564269886522e-07,-5.20284736825013e-08,1.90564269886393e-07,1.06549732115412e-07,3.32429304596291e-08,1.39792662575019e-07,-1.10596630170501e-07,NaN,7.41257671345222e-08,NaN,-1.78650935973607e-07,1.38508571416028e-07,3.97446467080097e-07,-1.94036071530534e-07,2.03410395549629e-07,3.05026055650599e-09,4.78240763132942e-08,4.78240763132728e-08,-1.14529071852858e-08,1.14529071852234e-08,4.25045031537679e-08,-1.81518463672756e-07,-1.39656950926949e-07,NaN,-2.38853444501318e-08,6.91237297675987e-08,4.52383853175211e-08,3.64145133812042e-08,3.32220329685633e-08,3.3222032968658e-08,6.28489238664311e-08,-5.92838742291217e-08,3.56504963728971e-09,3.30541499367255e-08,3.06263120948048e-08,6.36804620315358e-08,3.86972455724111e-07,-6.12135711226388e-08,-6.12135711226221e-08,NaN,3.5490813092386e-07,-9.05783149796196e-08,0,0,0
1877.504,7.14994898882414e-08,1.03406702478547e-07,1.74906192366695e-07,1.15261852733874e-08,6.41233754795721e-08,6.41233754795073e-08,-1.16754806181574e-07,NaN,-6.77627624581995e-08,1.77592340060664e-07,-5.29120655579023e-08,1.77592340060538e-07,1.05435443048524e-07,3.15712628509194e-08,1.37006705899421e-07,-9.55650345583954e-08,NaN,8.96401326480479e-08,NaN,-1.73481476779872e-07,1.21629522500865e-07,4.29288562868816e-07,-2.16351632195043e-07,2.12936930673836e-07,-7.95390017448813e-11,4.82058263567155e-08,4.8205826356692e-08,-8.64148977604936e-09,8.64148977598625e-09,4.4246003810641e-08,-1.84562074386479e-07,-1.48142285244203e-07,NaN,-2.51315268716422e-08,6.77176089363526e-08,4.25860820647623e-08,3.82163474098078e-08,3.18528157205112e-08,3.18528157206059e-08,9.50921709165294e-08,-7.11350934389283e-08,2.39570774775763e-08,2.54385983405867e-08,3.1338138233403e-08,5.67767365739931e-08,3.99421125989709e-07,-5.74517791446756e-08,-5.74517791446601e-08,NaN,3.69569160932526e-07,-1.06629278630558e-07,0,0,0
1877.6064,6.3071745331762e-08,9.97886079948227e-08,1.62860353326492e-07,1.59255775163033e-08,6.61277101016121e-08,6.61277101015463e-08,-1.2443165678202e-07,NaN,-6.96397796788218e-08,1.65120034265846e-07,-5.47309071375394e-08,1.6512003426572e-07,1.0246617634191e-07,2.94650376565923e-08,1.3193121399848e-07,-7.84821926587202e-08,NaN,1.04393299426673e-07,NaN,-1.6885362371147e-07,1.064544764995e-07,4.57141441679505e-07,-2.38298544814033e-07,2.18842896865533e-07,-3.77834590477483e-09,4.88281672573737e-08,4.88281672573483e-08,-6.80223354659104e-09,6.80223354652708e-09,4.61079497296308e-08,-1.86539749699741e-07,-1.54152290957674e-07,NaN,-2.56496850663242e-08,6.65947957251546e-08,4.09451106588801e-08,3.85856790696597e-08,3.0584884432323e-08,3.0584884432418e-08,1.25600582803629e-07,-8.21454300363725e-08,4.34551527672259e-08,1.81569883856581e-08,3.17486237870534e-08,4.99056121727127e-08,4.10206430579022e-07,-5.12786811284142e-08,-5.12786811284008e-08,NaN,3.81554064374394e-07,-1.23665642782943e-07,0,0,0
1877.7088,5.37229792430749e-08,9.5887497933385e-08,1.49610477176366e-07,1.8520648165359e-08,6.85947584621746e-08,6.8594758462108e-08,-1.29704442199952e-07,NaN,-7.00680980813457e-08,1.53419246392766e-07,-5.73985755851846e-08,1.5341924639264e-07,9.75822023017185e-08,2.68638399263522e-08,1.24446042228048e-07,-5.99841903165949e-08,NaN,1.18173435671549e-07,NaN,-1.65721508918696e-07,9.37895298249915e-08,4.81602948680802e-07,-2.60323280512659e-07,2.21279668168204e-07,-8.4307430849581e-09,4.95889636103077e-08,4.95889636102804e-08,-5.93878558264417e-09,5.93878558257914e-09,4.81437261083257e-08,-1.87551858281917e-07,-1.57470207116493e-07,NaN,-2.54565528107421e-08,6.57032225827823e-08,4.02466697720875e-08,3.73078400110066e-08,2.93771955527235e-08,2.93771955528193e-08,1.54335229666264e-07,-9.2883476995361e-08,6.14517526708674e-08,1.12564064181877e-08,3.17989125170507e-08,4.30553189352374e-08,4.18848031962654e-07,-4.27043906953507e-08,-4.27043906953397e-08,NaN,3.89898316808761e-07,-1.42028111045028e-07,0,0,0
1877.8112,4.41359174195971e-08,9.18244780334908e-08,1.35960395452992e-07,1.87358889964304e-08,7.15899727348956e-08,7.15899727348284e-08,-1.32020745947756e-07,NaN,-6.90663512741774e-08,1.42601660596902e-07,-6.07129086358559e-08,1.42601660596775e-07,9.07288136538799e-08,2.3729241688812e-08,1.14458055342669e-07,-4.08587633411601e-08,NaN,1.30672885964451e-07,NaN,-1.64815538414039e-07,8.42769704695354e-08,5.0320982849386e-07,-2.82682726792694e-07,2.20527101701227e-07,-1.43235515475007e-08,5.03842926096003e-08,5.03842926095716e-08,-6.00927162011139e-09,6.00927162004497e-09,5.02742502073925e-08,-1.87787091036614e-07,-1.57922733059744e-07,NaN,-2.46427322058093e-08,6.49809087691537e-08,4.03381765633895e-08,3.43114255365255e-08,2.82216607684736e-08,2.82216607685708e-08,1.81202995506681e-07,-1.03778044373542e-07,7.74249511330964e-08,4.83140067357923e-09,3.15228090184854e-08,3.63542096920613e-08,4.24757000461062e-07,-3.18555280923433e-08,-3.18555280923353e-08,NaN,3.93765395798969e-07,-1.62006763837205e-07,0,0,0
1877.9136,3.50372677891237e-08,8.77810660424904e-08,1.22818333831513e-07,1.61583182345057e-08,7.50889179972173e-08,7.50889179971497e-08,-1.31076940428067e-07,NaN,-6.68045398225162e-08,1.32600598542122e-07,-6.43897132660995e-08,1.32600598541994e-07,8.19254533379181e-08,2.00831882909397e-08,1.02008641628835e-07,-2.20095669451825e-08,NaN,1.41462972490095e-07,NaN,-1.66522789226144e-07,7.83303111411079e-08,5.22338303745441e-07,-3.05332538853513e-07,2.17005764891989e-07,-2.15653856510503e-08,5.11192166040709e-08,5.1119216604041e-08,-6.95249987607963e-09,6.95249987601153e-09,5.23198225296571e-08,-1.87449069769669e-07,-1.55456579599377e-07,NaN,-2.33568098662794e-08,6.43816612363215e-08,4.10248513700849e-08,2.96480520505055e-08,2.71362765412119e-08,2.71362765413112e-08,2.06004601284853e-07,-1.15036246369733e-07,9.09683549150718e-08,-9.29895931615565e-10,3.10233599775673e-08,3.00934640459458e-08,4.27312576665774e-07,-1.90181181468541e-08,-1.90181181468496e-08,NaN,3.92711424218538e-07,-1.83720554218706e-07,0,1,0
1878.016,2.70815616712454e-08,8.39792148958498e-08,1.11060776566988e-07,1.06503239691562e-08,7.89425098615665e-08,7.89425098614985e-08,-1.26836222887878e-07,NaN,-6.36142259650447e-08,1.23156734018248e-07,-6.80933915471354e-08,1.23156734018118e-07,7.13360314473792e-08,1.60322649499568e-08,8.73682963973133e-08,-4.36415227394936e-09,NaN,1.50029370570983e-07,NaN,-1.70816053980041e-07,7.61091208247626e-08,5.3917419705316e-07,-3.27888173001505e-07,2.11286024051716e-07,-3.00439407808035e-08,5.17043726817562e-08,5.17043726817253e-08,-8.69960441577973e-09,8.6996044157097e-09,5.40646934179957e-08,-1.86681730966422e-07,-1.50226392831248e-07,NaN,-2.17835645387024e-08,6.38902342658356e-08,4.21066697271737e-08,2.34668847378652e-08,2.61479855159307e-08,2.61479855160325e-08,2.28449965874076e-07,-1.2663657309433e-07,1.01813392779691e-07,-5.71602018225206e-09,3.04128015932029e-08,2.46967814109424e-08,4.25993220761097e-07,-4.66225450289851e-09,-4.6622545028984e-09,NaN,3.86891862124635e-07,-2.07004101661691e-07,0,1,0
1878.1184,2.07574601094875e-08,8.0647783125388e-08,1.01405243234761e-07,2.41508893040166e-09,8.28652648290168e-08,8.28652648289483e-08,-1.19513654846151e-07,NaN,-5.9967710186277e-08,1.13826715134783e-07,-7.14628440915106e-08,1.13826715134651e-07,5.9305552752305e-08,1.17693652917942e-08,7.10749180440764e-08,1.12291092863733e-08,NaN,1.55837796941364e-07,NaN,-1.77270441241377e-07,7.75463669540985e-08,5.53734697948434e-07,-3.49653355208674e-07,2.04081342739825e-07,-3.94288367480027e-08,5.2048404613021e-08,5.20484046129892e-08,-1.11705222636795e-08,1.11705222636073e-08,5.53242188211067e-08,-1.85513089809604e-07,-1.42652665591464e-07,NaN,-2.01253467110228e-08,6.35240941685486e-08,4.33987474575642e-08,1.59925491226883e-08,2.52738740773798e-08,2.52738740774844e-08,2.48211940635224e-07,-1.38383792995459e-07,1.09828147639704e-07,-9.09484965785797e-09,2.97438791160806e-08,2.06490294582115e-08,4.20506262438653e-07,1.05759799153649e-08,1.05759799153601e-08,NaN,3.77103783591372e-07,-2.31350136349335e-07,0,1,0
1878.2208,1.63387588874349e-08,7.79907781351285e-08,9.43295370224401e-08,-8.0300869344663e-09,8.64574913633255e-08,8.64574913632566e-08,-1.09526829957237e-07,NaN,-5.64292103293882e-08,1.04024748362749e-07,-7.41390924479432e-08,1.04024748362612e-07,4.63375013055278e-08,7.55082867792908e-09,5.3888329983434e-08,2.40755881939184e-08,NaN,1.58405955041512e-07,NaN,-1.85164326069751e-07,8.24027237256256e-08,5.65932403458307e-07,-3.69731818250029e-07,1.96200585208345e-07,-4.92197876740914e-08,5.20586226330147e-08,5.20586226329824e-08,-1.42646135842967e-08,1.42646135842221e-08,5.59902312088466e-08,-1.83837084641177e-07,-1.33416895112397e-07,NaN,-1.85895957610277e-08,6.33222876168322e-08,4.47326918558407e-08,7.50415524045668e-09,2.45092833092129e-08,2.45092833093207e-08,2.64996944619381e-07,-1.49988533523746e-07,1.1500841109557e-07,-1.05565929944525e-08,2.8963974803986e-08,1.84073818095197e-08,4.10865458822908e-07,2.59616605961232e-08,2.59616605961133e-08,NaN,3.64624755236383e-07,-2.5594910879055e-07,0,0,0
1878.3232,1.38789852577323e-08,7.61627806565e-08,9.00417659140999e-08,-1.99618140356373e-08,8.92619376959608e-08,8.92619376958916e-08,-9.74116406560388e-08,NaN,-5.35828737115925e-08,9.3104227452685e-08,-7.58008495286356e-08,9.31042274525448e-08,3.30215127462737e-08,3.65687112032893e-09,3.66783838665799e-08,3.36725122580519e-08,NaN,1.57378941071089e-07,NaN,-1.93635121000321e-07,9.03145556664683e-08,5.75671531291888e-07,-3.8720950679551e-07,1.88462024496447e-07,-5.88298570349285e-08,5.16535781605559e-08,5.16535781605232e-08,-1.78527528788443e-08,1.78527528787672e-08,5.60502371519606e-08,-1.81445481633906e-07,-1.23382047675493e-07,NaN,-1.73767346789338e-08,6.33257125273779e-08,4.59489778484787e-08,-1.69082564838232e-09,2.38250619424362e-08,2.38250619425472e-08,2.78617865995645e-07,-1.61140848547606e-07,1.17477017447968e-07,-9.58848221198271e-09,2.7904409476633e-08,1.8315927264634e-08,3.97394353921961e-07,4.07572079837011e-08,4.0757207983686e-08,NaN,3.50924755952085e-07,-2.79818355995724e-07,0,0,0
1878.4256,1.32318097426644e-08,7.52506247652368e-08,8.84824345077591e-08,-3.25848233404783e-08,9.08395956143445e-08,9.08395956142748e-08,-8.37270916813495e-08,NaN,-5.19501728934681e-08,8.04716224678132e-08,-7.62059004129788e-08,8.04716224676688e-08,1.99504715678588e-08,3.51159056794362e-10,2.03016306246305e-08,3.97254688786896e-08,NaN,1.52602747447888e-07,NaN,-2.01848404460022e-07,1.0082578782374e-07,5.8295156604741e-07,-4.01348053745883e-07,1.81603512301599e-07,-6.76800100425835e-08,5.07809177430649e-08,5.07809177430317e-08,-2.17715062286714e-08,2.17715062285917e-08,5.55885233532246e-08,-1.78104710047268e-07,-1.13456265862685e-07,NaN,-1.66615974818991e-08,6.35578797938612e-08,4.68962823119956e-08,-1.12850940720781e-08,2.31720147225404e-08,2.31720147226546e-08,2.8904740952586e-07,-1.71565054731134e-07,1.17482354794653e-07,-5.7651459199466e-09,2.63008101783298e-08,2.05356642583647e-08,3.80666245702101e-07,5.43116162874832e-08,5.43116162874634e-08,NaN,3.37382242805856e-07,-3.01970220410928e-07,0,0,0
1878.528,1.40795062583517e-08,7.52616577440926e-08,8.93411640022933e-08,-4.51404407605861e-08,9.08394937629511e-08,9.0839493762881e-08,-6.89945207315713e-08,NaN,-5.19149591719043e-08,6.5708649723913e-08,-7.52264477505809e-08,6.57086497237645e-08,7.66125427896904e-09,-2.14752954634592e-09,5.51372473260069e-09,4.21535396969246e-08,NaN,1.44173879488184e-07,NaN,-2.09129907195166e-07,1.13408886051704e-07,5.87930738931099e-07,-4.11717175704276e-07,1.76213563226898e-07,-7.5275420474534e-08,4.94306440695218e-08,4.94306440694878e-08,-2.58214575708176e-08,2.58214575707354e-08,5.47738691228501e-08,-1.73652889003553e-07,-1.04442985275233e-07,NaN,-1.65701381592337e-08,6.40156507934133e-08,4.74455126342127e-08,-2.09888497503353e-08,2.24913785951598e-08,2.24913785952769e-08,2.96428128678904e-07,-1.81048337345338e-07,1.1537979133349e-07,1.16000113290877e-09,2.38372003271071e-08,2.49972014599953e-08,3.61412254680194e-07,6.61114407923963e-08,6.6111440792372e-08,NaN,3.25089342086984e-07,-3.21558590062336e-07,0,0,0
1878.6304,1.59686251092047e-08,7.6121312759955e-08,9.20899378690008e-08,-5.6970639690891e-08,8.90440920468787e-08,8.90440920468081e-08,-5.36936341360488e-08,NaN,-5.36699256511845e-08,4.86839753138878e-08,-7.28664406747245e-08,4.86839753137356e-08,-3.39505500764754e-09,-3.68046718151231e-09,-7.07552218918213e-09,4.10810964189151e-08,NaN,1.32449222621837e-07,NaN,-2.15027275710166e-07,1.27474389182235e-07,5.90919100898315e-07,-4.18229826386752e-07,1.7268927451164e-07,-8.12456442989815e-08,4.7639358384711e-08,4.76393583846762e-08,-2.97762226326346e-08,2.97762226325501e-08,5.38315265930342e-08,-1.68079299579733e-07,-9.69218094052707e-08,NaN,-1.71611119595152e-08,6.46717251344184e-08,4.75106131749365e-08,-3.05282104059511e-08,2.17297567410314e-08,2.17297567411514e-08,3.01030703235152e-07,-1.89436461366105e-07,1.1159424186897e-07,1.11786789210762e-08,2.02079579466267e-08,3.13866368676807e-08,3.40431726159263e-07,7.57837867764258e-08,7.57837867763977e-08,NaN,3.14753265460314e-07,-3.37964063490588e-07,0,0,0
1878.7328,1.83681815906949e-08,7.76830429355931e-08,9.60512245261221e-08,-6.75468815565012e-08,8.53889681810485e-08,8.53889681809772e-08,-3.82934979163818e-08,NaN,-5.7190697988653e-08,2.96468342017814e-08,-6.92583659763536e-08,2.96468342016258e-08,-1.2868479541953e-08,-4.15828812916338e-09,-1.70267676711384e-08,3.68192969498794e-08,NaN,1.18026160060093e-07,NaN,-2.19308376515212e-07,1.42370576967272e-07,5.92324646015245e-07,-4.21098149674681e-07,1.71226496340643e-07,-8.5350788939538e-08,4.54880690161981e-08,4.54880690161626e-08,-3.34036445007573e-08,3.34036445006707e-08,5.29977971033727e-08,-1.61552432597187e-07,-9.11856294893313e-08,NaN,-1.84215685787798e-08,6.54812599572383e-08,4.70596913784927e-08,-3.96355184465708e-08,2.08533376931235e-08,2.08533376932461e-08,3.0317341706969e-07,-1.9660169714021e-07,1.06571719929402e-07,2.39867315261798e-08,1.51898436327394e-08,3.91765751588957e-08,3.18525940263783e-07,8.30673811570067e-08,8.30673811569756e-08,NaN,3.06669341908308e-07,-3.50817477281819e-07,0,0,0
1878.8352,2.07564222036921e-08,7.97518998445642e-08,1.00508322048085e-07,-7.64825149780335e-08,7.99647725349228e-08,7.9964772534851e-08,-2.32798088923997e-08,NaN,-6.22422506005494e-08,9.27716455273448e-09,-6.46443859691053e-08,9.2771645525758e-09,-2.0528570853009e-08,-3.57030291461689e-09,-2.40988737676478e-08,2.98514162668892e-08,NaN,1.01714884267087e-07,NaN,-2.21922182136569e-07,1.57386009836599e-07,5.92584838150502e-07,-4.20746413396286e-07,1.71838424754297e-07,-8.74690635123764e-08,4.30978504387044e-08,4.30978504386684e-08,-3.64925597943796e-08,3.64925597942911e-08,5.24646722697647e-08,-1.54392225905995e-07,-8.72385483613399e-08,NaN,-2.02777824829841e-08,6.63841955429997e-08,4.6106413060051e-08,-4.80498477621532e-08,1.98548240575369e-08,1.98548240576617e-08,3.03141463686022e-07,-2.02411358335014e-07,1.0073010535093e-07,3.89947081453618e-08,8.70761231005596e-09,4.77023204553932e-08,2.96458701684426e-07,8.77821959448187e-08,8.77821959447855e-08,NaN,3.00753538156603e-07,-3.59985461934203e-07,0,0,0
1878.9376,2.27127136382327e-08,8.21193060567573e-08,1.04832019694814e-07,-8.35417511721983e-08,7.30065708073345e-08,7.30065708072621e-08,-9.15328133493991e-09,NaN,-6.84206589371939e-08,-1.13601149832523e-08,-5.93481314923823e-08,-1.13601149834138e-08,-2.62923424469313e-08,-1.99290411986553e-09,-2.82852465668185e-08,2.08243872102767e-08,NaN,8.45054353349851e-08,NaN,-2.2293859649619e-07,1.71771328537125e-07,5.92089502477965e-07,-4.1770611439714e-07,1.74383388080907e-07,-8.75818117553337e-08,4.06242792953071e-08,4.06242792952703e-08,-3.88777781729607e-08,3.88777781728708e-08,5.23354750736358e-08,-1.47017767755646e-07,-8.48479525751012e-08,NaN,-2.26141466146107e-08,6.73021768868765e-08,4.46880302723028e-08,-5.5536205409698e-08,1.87498512708082e-08,1.87498512709345e-08,3.01159039685765e-07,-2.06730676111898e-07,9.44283635737898e-08,5.53956525329248e-08,8.65813865762195e-10,5.62614663986617e-08,2.74932927701433e-07,8.98245406663944e-08,8.98245406663599e-08,NaN,2.96644075126085e-07,-3.65544582420622e-07,0,0,0
1879.04,2.39770365170606e-08,8.46029835233153e-08,1.08580020040197e-07,-8.86463699905556e-08,6.48725301456208e-08,6.48725301455479e-08,3.60709555370642e-09,NaN,-7.5221961359444e-08,-3.09813266639437e-08,-5.37434800998562e-08,-3.09813266641075e-08,-3.02512801326462e-08,4.08415212536577e-10,-2.98428649201309e-08,1.05254875016086e-08,NaN,6.75052933379318e-08,NaN,-2.22480170458984e-07,1.84794345762383e-07,5.91113215781775e-07,-4.12520257661005e-07,1.78592958120852e-07,-8.57624737649004e-08,3.82477446820226e-08,3.82477446819851e-08,-4.04564037825764e-08,4.04564037824853e-08,5.26151281177339e-08,-1.3990559861069e-07,-8.36405734176453e-08,NaN,-2.52884301569535e-08,6.81359480436149e-08,4.28475178867003e-08,-6.19187526898607e-08,1.75649034086689e-08,1.75649034087965e-08,2.97435929474627e-07,-2.09462588818499e-07,8.79733406560523e-08,7.22795281555563e-08,-8.07513085071041e-09,6.42043973048202e-08,2.54563053589575e-07,8.91983696303439e-08,8.91983696303089e-08,NaN,2.93882017687743e-07,-3.67774381857265e-07,0,0,0
1879.1424,2.4459312507404e-08,8.7084830278752e-08,1.11544142785976e-07,-9.18759269182736e-08,5.60141404833226e-08,5.60141404832489e-08,1.4601302574884e-08,NaN,-8.21184430378466e-08,-4.83177483823313e-08,-4.82249407236575e-08,-4.83177483824966e-08,-3.26813708207658e-08,3.38774218971622e-09,-2.92936286310704e-08,-1.74565531017604e-10,NaN,5.18310388378923e-08,NaN,-2.20667050829811e-07,1.95827470461193e-07,5.89793376242363e-07,-4.05684876773272e-07,1.84108499469171e-07,-8.21659867467824e-08,3.61574215102303e-08,3.61574215101919e-08,-4.11881377812885e-08,4.11881377811967e-08,5.32365607277638e-08,-1.3356144802258e-07,-8.32203784417892e-08,NaN,-2.81394293573347e-08,6.87715573234178e-08,4.0632127966124e-08,-6.71166701317112e-08,1.63231322880747e-08,1.63231322882029e-08,2.92258998604428e-07,-2.10604425727676e-07,8.16545728766788e-08,8.87673758661791e-08,-1.7770654815413e-08,7.09967210507403e-08,2.35834208247075e-07,8.60701201940153e-08,8.60701201939802e-08,NaN,2.92129940555042e-07,-3.67180920686873e-07,0,1,0
1879.2448,2.4210303917232e-08,8.95388129699887e-08,1.13749116887041e-07,-9.34588988428407e-08,4.69381753360914e-08,4.69381753360169e-08,2.35519075535575e-08,NaN,-8.8625160843894e-08,-6.2321880656645e-08,-4.31802295164923e-08,-6.23218806568109e-08,-3.40294778427217e-08,6.6380633313597e-09,-2.73914145113824e-08,-1.04058749586804e-08,NaN,3.84760032141756e-08,NaN,-2.1759015967619e-07,2.04436906793464e-07,5.88159285635183e-07,-3.97632012575941e-07,1.9052727305932e-07,-7.70140254516322e-08,3.45311755524143e-08,3.45311755523752e-08,-4.10794267088139e-08,4.10794267087216e-08,5.40977149370628e-08,-1.28483604349414e-07,-8.32649357695408e-08,NaN,-3.09932629957865e-08,6.91003007198825e-08,3.81070377241389e-08,-7.11711359323398e-08,1.50358904018998e-08,1.50358904020283e-08,2.8608125535723e-07,-2.1031110503591e-07,7.57701503212503e-08,1.0412993485626e-07,-2.78744429292117e-08,7.62554919270229e-08,2.19068959854846e-07,8.08124532982488e-08,8.08124532982138e-08,NaN,2.91329300879246e-07,-3.64512640674198e-07,0,1,0
1879.3472,2.33742950533179e-08,9.20394953849113e-08,1.1541379043805e-07,-9.37518206358699e-08,3.81593339293296e-08,3.81593339292543e-08,3.03109872582606e-08,NaN,-9.4349649406308e-08,-7.22895775811363e-08,-3.89643565014412e-08,-7.22895775813021e-08,-3.48783332569381e-08,9.81775206522157e-09,-2.50605811917364e-08,-1.93896856713372e-08,NaN,2.8197520847933e-08,NaN,-2.1330949407243e-07,2.10431637311994e-07,5.86181445989701e-07,-3.88735185403338e-07,1.97446260586438e-07,-7.05757562581394e-08,3.35160210750752e-08,3.35160210750357e-08,-4.01628676481285e-08,4.01628676480362e-08,5.50859251473615e-08,-1.25112133247059e-07,-8.3557701708968e-08,NaN,-3.36738109190961e-08,6.90479882964411e-08,3.53741773773898e-08,-7.42551595612958e-08,1.37044337432216e-08,1.370443374335e-08,2.79569882651152e-07,-2.08952117129885e-07,7.06177655212014e-08,1.1785996633037e-07,-3.80938802651249e-08,7.97660860652196e-08,2.04430840273287e-07,7.40004480505983e-08,7.40004480505639e-08,NaN,2.91722852240969e-07,-3.60715799772865e-07,0,1,0
1879.4496,2.21358580440502e-08,9.47444824453464e-08,1.16880340489219e-07,-9.32011611369683e-08,3.01479403343707e-08,3.01479403342944e-08,3.48480740397368e-08,NaN,-9.90211331433271e-08,-7.79107303399574e-08,-3.58769266946637e-08,-7.7910730340123e-08,-3.58957019188617e-08,1.25794954189397e-08,-2.33162064999412e-08,-2.65180270186693e-08,NaN,2.14529715701713e-08,NaN,-2.07863550413162e-07,2.1385684729351e-07,5.83818604218099e-07,-3.79321673222668e-07,2.04496930995505e-07,-6.31463075039492e-08,3.32131309549291e-08,3.32131309548893e-08,-3.84858293880733e-08,3.84858293879812e-08,5.60918434822093e-08,-1.23782953017973e-07,-8.39528909378191e-08,NaN,-3.60162755995845e-08,6.85999552309057e-08,3.25836796313677e-08,-7.66614644708963e-08,1.2329966887299e-08,1.23299668874273e-08,2.73588680901348e-07,-2.07128984739921e-07,6.64596961613643e-08,1.29685968980593e-07,-4.82066314780086e-08,8.1479337502559e-08,1.91962672363441e-07,6.63518705299784e-08,6.63518705299447e-08,NaN,2.93766648730764e-07,-3.56827682348348e-07,0,0,0
1879.552,2.06685302974725e-08,9.78529207971119e-08,1.18521451094409e-07,-9.22840347863272e-08,2.32838467544959e-08,2.32838467544189e-08,3.72519408857578e-08,NaN,-1.02495061370821e-07,-7.92934751399714e-08,-3.4145242146645e-08,-7.92934751401357e-08,-3.77718310580474e-08,1.45990519770126e-08,-2.31727790810533e-08,-3.14134786047884e-08,NaN,1.83886198143838e-08,NaN,-2.01271423463954e-07,2.14948063069345e-07,5.81070380253682e-07,-3.69691666539339e-07,2.11378713714413e-07,-5.5024304186929e-08,3.36700056579295e-08,3.36700056578896e-08,-3.61126864931274e-08,3.61126864930357e-08,5.70271001729338e-08,-1.24699097969338e-07,-8.43134935262492e-08,NaN,-3.78801790797651e-08,6.78075065172562e-08,2.99273274375391e-08,-7.87661681517157e-08,1.09255127504384e-08,1.09255127505664e-08,2.69115890668648e-07,-2.05624074483466e-07,6.34918161851234e-08,1.39537171258315e-07,-5.80528644402877e-08,8.14843068180028e-08,1.81627443994242e-07,5.86382448275902e-08,5.86382448275575e-08,NaN,2.9802423967838e-07,-3.53858669283459e-07,0,0,0
1879.6544,1.90903884872914e-08,1.01551338628213e-07,1.2064172711533e-07,-9.14305691396217e-08,1.78264906183507e-08,1.78264906182729e-08,3.77464225488218e-08,NaN,-1.04735198801928e-07,-7.69833828626456e-08,-3.39138141909292e-08,-7.69833828628087e-08,-4.11418250395375e-08,1.56067394085507e-08,-2.55350856310045e-08,-3.39583265250345e-08,NaN,1.88710279652164e-08,NaN,-1.93515478862092e-07,2.14066903826663e-07,5.78046258270009e-07,-3.60146809566064e-07,2.17899448704013e-07,-4.64881169039972e-08,3.48791929569779e-08,3.48791929569379e-08,-3.31328226194508e-08,3.31328226193595e-08,5.78474275280497e-08,-1.27911344062478e-07,-8.44701629593534e-08,NaN,-3.91580599426659e-08,6.67713154506425e-08,2.76132555080258e-08,-8.09689737309674e-08,9.52322414086302e-09,9.52322414099043e-09,2.671249275142e-07,-2.05285533875921e-07,6.18393936382228e-08,1.47481716170981e-07,-6.75255734947646e-08,7.99561426761913e-08,1.73326811265123e-07,5.15995614929832e-08,5.15995614929511e-08,NaN,3.05112024437986e-07,-3.52708175912382e-07,0,0,0
1879.7568,1.74289365661132e-08,1.05962077968978e-07,1.23391014534918e-07,-9.09426387386462e-08,1.39027335574882e-08,1.39027335574096e-08,3.66912690622692e-08,NaN,-1.05784940514577e-07,-7.19476957112162e-08,-3.52385394051747e-08,-7.19476957113773e-08,-4.64891437526857e-08,1.54258575509733e-08,-3.10632862017293e-08,-3.4286561665813e-08,NaN,2.25432153219574e-08,NaN,-1.84518339155839e-07,2.11634187744573e-07,5.75037376978913e-07,-3.51021974520633e-07,2.24015402458346e-07,-3.77730250044706e-08,3.6780003520043e-08,3.67800035200029e-08,-2.96628072293436e-08,2.96628072292527e-08,5.85670005760314e-08,-1.33293690495431e-07,-8.42218949379449e-08,NaN,-3.97781637447379e-08,6.56105759067283e-08,2.58324121620404e-08,-8.36168777831703e-08,8.17425978840615e-09,8.17425978853308e-09,2.68456407471564e-07,-2.06880894156678e-07,6.15755133148329e-08,1.53662510222959e-07,-7.6571352369596e-08,7.70911578533383e-08,1.66899760799381e-07,4.5873894896081e-08,4.58738948960495e-08,NaN,3.15673893812872e-07,-3.54110739309197e-07,0,0,0
1879.8592,1.56080179890262e-08,1.11106769142779e-07,1.26714787131633e-07,-9.09337453712259e-08,1.15071465301149e-08,1.15071465300356e-08,3.45504421332987e-08,NaN,-1.05740668899261e-07,-6.54681270249005e-08,-3.80824954711088e-08,-6.5468127025059e-08,-5.40421892017133e-08,1.40129226051441e-08,-4.00292665965851e-08,-3.27507030029107e-08,NaN,2.88828976861416e-08,NaN,-1.74150534679452e-07,2.08080266756201e-07,5.72564709355548e-07,-3.4271239717594e-07,2.29852312179672e-07,-2.9057964168306e-08,3.9260315024802e-08,3.92603150247618e-08,-2.58378435460016e-08,2.58378435459109e-08,5.92502967599778e-08,-1.40505885444085e-07,-8.33707617024431e-08,NaN,-3.9703169159845e-08,6.44315445563701e-08,2.47283753965756e-08,-8.69294706599769e-08,6.93942564966842e-09,6.93942564979483e-09,2.73694200784465e-07,-2.10955723208257e-07,6.27384775761562e-08,1.582475971475e-07,-8.5193723560725e-08,7.305387358675e-08,1.62118474892824e-07,4.19373638635612e-08,4.19373638635293e-08,NaN,3.30303979239912e-07,-3.58580066442764e-07,0,0,0
1879.9616,1.34791699905594e-08,1.16889411490812e-07,1.303685814812e-07,-9.13121570680621e-08,1.05085249322445e-08,1.05085249321648e-08,3.18369196625774e-08,NaN,-1.0473368092651e-07,-5.89242173016316e-08,-4.23116049843014e-08,-5.89242173017868e-08,-6.36924804140393e-08,1.14835717982734e-08,-5.22089086157808e-08,-2.98801013769691e-08,NaN,3.7248661436061e-08,NaN,-1.62293028404465e-07,2.03829325540894e-07,5.71375403442304e-07,-3.35685807128118e-07,2.35689596314247e-07,-2.04707149684277e-08,4.21573119229369e-08,4.21573119228963e-08,-2.17975153142782e-08,2.17975153141877e-08,5.99842253627628e-08,-1.48956092688212e-07,-8.17709069282614e-08,NaN,-3.89271525463786e-08,6.33039190550863e-08,2.43767665087582e-08,-9.09521299156235e-08,5.86736297363553e-09,5.86736297376146e-09,2.83061769088702e-07,-2.17733568327019e-07,6.53282007616324e-08,1.6139474122619e-07,-9.34364864738509e-08,6.79582547523128e-08,1.58692505573922e-07,4.00532591515694e-08,4.0053259151537e-08,NaN,3.49380852813217e-07,-3.66337187495174e-07,0,0,0
