time,S1-D1,S1-D8,S1-D9,S1-D15,S2-D1,S2-D2,S2-D3,S2-D9,S3-D1,S3-D2,S3-D16,S4-D2,S4-D3,S4-D5,S5-D3,S5-D4,S5-D5,S6-D2,S6-D5,S6-D17,S7-D6,S7-D7,S8-D6,S8-D7,S8-D18,S9-D3,S9-D4,S9-D9,S9-D11,S9-D19,S10-D8,S10-D9,S10-D10,S10-D11,S11-D8,S11-D10,S11-D20,S12-D10,S12-D11,S12-D12,S13-D4,S13-D11,S13-D12,S14-D10,S14-D12,S14-D21,S15-D13,S15-D14,S16-D13,S16-D14,S16-D22,SART_Target,SART_NonTarget,SART_Probe
1268.6336,-3.04388513363667e-08,1.00781507293783e-07,7.03426559572658e-08,-2.86998743854008e-07,9.9578545090588e-08,9.95785450905653e-08,NaN,-7.54755328763657e-07,-1.32472469332822e-06,9.62922257798695e-08,-8.98416615215382e-08,9.6292225779994e-08,1.97240243608313e-07,-2.25957661611939e-08,1.74644477447109e-07,-1.98010651428641e-07,-4.13519036970362e-08,NaN,NaN,-1.57901963416529e-07,-2.18526333798879e-08,7.51047474677064e-06,-5.06183766780568e-06,2.44863707896473e-06,-4.25639080805916e-07,7.07204446350921e-08,7.07204446349378e-08,-2.4755007738689e-08,2.47550077384646e-08,-4.10039256692799e-07,1.04113266977231e-07,-1.90110426702348e-08,NaN,NaN,1.06498708947392e-08,1.10525721405607e-07,-9.55239979638092e-07,-2.12522766653902e-07,-2.12522766653739e-07,NaN,4.71445821672918e-08,2.37540254554955e-07,-1.83172420296706e-07,-6.83736476119884e-08,-2.51546067908615e-07,-5.91827451103147e-07,-3.1716670132505e-08,-3.17166701326267e-08,3.41959894016168e-07,-3.41959894015896e-07,-1.14172793391808e-07,0,1,0
1268.736,-6.73762187192503e-08,1.05224270380779e-07,3.78480516613878e-08,-2.99241505316627e-07,8.34230117683439e-08,8.34230117683265e-08,NaN,-7.09573795917193e-07,-1.20548719886715e-06,9.64642726047793e-08,-8.60350267326478e-08,9.64642726049035e-08,1.9242200438529e-07,-2.40056385016728e-08,1.68416365883605e-07,-1.86285816498085e-07,-5.42840257868165e-08,NaN,NaN,-1.44532792177609e-07,-1.13011076284438e-08,7.69246147050023e-06,-5.26086476699225e-06,2.43159670350799e-06,-4.28452805490941e-07,6.82631095097059e-08,6.82631095095576e-08,-4.31230212014608e-08,4.31230212012382e-08,-4.01582819970868e-07,9.7637137296825e-08,-1.02367026457469e-08,NaN,NaN,9.87448347138559e-09,9.56782795181922e-08,-9.57902456187899e-07,-2.34861097929464e-07,-2.34861097929294e-07,NaN,5.07152810741869e-08,2.20264319714209e-07,-2.01385311400671e-07,-6.74276947345248e-08,-2.68813006135121e-07,-6.38747474981338e-07,-2.52107886440314e-08,-2.52107886441436e-08,3.83110920541151e-07,-3.83110920540877e-07,-1.06739454743385e-07,0,1,0
1268.8384,-1.08009265120957e-07,1.12769755599888e-07,4.7604904787998e-09,-3.18659693029631e-07,6.483171921439e-08,6.48317192143789e-08,NaN,-6.47940843620841e-07,-1.06985527614894e-06,9.6334211894648e-08,-8.16197942898653e-08,9.63342118947721e-08,1.86534029591261e-07,-2.51040293293262e-08,1.61430000261921e-07,-1.75046117084815e-07,-6.72402888444447e-08,NaN,NaN,-1.29908216785584e-07,-8.83642479375406e-10,7.87396895951366e-06,-5.47309218627626e-06,2.40087677323767e-06,-4.32575894766113e-07,6.49617665045083e-08,6.49617665043671e-08,-6.35419212360051e-08,6.35419212357846e-08,-3.92437786654444e-07,9.19682224288049e-08,-7.80740347082108e-10,NaN,NaN,9.22275763186182e-09,8.25096755477347e-08,-9.63364512023245e-07,-2.6016532941369e-07,-2.60165329413511e-07,NaN,5.56903113969474e-08,2.00423948431486e-07,-2.22961267489843e-07,-6.69499756286651e-08,-2.89911243118439e-07,-6.88718704668683e-07,-1.74439191199231e-08,-1.74439191200234e-08,4.25808431157187e-07,-4.25808431156913e-07,-9.96220449964958e-08,0,1,0
1268.9408,-1.50284504790875e-07,1.2484329565116e-07,-2.54412091398347e-08,-3.42299389205362e-07,4.54576669981914e-08,4.54576669981867e-08,NaN,-5.76682872751967e-07,-9.33321291957506e-07,9.58393349609564e-08,-7.72211203463395e-08,9.58393349610803e-08,1.7975631458075e-07,-2.58176369409494e-08,1.53938677639785e-07,-1.64284426374745e-07,-7.96494948369694e-08,NaN,NaN,-1.1465705525245e-07,8.98479988040997e-09,8.03822177761462e-06,-5.68406447428688e-06,2.35415730332828e-06,-4.37782257476946e-07,6.08441928725702e-08,6.08441928724364e-08,-8.55163251290298e-08,8.55163251288118e-08,-3.82782318823308e-07,8.74171280822622e-08,8.92467895788848e-09,NaN,NaN,8.69939249808494e-09,7.1366535169257e-08,-9.70671529283123e-07,-2.87209787178593e-07,-2.87209787178406e-07,NaN,6.19173981735423e-08,1.78707583817829e-07,-2.47139983796232e-07,-6.67933270755074e-08,-3.13933310871677e-07,-7.39869453697835e-07,-8.88202289560689e-09,-8.88202289569392e-09,4.67469925938919e-07,-4.67469925938646e-07,-9.35606104326464e-08,0,0,0
1269.0432,-1.92188311516362e-07,1.42683541286816e-07,-4.95047702296541e-08,-3.67128221421797e-07,2.69922419485088e-08,2.69922419485103e-08,NaN,-5.03189405777251e-07,-8.11555410405283e-07,9.49441015688368e-08,-7.34336554563656e-08,9.49441015689605e-08,1.72204623004054e-07,-2.60813764083293e-08,1.46123246595708e-07,-1.53900247141469e-07,-9.09316772485849e-08,NaN,NaN,-9.94149466610057e-08,1.79385637561506e-08,8.16959965938767e-06,-5.87914303250303e-06,2.29045662688544e-06,-4.43783275306986e-07,5.59861470957438e-08,5.59861470956176e-08,-1.08357522361258e-07,1.08357522361043e-07,-3.72838014153375e-07,8.42117457692901e-08,1.84132703768352e-08,NaN,NaN,8.31687429297824e-09,6.24031292811708e-08,-9.7876071577678e-07,-3.14501631231056e-07,-3.14501631230861e-07,NaN,6.91319903690842e-08,1.55867956427247e-07,-2.7283852395624e-07,-6.68086348010507e-08,-3.39647158757234e-07,-7.89820260288682e-07,5.98065143337576e-11,5.9806514259854e-11,5.05514402454491e-07,-5.05514402454219e-07,-8.91941958359405e-08,0,0,0
1269.1456,-2.32032764399947e-07,1.67129954665277e-07,-6.49028097347671e-08,-3.90347390798567e-07,1.09785023863656e-08,1.09785023863735e-08,NaN,-4.34485879018802e-07,-7.18501656389976e-07,9.36902015788357e-08,-7.07271877972749e-08,9.36902015789594e-08,1.63972943079039e-07,-2.58439417940606e-08,1.3812900128496e-07,-1.43718786961718e-07,-1.00580334687464e-07,NaN,NaN,-8.47728424815571e-08,2.57515229282667e-08,8.25573062372899e-06,-6.04547032117824e-06,2.2102603025518e-06,-4.50287272723056e-07,5.04995417659592e-08,5.04995417658408e-08,-1.31223157897683e-07,1.31223157897471e-07,-3.62889775118434e-07,8.25110079216895e-08,2.72081727154506e-08,NaN,NaN,8.08298410919239e-09,5.55680550886151e-08,-9.86635432173743e-07,-3.40427490804866e-07,-3.40427490804663e-07,NaN,7.69734056604889e-08,1.32705904146767e-07,-2.98747777807529e-07,-6.68740033107826e-08,-3.65621781118261e-07,-8.35742043111595e-07,9.06769619170978e-09,9.06769619164747e-09,5.37566980729558e-07,-5.37566980729287e-07,-8.69341076864084e-08,0,0,0
1269.248,-2.68688826546483e-07,1.98402062797388e-07,-7.02867637491811e-08,-4.09693393866584e-07,-1.37265335265916e-09,-1.37265335264476e-09,NaN,-3.76327654924655e-07,-6.64564460345491e-07,9.22252804675423e-08,-6.9375752867621e-08,9.22252804676654e-08,1.55176064395074e-07,-2.50754123508836e-08,1.30100652044173e-07,-1.33538852859594e-07,-1.08227169422444e-07,NaN,NaN,-7.12393776988833e-08,3.23945542176556e-08,8.28935922292468e-06,-6.17373480860258e-06,2.11562441432336e-06,-4.57038406204958e-07,4.4515241580299e-08,4.45152415801874e-08,-1.53183732284831e-07,1.53183732284622e-07,-3.53262193641204e-07,8.24314268953971e-08,3.4853697022583e-08,NaN,NaN,7.97905974620996e-09,5.06164794184846e-08,-9.93476413426355e-07,-3.63430557249171e-07,-3.63430557248961e-07,NaN,8.50126520768638e-08,1.1004779344272e-07,-3.23456614693263e-07,-6.6916305279859e-08,-3.90372919973077e-07,-8.74583148548103e-07,1.79630366321815e-08,1.79630366321298e-08,5.61646167072239e-07,-5.61646167071967e-07,-8.69155983757716e-08,0,0,0
1269.3504,-3.01722648174095e-07,2.35904297338988e-07,-6.58183508351837e-08,-4.2368119314761e-07,-9.34774578670958e-09,-9.34774578668978e-09,NaN,-3.32385621145902e-07,-6.54997740660052e-07,9.07994470008787e-08,-6.94221932690511e-08,9.07994470010016e-08,1.45969953118363e-07,-2.37768883480018e-08,1.22193064770343e-07,-1.23191308967545e-07,-1.13683389315268e-07,NaN,NaN,-5.92044386669194e-08,3.80444279782975e-08,8.26986581402933e-06,-6.25949391107817e-06,2.0103719029526e-06,-4.63814747575216e-07,3.81641384128203e-08,3.81641384127151e-08,-1.73330913894126e-07,1.73330913893919e-07,-3.4424039930027e-07,8.40632658056726e-08,4.09630758945388e-08,NaN,NaN,7.94025945006967e-09,4.71470326274729e-08,-9.98654444862061e-07,-3.82200917221563e-07,-3.82200917221347e-07,NaN,9.27887448298595e-08,8.87079529780321e-08,-3.45587709761105e-07,-6.69278519000049e-08,-4.12515561661069e-07,-9.03508446835485e-07,2.67183493471216e-08,2.67183493470785e-08,5.7633390169584e-07,-5.76333901695567e-07,-8.90509250488496e-08,0,0,0
1269.4528,-3.31420598190278e-07,2.78132538157846e-07,-5.32880600324997e-08,-4.31737702564339e-07,-1.28358632789869e-08,-1.28358632789626e-08,NaN,-3.03713100569957e-07,-6.8889051492506e-07,8.97353589411637e-08,-7.06811601450155e-08,8.97353589412863e-08,1.36546578591647e-07,-2.19868784958641e-08,1.14559700095765e-07,-1.12589434031664e-07,-1.16952418755502e-07,NaN,NaN,-4.89042839856743e-08,4.30461416426567e-08,8.20394166259004e-06,-6.30376333674951e-06,1.9001783258421e-06,-4.70393570819598e-07,3.15625091947949e-08,3.15625091946955e-08,-1.90907032404538e-07,1.90907032404332e-07,-3.35972246881383e-07,8.74657521478715e-08,4.52704305923767e-08,NaN,NaN,7.85114210471595e-09,4.46661012330236e-08,-1.00166841428118e-06,-3.95824141090958e-07,-3.95824141090737e-07,NaN,9.9849026694862e-08,6.94455965024128e-08,-3.63927830588076e-07,-6.69754393968113e-08,-4.3090326998485e-07,-9.20425430074133e-07,3.54402716869375e-08,3.54402716869006e-08,5.80905877654376e-07,-5.80905877654099e-07,-9.31651039327628e-08,0,0,0
1269.5552,-3.58698417891832e-07,3.22749508594438e-07,-3.59489092974554e-08,-4.34193524683283e-07,-1.23329241303274e-08,-1.23329241302989e-08,NaN,-2.88710365251395e-07,-7.59207341242888e-07,8.93807592196889e-08,-7.27810885446775e-08,8.93807592198112e-08,1.27105232570068e-07,-1.97785114550643e-08,1.07326721114989e-07,-1.01761894043436e-07,-1.18209231597772e-07,NaN,NaN,-4.03965815446712e-08,4.7836437368715e-08,8.1046474326516e-06,-6.31254665831584e-06,1.79210077433743e-06,-4.76508033155516e-07,2.48063082322115e-08,2.48063082321174e-08,-2.0541473321286e-07,2.05414733212654e-07,-3.28408561661061e-07,9.26411380968096e-08,4.76655850059543e-08,NaN,NaN,7.5627102225927e-09,4.26732232829247e-08,-1.0020671752066e-06,-4.03832711274188e-07,-4.03832711273965e-07,NaN,1.05788383760485e-07,5.29224464575671e-08,-3.77534021687727e-07,-6.71924589467735e-08,-4.44726480634466e-07,-9.24384677802703e-07,4.43052174149633e-08,4.43052174149314e-08,5.75395701787338e-07,-5.75395701787056e-07,-9.91636598687801e-08,0,0,0
1269.6576,-3.84890599500779e-07,3.66845976267912e-07,-1.80446232329212e-08,-4.3212999676314e-07,-8.83464756079389e-09,-8.83464756076215e-09,NaN,-2.83650490240515e-07,-8.54033447934332e-07,9.00507128036008e-08,-7.52416483275147e-08,9.00507128037224e-08,1.17803300229669e-07,-1.7246413607551e-08,1.00556886622105e-07,-9.08634832370264e-08,-1.17750670792469e-07,NaN,NaN,-3.35532875390122e-08,5.2839442150067e-08,7.98835919154766e-06,-6.29512756039545e-06,1.69323163115395e-06,-4.81816650678167e-07,1.79741117079948e-08,1.79741117079051e-08,-2.16679741859955e-07,2.16679741859749e-07,-3.21314538229909e-07,9.94948443738121e-08,4.81994106380523e-08,NaN,NaN,6.92502069077569e-09,4.07466456758014e-08,-9.99408469295552e-07,-4.06151452050604e-07,-4.06151452050379e-07,NaN,1.10280591296683e-07,3.96486694247954e-08,-3.85804489663259e-07,-6.77514652603094e-08,-4.53555954923535e-07,-9.15710760226981e-07,5.34526140674942e-08,5.34526140674646e-08,5.60575175011161e-07,-5.60575175010872e-07,-1.0716497336803e-07,0,0,0
1269.76,-4.11437472924884e-07,4.07351397213301e-07,-4.08607571163079e-09,-4.27107808873058e-07,-3.63993048425992e-09,-3.63993048422609e-09,NaN,-2.83613482244353e-07,-9.58744436973581e-07,9.19702356008022e-08,-7.75719563345227e-08,9.19702356009236e-08,1.08703662988237e-07,-1.44881343870885e-08,9.42155286011382e-08,-8.01562719706968e-08,-1.15932486721419e-07,NaN,NaN,-2.80806275805845e-08,5.83600541583897e-08,7.87016934261722e-06,-6.2614403931821e-06,1.60872894943689e-06,-4.85900687277407e-07,1.11365380952997e-08,1.11365380952138e-08,-2.24857948401733e-07,2.24857948401527e-07,-3.14347498232118e-07,1.07796177150435e-07,4.70609798313462e-08,NaN,NaN,5.82422054942092e-09,3.86036323817674e-08,-9.93279106965923e-07,-4.02980057159416e-07,-4.02980057159189e-07,NaN,1.13096955782596e-07,2.99087529533265e-08,-3.88514284719267e-07,-6.88278118477892e-08,-4.57342096567025e-07,-8.95855394973309e-07,6.28660394699567e-08,6.28660394699286e-08,5.3785111041317e-07,-5.37851110412873e-07,-1.17533526484331e-07,0,0,0
1269.8624,-4.39527293497183e-07,4.41513720220547e-07,1.9864267233225e-09,-4.20830578432861e-07,1.89207810874703e-09,1.89207810878147e-09,NaN,-2.83552554558813e-07,-1.05854749837334e-06,9.52338360065248e-08,-7.9364352909875e-08,9.52338360066457e-08,9.9750947356864e-08,-1.15881179996811e-08,8.81628293571756e-08,-6.99574884047789e-08,-1.13112175008784e-07,NaN,NaN,-2.35721738246456e-08,6.45151614092833e-08,7.75953072496568e-06,-6.2194365450264e-06,1.54009417994106e-06,-4.88298084358401e-07,4.37150883719898e-09,4.37150883711636e-09,-2.30385316826844e-07,2.30385316826638e-07,-3.07168598726575e-07,1.171547215299e-07,4.45379840155657e-08,NaN,NaN,4.21613951988088e-09,3.6118799588409e-08,-9.83364127841267e-07,-3.94681257067081e-07,-3.94681257066851e-07,NaN,1.14114423370119e-07,2.36885578669292e-08,-3.85820712443549e-07,-7.05660119944397e-08,-4.5638672443796e-07,-8.6706793185044e-07,7.22912356775579e-08,7.22912356775286e-08,5.09104551686407e-07,-5.09104551686104e-07,-1.30781367810571e-07,0,1,0
1269.9648,-4.69785585295747e-07,4.67342660269167e-07,-2.44292502661715e-09,-4.14815077583187e-07,6.57968247000448e-09,6.57968247003818e-09,NaN,-2.79242816167299e-07,-1.14082747154969e-06,9.97980306078618e-08,-8.03561010588025e-08,9.97980306079821e-08,9.07998835171305e-08,-8.60967038229453e-09,8.21902131348334e-08,-6.05653985786389e-08,-1.09611296988634e-07,NaN,NaN,-1.95849984780429e-08,7.12311733153072e-08,7.65810206485745e-06,-6.17350962541316e-06,1.48459243944606e-06,-4.8856828523498e-07,-2.21704893332544e-09,-2.21704893340576e-09,-2.33881960521488e-07,2.33881960521282e-07,-2.99546135182528e-07,1.27020158727071e-07,4.09782957450634e-08,NaN,NaN,2.15028247723147e-09,3.32988419590845e-08,-9.69526026614965e-07,-3.81725493244361e-07,-3.81725493244128e-07,NaN,1.13318427820602e-07,2.06445348589196e-08,-3.78240911483794e-07,-7.30518434004941e-08,-4.51292754884261e-07,-8.32011279747833e-07,8.123592555902e-08,8.1235925558988e-08,4.76506733393485e-07,-4.76506733393175e-07,-1.47360892300022e-07,0,1,0
1270.0672,-5.02111226739288e-07,4.83912260642237e-07,-1.81989660970833e-08,-4.10137624759032e-07,9.60746231156656e-09,9.60746231159875e-09,NaN,-2.67970595837402e-07,-1.19690215171231e-06,1.05509437056077e-07,-8.04396067765101e-08,1.05509437056197e-07,8.16864508233058e-08,-5.59411561582052e-09,7.60923352074882e-08,-5.21910621172373e-08,-1.05701089405783e-07,NaN,NaN,-1.57151007814406e-08,7.8296772407797e-08,7.56061596286451e-06,-6.12452226575505e-06,1.4360936971112e-06,-4.86364198864692e-07,-8.48450463301413e-09,-8.48450463309319e-09,-2.36038036002525e-07,2.36038036002321e-07,-2.91414569723008e-07,1.36705725433899e-07,3.67661567799857e-08,NaN,NaN,-2.24410052428369e-10,3.02271467930483e-08,-9.51849048612237e-07,-3.64686633388212e-07,-3.64686633387975e-07,NaN,1.1080015418022e-07,2.01457348409918e-08,-3.66596689002418e-07,-7.62913985079593e-08,-4.42888087510352e-07,-7.93415892874858e-07,8.90632698001524e-08,8.90632698001134e-08,4.42325866647834e-07,-4.42325866647521e-07,-1.6743413800497e-07,0,1,0
1270.1696,-5.35718916440974e-07,4.91448819984961e-07,-4.4270096456043e-08,-4.07303001481235e-07,1.06384517898662e-08,1.06384517898956e-08,NaN,-2.48898529142059e-07,-1.22296582198676e-06,1.12151862085248e-07,-7.96232160181823e-08,1.12151862085367e-07,7.23041603552988e-08,-2.56202900940914e-09,6.97421313458989e-08,-4.49260116502579e-08,-1.01604472988493e-07,NaN,NaN,-1.1655150168344e-08,8.5427442573815e-08,7.45809891845419e-06,-6.07115677535415e-06,1.38694214310175e-06,-4.81481570544422e-07,-1.42426485378496e-08,-1.42426485379279e-08,-2.37507223393414e-07,2.37507223393212e-07,-2.82873347861733e-07,1.45433865884411e-07,3.23098463003794e-08,NaN,NaN,-2.67792229825035e-09,2.70010673625952e-08,-9.30620720682142e-07,-3.44236447955028e-07,-3.44236447954787e-07,NaN,1.06743019081278e-07,2.13867787683037e-08,-3.51917560139193e-07,-8.0202534092269e-08,-4.3212009423144e-07,-7.53802174901168e-07,9.51468306927245e-08,9.51468306926774e-08,4.08718038566991e-07,-4.08718038566675e-07,-1.90730829769302e-07,0,0,0
1270.272,-5.69365879633902e-07,4.91194159509107e-07,-7.81717201248223e-08,-4.06251059375058e-07,9.8340875956494e-09,9.83408759567479e-09,NaN,-2.23045467398398e-07,-1.22007137019291e-06,1.19490413489113e-07,-7.79691473982717e-08,1.19490413489232e-07,6.26500573519963e-08,4.87560888812619e-10,6.31376182408258e-08,-3.87530851320448e-08,-9.7502622427278e-08,NaN,NaN,-7.23439744271178e-09,9.23077546320378e-08,7.34193861428274e-06,-6.01176611284289e-06,1.33017250144152e-06,-4.73870748654997e-07,-1.92703124560411e-08,-1.92703124561187e-08,-2.38820763302789e-07,2.38820763302591e-07,-2.74136641682455e-07,1.52404076062244e-07,2.80265862056972e-08,NaN,NaN,-4.93608672148993e-09,2.36834986282571e-08,-9.06260368170653e-07,-3.21101198592465e-07,-3.21101198592219e-07,NaN,1.01397908358302e-07,2.35340587280956e-08,-3.35308369391326e-07,-8.46223073559256e-08,-4.19930676747232e-07,-7.15286583856848e-07,9.90284966490323e-08,9.90284966489766e-08,3.77508789716476e-07,-3.77508789716158e-07,-2.16561008381269e-07,0,0,0
1270.3744,-6.01663792718178e-07,4.851076169342e-07,-1.16556175784003e-07,-4.0648379202085e-07,7.77778480906987e-09,7.77778480909007e-09,NaN,-1.92846507281753e-07,-1.19312111093517e-06,1.27302342935414e-07,-7.55423028978297e-08,1.27302342935532e-07,5.2831598925367e-08,3.57971288574876e-09,5.64113118111406e-08,-3.35786470317781e-08,-9.35383142057808e-08,NaN,NaN,-2.44381864774804e-09,9.86130686225587e-08,7.20730570569415e-06,-5.94589050069659e-06,1.26141520499919e-06,-4.63619405028062e-07,-2.33338672353454e-08,-2.33338672354225e-08,-2.40331212789443e-07,2.40331212789249e-07,-2.65464580411608e-07,1.56879170757363e-07,2.43167003412598e-08,NaN,NaN,-6.72189519719218e-09,2.02817754662862e-08,-8.79238431240761e-07,-2.96000051815694e-07,-2.96000051815441e-07,NaN,9.50548192123379e-08,2.58508287449748e-08,-3.17815162149196e-07,-8.93279752053533e-08,-4.07143137354533e-07,-6.79507564650908e-07,1.00524104223824e-07,1.00524104223758e-07,3.50006402259109e-07,-3.50006402258791e-07,-2.4395709930073e-07,0,0,0
1270.4768,-6.3135781062326e-07,4.7550069873156e-07,-1.55857111891723e-07,-4.07263380840539e-07,5.3189522317392e-09,5.31895223175378e-09,NaN,-1.61399627051808e-07,-1.1491604835255e-06,1.35394542964994e-07,-7.2390668897081e-08,1.35394542965112e-07,4.30461016696302e-08,6.76420538636619e-09,4.98103070560296e-08,-2.92614795658524e-08,-8.9814426529243e-08,NaN,NaN,2.55920758745383e-09,1.04029649398511e-07,7.05487838994882e-06,-5.87490827567377e-06,1.17997011427664e-06,-4.50927674389373e-07,-2.62136757811176e-08,-2.6213675781194e-08,-2.42191193387728e-07,2.4219119338754e-07,-2.57107714665105e-07,1.58276688494707e-07,2.15284522642674e-08,NaN,NaN,-7.79045889187692e-09,1.67575008965014e-08,-8.50033499664257e-07,-2.69606723996827e-07,-2.69606723996568e-07,NaN,8.8018930641306e-08,2.77623578719896e-08,-3.00327945371206e-07,-9.40675908382452e-08,-3.94395536209437e-07,-6.47667735638714e-07,9.97469606679249e-08,9.97469606678478e-08,3.2689232713415e-07,-3.26892327133833e-07,-2.71866098634518e-07,0,0,0
1270.5792,-6.5749911058488e-07,4.64681167344033e-07,-1.92817943240868e-07,-4.07814229077037e-07,3.37802251789942e-09,3.37802251790775e-09,NaN,-1.3164075485721e-07,-1.09553259021226e-06,1.43608063023499e-07,-6.85595792816082e-08,1.43608063023617e-07,3.3546701305001e-08,1.01107503419868e-08,4.36574516470291e-08,-2.56316402940466e-08,-8.63892805641425e-08,NaN,NaN,7.47481280371209e-09,1.08283389192458e-07,6.89060770241767e-06,-5.80174009426018e-06,1.08886760815904e-06,-4.36093335206363e-07,-2.77333367726516e-08,-2.77333367727279e-08,-2.44362448150823e-07,2.44362448150641e-07,-2.49284253299092e-07,1.56246338287792e-07,1.99172768699292e-08,NaN,NaN,-7.95469947299813e-09,1.30616489689046e-08,-8.19150517649818e-07,-2.42549592167488e-07,-2.42549592167223e-07,NaN,8.05933680674667e-08,2.88562305083358e-08,-2.83538358087127e-07,-9.85957994170113e-08,-3.82134157504126e-07,-6.20616708008039e-07,9.70574970719157e-08,9.70574970718278e-08,3.08200793488318e-07,-3.08200793488003e-07,-2.99322456603198e-07,0,0,0
1270.6816,-6.79503772722039e-07,4.54659366647922e-07,-2.24844406074136e-07,-4.07473669515132e-07,2.76309480656852e-09,2.76309480656982e-09,NaN,-1.0566312220317e-07,-1.0383596593787e-06,1.51810512712147e-07,-6.41259221747637e-08,1.51810512712266e-07,2.46060499168646e-08,1.36986121465176e-08,3.83046620634323e-08,-2.25034475082197e-08,-8.32733882066564e-08,NaN,NaN,1.19118795296939e-08,1.11176352247924e-07,6.72416254020881e-06,-5.72999020107429e-06,9.9417233913605e-07,-4.19511224599793e-07,-2.77869006517123e-08,-2.77869006517891e-08,-2.46648070612882e-07,2.46648070612706e-07,-2.42190759686761e-07,1.50716370436258e-07,1.96076833645908e-08,NaN,NaN,-7.10198257242343e-09,9.17919002694291e-09,-7.87190284658409e-07,-2.15436600984927e-07,-2.15436600984655e-07,NaN,7.30666201270888e-08,2.88401347335464e-08,-2.67949438826022e-07,-1.02708447107981e-07,-3.70657885933993e-07,-5.98897742960381e-07,9.29754741871356e-08,9.29754741870379e-08,2.93372379744666e-07,-2.93372379744355e-07,-3.25562124822848e-07,0,0,0
1270.784,-6.97134500249542e-07,4.46948693007445e-07,-2.50185807242113e-07,-4.05766142971417e-07,4.04070602080005e-09,4.04070602079391e-09,NaN,-8.43090688649825e-08,-9.81605049195415e-07,1.59883760278283e-07,-5.92260219145397e-08,1.59883760278402e-07,1.64896500672488e-08,1.76044782307391e-08,3.40941282980458e-08,-1.96876963907131e-08,-8.04333872062416e-08,NaN,NaN,1.54528805566347e-08,1.12624671994479e-07,6.56673387555251e-06,-5.66292055211479e-06,9.03813323439222e-07,-4.01676626819121e-07,-2.63575348905107e-08,-2.63575348905878e-08,-2.48739154898872e-07,2.48739154898704e-07,-2.36025788076437e-07,1.41899898979564e-07,2.05708444416736e-08,NaN,NaN,-5.20303317439862e-09,5.16462581235994e-09,-7.54927459137333e-07,-1.88870050306131e-07,-1.88870050305854e-07,NaN,6.56991785173281e-08,2.74925354946712e-08,-2.53914351764701e-07,-1.06274220013731e-07,-3.60188571778424e-07,-5.82713997897395e-07,8.807920635985e-08,8.80792063597428e-08,2.81345331927925e-07,-2.81345331927618e-07,-3.50064275158517e-07,0,0,0
1270.8864,-7.10444365848897e-07,4.42468251275932e-07,-2.67976114572978e-07,-4.02402052312666e-07,7.48493594017181e-09,7.48493594015781e-09,NaN,-6.71401426823879e-08,-9.26903467436617e-07,1.67718010422972e-07,-5.40522920284323e-08,1.67718010423092e-07,9.44657698376317e-09,2.1893830399852e-08,3.13404073836805e-08,-1.70104228656549e-08,-7.78045038885574e-08,NaN,NaN,1.77152530624792e-08,1.12684191243718e-07,6.42827053801977e-06,-5.60229127058847e-06,8.2597926743277e-07,-3.83173904007627e-07,-2.35222942236351e-08,-2.35222942237126e-08,-2.50258927513616e-07,2.50258927513455e-07,-2.30997730796312e-07,1.30264530406441e-07,2.26236838606463e-08,NaN,NaN,-2.31480117061663e-09,1.16117529904765e-09,-7.23340252158957e-07,-1.6340973985704e-07,-1.63409739856757e-07,NaN,5.87031229538932e-08,2.46429606408632e-08,-2.41664116704881e-07,-1.09269422309625e-07,-3.50933539014498e-07,-5.7179290477832e-07,8.288743079747e-08,8.28874307973532e-08,2.7062498974645e-07,-2.70624989746147e-07,-3.72539452710235e-07,0,0,0
1270.9888,-7.19695239375637e-07,4.41542988194068e-07,-2.7815225118158e-07,-3.97219513840301e-07,1.3107131901867e-08,1.31071319018452e-08,NaN,-5.28214075213286e-08,-8.74208771842295e-07,1.75212546730024e-07,-4.88139306050474e-08,1.75212546730145e-07,3.7099954462744e-09,2.66192024612811e-08,3.0329197907628e-08,-1.43449535080121e-08,-7.53067927393671e-08,NaN,NaN,1.84008759086236e-08,1.11545580481585e-07,6.31440561463132e-06,-5.54714299738045e-06,7.67262617252316e-07,-3.64635030563215e-07,-1.94411711697083e-08,-1.9441171169786e-08,-2.5079571150497e-07,2.50795711504817e-07,-2.27303309117472e-07,1.16474254177082e-07,2.54467330626932e-08,NaN,NaN,1.42435177059912e-09,-2.5931175684832e-09,-6.93551624485233e-07,-1.39479818795466e-07,-1.3947981879518e-07,NaN,5.22168538580483e-08,2.01989915328125e-08,-2.31301008129158e-07,-1.11815524485819e-07,-3.43116532614969e-07,-5.65198955777554e-07,7.77297975000324e-08,7.77297974999073e-08,2.59314242093254e-07,-2.59314242092956e-07,-3.92904188747507e-07,0,1,0
1271.0912,-7.25246054505053e-07,4.43989397801461e-07,-2.81256656703602e-07,-3.90101447569254e-07,2.07430474491589e-08,2.07430474491297e-08,NaN,-3.9768281804105e-08,-8.22955239056284e-07,1.8226973015301e-07,-4.36812251964174e-08,1.82269730153132e-07,-5.11741806062796e-10,3.1824679023165e-08,3.13129372171811e-08,-1.16524028019176e-08,-7.28599372781495e-08,NaN,NaN,1.73330925874875e-08,1.09491046745642e-07,6.22404643546177e-06,-5.49297068230358e-06,7.31075753159577e-07,-3.46668214001097e-07,-1.43332384712824e-08,-1.43332384713603e-08,-2.49937573658062e-07,2.49937573657916e-07,-2.25083932082425e-07,1.0130793744051e-07,2.86207338717865e-08,NaN,NaN,5.81071913950286e-09,-5.77487475349841e-09,-6.66678589737498e-07,-1.17267248916979e-07,-1.1726724891669e-07,NaN,4.62878013966476e-08,1.42009989156883e-08,-2.22774697684134e-07,-1.14201715477748e-07,-3.36976413161873e-07,-5.61223736599285e-07,7.26453317096259e-08,7.26453317094936e-08,2.45182670805161e-07,-2.4518267080487e-07,-4.11264563179683e-07,0,1,0
1271.1936,-7.27421629773879e-07,4.49256746937129e-07,-2.78164882836758e-07,-3.80908632629585e-07,3.01556033783713e-08,3.01556033783351e-08,NaN,-2.67826743394595e-08,-7.73201002740011e-07,1.88774722698573e-07,-3.87428518811559e-08,1.88774722698695e-07,-3.06280536730939e-09,3.75505705381466e-08,3.44877651709218e-08,-9.01275772274134e-09,-7.03943093268655e-08,NaN,NaN,1.44789283579398e-08,1.0682777264659e-07,6.14846588984219e-06,-5.4316770366472e-06,7.16788853196322e-07,-3.29775525466928e-07,-8.44667193102176e-09,-8.44667193110001e-09,-2.47317003137077e-07,2.47317003136938e-07,-2.24375548892961e-07,8.55617424813951e-08,3.16812389060884e-08,NaN,NaN,1.06018660396223e-08,-8.00872522551655e-09,-6.43627373316255e-07,-9.6670398967447e-08,-9.66703989671569e-08,NaN,4.0874888391316e-08,6.86678265050354e-09,-2.15872917781228e-07,-1.16870696835916e-07,-3.32743614617133e-07,-5.5745170944634e-07,6.73463392980686e-08,6.73463392979301e-08,2.25853535641521e-07,-2.25853535641236e-07,-4.27896542018352e-07,0,1,0
1271.296,-7.26395204282195e-07,4.56581421506539e-07,-2.69813782775662e-07,-3.69463253115721e-07,4.11163914929365e-08,4.1116391492894e-08,NaN,-1.34681145069513e-08,-7.26345855708019e-07,1.94569747433503e-07,-3.39963385926885e-08,1.94569747433626e-07,-3.87669719963499e-09,4.382937483153e-08,3.9952677631985e-08,-6.62973538935195e-09,-6.78566100617918e-08,NaN,NaN,9.95146133139281e-09,1.03826571211022e-07,6.07200729647783e-06,-5.3523037020296e-06,7.19703594449474e-07,-3.14288148237457e-07,-2.02999171518071e-09,-2.0299917152596e-09,-2.42651225320477e-07,2.42651225320344e-07,-2.25069734461593e-07,6.99560927142023e-08,3.41791417676081e-08,NaN,NaN,1.55476468687057e-08,-8.92197175241752e-09,-6.24901879901659e-07,-7.73284530152757e-08,-7.73284530149854e-08,NaN,3.58724829409202e-08,-1.40238134774342e-09,-2.10242317354924e-07,-1.20359230367195e-07,-3.30601547722107e-07,-5.51002960975969e-07,6.12552205122375e-08,6.12552205120936e-08,1.99096089249377e-07,-1.99096089249099e-07,-4.43203184225265e-07,0,0,0
1271.3984,-7.2211944293399e-07,4.65120905268819e-07,-2.56998537665176e-07,-3.55598852503819e-07,5.34466784179189e-08,5.34466784178697e-08,NaN,-3.37591415365858e-10,-6.85253410093445e-07,1.9943530855608e-07,-2.93727668072361e-08,1.99435308556203e-07,-3.00586383253976e-09,5.06684200719501e-08,4.7662556239505e-08,-4.80352613951751e-09,-6.52098690825175e-08,NaN,NaN,3.99362262913661e-09,1.00687519996089e-07,5.97407304266502e-06,-5.2423471878557e-06,7.31725854810471e-07,-3.00343054124843e-07,4.69155131032943e-09,4.69155131024957e-09,-2.35763653342191e-07,2.35763653342063e-07,-2.26903451931854e-07,5.50699426828049e-08,3.5731004206889e-08,NaN,NaN,2.04191499046316e-08,-8.20563992742268e-09,-6.1049554239738e-07,-5.87328435374514e-08,-5.87328435371623e-08,NaN,3.11497470570948e-08,-1.00669071996324e-08,-2.05439291907131e-07,-1.25200835748087e-07,-3.30640127655204e-07,-5.38902726114909e-07,5.35988446404197e-08,5.35988446402708e-08,1.6316769630857e-07,-1.63167696308298e-07,-4.57642803140636e-07,0,0,0
1271.5008,-7.14330844100093e-07,4.74047748121597e-07,-2.40283095978502e-07,-3.39268090842811e-07,6.70089125909634e-08,6.70089125909085e-08,NaN,1.1384709981316e-08,-6.53772341021732e-07,2.03084985911894e-07,-2.47810365741081e-08,2.03084985912017e-07,-6.32929793656912e-10,5.80230477359068e-08,5.7390117942349e-08,-3.87480231550881e-09,-6.24322203303375e-08,NaN,NaN,-3.04609545689288e-09,9.75399269620886e-08,5.83175743042801e-06,-5.08937424831668e-06,7.42383182112375e-07,-2.87908872471545e-07,1.15346824373813e-08,1.15346824373004e-08,-2.26587655948343e-07,2.26587655948219e-07,-2.294833721118e-07,4.13102750752124e-08,3.60514939710939e-08,NaN,NaN,2.50327692145117e-08,-5.66698883983868e-09,-5.99907674225727e-07,-4.03974302479421e-08,-4.03974302476557e-08,NaN,2.6595029756773e-08,-1.8542626302975e-08,-2.00998918337158e-07,-1.31812734943868e-07,-3.3281165328101e-07,-5.18510831026068e-07,4.35284643103736e-08,4.35284643102198e-08,1.17163587153017e-07,-1.17163587152751e-07,-4.71629859907847e-07,0,0,0
1271.6032,-7.02637776291523e-07,4.82593592255289e-07,-2.20044184036241e-07,-3.20676980205166e-07,8.16504173002222e-08,8.16504173001626e-08,NaN,2.0185690168648e-08,-6.35807941815058e-07,2.05177396161382e-07,-2.01498581614728e-08,2.05177396161505e-07,2.94038452614025e-09,6.57706521373909e-08,6.87110366636347e-08,-4.151548150622e-09,-5.95201134592206e-08,NaN,NaN,-1.0736127207494e-08,9.44716272226948e-08,5.62230289086299e-06,-4.8825538536652e-06,7.39749037198698e-07,-2.76848996691533e-07,1.83723994763721e-08,1.83723994762896e-08,-2.15160992289931e-07,2.1516099228981e-07,-2.32332023396604e-07,2.89082509708802e-08,3.49689204265384e-08,NaN,NaN,2.92684351462151e-08,-1.26490640200804e-09,-5.92277821256462e-07,-2.20357825777455e-08,-2.20357825774621e-08,NaN,2.21503639867113e-08,-2.63234997496206e-08,-1.96498592112506e-07,-1.40400446749559e-07,-3.36899038862048e-07,-4.87922053887382e-07,3.02292161353168e-08,3.02292161351567e-08,6.132222949848e-08,-6.13222294982172e-08,-4.85421816315571e-07,0,0,0
1271.7056,-6.86674308116136e-07,4.90053779643547e-07,-1.96620528472596e-07,-3.00397174596624e-07,9.712507261501e-08,9.71250726149459e-08,NaN,2.47570813126994e-08,-6.34246126021828e-07,2.05348166520696e-07,-1.54470728961524e-08,2.05348166520819e-07,7.32667324283095e-09,7.369799690667e-08,8.10246701496087e-08,-5.83722551966305e-09,-5.64964071519392e-08,NaN,NaN,-1.85829411107548e-08,9.15740925283312e-08,5.3249875737127e-06,-4.61386359129608e-06,7.11123982417375e-07,-2.66994970475965e-07,2.51414003176116e-08,2.51414003175272e-08,-2.01621522675805e-07,2.01621522675686e-07,-2.34936732907534e-07,1.79290083636888e-08,3.24275032592279e-08,NaN,NaN,3.30797614348149e-08,4.87554850578775e-09,-5.86589185247759e-07,-3.67799355256345e-09,-3.67799355228376e-09,NaN,1.78209749413065e-08,-3.31002684049778e-08,-1.91598325612958e-07,-1.50910138519913e-07,-3.42508464132851e-07,-4.46261972825221e-07,1.30064500567319e-08,1.30064500565655e-08,-2.79478630154387e-09,2.79478630180465e-09,-4.99026872303839e-07,0,0,0
1271.808,-6.66269600256119e-07,4.95789362398244e-07,-1.70480237857883e-07,-2.79395546958909e-07,1.13043195604003e-07,1.13043195603935e-07,NaN,2.43741023777061e-08,-6.50123320613557e-07,2.03262524825224e-07,-1.06678160306975e-08,2.03262524825347e-07,1.21095108521656e-08,8.1511700932052e-08,9.36212117843296e-08,-8.98118489092701e-09,-5.34175032878146e-08,NaN,NaN,-2.6059306904963e-08,8.89854543633336e-08,4.92265874331151e-06,-4.27894607657483e-06,6.43712666737267e-07,-2.58198222575478e-07,3.18401018889887e-08,3.18401018889018e-08,-1.86208210905707e-07,1.8620821090559e-07,-2.36792482665262e-07,8.29130694014294e-09,2.84770424171223e-08,NaN,NaN,3.64938575603075e-08,1.24737366177595e-08,-5.81870837256047e-07,1.43242310571039e-08,1.43242310573804e-08,NaN,1.36556531246641e-08,-3.88311289885494e-08,-1.86057529003573e-07,-1.63042502477981e-07,-3.49100031481534e-07,-3.93848230738642e-07,-8.64195266923755e-09,-8.64195266941164e-09,-7.23436529085124e-08,7.23436529087749e-08,-5.1217437908379e-07,0,0,0
1271.9104,-6.41567939947941e-07,4.99259177010524e-07,-1.42308762937426e-07,-2.58933128889557e-07,1.28894797802907e-07,1.28894797802835e-07,NaN,1.89841497387778e-08,-6.82421432063119e-07,1.9868103749825e-07,-5.7999025193843e-09,1.98681037498373e-07,1.69185847037505e-08,8.88748068104451e-08,1.05793391514312e-07,-1.34700197394857e-08,-5.03715402953369e-08,NaN,NaN,-3.26440767027722e-08,8.69111715429424e-08,4.40306840862667e-06,-3.87753094169002e-06,5.25537466937065e-07,-2.5033625174979e-07,3.85182909549825e-08,3.85182909548931e-08,-1.69253051362501e-07,1.69253051362384e-07,-2.37438649845489e-07,-1.99419691292359e-10,2.32492569987062e-08,NaN,NaN,3.96010500319008e-08,2.11364398364297e-08,-5.77332648727256e-07,3.14156305119872e-08,3.14156305122609e-08,NaN,9.70856196679181e-09,-4.37250373421972e-08,-1.79730384590219e-07,-1.76325527193327e-07,-3.56055911783524e-07,-3.32191415685886e-07,-3.49636596189015e-08,-3.49636596190835e-08,-1.43525515357115e-07,1.4352551535738e-07,-5.24372642692064e-07,0,0,0
1272.0128,-6.13046941847539e-07,5.00072518522222e-07,-1.12974423325328e-07,-2.40348203463983e-07,1.44145613311805e-07,1.44145613311732e-07,NaN,8.95125652189971e-09,-7.28611442028807e-07,1.91516674015125e-07,-7.85131908174688e-10,1.91516674015249e-07,2.15002360260141e-08,9.54609943700706e-08,1.16961230396206e-07,-1.90661672591718e-08,-4.74631885002946e-08,NaN,NaN,-3.78645617119782e-08,8.5607194972342e-08,3.75977625827547e-06,-3.4132408651783e-06,3.46535393097427e-07,-2.43272916805379e-07,4.52613266782364e-08,4.52613266781439e-08,-1.51148120175444e-07,1.51148120175327e-07,-2.36487753992185e-07,-7.80756571178727e-09,1.69266804284871e-08,NaN,NaN,4.25368009199693e-08,3.04317116707693e-08,-5.72397986259643e-07,4.70374823834259e-08,4.70374823836982e-08,NaN,5.99986520690385e-09,-4.81391286316179e-08,-1.72535580224629e-07,-1.90225348470271e-07,-3.62760928694879e-07,-2.63798175716225e-07,-6.59066916657856e-08,-6.59066916659762e-08,-2.12154044520331e-07,2.12154044520599e-07,-5.35046305711181e-07,0,0,0
1272.1152,-5.8141900157073e-07,4.98020825678884e-07,-8.33981758918587e-08,-2.24812028221792e-07,1.58353655198698e-07,1.58353655198622e-07,NaN,-5.38766846439781e-09,-7.85643992506785e-07,1.81855361869314e-07,4.50327975511894e-09,1.81855361869438e-07,2.57508940724096e-08,1.01006232435526e-07,1.26757126508061e-07,-2.54779486367799e-08,-4.47876595928943e-08,NaN,NaN,-4.13272297317936e-08,8.5329191891908e-08,2.99244812672719e-06,-2.89280353278513e-06,9.96445939421727e-08,-2.36803022367122e-07,5.21707004844534e-08,5.21707004843585e-08,-1.32295378069669e-07,1.32295378069552e-07,-2.33642535492148e-07,-1.48218212418361e-08,9.71371462702389e-09,NaN,NaN,4.54588217661342e-08,3.99709338398229e-08,-5.66645586435152e-07,6.08184895127832e-08,6.08184895130556e-08,NaN,2.49144642073231e-09,-5.24417790782575e-08,-1.64406127984793e-07,-2.04253279925855e-07,-3.68659407910628e-07,-1.91788607735454e-07,-1.01091531940279e-07,-1.01091531940479e-07,-2.7429323250274e-07,2.74293232503014e-07,-5.43705852476157e-07,0,0,0
1272.2176,-5.47452145251287e-07,4.93064798191448e-07,-5.4387347059852e-08,-2.13155694519736e-07,1.71246216943423e-07,1.71246216943347e-07,NaN,-2.40878646775269e-08,-8.50876416081755e-07,1.69928513622468e-07,1.02514164629061e-08,1.69928513622592e-07,2.969894169482e-08,1.05336911019104e-07,1.35035852714055e-07,-3.24307494328711e-08,-4.24030778564135e-08,NaN,NaN,-4.27337637478545e-08,8.62705117105423e-08,2.10678756135086e-06,-2.3250051836113e-06,-2.18217622260428e-07,-2.30625829740943e-07,5.93428356207536e-08,5.93428356206567e-08,-1.13061060485675e-07,1.13061060485558e-07,-2.28704964272249e-07,-2.15082319813186e-08,1.81285913433274e-09,NaN,NaN,4.85233521734136e-08,4.94671533700782e-08,-5.59709588868586e-07,7.26592533623084e-08,7.26592533625828e-08,NaN,-9.10471443036415e-10,-5.69022035059505e-08,-1.55243160840463e-07,-2.18024268177843e-07,-3.73267429018287e-07,-1.19418366111918e-07,-1.39793671184145e-07,-1.39793671184354e-07,-3.26788795651322e-07,3.26788795651603e-07,-5.50075672242731e-07,0,0,0
1272.32,-5.11783494326759e-07,4.85297527316059e-07,-2.64859670107117e-08,-2.05810769944106e-07,1.82732110526387e-07,1.8273211052631e-07,NaN,-4.76898738447287e-08,-9.22559849843032e-07,1.56053553870906e-07,1.666039156987e-08,1.56053553871031e-07,3.34517398229166e-08,1.08367473045877e-07,1.41819212868929e-07,-3.97106464388846e-08,-4.03134944430318e-08,NaN,NaN,-4.1892903266876e-08,8.85150278282392e-08,1.11455833343001e-06,-1.71986814316541e-06,-6.05309809735474e-07,-2.24376466416933e-07,6.6850074495713e-08,6.68500744956147e-08,-9.37506808045855e-08,9.37506808044682e-08,-2.21590549974529e-07,-2.80576703541904e-08,-6.59304153416293e-09,NaN,NaN,5.18646603311393e-08,5.87508108672513e-08,-5.51199322388097e-07,8.2666598399428e-08,8.26665983997065e-08,NaN,-4.32195413191904e-09,-6.16396023888434e-08,-1.44904050771651e-07,-2.31248703093066e-07,-3.76152753864701e-07,-4.96389562578419e-08,-1.80933984401521e-07,-1.80933984401738e-07,-3.6760075288401e-07,3.676007528843e-07,-5.54115407193651e-07,0,1,0
1272.4224,-4.74799603435573e-07,4.74922160284514e-07,1.22556848930603e-10,-2.02847028703273e-07,1.92856959312546e-07,1.9285695931247e-07,NaN,-7.69868433660752e-08,-9.99737789700713e-07,1.40573607263525e-07,2.38820248111205e-08,1.4057360726365e-07,3.71401735801582e-08,1.10076384588543e-07,1.4721655816884e-07,-4.71623517056773e-08,-3.84719718257161e-08,NaN,NaN,-3.87376166155475e-08,9.20208550896193e-08,3.40221962355587e-08,-1.08843521318292e-06,-1.05441301694748e-06,-2.17710871433587e-07,7.47270261208909e-08,7.47270261207921e-08,-7.46146206463629e-08,7.46146206462449e-08,-2.12358862228915e-07,-3.45327292840285e-08,-1.53443091567054e-08,NaN,NaN,5.55789439794924e-08,6.77440056044771e-08,-5.40687387811091e-07,9.09666099689463e-08,9.09666099692305e-08,NaN,-7.82528492827408e-09,-6.66351783680705e-08,-1.33243874657714e-07,-2.43675567941978e-07,-3.7691944259968e-07,1.5176114758815e-08,-2.230845250058e-07,-2.23084525006026e-07,-3.95913088743167e-07,3.95913088743467e-07,-5.55912400914672e-07,0,1,0
1272.5248,-4.36626348170561e-07,4.62261762285706e-07,2.56354141151373e-08,-2.04061378297493e-07,2.01721378388882e-07,2.01721378388808e-07,NaN,-1.12530318173846e-07,-1.08160747097808e-06,1.23822471306167e-07,3.1960836579764e-08,1.23822471306293e-07,4.08841144303647e-08,1.1047649258575e-07,1.51360607016258e-07,-5.46409284964573e-08,-3.68032056354031e-08,NaN,NaN,-3.33467259377481e-08,9.66376488645591e-08,-1.10927961323388e-06,-4.4319484460394e-07,-1.55247445783796e-06,-2.10412870578014e-07,8.29604052616735e-08,8.29604052615744e-08,-5.58888148948005e-08,5.58888148946819e-08,-2.01252066812599e-07,-4.08299471807202e-08,-2.42848870931317e-08,NaN,NaN,5.97106089068137e-08,7.64078821613495e-08,-5.27782295853129e-07,9.74801033686383e-08,9.74801033689304e-08,NaN,-1.14095064860078e-08,-7.17889098852441e-08,-1.20202512506264e-07,-2.55025679857977e-07,-3.75228192364233e-07,7.32832521463677e-08,-2.64501744291504e-07,-2.64501744291737e-07,-4.1204922950346e-07,4.12049229503768e-07,-5.55485162303063e-07,0,1,0
1272.6272,-3.97224415852796e-07,4.47788280798021e-07,5.05638649452212e-08,-2.09068386922812e-07,2.09389675187746e-07,2.09389675187672e-07,NaN,-1.54048643466167e-07,-1.16662034831362e-06,1.06123935689975e-07,4.0806402595241e-08,1.06123935690102e-07,4.47830619604327e-08,1.09595117975351e-07,1.5437817993593e-07,-6.19417973957116e-08,-3.52345269693911e-08,NaN,NaN,-2.59632139232074e-08,1.02147776895375e-07,-2.2819623623484e-06,2.01234789617841e-07,-2.08072757273066e-06,-2.02483875775935e-07,9.14778521860155e-08,9.1477852185917e-08,-3.78591502219927e-08,3.78591502218741e-08,-1.88713986896613e-07,-4.66751269819555e-08,-3.32230419345411e-08,NaN,NaN,6.42390872408719e-08,8.46822593053479e-08,-5.12258292878863e-07,1.01768302192496e-07,1.01768302192798e-07,NaN,-1.49303869007332e-08,-7.69852687959413e-08,-1.05901106530242e-07,-2.64950543574187e-07,-3.70851650104428e-07,1.23459542554474e-07,-3.03195631704769e-07,-3.03195631705006e-07,-4.17270417617271e-07,4.17270417617589e-07,-5.52589043267248e-07,0,0,0
1272.7296,-3.56544487755572e-07,4.32142686426844e-07,7.55981986712735e-08,-2.17357373752188e-07,2.15825874505408e-07,2.15825874505336e-07,NaN,-2.0003062972379e-07,-1.25177937081029e-06,8.78152713502419e-08,5.02077719264046e-08,8.78152713503699e-08,4.89214144235697e-08,1.07471345023638e-07,1.56392759447357e-07,-6.87543831336641e-08,-3.37222521437904e-08,NaN,NaN,-1.69997926735083e-08,1.08309018102864e-07,-3.44321775931839e-06,8.27717366217697e-07,-2.6155003931007e-06,-1.9418294714275e-07,1.00136946573248e-07,1.0013694657315e-07,-2.09174362370949e-08,2.09174362369763e-08,-1.753621654657e-07,-5.166054487799e-08,-4.18904504029427e-08,NaN,NaN,6.90682337676916e-08,9.24372853066691e-08,-4.94177312003101e-07,1.03032080642525e-07,1.03032080642839e-07,NaN,-1.81056596791651e-08,-8.2125871424743e-08,-9.07007684022657e-08,-2.73031901392195e-07,-3.63732669794466e-07,1.64857320682993e-07,-3.37034061229161e-07,-3.37034061229404e-07,-4.13539246748304e-07,4.13539246748629e-07,-5.46621720650833e-07,0,0,0
1272.832,-3.1467634471442e-07,4.16122560303988e-07,1.01446215589575e-07,-2.28307753174225e-07,2.20888542451131e-07,2.2088854245106e-07,NaN,-2.47703171882543e-07,-1.33256618022703e-06,6.92724589686476e-08,5.98856865430846e-08,6.92724589687769e-08,5.33722605947799e-08,1.04164966071965e-07,1.57537226666897e-07,-7.46812204788343e-08,-3.22662036495071e-08,NaN,NaN,-7.02168799378232e-09,1.14872593588411e-07,-4.54675161095488e-06,1.4169607340261e-06,-3.12979087692865e-06,-1.85999752053291e-07,1.08724696060119e-07,1.08724696060023e-07,-5.56912206018019e-09,5.56912206006142e-09,-1.61903421328775e-07,-5.53163231386088e-08,-4.9926029050158e-08,NaN,NaN,7.40255796048712e-08,9.94567098577505e-08,-4.7393444154519e-07,1.00275544237195e-07,1.00275544237521e-07,NaN,-2.05479852046091e-08,-8.71039534646779e-08,-7.51903077141353e-08,-2.78816453413714e-07,-3.54006761127861e-07,1.96909612332641e-07,-3.63870626736369e-07,-3.63870626736614e-07,-4.03295377708726e-07,4.03295377709061e-07,-5.36681094971421e-07,0,0,0
1272.9344,-2.71937899554679e-07,4.00627717039126e-07,1.28689817484461e-07,-2.41182659202205e-07,2.24389494551048e-07,2.2438949455098e-07,NaN,-2.93480092154728e-07,-1.4036510248713e-06,5.09161301541911e-08,6.95648473796697e-08,5.09161301543221e-08,5.81889569258169e-08,9.97637425055875e-08,1.57952699431557e-07,-7.93293949292419e-08,-3.09105534251546e-08,NaN,NaN,3.30139168704082e-09,1.21567847651307e-07,-5.54454827504199e-06,1.94895994331662e-06,-3.59558833172506e-06,-1.78561904827367e-07,1.16978694435719e-07,1.16978694435625e-07,7.62732543116101e-09,-7.62732543128031e-09,-1.49005481262194e-07,-5.71978302718057e-08,-5.69038070558861e-08,NaN,NaN,7.88802455736671e-08,1.05463147212016e-07,-4.52198702559611e-07,9.25716165245195e-08,9.25716165248569e-08,NaN,-2.18256817174596e-08,-9.17313056271183e-08,-6.00994239906672e-08,-2.81871835468579e-07,-3.41971259459265e-07,2.19299679974083e-07,-3.81686829684618e-07,-3.81686829684863e-07,-3.89249209777538e-07,3.89249209777879e-07,-5.21760932657189e-07,0,0,0
1273.0368,-2.28885014199024e-07,3.86572507994772e-07,1.57687493795768e-07,-2.55130700247511e-07,2.26190784871807e-07,2.26190784871742e-07,NaN,-3.33748309863598e-07,-1.46014725195759e-06,3.3189785545729e-08,7.90432700406779e-08,3.31897855458616e-08,6.33839909842838e-08,9.43820521361291e-08,1.57766043120566e-07,-8.24373859545881e-08,-2.97325825215019e-08,NaN,NaN,1.32731376675215e-08,1.2807029960873e-07,-6.39248709276213e-06,2.40559245936646e-06,-3.98689463339513e-06,-1.72496881896048e-07,1.24630059736147e-07,1.24630059736055e-07,1.81705504691545e-08,-1.81705504692747e-08,-1.37156632295808e-07,-5.69755849304107e-08,-6.2400618836259e-08,NaN,NaN,8.33815498944869e-08,1.10176676492897e-07,-4.29772433073535e-07,7.93418890865506e-08,7.93418890869001e-08,NaN,-2.15367472342803e-08,-9.5662540894576e-08,-4.61663468272432e-08,-2.81851375203872e-07,-3.28017722031141e-07,2.31970988182356e-07,-3.88754673448358e-07,-3.887546734486e-07,-3.74175730209458e-07,3.74175730209806e-07,-5.01020467237807e-07,0,0,0
1273.1392,-1.86254107126607e-07,3.74787926868728e-07,1.88533819742149e-07,-2.6920811706981e-07,2.26298911127699e-07,2.26298911127638e-07,NaN,-3.65700463715666e-07,-1.49889682075863e-06,1.65163602754501e-08,8.82389758930713e-08,1.65163602755846e-08,6.8899595679226e-08,8.81581870675566e-08,1.57057782746934e-07,-8.39795762832469e-08,-2.8824737362082e-08,NaN,NaN,2.22636155144833e-08,1.33977478987534e-07,-7.05680829323011e-06,2.77372556215791e-06,-4.28308273107141e-06,-1.6828042951663e-07,1.31453236477273e-07,1.31453236477184e-07,2.5728854850899e-08,-2.5728854851021e-08,-1.26558680259832e-07,-5.45203720234555e-08,-6.60766919528536e-08,NaN,NaN,8.73077369593235e-08,1.13385645457479e-07,-4.07415736215168e-07,6.05787972340378e-08,6.05787972343989e-08,NaN,-1.93852499613612e-08,-9.83743513662826e-08,-3.40113259596586e-08,-2.78559095987476e-07,-3.12570421947167e-07,2.35151984995726e-07,-3.83827252160876e-07,-3.83827252161113e-07,-3.60696546375621e-07,3.60696546375975e-07,-4.74057391440058e-07,0,0,0
1273.2416,-1.44860493846702e-07,3.65932547509842e-07,2.21072053663178e-07,-2.82416365866241e-07,2.24917778464493e-07,2.24917778464438e-07,NaN,-3.87910133445297e-07,-1.51926169738499e-06,1.24784083915129e-09,9.72009735517544e-08,1.24784083928763e-09,7.4577015703275e-08,8.12614581850065e-08,1.5583847388843e-07,-8.42035594733746e-08,-2.82759134578753e-08,NaN,NaN,2.97920977445702e-08,1.38807148545928e-07,-7.5192456405098e-06,3.04751406518498e-06,-4.47173157532373e-06,-1.66107809805352e-07,1.3730045821698e-07,1.37300458216895e-07,3.02124071465358e-08,-3.02124071466608e-08,-1.17096192045022e-07,-4.99668840151786e-08,-6.77409576776194e-08,NaN,NaN,9.0504833007977e-08,1.15010231419244e-07,-3.85681217776479e-07,3.69609282061128e-08,3.69609282064847e-08,NaN,-1.52521466605495e-08,-9.92346482759539e-08,-2.40605281663389e-08,-2.72008938773061e-07,-2.96069466939439e-07,2.29368382803773e-07,-3.66344593841437e-07,-3.66344593841667e-07,-3.51053898242025e-07,3.51053898242387e-07,-4.41138764378721e-07,0,0,0
1273.344,-1.05476588024581e-07,3.60414449282029e-07,2.54937861257495e-07,-2.93757741849877e-07,2.2243854598076e-07,2.22438545980712e-07,NaN,-4.00499729312262e-07,-1.52318172354411e-06,-1.23786289404804e-08,1.06081226677217e-07,-1.23786289403426e-08,8.0136531314766e-08,7.39071439234242e-08,1.54043675238334e-07,-8.35912890750802e-08,-2.81537265428986e-08,NaN,NaN,3.55742678885518e-08,1.42019322346238e-07,-7.77879036978201e-06,3.22880562830154e-06,-4.54998474147908e-06,-1.6582481674433e-07,1.42104855933648e-07,1.42104855933567e-07,3.17905402484628e-08,-3.1790540248592e-08,-1.08400187906131e-07,-4.37234713981089e-08,-6.73911900299267e-08,NaN,NaN,9.28983071794383e-08,1.15145469276761e-07,-3.64805010652548e-07,9.83228477404484e-09,9.83228477442677e-09,NaN,-9.24796590265831e-09,-9.7642558308374e-08,-1.65255498846258e-08,-2.62468924849441e-07,-2.78994474734112e-07,2.15408242921468e-07,-3.36608257319837e-07,-3.36608257320058e-07,-3.46884165941129e-07,3.46884165941497e-07,-4.03365723758603e-07,0,0,0
1273.4464,-6.87192025005424e-08,3.58331590943617e-07,2.89612388443131e-07,-3.02322137810513e-07,2.19371080704644e-07,2.19371080704604e-07,NaN,-4.04966495272213e-07,-1.51466726071593e-06,-2.42728135485948e-08,1.15077290010368e-07,-2.42728135484557e-08,8.5180319610198e-08,6.63632388119754e-08,1.51543558422312e-07,-8.27691363481194e-08,-2.84868818706133e-08,NaN,NaN,3.95216915066811e-08,1.43053448864007e-07,-7.84961433102495e-06,3.3256262352913e-06,-4.52398809573194e-06,-1.6694674037901e-07,1.45852688269309e-07,1.45852688269231e-07,3.08613609960296e-08,-3.08613609961633e-08,-9.9986946085148e-08,-3.64043054007571e-08,-6.52322369635229e-08,NaN,NaN,9.44764679572579e-08,1.14073567246076e-07,-3.44700549269284e-07,-1.89607867164363e-08,-1.89607867160449e-08,NaN,-1.72724744009145e-09,-9.31771457923089e-08,-1.14115557490769e-08,-2.50472649541143e-07,-2.6188420529027e-07,1.94211205370855e-07,-2.95850107468644e-07,-2.95850107468854e-07,-3.49007995762217e-07,3.49007995762592e-07,-3.62734654621547e-07,0,1,0
1273.5488,-3.49792852748247e-08,3.59461925308003e-07,3.24482640033245e-07,-3.07402322310323e-07,2.16244349317775e-07,2.16244349317742e-07,NaN,-4.03821592350219e-07,-1.49906469311768e-06,-3.45107637366936e-08,1.24363299336979e-07,-3.45107637365535e-08,8.92217969332998e-08,5.89348418054271e-08,1.48156638738859e-07,-8.24005065859204e-08,-2.92484130441439e-08,NaN,NaN,4.17021871495402e-08,1.41370392866386e-07,-7.75644725822939e-06,3.34966895928401e-06,-4.40677829894338e-06,-1.68767419985845e-07,1.48541910734374e-07,1.48541910734301e-07,2.79830105425599e-08,-2.79830105426983e-08,-9.1424938640776e-08,-2.86994321250708e-08,-6.16709680770356e-08,NaN,NaN,9.52622850726096e-08,1.12237937244592e-07,-3.25076992401283e-07,-4.73541570053846e-08,-4.7354157004985e-08,NaN,6.75303306563553e-09,-8.56985048360925e-08,-8.53561473593388e-09,-2.36780268964808e-07,-2.45315883700798e-07,1.6668395342626e-07,-2.46142272225679e-07,-2.46142272225878e-07,-3.57285175962741e-07,3.57285175963123e-07,-3.22026847887921e-07,0,1,0
1273.6512,-4.41532018705881e-09,3.63322110535442e-07,3.58906790348459e-07,-3.08607625747506e-07,2.13506772149595e-07,2.1350677214957e-07,NaN,-4.0013695280275e-07,-1.48228567233443e-06,-4.33386286235038e-08,1.34025908398518e-07,-4.33386286233632e-08,9.17356281035246e-08,5.19267646395801e-08,1.43662392743231e-07,-8.30853459151895e-08,-3.03427674397674e-08,NaN,NaN,4.22814124308897e-08,1.36493396771617e-07,-7.52948906939512e-06,3.31391605651392e-06,-4.2155730128789e-06,-1.7052716494335e-07,1.50148218330775e-07,1.50148218330706e-07,2.37773412031408e-08,-2.37773412032834e-08,-8.24803129793666e-08,-2.12306371156425e-08,-5.72826424010753e-08,NaN,NaN,9.529170967485e-08,1.1017907447144e-07,-3.05654784417857e-07,-7.34107048749982e-08,-7.34107048745909e-08,NaN,1.55281205779256e-08,-7.53818080769368e-08,-7.55633940762603e-09,-2.22288451394961e-07,-2.29844790802648e-07,1.33497483230641e-07,-1.90167205555731e-07,-1.90167205555918e-07,-3.70593528587506e-07,3.70593528587894e-07,-2.84488949594461e-07,0,1,0
1273.7536,2.29976743174185e-08,3.69264256586164e-07,3.92261930903669e-07,-3.05936360240059e-07,2.11448604121411e-07,2.11448604121392e-07,NaN,-3.97052398810104e-07,-1.47005287417719e-06,-5.11564570589297e-08,1.44019876238135e-07,-5.11564570587889e-08,9.2216720974122e-08,4.55988556386123e-08,1.37815576612854e-07,-8.52845684942931e-08,-3.16013660630943e-08,NaN,NaN,4.14642040537146e-08,1.2804518873423e-07,-7.20024190972116e-06,3.23097840689913e-06,-3.96926350281947e-06,-1.71588151259401e-07,1.50608705124822e-07,1.50608705124757e-07,1.88305522871885e-08,-1.88305522873343e-08,-7.32066644545239e-08,-1.44393846235094e-08,-5.27526226367258e-08,NaN,NaN,9.46020675109769e-08,1.08445883676844e-07,-2.8640623173038e-07,-9.56213404021952e-08,-9.56213404017811e-08,NaN,2.39419759916853e-08,-6.26923936511875e-08,-8.01174612937511e-09,-2.07911780695947e-07,-2.15923526825388e-07,9.49694948248932e-08,-1.30915472265183e-07,-1.30915472265357e-07,-3.86943568875036e-07,3.86943568875429e-07,-2.53377559495553e-07,0,0,0
1273.856,4.73945757930795e-08,3.76564185566675e-07,4.23958761359851e-07,-2.9977457008948e-07,2.10162842247649e-07,2.10162842247635e-07,NaN,-3.9733145581293e-07,-1.46724556298588e-06,-5.84784609308112e-08,1.54158571643427e-07,-5.84784609306712e-08,9.02384120209558e-08,4.01332844075283e-08,1.30371696428599e-07,-8.92802576403456e-08,-3.27931031817057e-08,NaN,NaN,3.9450454955268e-08,1.15781801719051e-07,-6.79841566376405e-06,3.11206047404123e-06,-3.68635518972005e-06,-1.71564227695715e-07,1.49823928111274e-07,1.49823928111212e-07,1.36216659647618e-08,-1.3621665964909e-08,-6.39594556262033e-08,-8.53528681789792e-09,-4.8801617008802e-08,NaN,NaN,9.32255547561009e-08,1.07507996816009e-07,-2.67727163439498e-07,-1.13063292373438e-07,-1.13063292373018e-07,NaN,3.14441219791432e-08,-4.83166222191023e-08,-9.35655925480891e-09,-1.94469646168075e-07,-2.03826205422953e-07,5.11233949777195e-08,-7.13767959266263e-08,-7.13767959267886e-08,-4.03705163906862e-07,4.03705163907256e-07,-2.31508778193633e-07,0,0,0
1273.9584,6.89521654603051e-08,3.84487801305465e-07,4.53439966765878e-07,-2.90806586076401e-07,2.09555578255907e-07,2.09555578255897e-07,NaN,-4.03064965379945e-07,-1.4774608079431e-06,-6.58708612587933e-08,1.64148423587071e-07,-6.58708612586539e-08,8.55054792798015e-08,3.56265642166644e-08,1.21132043496578e-07,-9.51690318224565e-08,-3.36543449819925e-08,NaN,NaN,3.64162008290101e-08,9.96252220655516e-08,-6.3498112873893e-06,2.96636604236482e-06,-3.38344524502154e-06,-1.70366577004144e-07,1.47679806369649e-07,1.47679806369591e-07,8.49131490524165e-09,-8.49131490538843e-09,-5.53269319655972e-08,-3.51748307917248e-09,-4.60959890738361e-08,NaN,NaN,9.11888672555604e-08,1.07695036832862e-07,-2.50456065472121e-07,-1.25386511271613e-07,-1.25386511271188e-07,NaN,3.76425213064083e-08,-3.30620082002854e-08,-1.10009504480603e-08,-1.82608350463246e-07,-1.93609300911379e-07,1.9294087732948e-09,-1.42810973947362e-08,-1.42810973948872e-08,-4.17960754487301e-07,4.17960754487694e-07,-2.20902465752971e-07,0,0,0
1274.0608,8.78485995837241e-08,3.92341641463003e-07,4.80190241046845e-07,-2.7986151647942e-07,2.09399453288802e-07,2.09399453288792e-07,NaN,-4.15556555823714e-07,-1.50282806329847e-06,-7.38785656202405e-08,1.73658098355729e-07,-7.3878565620103e-08,7.78959223117119e-08,3.21036722877088e-08,1.09999594599531e-07,-1.02878739164331e-07,-3.39340752008185e-08,NaN,NaN,3.25197742533961e-08,7.96902283908581e-08,-5.87551141130555e-06,2.80104415782995e-06,-3.07446725347254e-06,-1.68160766270863e-07,1.44087706344566e-07,1.44087706344511e-07,3.64011772033985e-09,-3.64011772048384e-09,-4.79920673587482e-08,7.4317083973105e-10,-4.51503314059676e-08,NaN,NaN,8.85228604723046e-08,1.09173838172631e-07,-2.35716731677393e-07,-1.32680936234661e-07,-1.32680936234233e-07,NaN,4.23144797529452e-08,-1.77426865499674e-08,-1.23565256444456e-08,-1.72769934023537e-07,-1.85126459668057e-07,-5.23700586466713e-08,3.80725742135341e-08,3.80725742133919e-08,-4.26987806625252e-07,4.2698780662564e-07,-2.22547110943033e-07,0,0,0
1274.1632,1.04270122379861e-07,3.99498084843189e-07,5.03768207223177e-07,-2.67758347850329e-07,2.09405631797349e-07,2.09405631797338e-07,NaN,-4.35335699278562e-07,-1.54398499733938e-06,-8.29565776396722e-08,1.8239362121525e-07,-8.29565776395365e-08,6.74852689724637e-08,2.95383280856088e-08,9.70235970581828e-08,-1.12197730866197e-07,-3.34405641775874e-08,NaN,NaN,2.79205321999742e-08,5.62997568877971e-08,-5.39248956471473e-06,2.62174274655691e-06,-2.77074681815469e-06,-1.65270814611911e-07,1.3903089179149e-07,1.39030891791438e-07,-8.55246947822307e-10,8.55246947683446e-10,-4.25699508585783e-08,4.4014743786402e-09,-4.6248170839541e-08,NaN,NaN,8.52775581757149e-08,1.11953841656257e-07,-2.24646811774625e-07,-1.35313918796228e-07,-1.35313918795798e-07,NaN,4.53929809523905e-08,-3.07102700838358e-09,-1.2885452323558e-08,-1.65195730459126e-07,-1.78081182782759e-07,-1.10985703184785e-07,8.39076601532318e-08,8.39076601530979e-08,-4.28743912928912e-07,4.28743912929292e-07,-2.36302924297737e-07,0,0,0
1274.2656,1.18470710379543e-07,4.05381348413501e-07,5.2385205879318e-07,-2.55206608975575e-07,2.09287858731846e-07,2.09287858731832e-07,NaN,-4.62206710461903e-07,-1.60007676529451e-06,-9.34149388580363e-08,1.90147422224302e-07,-9.34149388579023e-08,5.45574127594958e-08,2.78646047128992e-08,8.24220174725067e-08,-1.22803262209975e-07,-3.20760025615426e-08,NaN,NaN,2.27925461664607e-08,2.99946058447366e-08,-4.91508420919396e-06,2.43353434807017e-06,-2.48154986112063e-06,-1.62083219735243e-07,1.32602219300568e-07,1.32602219300518e-07,-5.00688709171294e-09,5.00688709158123e-09,-3.9474393950166e-08,7.56047795754346e-09,-4.94099233035031e-08,NaN,NaN,8.15321353078119e-08,1.15901345620239e-07,-2.18123663292364e-07,-1.33809507552013e-07,-1.33809507551583e-07,NaN,4.69469900759324e-08,1.04268107481987e-08,-1.21436862536957e-08,-1.59941662903476e-07,-1.72085349157246e-07,-1.72440226755017e-07,1.2201541791293e-07,1.22015417912803e-07,-4.22169747074758e-07,4.22169747075126e-07,-2.6094699911826e-07,0,0,0
1274.368,1.30858567416164e-07,4.09427924972246e-07,5.40286492388555e-07,-2.42776980238041e-07,2.088014394595e-07,2.08801439459483e-07,NaN,-4.95280141799313e-07,-1.66873726752886e-06,-1.05380850904768e-07,1.96808004060105e-07,-1.05380850904636e-07,3.96083127703568e-08,2.69763751971649e-08,6.65846879676359e-08,-1.34279508560432e-07,-2.98534587088171e-08,NaN,NaN,1.73218092194287e-08,1.54292095183547e-09,-4.45643994959241e-06,2.24176874516556e-06,-2.21467120442371e-06,-1.58990335378878e-07,1.25022221051197e-07,1.25022221051151e-07,-8.86003284804496e-09,8.86003284792207e-09,-3.88473724530859e-08,1.02447602226228e-08,-5.44181638150584e-08,NaN,NaN,7.739364505678e-08,1.20751566892924e-07,-2.16586825828023e-07,-1.28798611152251e-07,-1.28798611151823e-07,NaN,4.7165869678875e-08,2.24611035398901e-08,-9.81396750675686e-09,-1.56891828411801e-07,-1.6670579591863e-07,-2.34582426951043e-07,1.51768521682823e-07,1.51768521682702e-07,-4.07239674064734e-07,4.07239674065089e-07,-2.94336130019662e-07,0,0,0
1274.4704,1.42059889037801e-07,4.1105997682392e-07,5.53119865861872e-07,-2.30922925548349e-07,2.07750138374653e-07,2.07750138374631e-07,NaN,-5.32996623383163e-07,-1.74612704686239e-06,-1.18783704383924e-07,2.02341932381455e-07,-1.18783704383793e-07,2.33343013934491e-08,2.67192327877755e-08,5.00535341813423e-08,-1.46130796813577e-07,-2.68967707476471e-08,NaN,NaN,1.1691309798228e-08,-2.80642975807176e-08,-4.02896188202039e-06,2.05230864490718e-06,-1.97665323711014e-06,-1.56381883060446e-07,1.16629818118187e-07,1.16629818118144e-07,-1.24338230095252e-08,1.24338230094123e-08,-4.05573855106166e-08,1.24247970779246e-08,-6.08874759093535e-08,NaN,NaN,7.29846455555974e-08,1.26123183102238e-07,-2.20008132055034e-07,-1.21029261631707e-07,-1.21029261631281e-07,NaN,4.63453085243717e-08,3.29857069010624e-08,-5.7301434233855e-09,-1.5577474530925e-07,-1.61504888732706e-07,-2.94767144573499e-07,1.73100549653145e-07,1.73100549653029e-07,-3.84828251421233e-07,3.84828251421571e-07,-3.33663959470798e-07,0,0,0
1274.5728,1.52913775397436e-07,4.09706418788761e-07,5.62620194186353e-07,-2.20024583014192e-07,2.05969307018002e-07,2.05969307017975e-07,NaN,-5.73195055484183e-07,-1.82713650854281e-06,-1.33366745956333e-07,2.06770119208849e-07,-1.33366745956204e-07,6.58807133518285e-09,2.6882478658377e-08,3.3470549993681e-08,-1.57807098392527e-07,-2.34252488174106e-08,NaN,NaN,6.06912168343055e-09,-5.76564206704387e-08,-3.6432070224975e-06,1.87078997526684e-06,-1.77241704722767e-06,-1.5466360686383e-07,1.07842818954781e-07,1.07842818954739e-07,-1.56884335656379e-08,1.56884335655348e-08,-4.42545172346582e-08,1.40742014758146e-08,-6.83529243548569e-08,NaN,NaN,6.84243871145761e-08,1.31548958811392e-07,-2.27997330688493e-07,-1.11401828730641e-07,-1.11401828730218e-07,NaN,4.48648258678964e-08,4.21594478853781e-08,1.04494166662524e-10,-1.56194139058937e-07,-1.56089644892342e-07,-3.50210364309761e-07,1.8645715604717e-07,1.86457156047059e-07,-3.56498551153478e-07,3.564985511538e-07,-3.7579791200352e-07,0,0,0
1274.6752,1.64381103889203e-07,4.04886936095881e-07,5.69268039985245e-07,-2.10423340665822e-07,2.0331228644636e-07,2.03312286446328e-07,NaN,-6.13291458806955e-07,-1.90585087340558e-06,-1.48722053989007e-07,2.10154650372606e-07,-1.4872205398888e-07,-9.70313458989114e-09,2.72021080152927e-08,1.74989734255261e-08,-1.68753324693764e-07,-1.97259744753211e-08,NaN,NaN,6.09427669645848e-10,-8.59784340730946e-08,-3.305507224176e-06,1.70108839420583e-06,-1.60441882996727e-06,-1.54268281123511e-07,9.90960874359927e-08,9.9096087435953e-08,-1.8539029096724e-08,1.85390290966303e-08,-4.94586307852036e-08,1.52306581397509e-08,-7.63490904689899e-08,NaN,NaN,6.38111162847121e-08,1.36532615195043e-07,-2.39973296888317e-07,-1.00985999363898e-07,-1.0098599936348e-07,NaN,4.31512148426958e-08,5.02779104143805e-08,7.50441130729632e-09,-1.57677967430447e-07,-1.50173556123215e-07,-3.98485145914205e-07,1.92737901375507e-07,1.92737901375399e-07,-3.24270198921932e-07,3.24270198922239e-07,-4.17666454483979e-07,0,1,0
1274.7776,1.77393772607175e-07,3.96348821044189e-07,5.7374259365153e-07,-2.02419206817291e-07,1.99668841305127e-07,1.99668841305092e-07,NaN,-6.50597951566315e-07,-1.97629402396571e-06,-1.64342565173136e-07,2.12601658431274e-07,-1.64342565173011e-07,-2.46445042764784e-08,2.7386355319668e-08,2.74185104331705e-09,-1.78475458100173e-07,-1.61189067649838e-08,NaN,NaN,-4.53456500591585e-09,-1.11827223127782e-07,-3.01524415517501e-06,1.54357738272528e-06,-1.47166677244694e-06,-1.55631167658081e-07,9.07758867140291e-08,9.07758867139915e-08,-2.09143416591973e-08,2.09143416591121e-08,-5.56523705304411e-08,1.6029312508695e-08,-8.445778515124e-08,NaN,NaN,5.92131062160025e-08,1.40627414954204e-07,-2.55309857045219e-07,-9.09810532568837e-08,-9.0981053256472e-08,NaN,4.16315617363623e-08,5.77021535356582e-08,1.60951090148533e-08,-1.5973523468779e-07,-1.43640125672998e-07,-4.38040029022072e-07,1.93241793494879e-07,1.93241793494776e-07,-2.90365624380208e-07,2.90365624380501e-07,-4.56637670074663e-07,0,1,0
1274.88,1.92705051434655e-07,3.84211998714809e-07,5.76917050149634e-07,-1.96228067114756e-07,1.95018677706895e-07,1.95018677706858e-07,NaN,-6.82719853918124e-07,-2.03328990624164e-06,-1.79685136858803e-07,2.14272793766716e-07,-1.79685136858678e-07,-3.74818258769189e-08,2.71644152266069e-08,-1.03174106501824e-08,-1.86601052123624e-07,-1.29201312884246e-08,NaN,NaN,-9.19323314477826e-09,-1.3419409199528e-07,-2.76278721518271e-06,1.39380583385271e-06,-1.36898138132731e-06,-1.5912556509279e-07,8.31717162340188e-08,8.31717162339832e-08,-2.28371540612387e-08,2.28371540611604e-08,-6.23577103058797e-08,1.66898513688885e-08,-9.23173849362339e-08,NaN,NaN,5.46719300177434e-08,1.43513716989275e-07,-2.73396997903103e-07,-8.26083118297667e-08,-8.26083118293608e-08,NaN,4.0686574428204e-08,6.48019612498861e-08,2.53150880206139e-08,-1.61901543295425e-07,-1.3658645527487e-07,-4.68564970568065e-07,1.89607869375855e-07,1.89607869375757e-07,-2.56925809527112e-07,2.56925809527395e-07,-4.90805769419514e-07,0,1,0
1274.9824,2.10799812669692e-07,3.69056086805577e-07,5.79855899475444e-07,-1.91928960286136e-07,1.89493613662842e-07,1.89493613662805e-07,NaN,-7.07911745505709e-07,-2.07317722328856e-06,-1.94234411900472e-07,2.15388260106725e-07,-1.94234411900349e-07,-4.76839975420375e-08,2.63411517972378e-08,-2.13428457446689e-08,-1.92912073094857e-07,-1.04058277120526e-08,NaN,NaN,-1.31708013915614e-08,-1.52371276878891e-07,-2.52902243862087e-06,1.24215200617621e-06,-1.28687043244206e-06,-1.64982525815935e-07,7.64583381266243e-08,7.6458338126591e-08,-2.44923903148233e-08,2.44923903147506e-08,-6.91882960306798e-08,1.74665418771023e-08,-9.96079792575458e-08,NaN,NaN,5.02140247067033e-08,1.45048385977626e-07,-2.9361812764267e-07,-7.69694610079427e-08,-7.69694610075421e-08,NaN,4.06170124671998e-08,7.19178910766132e-08,3.44362610784268e-08,-1.63759265070954e-07,-1.29323003992584e-07,-4.91077403789405e-07,1.83727581256726e-07,1.83727581256634e-07,-2.257273914037e-07,2.25727391403976e-07,-5.19121708804536e-07,0,0,0
1275.0848,2.3188589049826e-07,3.51900259676038e-07,5.83786150174477e-07,-1.89438570202326e-07,1.83415141266867e-07,1.83415141266831e-07,NaN,-7.25301972371676e-07,-2.09420965155717e-06,-2.07551995857734e-07,2.1620877425014e-07,-2.07551995857612e-07,-5.4980529759824e-08,2.48331769042698e-08,-3.01473528554227e-08,-1.97342903207516e-07,-8.7785147467149e-09,NaN,NaN,-1.62563610490971e-08,-1.65997999746886e-07,-2.28703999332926e-06,1.07480740282652e-06,-1.21223259050019e-06,-1.73231283028337e-07,7.0705214936983e-08,7.0705214936952e-08,-2.62486380119907e-08,2.6248638011922e-08,-7.58766834269385e-08,1.85931326726063e-08,-1.06038720618124e-07,NaN,NaN,4.58612829711756e-08,1.45273990954196e-07,-3.15285695790216e-07,-7.49239787203319e-08,-7.49239787199363e-08,NaN,4.16299919692551e-08,7.93387393077851e-08,4.26171013941112e-08,-1.6493407096916e-07,-1.22316969575103e-07,-5.07721342266156e-07,1.77611586840637e-07,1.77611586840551e-07,-1.97964871223272e-07,1.97964871223542e-07,-5.41374586197179e-07,0,0,0
1275.1872,2.55946461839459e-07,3.34067159388162e-07,5.90013621227807e-07,-1.88530506802598e-07,1.77284895152395e-07,1.77284895152362e-07,NaN,-7.34939290650973e-07,-2.09659656297429e-06,-2.19300328668466e-07,2.16996796940993e-07,-2.19300328668345e-07,-5.93523121459897e-08,2.26705545750561e-08,-3.66817575708028e-08,-1.99952890780789e-07,-8.13988593873615e-09,NaN,NaN,-1.82585781734626e-08,-1.75049760919632e-07,-2.00580742689007e-06,8.7601750264412e-07,-1.12978992424341e-06,-1.83684844932639e-07,6.59002120028211e-08,6.59002120027927e-08,-2.86127137105574e-08,2.86127137104908e-08,-8.22758782851847e-08,2.02507298600662e-08,-1.11356422315051e-07,NaN,NaN,4.16336371320709e-08,1.44391451859126e-07,-3.37584182906695e-07,-7.70185227382563e-08,-7.70185227378647e-08,NaN,4.38428262578924e-08,8.72871088620883e-08,4.89927781422091e-08,-1.65081417720484e-07,-1.16088639578328e-07,-5.21370462207651e-07,1.73213811452266e-07,1.73213811452186e-07,-1.74142627919863e-07,1.74142627920128e-07,-5.58080426067657e-07,0,0,0
1275.2896,2.82811860131085e-07,3.16959064642197e-07,5.99770924773473e-07,-1.88897082559911e-07,1.71719116429522e-07,1.71719116429492e-07,NaN,-7.37634906826979e-07,-2.08216201108373e-06,-2.2924452594999e-07,2.17967282108714e-07,-2.29244525949871e-07,-6.09903306366441e-08,1.99649909712831e-08,-4.10253396652311e-08,-2.00887796958939e-07,-8.47778270316846e-09,NaN,NaN,-1.9052439688237e-08,-1.79791226510675e-07,-1.65515620020486e-06,6.31157848783207e-07,-1.02399835141911e-06,-1.95972988595765e-07,6.19747712982867e-08,6.19747712982612e-08,-3.21235887868428e-08,3.21235887867775e-08,-8.8336449553415e-08,2.2564885976097e-08,-1.15375901938716e-07,NaN,NaN,3.75426077932023e-08,1.42703356500535e-07,-3.59558864683175e-07,-8.34734158857709e-08,-8.34734158853826e-08,NaN,4.72980422266123e-08,9.59013592953126e-08,5.27848636629426e-08,-1.63877968292208e-07,-1.11093104629318e-07,-5.35160746751177e-07,1.72228519017149e-07,1.72228519017078e-07,-1.54066462392482e-07,1.54066462392744e-07,-5.70317411439793e-07,0,0,0
1275.392,3.12206530620292e-07,3.0179934791268e-07,6.14005878533171e-07,-1.90238763995329e-07,1.67333064919574e-07,1.67333064919549e-07,NaN,-7.34605694941134e-07,-2.05362643269077e-06,-2.37243944227896e-07,2.19244111975004e-07,-2.37243944227778e-07,-6.02395980723655e-08,1.68598897257959e-08,-4.33797083464411e-08,-2.003344990044e-07,-9.6742200293923e-09,NaN,NaN,-1.86210722271328e-08,-1.80711965571478e-07,-1.21129411702885e-06,3.30087767977467e-07,-8.81206349048806e-07,-2.09607952998964e-07,5.88228860603668e-08,5.88228860603443e-08,-3.72207137161935e-08,3.72207137161286e-08,-9.40642407260699e-08,2.56195901760832e-08,-1.18015840444878e-07,NaN,NaN,3.35783683583676e-08,1.4053585891242e-07,-3.8017272500514e-07,-9.42146044681694e-08,-9.42146044677835e-08,NaN,5.1982363129673e-08,1.05198113797904e-07,5.3398029230971e-08,-1.61029119775903e-07,-1.07631090544984e-07,-5.52059774506779e-07,1.75880910233156e-07,1.75880910233093e-07,-1.36892624791706e-07,1.36892624791967e-07,-5.79510920473792e-07,0,0,0
1275.4944,3.43747602074534e-07,2.8939895484936e-07,6.33146556924101e-07,-1.92354864621715e-07,1.64598457722868e-07,1.64598457722847e-07,NaN,-7.26983576017273e-07,-2.013623281167e-06,-2.43241560168708e-07,2.2083726658122e-07,-2.43241560168592e-07,-5.75369002067606e-08,1.34817034709121e-08,-4.40551967357225e-08,-1.98464108697727e-07,-1.15355134829141e-08,NaN,NaN,-1.70792691577478e-08,-1.78452709855542e-07,-6.61753091324874e-07,-2.99165936084041e-08,-6.91669684930642e-07,-2.2406167502083e-07,5.63109044633607e-08,5.63109044633417e-08,-4.41286076720608e-08,4.41286076719956e-08,-9.94714181281323e-08,2.94736068699959e-08,-1.19320926963947e-07,NaN,NaN,2.96950350284772e-08,1.38154043647499e-07,-3.98431604211816e-07,-1.08931791535089e-07,-1.08931791534705e-07,NaN,5.78420013246943e-08,1.15010593013399e-07,5.0477416783409e-08,-1.56295813583884e-07,-1.05818396800527e-07,-5.74532089998688e-07,1.8475074046367e-07,1.84750740463615e-07,-1.21214632737917e-07,1.21214632738178e-07,-5.87179403113517e-07,0,0,0
1275.5968,3.7691666188024e-07,2.79992281291248e-07,6.56908943171704e-07,-1.9520330082388e-07,1.63711854945506e-07,1.63711854945491e-07,NaN,-7.15325230253102e-07,-1.96371155824886e-06,-2.47251801089627e-07,2.22644672728208e-07,-2.47251801089512e-07,-5.3344044158693e-08,9.9039278555981e-09,-4.34401163029714e-08,-1.95369649998844e-07,-1.38369051052806e-08,NaN,NaN,-1.46703311403837e-08,-1.73721264217093e-07,-8.57024105625924e-09,-4.4233149796896e-07,-4.50901739022496e-07,-2.38836656857321e-07,5.42802898934804e-08,5.4280289893465e-08,-5.27758447256605e-08,5.27758447255954e-08,-1.04542236583649e-07,3.41769397842815e-08,-1.19465283735185e-07,NaN,NaN,2.58010153588643e-08,1.35694031399767e-07,-4.13547300862911e-07,-1.27145321247834e-07,-1.2714532124745e-07,NaN,6.47894230694565e-08,1.24931613590465e-07,4.39256109044423e-08,-1.49534274220465e-07,-1.05608663316075e-07,-6.04307785264009e-07,1.98679031868043e-07,1.98679031867998e-07,-1.05208667995737e-07,1.05208667995995e-07,-5.94692239539038e-07,0,0,0
1275.6992,4.11054311826712e-07,2.7316626875958e-07,6.84220580586517e-07,-1.98903000837572e-07,1.64517678735174e-07,1.64517678735162e-07,NaN,-6.99308242738207e-07,-1.90375751902073e-06,-2.49344834071877e-07,2.2447285634723e-07,-2.49344834071763e-07,-4.80786066161437e-08,6.12550810967203e-09,-4.19530985063509e-08,-1.9102485550902e-07,-1.63670256812226e-08,NaN,NaN,-1.17355258533378e-08,-1.67203293905895e-07,7.30760242462385e-07,-8.9091232083831e-07,-1.60152078373097e-07,-2.53517938757968e-07,5.2549453917281e-08,5.25494539172695e-08,-6.27412642926163e-08,6.27412642925518e-08,-1.09226054397095e-07,3.97946873729811e-08,-1.18746969598466e-07,NaN,NaN,2.17598975120728e-08,1.3313572895249e-07,-4.25077481152757e-07,-1.48268187786928e-07,-1.48268187786543e-07,NaN,7.27017619196629e-08,1.34315260116827e-07,3.39025027673362e-08,-1.40740375333815e-07,-1.06837872566531e-07,-6.42228937762382e-07,2.16774922444798e-07,2.16774922444764e-07,-8.68720082259671e-08,8.68720082262226e-08,-6.03109446885821e-07,0,0,0
1275.8016,4.45405868621726e-07,2.67895045432233e-07,7.13300914054195e-07,-2.03668965281417e-07,1.6651738350486e-07,1.66517383504852e-07,NaN,-6.77772211108904e-07,-1.83200450990084e-06,-2.49628712174133e-07,2.26069600940836e-07,-2.49628712174021e-07,-4.20511436689352e-08,2.06439835526134e-09,-3.99867453135561e-08,-1.85289570667783e-07,-1.89569052753017e-08,NaN,NaN,-8.66647951785043e-09,-1.59487739928394e-07,1.52413340583684e-06,-1.35035496809168e-06,1.73778437748102e-07,-2.6779589224208e-07,5.09200618724134e-08,5.09200618724067e-08,-7.32244006329943e-08,7.32244006329313e-08,-1.13445791557837e-07,4.64373639381254e-08,-1.17580472162997e-07,NaN,NaN,1.74025978876837e-08,1.30327932989565e-07,-4.32978373048358e-07,-1.71647432358312e-07,-1.71647432357926e-07,NaN,8.14145204452518e-08,1.42370336202994e-07,2.08326528230741e-08,-1.3009389042192e-07,-1.092612375989e-07,-6.88150577408004e-07,2.37495924232333e-07,2.37495924232309e-07,-6.43620535612985e-08,6.43620535615499e-08,-6.13144149401045e-07,0,0,0
1275.904,4.79211491133212e-07,2.62672986359863e-07,7.41884477493321e-07,-2.09698951372723e-07,1.68962418884084e-07,1.68962418884078e-07,NaN,-6.49120671179119e-07,-1.74585094096372e-06,-2.48235998146919e-07,2.27161674319229e-07,-2.48235998146808e-07,-3.54293176782306e-08,-2.43005996109438e-09,-3.78593776392096e-08,-1.77962074738096e-07,-2.14861177550143e-08,NaN,NaN,-5.8544326802001e-09,-1.51027779697119e-07,2.32684864791953e-06,-1.7877588054795e-06,5.39089842443105e-07,-2.81455100553714e-07,4.91892795959188e-08,4.9189279595917e-08,-8.30579771647138e-08,8.30579771646531e-08,-1.1710106773559e-07,5.42800767270562e-08,-1.16479984159221e-07,NaN,NaN,1.25480036622491e-08,1.27055458175139e-07,-4.37548571178511e-07,-1.96571817849371e-07,-1.96571817848984e-07,NaN,9.07152474608461e-08,1.48322728901105e-07,5.42249833432516e-09,-1.17995238262541e-07,-1.1257273992827e-07,-7.40889900579899e-07,2.58769740253589e-07,2.58769740253575e-07,-3.63813750818586e-08,3.63813750821045e-08,-6.2523446100009e-07,0,1,0
1276.0064,5.11823515629075e-07,2.5570860832633e-07,7.67532123955665e-07,-2.17057193112839e-07,1.70992973944752e-07,1.70992973944748e-07,NaN,-6.11926625375853e-07,-1.64299761980052e-06,-2.45321413490946e-07,2.274885679357e-07,-2.45321413490836e-07,-2.82502086177888e-08,-7.54547452052872e-09,-3.57956831382039e-08,-1.6885731576971e-07,-2.38698411440404e-08,NaN,NaN,-3.64337531923435e-09,-1.42140768807978e-07,3.08461585698867e-06,-2.16480405316868e-06,9.19811803823203e-07,-2.943372899881e-07,4.71662265803956e-08,4.71662265803993e-08,-9.07848802039213e-08,9.07848802038645e-08,-1.20060532247964e-07,6.35492827731968e-08,-1.16021267547548e-07,NaN,NaN,7.028394726903e-09,1.23120379750503e-07,-4.39296800500149e-07,-2.22251224559378e-07,-2.2225122455899e-07,NaN,1.00341341547539e-07,1.51584321221421e-07,-1.13345146454894e-08,-1.05078514227508e-07,-1.16413028873051e-07,-7.98231349159948e-07,2.78155165220093e-07,2.7815516522009e-07,-2.50342670137093e-09,2.50342670160858e-09,-6.39671826025392e-07,0,1,0
1276.1088,5.42834448946671e-07,2.45134969668162e-07,7.87969418615104e-07,-2.25597461983685e-07,1.71776527132967e-07,1.71776527132964e-07,NaN,-5.65500885679234e-07,-1.52247562502559e-06,-2.41071219924747e-07,2.26826799973651e-07,-2.41071219924638e-07,-2.04795401076752e-08,-1.34626263665046e-08,-3.39421664740667e-08,-1.5788656524224e-07,-2.60377590734174e-08,NaN,NaN,-2.28965412639978e-09,-1.3303404536683e-07,3.73800140561157e-06,-2.4409021383105e-06,1.29709926730441e-06,-3.0629721125843e-07,4.46906822798332e-08,4.46906822798425e-08,-9.48128043871345e-08,9.48128043870827e-08,-1.2215247691416e-07,7.44662267345107e-08,-1.16775310490195e-07,NaN,NaN,7.16053428019696e-10,1.18406085119503e-07,-4.38788312332581e-07,-2.47796802547899e-07,-2.4779680254751e-07,NaN,1.09987192224478e-07,1.51872373187553e-07,-2.81986361461962e-08,-9.21793168748581e-08,-1.20377953021109e-07,-8.57019089519613e-07,2.93063207552553e-07,2.93063207552559e-07,3.66627666732652e-08,-3.66627666730358e-08,-6.56715136670315e-07,0,1,0
1276.2112,5.72186925095416e-07,2.29214753069234e-07,8.01401678164933e-07,-2.34943274194224e-07,1.7061728274911e-07,1.70617282749109e-07,NaN,-5.10218871444001e-07,-1.38517005739617e-06,-2.35718930430047e-07,2.25007640360228e-07,-2.35718930429939e-07,-1.20896212320463e-08,-2.03098949706216e-08,-3.23995162025548e-08,-1.45118027161654e-07,-2.79169895664135e-08,NaN,NaN,-1.93398094286744e-09,-1.23840286877432e-07,4.22874880580597e-06,-2.57758551631068e-06,1.65116328949872e-06,-3.17170902125045e-07,4.16537840899015e-08,4.16537840899163e-08,-9.36501722321983e-08,9.36501722321521e-08,-1.23160846065711e-07,8.71486913834314e-08,-1.19212868529215e-07,NaN,NaN,-6.45218251026563e-09,1.12899700063628e-07,-4.36513418203994e-07,-2.72234816074077e-07,-2.72234816073688e-07,NaN,1.19327252754115e-07,1.49254289616811e-07,-4.37975170602257e-08,-8.02429641570735e-08,-1.24040481217353e-07,-9.13385346061767e-07,3.01044368220337e-07,3.01044368220352e-07,7.9533915225299e-08,-7.95339152250801e-08,-6.76616287493954e-07,0,0,0
1276.3136,6.00211852286226e-07,2.06533695888136e-07,8.06745548174657e-07,-2.44524021066146e-07,1.67024237624265e-07,1.67024237624264e-07,NaN,-4.47532755593429e-07,-1.23373521081691e-06,-2.29555806741676e-07,2.21934043679127e-07,-2.29555806741569e-07,-3.1234464313951e-09,-2.81242404790342e-08,-3.12476869103142e-08,-1.30802665616341e-07,-2.94278543765173e-08,NaN,NaN,-2.59236995889636e-09,-1.14651652428133e-07,4.50741583649737e-06,-2.54387463338279e-06,1.96354120311808e-06,-3.2676655355415e-07,3.80194815494182e-08,3.80194815494384e-08,-8.61960852912659e-08,8.61960852912258e-08,-1.22826096401567e-07,1.01492862487005e-07,-1.23594250095278e-07,NaN,NaN,-1.4455538150565e-08,1.06666853421744e-07,-4.32805206208372e-07,-2.94561341938295e-07,-2.94561341937905e-07,NaN,1.28054816501622e-07,1.4411712820504e-07,-5.68066931169233e-08,-7.01822956729087e-08,-1.26988988789886e-07,-9.63127828455145e-07,3.00106736196959e-07,3.00106736196982e-07,1.23847212778251e-07,-1.23847212778042e-07,-6.99519904655437e-07,0,0,0
1276.416,6.27535427119166e-07,1.76172565453998e-07,8.03707992573469e-07,-2.53653905425771e-07,1.60734690194258e-07,1.60734690194258e-07,NaN,-3.79752977837179e-07,-1.07211636603078e-06,-2.22921510130498e-07,2.17597432485989e-07,-2.22921510130392e-07,6.27121018651635e-09,-3.68251063646077e-08,-3.05538961779729e-08,-1.15358565864239e-07,-3.04949344029882e-08,NaN,NaN,-4.16425972655564e-09,-1.0554983205735e-07,4.5407772413915e-06,-2.32173149159931e-06,2.21904574979572e-06,-3.34877109548697e-07,3.38417970131767e-08,3.38417970132015e-08,-7.20072017599642e-08,7.20072017599309e-08,-1.20851730413695e-07,1.17081884090374e-07,-1.2988156380823e-07,NaN,NaN,-2.31770204656423e-08,9.98004917177331e-08,-4.27822703753594e-07,-3.13816851211278e-07,-3.13816851210888e-07,NaN,1.35924013020049e-07,1.37073592885427e-07,-6.6149389331461e-08,-6.27207437042175e-08,-1.28870133035731e-07,-1.00217855176468e-06,2.8900812685457e-07,2.890081268546e-07,1.67114492551571e-07,-1.67114492551372e-07,-7.25276845271063e-07,0,0,0
1276.5184,6.54852914997222e-07,1.3784054533537e-07,7.92693460332907e-07,-2.61630824136061e-07,1.5169826287131e-07,1.5169826287131e-07,NaN,-3.09741759678635e-07,-9.04998311376499e-07,-2.16171214006554e-07,2.12088955007284e-07,-2.16171214006448e-07,1.58351410394787e-08,-4.6206862506913e-08,-3.03717214673111e-08,-9.93224344291342e-08,-3.10690029421249e-08,NaN,NaN,-6.44764348753202e-09,-9.66335005130824e-08,4.3173908249546e-06,-1.91039447641385e-06,2.40699634854426e-06,-3.41308920755131e-07,2.92710611436693e-08,2.9271061143698e-08,-5.14526818056596e-08,5.14526818056328e-08,-1.16924621586959e-07,1.33166165347091e-07,-1.37708993958966e-07,NaN,NaN,-3.23987725259138e-08,9.2377703995794e-08,-4.21601094868789e-07,-3.29164333131967e-07,-3.29164333131577e-07,NaN,1.42779880435427e-07,1.28827829658058e-07,-7.11572808369649e-08,-5.82643154964184e-08,-1.29421596333435e-07,-1.02706975538399e-06,2.67474928684055e-07,2.6747492868409e-07,2.07098805476421e-07,-2.07098805476231e-07,-7.53262938562513e-07,0,0,0
1276.6208,6.82661424367956e-07,9.19426559089795e-08,7.7460408027726e-07,-2.67831125538637e-07,1.40033110497482e-07,1.40033110497482e-07,NaN,-2.40588023265973e-07,-7.37315812370282e-07,-2.0963535634685e-07,2.05598756442041e-07,-2.09635356346746e-07,2.52079190977225e-08,-5.59546651571243e-08,-3.07467460592728e-08,-8.32905018668612e-08,-3.11492079550495e-08,NaN,NaN,-9.15407751312363e-09,-8.80411262926593e-08,3.85016007286709e-06,-1.32825990684037e-06,2.52190016603016e-06,-3.45919748238194e-07,2.4542292176279e-08,2.4542292176311e-08,-2.57125064810914e-08,2.5712506481071e-08,-1.10754468250533e-07,1.48727720926789e-07,-1.4641822036649e-07,NaN,NaN,-4.18088664029767e-08,8.4441420762726e-08,-4.14146861319597e-07,-3.39974985299084e-07,-3.39974985298696e-07,NaN,1.48569697757835e-07,1.20040265256507e-07,-7.16522263915007e-08,-5.68355756375318e-08,-1.28487802029084e-07,-1.03532398942735e-06,2.36308142414456e-07,2.36308142414493e-07,2.42168799346338e-07,-2.42168799346156e-07,-7.82294577505865e-07,0,0,0
1276.7232,7.11079606768443e-07,3.95468420823875e-08,7.50626448851162e-07,-2.71781176690095e-07,1.2597049277499e-07,1.2597049277499e-07,NaN,-1.7526360845543e-07,-5.73783678339776e-07,-2.03592260297678e-07,1.98400239924222e-07,-2.03592260297575e-07,3.3950926871353e-08,-6.56839654972135e-08,-3.17330386257242e-08,-6.78682718025614e-08,-3.07921970245964e-08,NaN,NaN,-1.19277370956082e-08,-7.99598232703802e-08,3.17502197842652e-06,-6.1114941689664e-07,2.56387256153324e-06,-3.48653558520377e-07,1.99415093917997e-08,1.9941509391834e-08,3.37587568915886e-09,-3.3758756891736e-09,-1.02122457295179e-07,1.62610151381591e-07,-1.55145807417182e-07,NaN,NaN,-5.10285315000161e-08,7.60018845657763e-08,-4.05532327910113e-07,-3.45914737728158e-07,-3.4591473772777e-07,NaN,1.53335548836776e-07,1.1123699784446e-07,-6.7931359410112e-08,-5.80851639342167e-08,-1.26016523344379e-07,-1.02572455900326e-06,1.97335350642811e-07,1.97335350642847e-07,2.71440010002773e-07,-2.71440010002598e-07,-8.10708235022272e-07,0,0,0
1276.8256,7.39820473652492e-07,-1.77560384341157e-08,7.22064435218715e-07,-2.73189967596121e-07,1.09809122724182e-07,1.09809122724183e-07,NaN,-1.16295345991135e-07,-4.18468733188146e-07,-1.9825660583716e-07,1.90822295581567e-07,-1.98256605837058e-07,4.15871261805199e-08,-7.49930442110571e-08,-3.34059180303931e-08,-5.36311329022543e-08,-3.01018116004868e-08,NaN,NaN,-1.43760198049694e-08,-7.26124018765269e-08,2.34572530141134e-06,1.93038966569784e-07,2.53876426798439e-06,-3.49552772358722e-07,1.57551552482838e-08,1.57551552483199e-08,3.35868574349709e-08,-3.35868574349808e-08,-9.09199467923401e-08,1.73683012160722e-07,-1.62943941752243e-07,NaN,NaN,-5.96629663917308e-08,6.70511234076576e-08,-3.95935851700564e-07,-3.46997201538933e-07,-3.46997201538546e-07,NaN,1.57190152007488e-07,1.02787597766978e-07,-6.06667339578846e-08,-6.13732032776465e-08,-1.22039937235581e-07,-9.98441895311659e-07,1.53193426134888e-07,1.53193426134924e-07,2.94706889014412e-07,-2.94706889014242e-07,-8.36621127247932e-07,0,0,0
1276.928,7.68291362419818e-07,-7.80478484188103e-08,6.90243514001352e-07,-2.71936718337601e-07,9.18982907729728e-08,9.18982907729751e-08,NaN,-6.55427266790896e-08,-2.74556268376535e-07,-1.93773438379806e-07,1.8321777732047e-07,-1.93773438379706e-07,4.76536324114378e-08,-8.35105335237818e-08,-3.5856901112192e-08,-4.10879569602502e-08,-2.92061715819942e-08,NaN,NaN,-1.61100099454843e-08,-6.62289398665367e-08,1.42630961216549e-06,1.03150112744692e-06,2.45781073961556e-06,-3.48735420822073e-07,1.221880483528e-08,1.22188048353177e-08,6.26285040347402e-08,-6.26285040347467e-08,-7.71659024219486e-08,1.81005368585304e-07,-1.68909675219334e-07,NaN,NaN,-6.73610640247274e-08,5.75917887815436e-08,-3.855955321514e-07,-3.43579481531144e-07,-3.43579481530757e-07,NaN,1.60281391020325e-07,9.49354075593852e-08,-5.07648124921889e-08,-6.5889514943325e-08,-1.16654327435565e-07,-9.55032740892914e-07,1.06990192217902e-07,1.06990192217934e-07,3.12238193303341e-07,-3.12238193303171e-07,-8.58308334589523e-07,0,0,0
1277.0304,7.95748241835442e-07,-1.39259486182916e-07,6.56488755652875e-07,-2.6802842137172e-07,7.26511680869272e-08,7.2651168086932e-08,NaN,-2.41395543328345e-08,-1.44404785100547e-07,-1.90212547308506e-07,1.7593522244118e-07,-1.90212547308408e-07,5.17504076498997e-08,-9.09255954324195e-08,-3.91751877823599e-08,-3.06439136109295e-08,-2.82347232170313e-08,NaN,NaN,-1.67868068609783e-08,-6.10185016938413e-08,4.83581865391021e-07,1.85313846448633e-06,2.33672032988035e-06,-3.46346291205621e-07,9.48287894612449e-09,9.48287894616353e-09,8.84403738430553e-08,-8.84403738430599e-08,-6.10055975683746e-08,1.8395570969949e-07,-1.72295561213863e-07,NaN,NaN,-7.38591736822642e-08,4.767778327778e-08,-3.7469423374252e-07,-3.36313828890778e-07,-3.3631382889039e-07,NaN,1.62755443735906e-07,8.78413344125495e-08,-3.92366922914101e-08,-7.07757673122574e-08,-1.10012459603719e-07,-8.98347055679719e-07,6.19336831115675e-08,6.19336831115956e-08,3.24518681668488e-07,-3.24518681668317e-07,-8.74562005396705e-07,0,0,0
1277.1328,8.21439723981947e-07,-1.99296281893258e-07,6.22143442089043e-07,-2.61556411793945e-07,5.25693413165057e-08,5.25693413165135e-08,NaN,7.43306847628601e-09,-2.97808688687945e-08,-1.87566686979688e-07,1.69293460753496e-07,-1.87566686979592e-07,5.35734915988877e-08,-9.70003655684826e-08,-4.34268739694275e-08,-2.25626754374994e-08,-2.73022724307405e-08,NaN,NaN,-1.61507495774292e-08,-5.7148207733657e-08,-4.19301331279557e-07,2.61345002731408e-06,2.19414869603743e-06,-3.42508387879775e-07,7.60417777554151e-09,7.60417777558196e-09,1.09412514418433e-07,-1.09412514418437e-07,-4.26974543181243e-08,1.8230693568127e-07,-1.72584983190052e-07,NaN,NaN,-7.89937993558123e-08,3.74520090301538e-08,-3.63237085057569e-07,-3.26075860157954e-07,-3.26075860157564e-07,NaN,1.64728593336859e-07,8.16096381399902e-08,-2.71003426269185e-08,-7.52291073989302e-08,-1.02329450025902e-07,-8.32332103306187e-07,2.09939959946048e-08,2.09939959946277e-08,3.32013198013029e-07,-3.32013198012854e-07,-8.84900593815222e-07,1,0,0
1277.2352,8.44706278792855e-07,-2.56136245706464e-07,5.88570033086751e-07,-2.52676641518107e-07,3.22522435911751e-08,3.22522435911862e-08,NaN,2.92280992940715e-08,6.79467899622032e-08,-1.85757556981618e-07,1.63555604848839e-07,-1.85757556981523e-07,5.29348398684931e-08,-1.01571824976708e-07,-4.86369851080411e-08,-1.69311691103295e-08,-2.64998288412395e-08,NaN,NaN,-1.40736811249112e-08,-5.47279884426617e-08,-1.22827000929439e-06,3.27781937239022e-06,2.04954936309861e-06,-3.37298591897759e-07,6.56042640320667e-09,6.56042640324831e-09,1.24506919822121e-07,-1.24506919822125e-07,-2.25921425759495e-08,1.76241637748709e-07,-1.69530872116678e-07,NaN,NaN,-8.26869096949148e-08,2.71638540504419e-08,-3.50988511179223e-07,-3.13873575845996e-07,-3.13873575845603e-07,NaN,1.66272722369349e-07,7.62809836486088e-08,-1.5308667001805e-08,-7.85850112589034e-08,-9.38936782607645e-08,-7.61696716520783e-07,-1.33754055243094e-08,-1.33754055242911e-08,3.35019472751199e-07,-3.35019472751018e-07,-8.89573329716549e-07,1,0,0
1277.3376,8.6502738395684e-07,-3.0793896410358e-07,5.57088419853624e-07,-2.41622038748308e-07,1.23704418452867e-08,1.23704418453015e-08,NaN,4.17243212691848e-08,1.47787885292566e-07,-1.84652903462789e-07,1.58903855852645e-07,-1.84652903462696e-07,4.97690162125679e-08,-1.04552704443212e-07,-5.47836882304642e-08,-1.36441493528213e-08,-2.58888031757646e-08,NaN,NaN,-1.0585331466294e-08,-5.38069407864874e-08,-1.90276577211727e-06,3.82344042519892e-06,1.92067465308436e-06,-3.30756126162561e-07,6.27691035887271e-09,6.27691035891572e-09,1.33286565279446e-07,-1.33286565279452e-07,-1.11193863879656e-09,1.66314188396083e-07,-1.63165422199852e-07,NaN,NaN,-8.49199372498835e-08,1.71569467913044e-08,-3.37511097739328e-07,-3.00737116697365e-07,-3.00737116696968e-07,NaN,1.67413053255427e-07,7.17929179838994e-08,-4.68988144942249e-09,-8.03778646039595e-08,-8.50677460534414e-08,-6.91433731078945e-07,-3.94307997091241e-08,-3.94307997091105e-08,3.33639824532253e-07,-3.33639824532062e-07,-8.89397248014348e-07,1,0,0
1277.44,8.82028163897166e-07,-3.53183267658412e-07,5.28844896239123e-07,-2.28735550530372e-07,-6.40527555369461e-09,-6.40527555367637e-09,NaN,4.57290976024915e-08,2.09259110257736e-07,-1.84098354777924e-07,1.55421477970554e-07,-1.84098354777832e-07,4.4117780434897e-08,-1.05938551912825e-07,-6.18207714777426e-08,-1.24376344975671e-08,-2.54946312338742e-08,NaN,NaN,-5.8768775419698e-09,-5.43947890372253e-08,-2.41850043870134e-06,4.23981353605339e-06,1.8213130973547e-06,-3.22917790757822e-07,6.65223505721488e-09,6.65223505725925e-09,1.35870480595647e-07,-1.35870480595654e-07,2.12545378559174e-08,1.53368527627901e-07,-1.53786852957577e-07,NaN,NaN,-8.5713913367884e-08,7.82657019213461e-09,-3.22308089581235e-07,-2.87600335043532e-07,-2.87600335043132e-07,NaN,1.68133122113573e-07,6.79284741352464e-08,4.11017746697277e-09,-8.03675254122204e-08,-7.62573479453108e-08,-6.26247006648907e-07,-5.62130168923149e-08,-5.62130168923058e-08,3.27852927976362e-07,-3.27852927976164e-07,-8.85513716181645e-07,0,0,0
1277.5424,8.95462858355461e-07,-3.90815913663016e-07,5.0464694469282e-07,-2.14496604088158e-07,-2.35023539053486e-08,-2.35023539053274e-08,NaN,4.22822864243241e-08,2.52555062931937e-07,-1.83958953928302e-07,1.53089039988907e-07,-1.8395895392821e-07,3.60935785289422e-08,-1.05817715131617e-07,-6.97241366024849e-08,-1.2976377061015e-08,-2.52996577239915e-08,NaN,NaN,-2.71741591647148e-10,-5.65055901338625e-08,-2.76802602713989e-06,4.52781473842398e-06,1.75978871128674e-06,-3.13863992879154e-07,7.57436863222033e-09,7.57436863226635e-09,1.32842058378979e-07,-1.32842058378989e-07,4.39361794137811e-08,1.38423775168295e-07,-1.41923189029544e-07,NaN,NaN,-8.51254262809853e-08,-4.45526653564538e-10,-3.050236089043e-07,-2.7519164912e-07,-2.75191649119594e-07,NaN,1.68381351584861e-07,6.42879502455473e-08,1.06840119417326e-08,-7.85226645335934e-08,-6.78386525919278e-08,-5.69973923013867e-07,-6.35011175332082e-08,-6.35011175332035e-08,3.17628457654706e-07,-3.17628457654499e-07,-8.79145238747026e-07,0,0,0
1277.6448,9.05185633804919e-07,-4.20353383575518e-07,4.84832250229781e-07,-1.99507491280148e-07,-3.85258110533606e-08,-3.85258110533365e-08,NaN,3.25593251861088e-08,2.78627699750489e-07,-1.84151564581996e-07,1.51800669814729e-07,-1.84151564581905e-07,2.58455382963922e-08,-1.04369362738845e-07,-7.85238244422595e-08,-1.49553867029866e-08,-2.52417052185762e-08,NaN,NaN,5.82046486452511e-09,-6.0193752837044e-08,-2.9593445307559e-06,4.69772313219915e-06,1.7383786014459e-06,-3.03754714393436e-07,8.92600437507643e-09,8.92600437512429e-09,1.25139540411363e-07,-1.25139540411374e-07,6.62606187851085e-08,1.22549290979659e-07,-1.28272598736479e-07,NaN,NaN,-8.32559396236855e-08,-7.36119790127456e-09,-2.85621568555166e-07,-2.63942513299467e-07,-2.63942513299055e-07,NaN,1.68074185205242e-07,6.03136392186392e-08,1.49054719232606e-08,-7.49742091496025e-08,-6.00687372264131e-08,-5.2511468744652e-07,-6.16879576843375e-08,-6.16879576843358e-08,3.03000649976356e-07,-3.0300064997614e-07,-8.7139258565159e-07,0,0,0
1277.7472,9.11113153493187e-07,-4.4187318298307e-07,4.69239970510502e-07,-1.844184794796e-07,-5.12700893025445e-08,-5.1270089302518e-08,NaN,1.77504954247134e-08,2.89025787030654e-07,-1.84651480389348e-07,1.5140053764728e-07,-1.84651480389257e-07,1.35502671162929e-08,-1.0183665205534e-07,-8.82863849388503e-08,-1.8167542288122e-08,-2.52255371263411e-08,NaN,NaN,1.19442250710648e-08,-6.55542389868444e-08,-3.01333021924577e-06,4.76684571953521e-06,1.75351550029209e-06,-2.92837326994011e-07,1.05852268313035e-08,1.05852268313535e-08,1.13949218091574e-07,-1.13949218091585e-07,8.7466681790241e-08,1.06752586632576e-07,-1.13624956846599e-07,NaN,NaN,-8.02626542884031e-08,-1.27594215213842e-08,-2.64470464841662e-07,-2.53913269455721e-07,-2.53913269455303e-07,NaN,1.67094209631187e-07,5.53788141619382e-08,1.69471242191476e-08,-6.99685204876286e-08,-5.3021396268556e-08,-4.9254693126581e-07,-5.16366678326581e-08,-5.16366678326596e-08,2.84033074895388e-07,-2.84033074895166e-07,-8.63072865372049e-07,0,0,0
1277.8496,9.13187047358315e-07,-4.55883596862591e-07,4.57303450496115e-07,-1.69806120374351e-07,-6.16581919683207e-08,-6.16581919682923e-08,NaN,-1.1045918683875e-09,2.85447241889506e-07,-1.85478715323703e-07,1.51729270269112e-07,-1.85478715323613e-07,-5.79554600779181e-10,-9.84782313170472e-08,-9.90577859176263e-08,-2.25235427065808e-08,-2.51463851088341e-08,NaN,NaN,1.76235693915033e-08,-7.2691609558835e-08,-2.96075483939411e-06,4.7572869185905e-06,1.79653207919908e-06,-2.8141917742292e-07,1.24290273162864e-08,1.24290273163383e-08,1.00601267760347e-07,-1.00601267760359e-07,1.0677015581948e-07,9.18886831894317e-08,-9.87718397635307e-08,NaN,NaN,-7.63582839573623e-08,-1.66418228629853e-08,-2.42303389472707e-07,-2.44749097944539e-07,-2.44749097944115e-07,NaN,1.65288209116617e-07,4.89223068438693e-08,1.72641992397769e-08,-6.38378482410267e-08,-4.65736490013282e-08,-4.71459153900162e-07,-3.45573332083671e-08,-3.45573332083706e-08,2.60690536036313e-07,-2.60690536036083e-07,-8.54588772797353e-07,0,0,0
1277.952,9.11351252520607e-07,-4.63129708062717e-07,4.48221544458286e-07,-1.56051549293239e-07,-6.96521879488238e-08,-6.96521879487943e-08,NaN,-2.327939007038e-08,2.69180091709503e-07,-1.86683076484973e-07,1.52663022652721e-07,-1.86683076484884e-07,-1.62905315231841e-08,-9.45159979751597e-08,-1.10806529498141e-07,-2.80352099169108e-08,-2.49167960422917e-08,NaN,NaN,2.23790784649833e-08,-8.16816924718389e-08,-2.8393558772645e-06,4.69407665549238e-06,1.85472077823065e-06,-2.6981155232407e-07,1.43422895160211e-08,1.43422895160753e-08,8.64524807668579e-08,-8.64524807668687e-08,1.23476280952701e-07,7.85885100630153e-08,-8.44146812776456e-08,NaN,NaN,-7.17955232662441e-08,-1.91711160948674e-08,-2.20070165769191e-07,-2.35698356409964e-07,-2.35698356409534e-07,NaN,1.62473403039132e-07,4.05822504735045e-08,1.65424125780437e-08,-5.69829595124179e-08,-4.04405469344548e-08,-4.59522453235578e-07,-1.19157746167329e-08,-1.1915774616738e-08,2.32711339289126e-07,-2.32711339288892e-07,-8.45843356764933e-07,0,0,0
1278.0544,9.05554823892807e-07,-4.64417057477874e-07,4.41137766415334e-07,-1.43263569725572e-07,-7.51892006604591e-08,-7.51892006604282e-08,NaN,-4.84266668437918e-08,2.40722262131454e-07,-1.88335580117306e-07,1.54132138036263e-07,-1.88335580117218e-07,-3.32933373258876e-08,-9.00993720423671e-08,-1.2339270936805e-07,-3.47727862620501e-08,-2.4488167639468e-08,NaN,NaN,2.57484484621121e-08,-9.25383555777455e-08,-2.69087048762203e-06,4.60354003724841e-06,1.91266954962921e-06,-2.58261828511551e-07,1.62281260300612e-08,1.62281260301173e-08,7.27532977004778e-08,-7.27532977004874e-08,1.3710682785141e-07,6.72121674354155e-08,-7.10877718955864e-08,NaN,NaN,-6.68426545428e-08,-2.06443827343737e-08,-1.98730553231197e-07,-2.25718300933378e-07,-2.25718300932943e-07,NaN,1.58455958066995e-07,3.02856967199302e-08,1.5615809267556e-08,-4.98565531278701e-08,-3.42407438603964e-08,-4.53297471342572e-07,1.46311813710876e-08,1.46311813710808e-08,1.99562784491007e-07,-1.99562784490768e-07,-8.3624466978774e-07,0,0,0
1278.1568,8.95774429774338e-07,-4.60502418965209e-07,4.35272010809533e-07,-1.31267524173775e-07,-7.81711870453051e-08,-7.81711870452734e-08,NaN,-7.65103858774359e-08,1.99744324038932e-07,-1.90521345350559e-07,1.56116929091285e-07,-1.9052134535047e-07,-5.12709952118112e-08,-8.52959904272811e-08,-1.36566985638886e-07,-4.28057018727926e-08,-2.38632840606119e-08,NaN,NaN,2.73200668607173e-08,-1.05187967516263e-07,-2.5576790935723e-06,4.51166433789016e-06,1.95398524432074e-06,-2.46896343537546e-07,1.80143353738935e-08,1.80143353739511e-08,6.05194561940833e-08,-6.05194561940919e-08,1.47498167880175e-07,5.78375609773604e-08,-5.9111937893685e-08,NaN,NaN,-6.17588942964681e-08,-2.14410269752337e-08,-1.7905508001125e-07,-2.13659332294448e-07,-2.1365933229401e-07,NaN,1.53059308897646e-07,1.82731836228407e-08,1.53675047021257e-08,-4.2942051426541e-08,-2.75745467244985e-08,-4.48809813411677e-07,4.32904213496395e-08,4.32904213496306e-08,1.60501289984562e-07,-1.6050128998432e-07,-8.24828965878892e-07,0,0,0
1278.2592,8.82040748862836e-07,-4.52055353209816e-07,4.29985395653427e-07,-1.19661149348887e-07,-7.85073368805541e-08,-7.85073368805215e-08,NaN,-1.07635302595658e-07,1.4538014892226e-07,-1.93333266438287e-07,1.58625430793367e-07,-1.93333266438198e-07,-6.98923918368629e-08,-8.01051097986887e-08,-1.49997501635344e-07,-5.21403297271256e-08,-2.30992272673763e-08,NaN,NaN,2.67812182038081e-08,-1.19458091560972e-07,-2.47897383694958e-06,4.44232921848582e-06,1.96335538153914e-06,-2.35695990008774e-07,1.96554951091215e-08,1.96554951091799e-08,5.04288685901248e-08,-5.04288685901325e-08,1.54833909611993e-07,5.02815196043535e-08,-4.85817523972397e-08,NaN,NaN,-5.67716290737279e-08,-2.19523143640351e-08,-1.61498800755921e-07,-1.98492734774559e-07,-1.98492734774119e-07,NaN,1.46157758078052e-07,5.05025683500631e-09,1.6621364679988e-08,-3.6725543563596e-08,-2.01041788836915e-08,-4.42178672926255e-07,7.21967949623218e-08,7.21967949623101e-08,1.14727886537252e-07,-1.14727886537006e-07,-8.10470091365203e-07,0,0,0
1278.3616,8.64458722953489e-07,-4.39673341186661e-07,4.24785381767237e-07,-1.07923377072701e-07,-7.61926724195605e-08,-7.61926724195262e-08,NaN,-1.4181090825889e-07,7.67743594331601e-08,-1.96869783452785e-07,1.61659316244889e-07,-1.96869783452695e-07,-8.88331815835023e-08,-7.4485525158637e-08,-1.63318706741932e-07,-6.26674704121978e-08,-2.2300556808403e-08,NaN,NaN,2.39729795180125e-08,-1.35084342928362e-07,-2.48681911326798e-06,4.41546631278583e-06,1.92864719952078e-06,-2.24516000322996e-07,2.113331530365e-08,2.11333153037087e-08,4.27560518860666e-08,-4.27560518860741e-08,1.59598212732604e-07,4.41429943810199e-08,-3.93822518394869e-08,NaN,NaN,-5.20535452349731e-08,-2.25079288852665e-08,-1.46185147085305e-07,-1.79546242767587e-07,-1.79546242767147e-07,NaN,1.37712054963921e-07,-8.72847133038984e-09,2.00273729523854e-08,-3.1660102740863e-08,-1.16327297885609e-08,-4.30201601875095e-07,9.94961904631341e-08,9.94961904631198e-08,6.16324116732609e-08,-6.16324116730106e-08,-7.92107150728012e-07,0,1,0
1278.464,8.43221220506638e-07,-4.23935531453029e-07,4.19285689054019e-07,-9.55495165686655e-08,-7.14020234209389e-08,-7.14020234209026e-08,NaN,-1.78676636275805e-07,-6.19288844007456e-09,-2.01234152052403e-07,1.65173793274769e-07,-2.01234152052313e-07,-1.07795041261188e-07,-6.83931137431971e-08,-1.76188155004178e-07,-7.41277235217457e-08,-2.1603697509339e-08,NaN,NaN,1.89388564050135e-08,-1.51727525421275e-07,-2.60263657068083e-06,4.44534542642438e-06,1.84270885574647e-06,-2.13145759011732e-07,2.24561208546441e-08,2.24561208547026e-08,3.73576558360275e-08,-3.73576558360357e-08,1.62460586285511e-07,3.88659367958815e-08,-3.12347878746162e-08,NaN,NaN,-4.77007967699066e-08,-2.33150670114567e-08,-1.32996036118347e-07,-1.56717850244833e-07,-1.56717850244393e-07,NaN,1.27802826153421e-07,-2.24127820966043e-08,2.59509491363128e-08,-2.81247220640881e-08,-2.17377292785828e-09,-4.10836564493066e-07,1.23443525701805e-07,1.23443525701788e-07,1.10145168481063e-09,-1.1014516845562e-09,-7.68943612905319e-07,0,1,0
1278.5664,8.18618512325094e-07,-4.05477628270185e-07,4.13140884055318e-07,-8.2182068399826e-08,-6.45743250064994e-08,-6.45743250064602e-08,NaN,-2.17240280233116e-07,-1.02143185598634e-07,-2.06527468924168e-07,1.69040785582036e-07,-2.06527468924078e-07,-1.26510529943692e-07,-6.18229116709225e-08,-1.88333441614408e-07,-8.60992959119744e-08,-2.11569007351331e-08,NaN,NaN,1.19561934044905e-08,-1.68987491002517e-07,-2.83461881465184e-06,4.53922496029678e-06,1.70460614564784e-06,-2.01393745836261e-07,2.365598720123e-08,2.3655987201288e-08,3.37174255187131e-08,-3.37174255187232e-08,1.64122073554539e-07,3.3822739309694e-08,-2.37687034924139e-08,NaN,NaN,-4.37189335791742e-08,-2.44205245730458e-08,-1.21732114111479e-07,-1.30633328492674e-07,-1.30633328492235e-07,NaN,1.16654387597945e-07,-3.55010992378565e-08,3.43883002678297e-08,-2.63825470307881e-08,8.00575323695932e-09,-3.8352344451233e-07,1.42507821864539e-07,1.42507821864519e-07,-6.61904756783906e-08,6.61904756786495e-08,-7.40596848405742e-07,0,1,0
1278.6688,7.9104468764786e-07,-3.85054252557431e-07,4.05990435090837e-07,-6.77075190814049e-08,-5.64556461241347e-08,-5.6455646124092e-08,NaN,-2.55715349700429e-07,-2.0762487227648e-07,-2.12829908914536e-07,1.7303045699389e-07,-2.12829908914445e-07,-1.44730874424339e-07,-5.48450207050433e-08,-1.99575895129178e-07,-9.80120398553555e-08,-2.11033243521487e-08,NaN,NaN,3.54289941063929e-09,-1.86406573963078e-07,-3.17661367123409e-06,4.69665700510301e-06,1.52004333387178e-06,-1.89176557716831e-07,2.47824350769172e-08,2.47824350769743e-08,3.1042360786853e-08,-3.10423607868662e-08,1.65164381975728e-07,2.8410996237693e-08,-1.66032119494667e-08,NaN,NaN,-4.00245471641946e-08,-2.57008959000161e-08,-1.12291086133469e-07,-1.02703814182615e-07,-1.02703814182178e-07,NaN,1.04637798330478e-07,-4.77343253914156e-08,4.49334134130213e-08,-2.65459873550059e-08,1.83874260579339e-08,-3.49272024698075e-07,1.55481740701199e-07,1.55481740701175e-07,-1.38640102599648e-07,1.38640102599912e-07,-7.07168646400437e-07,0,0,0
1278.7712,7.61002950445549e-07,-3.63552814815432e-07,3.97450135630523e-07,-5.22949029315504e-08,-4.80725038374065e-08,-4.80725038373595e-08,NaN,-2.91550723733226e-07,-3.16985271242332e-07,-2.2017463392589e-07,1.76823965481914e-07,-2.20174633925797e-07,-1.62212189004752e-07,-4.76209796294704e-08,-2.0983316863402e-07,-1.09196295483928e-07,-2.15716945765255e-08,NaN,NaN,-5.56755043384769e-09,-2.03472737879987e-07,-3.6090595806991e-06,4.90980299641732e-06,1.30074341572102e-06,-1.76585814627171e-07,2.58931359960028e-08,2.58931359960588e-08,2.83914243905074e-08,-2.83914243905245e-08,1.65942824569659e-07,2.21466061434597e-08,-9.41785316035369e-09,NaN,NaN,-3.64653506975847e-08,-2.688279817129e-08,-1.04809925824114e-07,-7.50412822103536e-08,-7.50412822099193e-08,NaN,9.22416065334567e-08,-5.91214883486429e-08,5.68154299805702e-08,-2.85574609087228e-08,2.8257969071767e-08,-3.10459104552168e-07,1.61598422089066e-07,1.6159842208904e-07,-2.13841549940477e-07,2.13841549940746e-07,-6.69200821818846e-07,0,0,0
1278.8736,7.29112535036679e-07,-3.41951857457574e-07,3.87160677579508e-07,-3.63666885886454e-08,-4.06277998339138e-08,-4.0627799833862e-08,NaN,-3.21709378372548e-07,-4.22862978469033e-07,-2.28531344306773e-07,1.80056580879611e-07,-2.28531344306679e-07,-1.78724296134382e-07,-4.03937083658856e-08,-2.19118004500066e-07,-1.18976331551659e-07,-2.26708860272216e-08,NaN,NaN,-1.4487703469831e-08,-2.19647830323307e-07,-4.10219961217578e-06,5.16494467120243e-06,1.06274505902939e-06,-1.63909299866462e-07,2.70429522772182e-08,2.70429522772732e-08,2.48203327369492e-08,-2.48203327369707e-08,1.66551180788182e-07,1.47319856563097e-08,-1.99806113872822e-09,NaN,NaN,-3.28542190177326e-08,-2.75918479830907e-08,-9.97210163374781e-08,-5.02153633867488e-08,-5.02153633863173e-08,NaN,8.00091816759634e-08,-6.99000265511686e-08,6.90070853253704e-08,-3.21902832156224e-08,3.68168021096688e-08,-2.70345353896878e-07,1.60644139466904e-07,1.60644139466875e-07,-2.8897014824326e-07,2.88970148243534e-07,-6.27529746485882e-07,0,0,0
1278.976,6.96113672854984e-07,-3.21244720439252e-07,3.74868952416132e-07,-2.0510745111227e-08,-3.53374387478418e-08,-3.53374387477848e-08,NaN,-3.43174285656547e-07,-5.17276290875089e-07,-2.37814520812112e-07,1.82375899242687e-07,-2.37814520812016e-07,-1.94088585477797e-07,-3.34558857780586e-08,-2.27544471255658e-07,-1.26799455236497e-07,-2.44809512070729e-08,NaN,NaN,-2.22706242107332e-08,-2.34436083626087e-07,-4.62095182475323e-06,5.44490296560963e-06,8.23951140859118e-07,-1.51596609106582e-07,2.82733920393161e-08,2.82733920393704e-08,1.95314948356843e-08,-1.95314948357111e-08,1.66866735148494e-07,6.0854546256765e-09,5.74338249269703e-09,NaN,NaN,-2.90081439806127e-08,-2.74200658743662e-08,-9.76861004209258e-08,-3.08861093575205e-08,-3.08861093570924e-08,NaN,6.84600888244527e-08,-8.04389184005999e-08,8.03809100388113e-08,-3.70702222703673e-08,4.33106877683661e-08,-2.32427648097778e-07,1.53024591372201e-07,1.53024591372168e-07,-3.61268052791741e-07,3.6126805279202e-07,-5.8312756294555e-07,0,0,0
1279.0784,6.62854392728806e-07,-3.02345111072876e-07,3.60509281656329e-07,-5.355756155152e-09,-3.32415462335472e-08,-3.32415462334843e-08,NaN,-3.53567807413169e-07,-5.93067236077225e-07,-2.47910697525314e-07,1.83496639342061e-07,-2.47910697525216e-07,-2.08223955428105e-07,-2.71081819646224e-08,-2.35332137392533e-07,-1.32362022909537e-07,-2.70373847830608e-08,NaN,NaN,-2.80247682394481e-08,-2.47474989232326e-07,-5.13011506539296e-06,5.73170643593608e-06,6.01591370545819e-07,-1.40176730459976e-07,2.96054278387044e-08,2.96054278387587e-08,1.20141020595878e-08,-1.20141020596201e-08,1.66658284638369e-07,-3.66636734303567e-09,1.37608570756893e-08,NaN,NaN,-2.47818685398485e-08,-2.59925405811609e-08,-9.94120808671709e-08,-1.93928586277678e-08,-1.93928586273434e-08,NaN,5.80208953793499e-08,-9.11015302127385e-08,8.98757885285294e-08,-4.2717431352302e-08,4.71583571761509e-08,-1.99813213334365e-07,1.39739649785712e-07,1.39739649785676e-07,-4.28454306769507e-07,4.28454306769792e-07,-5.37014798641266e-07,0,0,0
1279.1808,6.3023705221288e-07,-2.85980800573822e-07,3.44256251639455e-07,8.55688003476086e-09,-3.50313020960116e-08,-3.50313020959423e-08,NaN,-3.51714675040416e-07,-6.45320788166401e-07,-2.58703551056882e-07,1.83240640198646e-07,-2.58703551056783e-07,-2.21172871456719e-07,-2.1616707203655e-08,-2.42789578660184e-07,-1.35684257524181e-07,-3.03123743064656e-08,NaN,NaN,-3.1032892521667e-08,-2.58610052126223e-07,-5.59864172388964e-06,6.0088705028007e-06,4.1022877891377e-07,-1.30149257607759e-07,3.10380847442274e-08,3.10380847442827e-08,2.145643186192e-09,-2.14564318623007e-09,1.65716266878833e-07,-1.42229482547172e-08,2.1881807990448e-08,NaN,NaN,-2.00888421400245e-08,-2.30177861848524e-08,-1.05409227732688e-07,-1.73837667944041e-08,-1.73837667939835e-08,NaN,4.89808234950826e-08,-1.02106543177866e-07,9.66404048028794e-08,-4.86048240499129e-08,4.80355807528915e-08,-1.74766019419561e-07,1.22260178579245e-07,1.22260178579207e-07,-4.88974165136291e-07,4.88974165136581e-07,-4.90243842729097e-07,0,0,0
1279.2832,5.99121632893642e-07,-2.72599373910364e-07,3.26522258983674e-07,2.08669551248604e-08,-4.09331484990841e-08,-4.09331484990082e-08,NaN,-3.37992787109058e-07,-6.72369467028702e-07,-2.7008133358075e-07,1.81558288591256e-07,-2.70081333580648e-07,-2.33091576114291e-07,-1.71763559169657e-08,-2.50267932031071e-07,-1.37108481134129e-07,-3.42001746838748e-08,NaN,NaN,-3.08559781350262e-08,-2.67923704316161e-07,-6.00237623532804e-06,6.26292623137898e-06,2.6054999605369e-07,-1.21880334053813e-07,3.25518964516723e-08,3.25518964517293e-08,-9.77554109791576e-09,9.77554109787227e-09,1.63958209170059e-07,-2.51622245663592e-08,2.98244416581539e-08,NaN,NaN,-1.49094926405101e-08,-1.83181002619031e-08,-1.15779498831056e-07,-2.55451170293831e-08,-2.55451170289663e-08,NaN,4.14744288602627e-08,-1.13432777331656e-07,1.0013484968709e-07,-5.42231143100728e-08,4.59117353769441e-08,-1.58472365675023e-07,1.02338580867051e-07,1.0233858086701e-07,-5.42075820621405e-07,5.42075820621701e-07,-4.43903949565947e-07,0,0,0
1279.3856,5.70218954254464e-07,-2.62328560173335e-07,3.07890394081524e-07,3.14287668217413e-08,-5.06798945805635e-08,-5.06798945804811e-08,NaN,-3.14376748478612e-07,-6.76100494724859e-07,-2.81926027354229e-07,1.78530141986088e-07,-2.81926027354126e-07,-2.44202728389699e-07,-1.38868956708121e-08,-2.58089624060331e-07,-1.37227156632348e-07,-3.85129993487876e-08,NaN,NaN,-2.73996806769339e-08,-2.75709081767596e-07,-6.32541794728257e-06,6.48415713112999e-06,1.5873918385025e-07,-1.15532858786244e-07,3.41131834105346e-08,3.4113183410594e-08,-2.30772317971933e-08,2.30772317971444e-08,1.61476966219379e-07,-3.60029339004293e-08,3.72272581096659e-08,NaN,NaN,-9.29272521574108e-09,-1.18427896635606e-08,-1.30101758387818e-07,-4.34701189571035e-08,-4.34701189566901e-08,NaN,3.54879907336782e-08,-1.24795562695788e-07,1.00182380141226e-07,-5.91403545253122e-08,4.10420256158417e-08,-1.51006183125734e-07,8.17924175295425e-08,8.1792417529501e-08,-5.87714732222713e-07,5.87714732223012e-07,-3.9912880215784e-07,0,0,0
1279.488,5.44016720963741e-07,-2.55011171775621e-07,2.89005549188515e-07,4.02834118015522e-08,-6.3572759875822e-08,-6.35727598757334e-08,NaN,-2.84142861768257e-07,-6.61461224591947e-07,-2.94093050945401e-07,1.7434870458881e-07,-2.94093050945297e-07,-2.54721565804186e-07,-1.17452508658566e-08,-2.66466816669866e-07,-1.36763492658098e-07,-4.29925276007537e-08,NaN,NaN,-2.09242982470202e-08,-2.82395715002577e-07,-6.56065006923717e-06,6.6667330381627e-06,1.06082968928454e-07,-1.11046003841853e-07,3.56771822774145e-08,3.56771822774771e-08,-3.68304908449753e-08,3.68304908449214e-08,1.58521132231314e-07,-4.62716775949036e-08,4.36910845744983e-08,NaN,NaN,-3.3531296299913e-09,-3.66729986251185e-09,-1.47442615659259e-07,-6.96949987924487e-08,-6.96949987920386e-08,NaN,3.08851128039071e-08,-1.35699697649447e-07,9.69623420884824e-08,-6.3045153480802e-08,3.39171886076104e-08,-1.51464517727773e-07,6.22880321002602e-08,6.22880321002184e-08,-6.26295274413788e-07,6.2629527441409e-07,-3.57103861651958e-07,0,0,0
1279.5904,5.20751435788394e-07,-2.50295561084747e-07,2.70455874704043e-07,4.75939966598752e-08,-7.86136819164067e-08,-7.8613681916312e-08,NaN,-2.51284160751815e-07,-6.35299188098646e-07,-3.06390879794839e-07,1.69283224448182e-07,-3.06390879794733e-07,-2.64774371790276e-07,-1.06521156007675e-08,-2.75426487390871e-07,-1.36429047631395e-07,-4.73392707612591e-08,NaN,NaN,-1.19966540747488e-08,-2.88444552840254e-07,-6.70992247514096e-06,6.80855928106245e-06,9.8636805924534e-08,-1.08162554053815e-07,3.7192124659568e-08,3.71921246596342e-08,-5.0013494041676e-08,5.00134940416177e-08,1.55421175440361e-07,-5.5572187554421e-08,4.88333298323048e-08,NaN,NaN,2.74037748285153e-09,6.0178668855723e-09,-1.66490390396391e-07,-1.01904866887387e-07,-1.0190486688698e-07,NaN,2.74449828377877e-08,-1.45551334438665e-07,9.09408821161435e-08,-6.5768939342076e-08,2.51719427739996e-08,-1.58228412517598e-07,4.51372638596724e-08,4.51372638596317e-08,-6.58319220008677e-07,6.58319220008982e-07,-3.19037686426219e-07,0,1,0
1279.6928,5.00413321544102e-07,-2.47753073897414e-07,2.52660247647084e-07,5.35748371630214e-08,-9.46754747409473e-08,-9.46754747408468e-08,NaN,-2.19788446863128e-07,-6.04914384730234e-07,-3.18566172563987e-07,1.63633550879952e-07,-3.18566172563881e-07,-2.74327011519597e-07,-1.04315511478002e-08,-2.84758562667229e-07,-1.36783117835243e-07,-5.12548892545732e-08,NaN,NaN,-1.4025016672351e-09,-2.94233996088283e-07,-6.78401900240785e-06,6.91111709888951e-06,1.27098096484838e-07,-1.06494632609276e-07,3.86052585379082e-08,3.86052585379785e-08,-6.16782497289286e-08,6.16782497288671e-08,1.524944529963e-07,-6.36449701185767e-08,5.23437159071065e-08,NaN,NaN,8.78602905411499e-09,1.69237805439552e-08,-1.857810391053e-07,-1.37272745566664e-07,-1.37272745566259e-07,NaN,2.49037879014229e-08,-1.53785132018068e-07,8.27627725586201e-08,-6.7290856793174e-08,1.54719157653801e-08,-1.69262896167343e-07,3.11259935041126e-08,3.11259935040729e-08,-6.84085831273405e-07,6.84085831273711e-07,-2.86057663417854e-07,0,1,0
1279.7952,4.82776636802279e-07,-2.46998003921571e-07,2.35778632881107e-07,5.84367398110691e-08,-1.10673918254154e-07,-1.10673918254048e-07,NaN,-1.9298731911658e-07,-5.76772735142397e-07,-3.30300289437845e-07,1.57683676850881e-07,-3.30300289437738e-07,-2.83139681847222e-07,-1.08623989556455e-08,-2.94002080802702e-07,-1.38121273994869e-07,-5.44862422558754e-08,NaN,NaN,9.95738906371873e-09,-2.99959924146884e-07,-6.80192074309744e-06,6.97921167440395e-06,1.77290931309813e-07,-1.05614608469362e-07,3.98685541038186e-08,3.9868554103893e-08,-7.10726933825939e-08,7.10726933825298e-08,1.4996223618499e-07,-7.03990138148514e-08,5.4026102153503e-08,NaN,NaN,1.4574300500417e-08,2.8683345960598e-08,-2.03958313551953e-07,-1.72857661053933e-07,-1.72857661053529e-07,NaN,2.2989557601231e-08,-1.59958802117716e-07,7.31449036741111e-08,-6.77297261462836e-08,5.41517752776323e-09,-1.8235550485532e-07,2.04209446346762e-08,2.04209446346382e-08,-7.03571850729732e-07,7.03571850730039e-07,-2.59042653708384e-07,0,1,0
1279.8976,4.67459452014719e-07,-2.4777039575389e-07,2.19689056261229e-07,6.23606403363457e-08,-1.25700995853977e-07,-1.25700995853867e-07,NaN,-1.73148185470601e-07,-5.55702086875015e-07,-3.4122648424673e-07,1.51670367493087e-07,-3.41226484246623e-07,-2.90766208112075e-07,-1.17120262831517e-08,-3.02478234395063e-07,-1.40421080723573e-07,-5.68608102888768e-08,NaN,NaN,2.11724944557135e-08,-3.05576165415101e-07,-6.78864982985222e-06,7.02026191672442e-06,2.31612086875619e-07,-1.05149214551581e-07,4.09432489930399e-08,4.09432489931184e-08,-7.77058005857494e-08,7.77058005856836e-08,1.47897736426058e-07,-7.59133650213984e-08,5.38252261775559e-08,NaN,NaN,1.99101294779938e-08,4.0877394907691e-08,-2.19997771438912e-07,-2.05967860045097e-07,-2.05967860044695e-07,NaN,2.14456348771355e-08,-1.63793890691382e-07,6.27932445556237e-08,-6.73245778615893e-08,-4.53133330602814e-09,-1.95245618260693e-07,1.26012929741742e-08,1.26012929741371e-08,-7.16503103112836e-07,7.16503103113145e-07,-2.38450074352254e-07,0,0,0
1280,4.5400752242509e-07,-2.49934570130456e-07,2.04072952295037e-07,6.55038230516591e-08,-1.39083401774431e-07,-1.39083401774318e-07,NaN,-1.61399284797698e-07,-5.4471506314822e-07,-3.50973755558722e-07,1.45777859689846e-07,-3.50973755558614e-07,-2.96613676585048e-07,-1.27569588630508e-08,-3.09370635447936e-07,-1.43364921168778e-07,-5.83089289871754e-08,NaN,NaN,3.14199067274672e-08,-3.10801174488875e-07,-6.77180034673472e-06,7.04309570061558e-06,2.71295353884357e-07,-1.04847094223138e-07,4.18058234630311e-08,4.18058234631132e-08,-8.13799339806947e-08,8.13799339806282e-08,1.4621432745667e-07,-8.04252292572175e-08,5.1848938006591e-08,NaN,NaN,2.46325935493094e-08,5.30702464122185e-08,-2.33336744383843e-07,-2.3441265051982e-07,-2.34412650519419e-07,NaN,2.00447808027804e-08,-1.65169064277703e-07,5.23387878007086e-08,-6.64079448587464e-08,-1.40691570580984e-08,-2.05677581722965e-07,6.80360956390846e-09,6.80360956387107e-09,-7.2253844305798e-07,7.22538443058289e-07,-2.24195102590435e-07,0,0,0
1280.1024,4.41976004228605e-07,-2.53383800169382e-07,1.88592204059628e-07,6.80263038740902e-08,-1.50362734254074e-07,-1.50362734253958e-07,NaN,-1.57962510245234e-07,-5.453952433546e-07,-3.59230484362381e-07,1.40154403714215e-07,-3.59230484362273e-07,-3.0006084661846e-07,-1.37842675879701e-08,-3.13845114206267e-07,-1.4643532617845e-07,-5.88721874460503e-08,NaN,NaN,4.00447120501326e-08,-3.1519643038977e-07,-6.77778183273292e-06,7.05670301580666e-06,2.78921183077303e-07,-1.0459866380505e-07,4.24564164114582e-08,4.2456416411543e-08,-8.22109357960664e-08,8.22109357959996e-08,1.44695993234216e-07,-8.43153532208127e-08,4.8386877698928e-08,NaN,NaN,2.86341081405777e-08,6.48536673510526e-08,-2.43889549290288e-07,-2.56622480401485e-07,-2.56622480401086e-07,NaN,1.85989113853519e-08,-1.64082751749289e-07,4.22871844379206e-08,-6.53777510525793e-08,-2.30905666147176e-08,-2.11458487407504e-07,1.9150223253387e-09,1.91502232530079e-09,-7.21491151680042e-07,7.21491151680351e-07,-2.1561479857951e-07,0,0,0
1280.2048,4.30980759716415e-07,-2.57897188340661e-07,1.73083571376161e-07,7.01115293394137e-08,-1.59233891331418e-07,-1.59233891331301e-07,NaN,-1.62541090965661e-07,-5.58548796981095e-07,-3.65808132348368e-07,1.349349465591e-07,-3.6580813234826e-07,-3.00605233253229e-07,-1.45837862400996e-08,-3.15189019493164e-07,-1.490479551501e-07,-5.86977791756593e-08,NaN,NaN,4.66141143221298e-08,-3.18288167936448e-07,-6.82863781686595e-06,7.06931212396702e-06,2.40674307104672e-07,-1.04411360469565e-07,4.29252193971021e-08,4.29252193971892e-08,-8.06315393627329e-08,8.06315393626666e-08,1.43058808071808e-07,-8.80820184336108e-08,4.39109960006875e-08,NaN,NaN,3.1876264699643e-08,7.58904131738523e-08,-2.51968012705656e-07,-2.71671686076301e-07,-2.71671686075904e-07,NaN,1.69674949546952e-08,-1.6060457477411e-07,3.29889619316153e-08,-6.46674731177473e-08,-3.1678511186189e-08,-2.1059363210834e-07,-3.24108182630351e-09,-3.24108182634231e-09,-7.1354634756889e-07,7.13546347569198e-07,-2.11526403739696e-07,0,0,0
1280.3072,4.2071158568033e-07,-2.63015418704572e-07,1.57696166976167e-07,7.19631577398013e-08,-1.65488042984579e-07,-1.65488042984461e-07,NaN,-1.74663231552671e-07,-5.84744359006383e-07,-3.70682789613257e-07,1.30257137778839e-07,-3.70682789613149e-07,-2.9799065545505e-07,-1.49471394476352e-08,-3.12937794902521e-07,-1.50675253815314e-07,-5.80207895957697e-08,NaN,NaN,5.09397433967074e-08,-3.19686411186583e-07,-6.9395822205845e-06,7.08768066044961e-06,1.48098439868705e-07,-1.0436299322592e-07,4.32706923242499e-08,4.32706923243387e-08,-7.73648712971119e-08,7.7364871297046e-08,1.41019077855836e-07,-9.22894739069563e-08,3.90438024218677e-08,NaN,NaN,3.43962250270385e-08,8.59473527274375e-08,-2.5814748725198e-07,-2.79253743460145e-07,-2.7925374345975e-07,NaN,1.50641953346533e-08,-1.54836915958081e-07,2.46357508680138e-08,-6.47073798757451e-08,-4.00716290077862e-08,-2.01521459620647e-07,-9.74351163448863e-09,-9.74351163453005e-09,-6.99415167725218e-07,6.99415167725526e-07,-2.10373243152027e-07,0,0,0
1280.4096,4.10920581072004e-07,-2.67985964547361e-07,1.42934616525054e-07,7.37741167126241e-08,-1.68987633226743e-07,-1.68987633226624e-07,NaN,-1.93845620918811e-07,-6.24493329005298e-07,-3.74002280991107e-07,1.26266965539695e-07,-3.74002280990999e-07,-2.9227745431119e-07,-1.46827417159108e-08,-3.06960196026935e-07,-1.50927160375196e-07,-5.71397080456573e-08,NaN,NaN,5.30700924265004e-08,-3.19166470508073e-07,-7.11709121566414e-06,7.11628052795556e-06,-8.10687705028267e-10,-1.0455880672458e-07,4.35670327162655e-08,4.35670327163555e-08,-7.33632424306943e-08,7.33632424306288e-08,1.38343043295526e-07,-9.74892733685391e-08,3.44953000269218e-08,NaN,NaN,3.62989426768771e-08,9.49126443049035e-08,-2.63119416148062e-07,-2.79642856923923e-07,-2.7964285692353e-07,NaN,1.28596072798605e-08,-1.46906679179575e-07,1.7276519274239e-08,-6.58704504864176e-08,-4.85939312122316e-08,-1.83407794419875e-07,-1.84309811196373e-08,-1.84309811196824e-08,-6.80338944529436e-07,6.80338944529743e-07,-2.10437879941887e-07,0,0,0
1280.512,4.01405867283364e-07,-2.71802732801864e-07,1.2960313448191e-07,7.56734759033901e-08,-1.69678219569949e-07,-1.69678219569828e-07,NaN,-2.19550729071128e-07,-6.78026305627435e-07,-3.76060802062967e-07,1.23113682999368e-07,-3.76060802062858e-07,-2.83844900813735e-07,-1.36449548447514e-08,-2.97489855658319e-07,-1.49581025783826e-07,-5.63881835596329e-08,NaN,NaN,5.32605133923631e-08,-3.16700931738691e-07,-7.35757975100725e-06,7.15629691990608e-06,-2.0128283109767e-07,-1.05108830641769e-07,4.388294328434e-08,4.38829432844305e-08,-6.97146105398085e-08,6.97146105397428e-08,1.34866397999817e-07,-1.04128521326253e-07,3.09817909511499e-08,NaN,NaN,3.77347131707919e-08,1.02793871593155e-07,-2.67567960491208e-07,-2.73650008901874e-07,-2.73650008901484e-07,NaN,1.03788217202106e-08,-1.36994605732017e-07,1.08447302998651e-08,-6.84064057791249e-08,-5.75616754793108e-08,-1.56411147579847e-07,-2.97744507989884e-08,-2.97744507990381e-08,-6.57910857724002e-07,6.57910857724309e-07,-2.10086479989403e-07,0,0,0
1280.6144,3.91996387138781e-07,-2.73333906134238e-07,1.18662481004954e-07,7.76690004971492e-08,-1.67623983557508e-07,-1.67623983557386e-07,NaN,-2.51017833400561e-07,-7.44815218952091e-07,-3.77246510481612e-07,1.20933118801832e-07,-3.77246510481502e-07,-2.73332877125439e-07,-1.17666359184361e-08,-2.85099513043708e-07,-1.46569942836705e-07,-5.61024797839598e-08,NaN,NaN,5.19281941000147e-08,-3.12445197587691e-07,-7.6469860820245e-06,7.20469464424502e-06,-4.42291437776036e-07,-1.0612845696477e-07,4.42575717846324e-08,4.42575717847233e-08,-6.75195607822784e-08,6.75195607822117e-08,1.30485790917846e-07,-1.12462697065758e-07,2.91382892600091e-08,NaN,NaN,3.88668925821771e-08,1.09698465127135e-07,-2.72100199212067e-07,-2.6255593529954e-07,-2.62555935299154e-07,NaN,7.69387918611693e-09,-1.25387524273322e-07,5.1914095177998e-09,-7.23793122546412e-08,-6.71879027368904e-08,-1.21818420688178e-07,-4.37748485059147e-08,-4.37748485059701e-08,-6.33779798801098e-07,6.33779798801406e-07,-2.0800057513053e-07,0,0,0
1280.7168,3.82524166253287e-07,-2.71503509787414e-07,1.11020656466285e-07,7.9609909669922e-08,-1.63045584851829e-07,-1.63045584851705e-07,NaN,-2.87092775108045e-07,-8.23095007372297e-07,-3.7796309981604e-07,1.19821379905021e-07,-3.77963099815928e-07,-2.61535587213349e-07,-9.08246160505491e-09,-2.70618048818236e-07,-1.41939602189592e-07,-5.65862266608726e-08,NaN,NaN,4.95988460519102e-08,-3.06684183031629e-07,-7.96166441330448e-06,7.25372863606392e-06,-7.07935777237178e-07,-1.07752413767465e-07,4.46809098915973e-08,4.46809098916882e-08,-6.77450001332502e-08,6.77450001331817e-08,1.25131454368358e-07,-1.2248310249712e-07,2.94279383873592e-08,NaN,NaN,3.98364888375393e-08,1.15806076134208e-07,-2.77239563184896e-07,-2.47996138512589e-07,-2.47996138512206e-07,NaN,4.90986916815044e-09,-1.12525614604052e-07,1.22927940185052e-10,-7.76288015176437e-08,-7.75058735775057e-08,-8.19890623974732e-08,-5.99117809763122e-08,-5.99117809763732e-08,-6.09347263654873e-07,6.09347263655182e-07,-2.03363738146018e-07,0,0,0
