time,S1-D1,S1-D8,S1-D9,S1-D15,S2-D1,S2-D2,S2-D3,S2-D9,S3-D1,S3-D2,S3-D16,S4-D2,S4-D3,S4-D5,S5-D3,S5-D4,S5-D5,S6-D2,S6-D5,S6-D17,S7-D6,S7-D7,S8-D6,S8-D7,S8-D18,S9-D3,S9-D4,S9-D9,S9-D11,S9-D19,S10-D8,S10-D9,S10-D10,S10-D11,S11-D8,S11-D10,S11-D20,S12-D10,S12-D11,S12-D12,S13-D4,S13-D11,S13-D12,S14-D10,S14-D12,S14-D21,S15-D13,S15-D14,S16-D13,S16-D14,S16-D22,SART_Target,SART_NonTarget,SART_Probe
1643.6224,-4.66118838379593e-07,-1.62653325071143e-07,-6.28772163450705e-07,3.83976904461073e-07,-2.10387210991182e-07,-2.10387210991536e-07,NaN,NaN,-3.55623173529052e-07,-6.22576582614347e-07,1.31181096806586e-06,-6.22576582615443e-07,-2.9156505298736e-07,1.77173431270677e-07,-1.14391621716668e-07,7.37223271167275e-07,-5.44919894294007e-07,1.92303376873408e-07,4.37096846085851e-07,2.06685461449734e-09,4.37096846086179e-07,6.61818664124834e-07,-4.84222955129702e-07,1.77595708995303e-07,3.88539493672908e-08,-1.18678229171056e-07,-1.18678229171081e-07,-2.66847408142958e-08,2.66847408140095e-08,-1.51567097276321e-07,-4.69178426521794e-07,NaN,NaN,NaN,1.64719828588061e-07,1.77012626643093e-07,2.21348191891106e-07,5.54008259614011e-08,5.54008259613609e-08,2.20386180290832e-07,1.0525464389976e-08,2.30911644680187e-07,1.92867414842245e-07,-1.51747180294219e-07,4.11202345479596e-08,4.28120350853851e-08,4.13537845213802e-08,4.13537845212347e-08,-2.27162865359578e-07,2.27162865359813e-07,-3.91579047297546e-07,0,1,0
1643.7248,-4.55741132756106e-07,-1.51835662147263e-07,-6.07576794903336e-07,3.79091207576373e-07,-2.00552361805091e-07,-2.00552361805447e-07,NaN,NaN,-3.43493398343155e-07,-5.83031264892909e-07,1.33750437717499e-06,-5.83031264893987e-07,-2.87369015723614e-07,1.77390109521922e-07,-1.09978906201677e-07,7.53944649469831e-07,-5.77321212868356e-07,1.76623436601609e-07,4.07551552658176e-07,-1.62795614213631e-08,4.07551552658508e-07,6.54531388601576e-07,-5.03322577935919e-07,1.51208810665829e-07,2.42126588896808e-08,-1.13884020314069e-07,-1.13884020314092e-07,-3.56269713997645e-08,3.56269713994792e-08,-1.74700161000637e-07,-3.89501646788268e-07,NaN,NaN,NaN,1.82075265175887e-07,2.00640533623229e-07,2.22038717828589e-07,5.83448372376806e-08,5.83448372376407e-08,3.06702663451348e-07,-5.04385642546724e-08,2.56264099196062e-07,1.77627834916087e-07,-1.42287614594065e-07,3.53402203219555e-08,5.28026523066706e-08,3.50036859364931e-08,3.50036859363477e-08,-2.14533592305983e-07,2.14533592306212e-07,-3.89613755349922e-07,0,1,0
1643.8272,-4.40604105164588e-07,-1.40446788187606e-07,-5.81050893352162e-07,3.73710985918322e-07,-1.89436523961939e-07,-1.89436523962296e-07,NaN,NaN,-3.28215811174361e-07,-5.30346221419916e-07,1.35945835319432e-06,-5.30346221420983e-07,-2.79879293290544e-07,1.74657179056009e-07,-1.0522211423452e-07,7.41616691683591e-07,-5.87517117295821e-07,1.54099574387899e-07,3.78214514586335e-07,-3.33280637197552e-08,3.78214514586669e-07,6.52388176416469e-07,-5.16969012747785e-07,1.35419163668849e-07,9.63916974150618e-09,-1.09908135464867e-07,-1.09908135464887e-07,-4.51659142388669e-08,4.51659142385824e-08,-2.00160143634812e-07,-2.88429635589865e-07,NaN,NaN,NaN,1.9869190986046e-07,2.21201040668098e-07,2.24176293497045e-07,6.05179940108433e-08,6.05179940108045e-08,3.84570476268979e-07,-1.02617805726375e-07,2.81952670541999e-07,1.60351140498082e-07,-1.31729047398298e-07,2.86220930997161e-08,6.3165076707337e-08,2.70122150534931e-08,2.70122150533488e-08,-1.96005429315918e-07,1.96005429316139e-07,-3.96501125804844e-07,0,1,0
1643.9296,-4.20926674873603e-07,-1.29224191828517e-07,-5.50150866702089e-07,3.67719333460356e-07,-1.77853562772478e-07,-1.77853562772835e-07,NaN,NaN,-3.09848540558622e-07,-4.64562460361308e-07,1.37782709196422e-06,-4.64562460362356e-07,-2.69469677420161e-07,1.68836983768756e-07,-1.00632693651388e-07,6.99730655501201e-07,-5.74982533085669e-07,1.24748122415656e-07,3.51173560371517e-07,-4.88891140913913e-08,3.51173560371851e-07,6.52108222263359e-07,-5.22067571826743e-07,1.30040650436771e-07,-4.10115454176362e-09,-1.06907044565994e-07,-1.06907044566011e-07,-5.49403296055606e-08,5.49403296052771e-08,-2.2657783618988e-07,-1.70733277149881e-07,NaN,NaN,NaN,2.13906645986153e-07,2.37588355331722e-07,2.27409448095006e-07,6.16627819974547e-08,6.16627819974182e-08,4.49444794886133e-07,-1.41946554302428e-07,3.07498240583109e-07,1.4088100327439e-07,-1.20226542967712e-07,2.06544603066092e-08,7.32846367200225e-08,1.77286813327442e-08,1.77286813326019e-08,-1.72844044936661e-07,1.72844044936874e-07,-4.1175937603069e-07,0,0,0
1644.032,-3.97455478299216e-07,-1.18684190444723e-07,-5.16139668743908e-07,3.60678364191397e-07,-1.66471672023302e-07,-1.66471672023658e-07,NaN,NaN,-2.88705061037149e-07,-3.87396027970753e-07,1.39235277982005e-06,-3.87396027971792e-07,-2.56765679054944e-07,1.60188669417012e-07,-9.6577009637914e-08,6.29510045180305e-07,-5.40893949338428e-07,8.86160958419961e-08,3.28209470843268e-07,-6.318167748196e-08,3.28209470843602e-07,6.49420166774154e-07,-5.15475143284474e-07,1.33945023489821e-07,-1.64663876122064e-08,-1.04777873137003e-07,-1.04777873137015e-07,-6.47485485515055e-08,6.47485485512224e-08,-2.52428035883207e-07,-4.27940042982732e-08,NaN,NaN,NaN,2.27308500357692e-07,2.49069562466384e-07,2.31200347431841e-07,6.16707098046855e-08,6.16707098046526e-08,4.97238755132698e-07,-1.65292718053838e-07,3.31946037078273e-07,1.19073917158523e-07,-1.07833956463717e-07,1.12399606947361e-08,8.23611907098669e-08,7.55561392038114e-09,7.55561392024124e-09,-1.46879829018284e-07,1.46879829018488e-07,-4.34081337484285e-07,0,0,0
1644.1344,-3.71380781075884e-07,-1.09084889865595e-07,-4.8046567094145e-07,3.51834523703271e-07,-1.55763149828722e-07,-1.55763149829076e-07,NaN,NaN,-2.65338954878645e-07,-3.01990148163586e-07,1.40227403211409e-06,-3.01990148164629e-07,-2.42587785726873e-07,1.4936233761134e-07,-9.32254481155128e-08,5.33528956557033e-07,-4.87782402843028e-07,4.57465537141222e-08,3.10493047200962e-07,-7.6780298316478e-08,3.10493047201294e-07,6.39619202323556e-07,-4.94436535813801e-07,1.45182666509879e-07,-2.71941235240194e-08,-1.03178743522559e-07,-1.03178743522567e-07,-7.45868297718102e-08,7.45868297715277e-08,-2.76158204443679e-07,8.8036347956223e-08,NaN,NaN,NaN,2.3877441590397e-07,2.55288992303366e-07,2.34912111000286e-07,6.05597540303149e-08,6.05597540302864e-08,5.24934116499295e-07,-1.71078923693917e-07,3.53855192804799e-07,9.48466364700897e-08,-9.4536247505206e-08,3.10388964813632e-10,8.95491523312426e-08,-3.1044498367769e-09,-3.10444983691397e-09,-1.20246279604549e-07,1.20246279604744e-07,-4.61456726860548e-07,0,0,0
1644.2368,-3.44203982124993e-07,-1.00444172718475e-07,-4.44648154843442e-07,3.40220308734056e-07,-1.46012116325837e-07,-1.46012116326187e-07,NaN,NaN,-2.40514348442547e-07,-2.12520556582395e-07,1.40628267173225e-06,-2.12520556583444e-07,-2.27884377416816e-07,1.37376925333792e-07,-9.05074520830034e-08,4.15346066278877e-07,-4.19135275442853e-07,-3.78920916386128e-09,2.98389772174677e-07,-9.05158997026749e-08,2.98389772175006e-07,6.18215138260158e-07,-4.57003706719642e-07,1.61211431540619e-07,-3.63126833370102e-08,-1.01591569765921e-07,-1.01591569765924e-07,-8.46327408124301e-08,8.46327408121481e-08,-2.96326764421133e-07,2.14036764087779e-07,NaN,NaN,NaN,2.48443023913952e-07,2.56228641294019e-07,2.37887195121887e-07,5.8431961403844e-08,5.84319614038206e-08,5.31006251410742e-07,-1.59597014021037e-07,3.71409237389134e-07,6.82253510683621e-08,-8.02955552364536e-08,-1.20702041681625e-08,9.41197393162221e-08,-1.38944468003256e-08,-1.38944468004599e-08,-9.51612373642373e-08,9.51612373644231e-08,-4.91349584908819e-07,0,0,0
1644.3392,-3.17566527966232e-07,-9.25971306701763e-08,-4.10163658636387e-07,3.2483102083121e-07,-1.37361156710959e-07,-1.37361156711305e-07,NaN,NaN,-2.15156871590713e-07,-1.23695788258141e-07,1.40259032349767e-06,-1.23695788259194e-07,-2.13656279915835e-07,1.25554799824515e-07,-8.81014800912977e-08,2.79106639679217e-07,-3.38954461155264e-07,-5.98478214759335e-08,2.91430852541909e-07,-1.0533728655762e-07,2.91430852542234e-07,5.81569065687769e-07,-4.02331146150209e-07,1.79237919537639e-07,-4.41009583277976e-08,-9.94145369062699e-08,-9.941453690627e-08,-9.51847444919625e-08,9.51847444916809e-08,-3.11733757970928e-07,3.27661740222195e-07,NaN,NaN,NaN,2.5663201092914e-07,2.52130022854049e-07,2.39511304858101e-07,5.54240723740712e-08,5.54240723740538e-08,5.15592696181964e-07,-1.32988581255177e-07,3.82604114926223e-07,3.93846733211739e-08,-6.51011825050334e-08,-2.57165091839315e-08,9.56036216427255e-08,-2.45383082514133e-08,-2.45383082515454e-08,-7.37651223819212e-08,7.37651223820981e-08,-5.20934644190954e-07,0,0,0
1644.4416,-2.93063474898469e-07,-8.52698971693086e-08,-3.78333372067763e-07,3.0482503912982e-07,-1.29871526528967e-07,-1.29871526529309e-07,NaN,NaN,-1.90281284476512e-07,-4.01929745097349e-08,1.38914976533515e-06,-4.0192974510811e-08,-2.00872613399188e-07,1.15384637124828e-07,-8.54879762743362e-08,1.29078195707444e-07,-2.51290368757657e-07,-1.22212173050101e-07,2.88449129132461e-07,-1.22171378853599e-07,2.88449129132781e-07,5.27407168372564e-07,-3.30767561602428e-07,1.96639606770193e-07,-5.10269225291453e-08,-9.60637798789734e-08,-9.6063779878971e-08,-1.0658115702566e-07,1.0658115702538e-07,-3.21549463416748e-07,4.22075887632946e-07,NaN,NaN,NaN,2.63730746108316e-07,2.4340231555907e-07,2.39255032454737e-07,5.16631107354971e-08,5.16631107354866e-08,4.80466506708533e-07,-9.49799945157834e-08,3.85486512192193e-07,8.66950384040352e-09,-4.9008034849027e-08,-4.03385310086965e-08,9.38680476291565e-08,-3.48622221268263e-08,-3.48622221269566e-08,-5.80072930044955e-08,5.80072930046641e-08,-5.47392426077059e-07,0,0,0
1644.544,-2.72073945913436e-07,-7.81535235092263e-08,-3.50227469422656e-07,2.79675434993564e-07,-1.23576119997581e-07,-1.23576119997917e-07,NaN,NaN,-1.66902308507326e-07,3.3889471769158e-08,1.36399477562837e-06,3.3889471768063e-08,-1.90379446860934e-07,1.08307227470751e-07,-8.20722193901569e-08,-3.08183360227972e-08,-1.59824646324367e-07,-1.90642982347052e-07,2.87841845156449e-07,-1.418287473435e-07,2.87841845156765e-07,4.55088988515602e-07,-2.43705154181189e-07,2.11383834334449e-07,-5.77113881966837e-08,-9.10650783479256e-08,-9.10650783479222e-08,-1.19116674289509e-07,1.19116674289231e-07,-3.25449676501802e-07,4.91701703297796e-07,NaN,NaN,NaN,2.70107618179178e-07,2.30556139494157e-07,2.36679160835778e-07,4.72387126743545e-08,4.72387126743513e-08,4.28859520535631e-07,-5.04293307470407e-08,3.78430189788041e-07,-2.33947874387878e-08,-3.2155926069162e-08,-5.55507135080236e-08,8.90951811818418e-08,-4.47922555520416e-08,-4.4792255552171e-08,-4.95780518663108e-08,4.95780518664717e-08,-5.68232253142092e-07,0,0,0
1644.6464,-2.55626500778011e-07,-7.09708454982513e-08,-3.26597346276267e-07,2.49237342374029e-07,-1.18509798224077e-07,-1.18509798224408e-07,NaN,NaN,-1.45945136370742e-07,9.54468485782631e-08,1.32558251263586e-06,9.54468485771416e-08,-1.82800390750151e-07,1.05462173027916e-07,-7.73382177222057e-08,-1.9732188744608e-07,-6.75995515313623e-08,-2.64921438977331e-07,2.87894886873756e-07,-1.64959184062322e-07,2.87894886874064e-07,3.65592434836984e-07,-1.43274612190346e-07,2.22317822646659e-07,-6.49092812531912e-08,-8.41246238812046e-08,-8.41246238812016e-08,-1.32963172723132e-07,1.32963172722857e-07,-3.23726335405716e-07,5.32718924186213e-07,NaN,NaN,NaN,2.76051590669384e-07,2.14181288716791e-07,2.31411597358803e-07,4.21999102841718e-08,4.21999102841762e-08,3.65096237021492e-07,-4.68493524471681e-09,3.60411301776233e-07,-5.60898735545252e-08,-1.47857546718102e-08,-7.08756282264099e-08,8.16777351585668e-08,-5.43225008358423e-08,-5.43225008359716e-08,-4.9883557575433e-08,4.98835575755875e-08,-5.81573476889941e-07,0,0,0
1644.7488,-2.44299345805826e-07,-6.35324514924868e-08,-3.0783179729833e-07,2.13766758698319e-07,-1.14705857676212e-07,-1.14705857676538e-07,NaN,NaN,-1.28173149571685e-07,1.42546313525651e-07,1.27302646171688e-06,1.42546313524503e-07,-1.78430444351794e-07,1.07474194502298e-07,-7.09562498494628e-08,-3.67808407690845e-07,2.30399684192481e-08,-3.44768439271485e-07,2.87074614066135e-07,-1.91999641205959e-07,2.87074614066434e-07,2.61344568865055e-07,-3.21265842796228e-08,2.29217984585441e-07,-7.342321552218e-08,-7.5175927594882e-08,-7.51759275948809e-08,-1.48100555714117e-07,1.48100555713845e-07,-3.17286883992207e-07,5.43379000966174e-07,NaN,NaN,NaN,2.81743546072356e-07,1.94953882585638e-07,2.23144645135267e-07,3.65742348409155e-08,3.6574234840928e-08,2.94034358613415e-07,3.71761791840425e-08,3.31210537796922e-07,-8.84879181886686e-08,2.72304871388938e-09,-8.57648694748546e-08,7.2103442897912e-08,-6.34626614139347e-08,-6.34626614140649e-08,-6.00498546033369e-08,6.00498546034852e-08,-5.86310858436916e-07,0,0,0
1644.8512,-2.38159664458859e-07,-5.57771499866032e-08,-2.93936814445494e-07,1.73948766675817e-07,-1.12159196091504e-07,-1.12159196091824e-07,NaN,NaN,-1.14140626273027e-07,1.74338797020826e-07,1.20620539320244e-06,1.74338797019664e-07,-1.77133795356991e-07,1.14355866970882e-07,-6.27779283860736e-08,-5.39852395052303e-07,1.10286296747644e-07,-4.29566098304546e-07,2.84211257986385e-07,-2.23049583591603e-07,2.84211257986677e-07,1.46071999745382e-07,8.65026242000278e-08,2.32574623945412e-07,-8.38805870010566e-08,-6.44029821003216e-08,-6.44029821003237e-08,-1.64269505890109e-07,1.64269505889842e-07,-3.07470469248818e-07,5.24040896569021e-07,NaN,NaN,NaN,2.87246439568507e-07,1.73653239145515e-07,2.11702421483887e-07,3.03991423180383e-08,3.0399142318059e-08,2.2045521759246e-07,7.10434241646932e-08,2.91498641756624e-07,-1.1944910215021e-07,1.97912598620797e-08,-9.96578422882063e-08,6.08976378614621e-08,-7.21865714588952e-08,-7.21865714590275e-08,-8.09111846827821e-08,8.0911184682926e-08,-5.82139156318393e-07,0,1,0
1644.9536,-2.36759480181941e-07,-4.77903691986621e-08,-2.8454984938065e-07,1.30940555365093e-07,-1.10773332254714e-07,-1.10773332255029e-07,NaN,NaN,-1.04164222569312e-07,1.90803837590302e-07,1.12583103764466e-06,1.90803837589125e-07,-1.78273275941416e-07,1.25541400716237e-07,-5.27318752251399e-08,-7.10507280868158e-07,1.92564898496546e-07,-5.17942382371499e-07,2.78572709888227e-07,-2.57688790054364e-07,2.78572709888512e-07,2.47085411430055e-08,2.08506766602012e-07,2.33215307745019e-07,-9.64307262537073e-08,-5.22386434842634e-08,-5.22386434842701e-08,-1.80957825593403e-07,1.80957825593141e-07,-2.95727098236003e-07,4.76997060416019e-07,NaN,NaN,NaN,2.92507537866012e-07,1.51175313634814e-07,1.97168499524776e-07,2.37548160643247e-08,2.37548160643539e-08,1.48595846577009e-07,9.42276240073171e-08,2.42823470583802e-07,-1.47655361565237e-07,3.55868225842661e-08,-1.12068538981047e-07,4.86274996564119e-08,-8.03981628966047e-08,-8.03981628967401e-08,-1.12909621079993e-07,1.12909621080134e-07,-5.69475810488938e-07,0,1,0
1645.056,-2.39203231954887e-07,-3.97916479771238e-08,-2.78994879932075e-07,8.63718310518785e-08,-1.10317299032568e-07,-1.1031729903288e-07,NaN,NaN,-9.8304200799153e-08,1.92510814682695e-07,1.03353249085397e-06,1.92510814681506e-07,-1.80723809824197e-07,1.40001909931196e-07,-4.0721899892959e-08,-8.75644391341198e-07,2.68223691885304e-07,-6.07420699455781e-07,2.69879469898719e-07,-2.94851866101128e-07,2.69879469898997e-07,-9.67596624835059e-08,3.28701276562265e-07,2.31941614078762e-07,-1.10520707103296e-07,-3.93306055529645e-08,-3.93306055529768e-08,-1.97429760970291e-07,1.97429760970034e-07,-2.83315426009203e-07,4.06232331964218e-07,NaN,NaN,NaN,2.97374822354221e-07,1.28521357703599e-07,1.79997992099232e-07,1.67888907055533e-08,1.67888907055904e-08,8.18730352062119e-08,1.05642635979006e-07,1.875156711847e-07,-1.71697512948054e-07,4.90330207728852e-08,-1.22664492175246e-07,3.59129634613122e-08,-8.79160419881649e-08,-8.79160419883045e-08,-1.55885629138669e-07,1.55885629138807e-07,-5.49335372427941e-07,0,1,0
1645.1584,-2.44282076467782e-07,-3.20836719559156e-08,-2.76365748423778e-07,4.22388338236279e-08,-1.10414629532842e-07,-1.10414629533151e-07,NaN,NaN,-9.63572032681169e-08,1.80534585964767e-07,9.31888095721003e-07,1.80534585963588e-07,-1.8301390346246e-07,1.56390991901417e-07,-2.66229115609972e-08,-1.02972960102295e-06,3.35361138402805e-07,-6.94368462620037e-07,2.58285674387793e-07,-3.32901014835759e-07,2.58285674388065e-07,-2.11682489409653e-07,4.40986255562568e-07,2.29303766152921e-07,-1.24885689400028e-07,-2.64615990806413e-08,-2.64615990806599e-08,-2.12807402787531e-07,2.1280740278728e-07,-2.71149700012373e-07,3.17157173633602e-07,NaN,NaN,NaN,3.01641126478947e-07,1.06744046463734e-07,1.61032206589817e-07,9.72220347433651e-09,9.72220347438097e-09,2.27038493251417e-08,1.05774953180817e-07,1.28478802505445e-07,-1.90227052502001e-07,5.89153370695583e-08,-1.31311715432522e-07,2.33946352771051e-08,-9.44754038033617e-08,-9.44754038035066e-08,-2.08845730990975e-07,2.08845730991113e-07,-5.23176456555127e-07,0,0,0
1645.2608,-2.50645979666343e-07,-2.49709431972424e-08,-2.75616922863681e-07,6.884034350174e-10,-1.10574250087348e-07,-1.10574250087656e-07,NaN,NaN,-9.78715544171563e-08,1.56519528704388e-07,8.24302554655993e-07,1.56519528703237e-07,-1.83570447961119e-07,1.73204055526764e-07,-1.03663924343066e-08,-1.16623224361815e-06,3.9188711680356e-07,-7.74345126814482e-07,2.44313282785964e-07,-3.69935342028282e-07,2.44313282786229e-07,-3.13425455706186e-07,5.38954194620893e-07,2.2552873891472e-07,-1.37772677580093e-07,-1.44279762192357e-08,-1.44279762192603e-08,-2.2619672100513e-07,2.26196721004883e-07,-2.59799933101569e-07,2.1626573090214e-07,NaN,NaN,NaN,3.05119448411076e-07,8.68624574544328e-08,1.41396739456709e-07,2.82763722781785e-09,2.82763722786836e-09,-2.76312530705206e-08,9.64840340609277e-08,6.88527809898962e-08,-2.02157611843052e-07,6.40713135076879e-08,-1.38086298335443e-07,1.16619107904007e-08,-9.97543133750837e-08,-9.97543133752346e-08,-2.69817749953124e-07,2.69817749953262e-07,-4.92727515868934e-07,0,0,0
1645.3632,-2.56978667883187e-07,-1.86820654912246e-08,-2.75660733374521e-07,-3.62370971997721e-08,-1.10260383602819e-07,-1.10260383603126e-07,NaN,NaN,-1.02193305475597e-07,1.22755654706247e-07,7.14751382346093e-07,1.22755654705121e-07,-1.80979716582042e-07,1.88949513894204e-07,7.96979731221395e-09,-1.27855190645293e-06,4.35801809818508e-07,-8.4275009663432e-07,2.28748509971178e-07,-4.04194679706774e-07,2.28748509971438e-07,-3.96194099100372e-07,6.16744829013065e-07,2.20550729912714e-07,-1.47299361192048e-07,-3.91472744460707e-09,-3.9147274446372e-09,-2.36820763206554e-07,2.36820763206313e-07,-2.49554878415022e-07,1.10682822984526e-07,NaN,NaN,NaN,3.07718052320869e-07,6.97721217540087e-08,1.22336292741801e-07,-3.61062772025066e-09,-3.61062772019579e-09,-6.90058186615798e-08,8.06550087886804e-08,1.16491901265915e-08,-2.06861857044802e-07,6.36012044832454e-08,-1.43260652561638e-07,1.18622701993479e-09,-1.0342816758388e-07,-1.03428167584037e-07,-3.35845632116769e-07,3.3584563211691e-07,-4.59816730818954e-07,0,0,0
1645.4656,-2.62158300397699e-07,-1.33308761029389e-08,-2.75489176500757e-07,-6.68187232432697e-08,-1.08989183494179e-07,-1.08989183494486e-07,NaN,NaN,-1.08539160736624e-07,8.21183049759907e-08,6.07487370461556e-07,8.21183049749101e-08,-1.7419611246426e-07,2.02321655074432e-07,2.81255426102287e-08,-1.36113110222151e-06,4.65558839265939e-07,-8.95572262955471e-07,2.1253448435423e-07,-4.3435702912973e-07,2.12534484354484e-07,-4.55787596006927e-07,6.6988073297753e-07,2.14093136970637e-07,-1.51817007845136e-07,4.59069740583814e-09,4.59069740580346e-09,-2.44118804728078e-07,2.44118804727839e-07,-2.40472778394553e-07,7.60242002838217e-09,NaN,NaN,NaN,3.09472936199053e-07,5.61620499670361e-08,1.05049286219097e-07,-9.33803227707363e-09,-9.33803227701623e-09,-1.02269908277444e-07,6.17533244897105e-08,-4.05165837882423e-08,-2.04301552669034e-07,5.70415023921611e-08,-1.47260050276954e-07,-7.70855386933515e-09,-1.05241987156758e-07,-1.05241987156923e-07,-4.03154050269896e-07,4.03154050270039e-07,-4.2623204106081e-07,0,0,0
1645.568,-2.65396910900292e-07,-8.9186674796646e-09,-2.74315578380085e-07,-8.98313668607188e-08,-1.06428482438702e-07,-1.06428482439011e-07,NaN,NaN,-1.1608120546169e-07,3.78205172708186e-08,5.06728397600468e-07,3.7820517269779e-08,-1.62693124763072e-07,2.12353355593727e-07,4.96602308307151e-08,-1.41042250563068e-06,4.80369518603964e-07,-9.30052987026628e-07,1.96660899612532e-07,-4.59654491540428e-07,1.96660899612782e-07,-4.90143499164677e-07,6.95932255518217e-07,2.0578875635359e-07,-1.50196538225743e-07,1.08330037530084e-08,1.08330037529708e-08,-2.47798195164164e-07,2.47798195163928e-07,-2.32426141298191e-07,-8.6343749401164e-08,NaN,NaN,NaN,3.10524888030982e-07,4.64398831813994e-08,9.05428248464874e-08,-1.41588998060491e-08,-1.41588998059915e-08,-1.28917188840268e-07,4.33254135860265e-08,-8.55917752547517e-08,-1.95058486857893e-07,4.44773523020366e-08,-1.50581134555939e-07,-1.48519325883674e-08,-1.05078531379203e-07,-1.05078531379374e-07,-4.67524771976175e-07,4.67524771976321e-07,-3.93611160077294e-07,0,0,0
1645.6704,-2.66334676229394e-07,-5.3542923249365e-09,-2.71688968554462e-07,-1.04683333702619e-07,-1.02466868316974e-07,-1.02466868317284e-07,NaN,NaN,-1.2402761463208e-07,-6.97283898777741e-09,4.16283185710593e-07,-6.97283898880608e-09,-1.46568386532336e-07,2.18520339730184e-07,7.19519531979107e-08,-1.42552490115435e-06,4.80403728144591e-07,-9.4512117300968e-07,1.82028879501036e-07,-4.79853102652308e-07,1.82028879501283e-07,-4.99570299323982e-07,6.94916852664063e-07,1.95346553340149e-07,-1.42003885818147e-07,1.47790947535881e-08,1.47790947535489e-08,-2.47845952993466e-07,2.4784595299323e-07,-2.25184883204871e-07,-1.6570267950375e-07,NaN,NaN,NaN,3.11057666618009e-07,4.06748695997355e-08,7.95095800420184e-08,-1.79553727057674e-08,-1.79553727057115e-08,-1.50689140503157e-07,2.8468472260504e-08,-1.22220668243167e-07,-1.80266198964666e-07,2.65849462532229e-08,-1.53681252711527e-07,-2.0235068530567e-08,-1.02996867692363e-07,-1.0299686769254e-07,-5.24878837303508e-07,5.24878837303658e-07,-3.63350912931615e-07,0,0,0
1645.7728,-2.6505354156921e-07,-2.47446898521232e-09,-2.67528010554556e-07,-1.11507994352635e-07,-9.72248451690327e-08,-9.7224845169346e-08,NaN,NaN,-1.3168925186877e-07,-4.95664681478599e-08,3.39121461971593e-07,-4.95664681488733e-08,-1.26574611002346e-07,2.20773745547974e-07,9.41991345456934e-08,-1.40844150582633e-06,4.66900143980869e-07,-9.4154136184539e-07,1.69310604797158e-07,-4.95150550847373e-07,1.69310604797404e-07,-4.86588380049893e-07,6.69333608147503e-07,1.82745228097698e-07,-1.27542844431582e-07,1.65722567256569e-08,1.6572256725618e-08,-2.44507397732865e-07,2.44507397732628e-07,-2.18540098509982e-07,-2.26685797656512e-07,NaN,NaN,NaN,3.11225405492722e-07,3.85819645865595e-08,7.22484767483507e-08,-2.06969708296577e-08,-2.06969708296057e-08,-1.69191471824109e-07,1.93574467985086e-08,-1.49834025026118e-07,-1.6146190392598e-07,4.5907339039262e-09,-1.56871170022139e-07,-2.40184950585808e-08,-9.9228025928573e-08,-9.92280259287562e-08,-5.71938595485356e-07,5.7193859548551e-07,-3.36541967277795e-07,0,0,0
1645.8752,-2.61999852286629e-07,-6.28951612505902e-11,-2.62062747448013e-07,-1.11160379838368e-07,-9.10058277791879e-08,-9.1005827779504e-08,NaN,NaN,-1.3852619669838e-07,-8.80704679677269e-08,2.76999843371047e-07,-8.8070467968728e-08,-1.04021417394293e-07,2.19495967989541e-07,1.15474550595316e-07,-1.36393117380482e-06,4.42152552443108e-07,-9.21778621361644e-07,1.58861615079599e-07,-5.06029750163566e-07,1.58861615079847e-07,-4.55422976949114e-07,6.23804111226019e-07,1.68381134277014e-07,-1.07762753371072e-07,1.64658340586266e-08,1.64658340585894e-08,-2.38237882689291e-07,2.38237882689053e-07,-2.12415495400499e-07,-2.67418324961411e-07,NaN,NaN,NaN,3.11102044878604e-07,3.95724839638101e-08,6.86594536593685e-08,-2.24356867922719e-08,-2.24356867922252e-08,-1.85599644240612e-07,1.69848568397889e-08,-1.68614787401346e-07,-1.4039212508044e-07,-1.98614169063458e-08,-1.60253541986871e-07,-2.65168121826196e-08,-9.41357901603807e-08,-9.4135790160569e-08,-6.06738826194325e-07,6.06738826194483e-07,-3.13947516894139e-07,0,0,0
1645.9776,-2.57852764498693e-07,2.12489782728975e-09,-2.55727866671534e-07,-1.05093441579446e-07,-8.42106256478221e-08,-8.42106256481415e-08,NaN,NaN,-1.4417479268912e-07,-1.21570522953253e-07,2.30304899051173e-07,-1.21570522954235e-07,-8.05353102811191e-08,2.15397830420986e-07,1.34862520139937e-07,-1.2988786770737e-06,4.09290276378153e-07,-8.89588400695495e-07,1.50721490291544e-07,-5.13110543305669e-07,1.50721490291792e-07,-4.11315967305989e-07,5.64393260601415e-07,1.53077293295556e-07,-8.40638141815114e-08,1.47597109269862e-08,1.47597109269522e-08,-2.29637484370579e-07,2.29637484370337e-07,-2.06910242308377e-07,-2.87917144493681e-07,NaN,NaN,NaN,3.10675342212075e-07,4.28763693395354e-08,6.83152777793014e-08,-2.32847956692496e-08,-2.32847956692091e-08,-2.00526762974041e-07,2.11908516837507e-08,-1.79335911290818e-07,-1.18805423203124e-07,-4.49261303708356e-08,-1.63731553574046e-07,-2.81539578102424e-08,-8.81590329053024e-08,-8.81590329054952e-08,-6.28793747946234e-07,6.28793747946394e-07,-2.96023534815405e-07,0,0,0
1646.08,-2.5339834506631e-07,4.32677192982925e-09,-2.49071573136607e-07,-9.51402820569876e-08,-7.72509847527715e-08,-7.72509847530942e-08,NaN,NaN,-1.48461704882011e-07,-1.50124534521124e-07,1.98186748302311e-07,-1.5012453452211e-07,-5.77530424356571e-08,2.09390795226267e-07,1.51637752790681e-07,-1.22124162556349e-06,3.71843069269219e-07,-8.49398556294226e-07,1.44690171026041e-07,-5.17033710996302e-07,1.44690171026292e-07,-3.59827288475816e-07,4.97750307800453e-07,1.37923019324788e-07,-5.80588332056903e-08,1.17594563277955e-08,1.17594563277653e-08,-2.19382320515057e-07,2.19382320514812e-07,-2.02261439616885e-07,-2.89860028593804e-07,NaN,NaN,NaN,3.0988259118963e-07,4.77071799564509e-08,7.05757945979759e-08,-2.33879704053129e-08,-2.33879704052791e-08,-2.14056210942018e-07,3.09056480406136e-08,-1.83150562901938e-07,-9.82497865738924e-08,-6.88209904600147e-08,-1.67070777033993e-07,-2.94032707294255e-08,-8.17466760948252e-08,-8.17466760950217e-08,-6.38914223924221e-07,6.38914223924384e-07,-2.82943888730885e-07,0,1,0
1646.1824,-2.49441390066135e-07,6.73424562822122e-09,-2.42707144438036e-07,-8.32597649411334e-08,-7.04911928353536e-08,-7.04911928356796e-08,NaN,NaN,-1.51405074560624e-07,-1.74603544425816e-07,1.78904698163303e-07,-1.74603544426799e-07,-3.70730700831147e-08,2.02465028853809e-07,1.65391958770766e-07,-1.1388997676236e-06,3.3323570022354e-07,-8.0566406740002e-07,1.40448103037089e-07,-5.18390627467013e-07,1.40448103037342e-07,-3.0622345054398e-07,4.30246708835171e-07,1.24023258291361e-07,-3.13483353194867e-08,7.76764532131227e-09,7.76764532128682e-09,-2.08165257405491e-07,2.08165257405243e-07,-1.98757574252009e-07,-2.76247833842715e-07,NaN,NaN,NaN,3.08667257535276e-07,5.34194107758906e-08,7.4697736092437e-08,-2.2887249257599e-08,-2.2887249257572e-08,-2.25863279310585e-07,4.44694715376895e-08,-1.81393807773433e-07,-7.98920686737588e-08,-9.00777899277593e-08,-1.69969858601604e-07,-3.07242706308745e-08,-7.52961495366379e-08,-7.52961495368372e-08,-6.38826004612328e-07,6.38826004612492e-07,-2.7459831857642e-07,0,1,0
1646.2848,-2.46741017559177e-07,9.45765710117266e-09,-2.37283360458119e-07,-7.12924852276157e-08,-6.42263736518246e-08,-6.42263736521533e-08,NaN,NaN,-1.53192159775189e-07,-1.9639911071725e-07,1.70242542067278e-07,-1.96399110718233e-07,-1.95435951467481e-08,1.95583847544207e-07,1.7604025239753e-07,-1.05877922509078e-06,2.96408030821496e-07,-7.6237119426925e-07,1.37693964549452e-07,-5.17692859536946e-07,1.37693964549707e-07,-2.55004331259169e-07,3.67279169966297e-07,1.12274838707314e-07,-5.33654900421191e-09,3.10375354479254e-09,3.10375354477225e-09,-1.9664929649477e-07,1.96649296494519e-07,-1.96642458174461e-07,-2.51031074587205e-07,NaN,NaN,NaN,3.07030661846735e-07,5.96097134702576e-08,7.99150781368642e-08,-2.18951215769364e-08,-2.1895121576916e-08,-2.35371915493036e-07,5.99667376908535e-08,-1.75405177802726e-07,-6.43981804885241e-08,-1.07711394879708e-07,-1.72109575368319e-07,-3.24978932585915e-08,-6.91092126952077e-08,-6.91092126954089e-08,-6.30750212017873e-07,6.30750212018036e-07,-2.70578103112799e-07,0,1,0
1646.3872,-2.45942287077993e-07,1.25040976835021e-08,-2.334381893946e-07,-6.07516897947398e-08,-5.86859348558534e-08,-5.86859348561841e-08,NaN,NaN,-1.54125115466079e-07,-2.17056019126904e-07,1.69878347226377e-07,-2.17056019127893e-07,-5.87400677458986e-09,1.89590596823709e-07,1.83716590049191e-07,-9.86387716301678e-07,2.63640803992724e-07,-7.22746912308927e-07,1.36264692409455e-07,-5.1536728997631e-07,1.36264692409713e-07,-2.09619177971785e-07,3.12854738704671e-07,1.03235560733085e-07,1.89123639066306e-08,-1.86288578902938e-09,-1.86288578904432e-09,-1.85426675179183e-07,1.8542667517893e-07,-1.96035523647523e-07,-2.18743159709861e-07,NaN,NaN,NaN,3.05054760845006e-07,6.61358225881259e-08,8.54923433190455e-08,-2.04750676116475e-08,-2.0475067611633e-08,-2.41957691878632e-07,7.55736475107921e-08,-1.66384044368388e-07,-5.19116828983859e-08,-1.21268018999474e-07,-1.73179701897946e-07,-3.49665822563928e-08,-6.33728154457276e-08,-6.337281544593e-08,-6.17055035104298e-07,6.1705503510446e-07,-2.70198336888482e-07,0,0,0
1646.4896,-2.47502031627372e-07,1.57756092649114e-08,-2.31726422362564e-07,-5.26714524163954e-08,-5.40421664964527e-08,-5.40421664967846e-08,NaN,NaN,-1.54542824952374e-07,-2.37932870224677e-07,1.75633273482167e-07,-2.3793287022567e-07,3.49106155634376e-09,1.85133705410656e-07,1.88624766967071e-07,-9.25672327058089e-07,2.36531360802725e-07,-6.89140966255342e-07,1.3619084874844e-07,-5.11771112876355e-07,1.361908487487e-07,-1.72399118455783e-07,2.6949697807149e-07,9.70978596159143e-08,4.07796500432163e-08,-6.68397364945624e-09,-6.68397364946585e-09,-1.74981263076448e-07,1.74981263076192e-07,-1.96884104769669e-07,-1.84175143481008e-07,NaN,NaN,NaN,3.02887584549692e-07,7.30622278686928e-08,9.07606777243339e-08,-1.86348134350191e-08,-1.86348134350096e-08,-2.45185275669303e-07,8.98804453772458e-08,-1.55304830292609e-07,-4.21286502664603e-08,-1.30767185739907e-07,-1.72895836006453e-07,-3.81967902545855e-08,-5.81626864207257e-08,-5.81626864209288e-08,-6.00041845999938e-07,6.00041846000099e-07,-2.72587481904504e-07,0,0,0
1646.592,-2.51639515711551e-07,1.90950353621741e-08,-2.32544480349474e-07,-4.75377730991096e-08,-5.04089148645058e-08,-5.04089148648383e-08,NaN,NaN,-1.54742958755339e-07,-2.59996537325768e-07,1.85566760727543e-07,-2.59996537326759e-07,8.2931170023861e-09,1.82627186926199e-07,1.90920303928657e-07,-8.79065255336488e-07,2.16034372599143e-07,-6.63030882737329e-07,1.37666084505316e-07,-5.07224363621442e-07,1.37666084505577e-07,-1.446601199923e-07,2.38410454696708e-07,9.37503347046229e-08,6.01442789993989e-08,-1.08180367146053e-08,-1.08180367146099e-08,-1.65665605544124e-07,1.65665605543866e-07,-1.98958136716723e-07,-1.52108555438108e-07,NaN,NaN,NaN,3.0070518800846e-07,8.05672013243776e-08,9.51442666452383e-08,-1.63335141354395e-08,-1.63335141354343e-08,-2.45010677062499e-07,1.02102323038911e-07,-1.42908354024143e-07,-3.44314855387824e-08,-1.36583579791511e-07,-1.7101506533038e-07,-4.20775363642994e-08,-5.34629600477326e-08,-5.34629600479363e-08,-5.81858724878362e-07,5.81858724878519e-07,-2.76821199707068e-07,0,0,0
1646.6944,-2.58344736022454e-07,2.225443925433e-08,-2.36090296768216e-07,-4.53045056355522e-08,-4.78318438558405e-08,-4.78318438561739e-08,NaN,NaN,-1.54930036477537e-07,-2.83795442799108e-07,1.97946245968889e-07,-2.83795442800084e-07,8.41853097515312e-09,1.82249996752724e-07,1.90668527727949e-07,-8.47628459674434e-07,2.02522387214391e-07,-6.45106072460031e-07,1.40959163416471e-07,-5.02041774728098e-07,1.40959163416734e-07,-1.26882069192671e-07,2.19763637205652e-07,9.28815680131997e-08,7.73595313082041e-08,-1.36375322307178e-08,-1.36375322307176e-08,-1.57702035303439e-07,1.57702035303179e-07,-2.01887034251232e-07,-1.27096477549002e-07,NaN,NaN,NaN,2.98670010402029e-07,8.88439595684578e-08,9.81870446347543e-08,-1.35004693469955e-08,-1.35004693469938e-08,-2.41893320977598e-07,1.12130491886787e-07,-1.2976282909137e-07,-2.80445573160569e-08,-1.39308373474145e-07,-1.67352930790288e-07,-4.63512485784499e-08,-4.91942815970342e-08,-4.91942815972386e-08,-5.64457612917843e-07,5.64457612917997e-07,-2.82043613031586e-07,0,0,0
1646.7968,-2.67445296286784e-07,2.50639966175368e-08,-2.42381299669335e-07,-4.54607420486567e-08,-4.62870679316501e-08,-4.62870679319848e-08,NaN,NaN,-1.55200577693042e-07,-3.09559652602924e-07,2.11167949616598e-07,-3.09559652603905e-07,3.90752200585564e-09,1.83970169912621e-07,1.8787769191855e-07,-8.31238502780814e-07,1.95846347911587e-07,-6.35392154869221e-07,1.46318696918612e-07,-4.96540763043129e-07,1.46318696918875e-07,-1.188994885578e-07,2.12965073824284e-07,9.40655852667069e-08,9.31501213779555e-08,-1.44578869980856e-08,-1.44578869980809e-08,-1.51199637683593e-07,1.5119963768333e-07,-2.05222526601845e-07,-1.13278765547286e-07,NaN,NaN,NaN,2.96895541890952e-07,9.8016840971173e-08,9.95869625827836e-08,-1.00610074758135e-08,-1.0061007475815e-08,-2.36804232591288e-07,1.2044724834172e-07,-1.16356984250128e-07,-2.21853064085594e-08,-1.39613623895276e-07,-1.61798930303922e-07,-5.06620141802849e-08,-4.52413780997409e-08,-4.52413780999459e-08,-5.49510455019692e-07,5.49510455019842e-07,-2.8753902295669e-07,0,0,0
1646.8992,-2.78697507296249e-07,2.73810337667826e-08,-2.51316473529549e-07,-4.71159368096506e-08,-4.57000162425311e-08,-4.57000162428683e-08,NaN,NaN,-1.55557726072821e-07,-3.3732298031496e-07,2.23700908257331e-07,-3.37322980315936e-07,-5.01089805921916e-09,1.87587264468978e-07,1.82576366409833e-07,-8.28779481962089e-07,1.95391962823084e-07,-6.33387519139007e-07,1.53893526095247e-07,-4.9102019954943e-07,1.53893526095512e-07,-1.200813512251e-07,2.16879697233268e-07,9.67983460083956e-08,1.08458910522605e-07,-1.25826258430249e-08,-1.25826258430158e-08,-1.46173185849416e-07,1.4617318584915e-07,-2.08503284150888e-07,-1.14230918276435e-07,NaN,NaN,NaN,2.95422178797398e-07,1.08091831778874e-07,9.92305694048946e-08,-5.96434949585314e-09,-5.96434949585744e-09,-2.31123216014937e-07,1.27954330920276e-07,-1.03168885095224e-07,-1.61846734037359e-08,-1.38141018369502e-07,-1.54325691773326e-07,-5.46071076716951e-08,-4.14720010467119e-08,-4.14720010469181e-08,-5.38277933227962e-07,5.38277933228109e-07,-2.9275869688105e-07,0,0,0
1647.0016,-2.91865047710072e-07,2.91149072080687e-08,-2.62750140502081e-07,-4.91021253327509e-08,-4.59792897316459e-08,-4.59792897319868e-08,NaN,NaN,-1.55941965939978e-07,-3.66999328709948e-07,2.34094418911854e-07,-3.66999328710937e-07,-1.78965719084799e-08,1.92799535113057e-07,1.74902963204653e-07,-8.38351163110179e-07,2.00149986703496e-07,-6.38201176406692e-07,1.63660548710662e-07,-4.85722896928716e-07,1.6366054871093e-07,-1.29467666039352e-07,2.29969896506274e-07,1.00502230467154e-07,1.24276437035528e-07,-7.35866639452165e-09,-7.35866639450816e-09,-1.42560916507066e-07,1.42560916506796e-07,-2.11305124064689e-07,-1.32859980405656e-07,NaN,NaN,NaN,2.9421072775358e-07,1.18957660691132e-07,9.72089875139395e-08,-1.20670620424324e-09,-1.20670620425031e-09,-2.26412330149379e-07,1.35736543739702e-07,-9.06757864102437e-08,-9.56371038613805e-09,-1.35427047055444e-07,-1.44990757441671e-07,-5.77838781194591e-08,-3.77476372645352e-08,-3.77476372647433e-08,-5.31488271244182e-07,5.31488271244325e-07,-2.97322466760059e-07,0,0,0
1647.104,-3.06779424474916e-07,3.02140021577111e-08,-2.76565422317279e-07,-5.01171182170635e-08,-4.70528809100059e-08,-4.70528809103512e-08,NaN,NaN,-1.56274808775192e-07,-3.98428809234566e-07,2.41070157523308e-07,-3.98428809235561e-07,-3.41078366702353e-08,1.99291972306129e-07,1.6518413563597e-07,-8.57522242405169e-07,2.08827311744544e-07,-6.48694930660645e-07,1.75366400375613e-07,-4.80801260267647e-07,1.75366400375884e-07,-1.45808542360976e-07,2.50345395067265e-07,1.04536852706528e-07,1.4145848447248e-07,1.75944640729581e-09,1.75944640731386e-09,-1.40245140545776e-07,1.40245140545502e-07,-2.13277143139747e-07,-1.71361023884005e-07,NaN,NaN,NaN,2.93155358658236e-07,1.30435740853778e-07,9.3799042738821e-08,4.15897305525451e-09,4.15897305524416e-09,-2.24051992186564e-07,1.44748757067848e-07,-7.93032351192863e-08,-2.07976022709936e-09,-1.31855205954526e-07,-1.33934966181715e-07,-5.9834663637936e-08,-3.39356715491446e-08,-3.39356715493559e-08,-5.29282419864816e-07,5.29282419864955e-07,-3.01004307653506e-07,0,0,0
1647.2064,-3.23391503927164e-07,3.06445783479763e-08,-2.92746925579257e-07,-4.89193215210555e-08,-4.88958350870962e-08,-4.88958350874471e-08,NaN,NaN,-1.56517011716842e-07,-4.31443123787454e-07,2.43685418447576e-07,-4.31443123788461e-07,-5.28338746912291e-08,2.0681729458657e-07,1.53983419895419e-07,-8.83639989587168e-07,2.20003096165543e-07,-6.63636893421657e-07,1.88513333596473e-07,-4.76301995270524e-07,1.88513333596747e-07,-1.67475805223814e-07,2.75722475928138e-07,1.0824667070457e-07,1.60531368195297e-07,1.513794510309e-08,1.51379451031128e-08,-1.39079236274893e-07,1.39079236274613e-07,-2.14171401853653e-07,-2.31225274163075e-07,NaN,NaN,NaN,2.92112023168503e-07,1.42356310877891e-07,8.94048251011228e-08,1.00319230634361e-08,1.00319230634219e-08,-2.24785132210525e-07,1.55446033641148e-07,-6.93390985699535e-08,6.24582516072994e-09,-1.27624638761881e-07,-1.21378813601243e-07,-6.04963194876642e-08,-2.9928575949805e-08,-2.99285759500205e-08,-5.31260726087139e-07,5.31260726087274e-07,-3.03696369747467e-07,0,0,0
1647.3088,-3.41794769566823e-07,3.03708139755205e-08,-3.11423955591367e-07,-4.4539606519139e-08,-5.15404414062731e-08,-5.15404414066304e-08,NaN,NaN,-1.56727127251801e-07,-4.65939158769828e-07,2.41500089897861e-07,-4.65939158770833e-07,-7.3130451777484e-08,2.15232390407069e-07,1.42101938629665e-07,-9.14136890776089e-07,2.32282710693008e-07,-6.81854180083127e-07,2.02395033931045e-07,-4.72175979640431e-07,2.02395033931323e-07,-1.92293370642997e-07,3.033408300743e-07,1.1104745943156e-07,1.8152219074423e-07,3.28941078772955e-08,3.28941078773233e-08,-1.38919779047997e-07,1.38919779047712e-07,-2.13864643301288e-07,-3.13246601747171e-07,NaN,NaN,NaN,2.90937505892104e-07,1.54627874933938e-07,8.44690348342587e-08,1.6287281847638e-08,1.62872818476195e-08,-2.28363830801237e-07,1.67489127122049e-07,-6.08747036797718e-08,1.51307937745455e-08,-1.22743458016873e-07,-1.07612664242422e-07,-5.96495170426748e-08,-2.56632272843982e-08,-2.56632272846186e-08,-5.36648778188412e-07,5.36648778188544e-07,-3.05346766871739e-07,0,0,0
1647.4112,-3.62178296280757e-07,2.93448076554689e-08,-3.32833488625348e-07,-3.64518049791865e-08,-5.5061493980719e-08,-5.50614939810837e-08,NaN,NaN,-1.57089622780937e-07,-5.01876679169555e-07,2.34674078630755e-07,-5.01876679170558e-07,-9.39521788803878e-08,2.24468622150202e-07,1.30516443269896e-07,-9.46744406265515e-07,2.44397315907825e-07,-7.0234709035775e-07,2.16149127028616e-07,-4.68312067822244e-07,2.16149127028897e-07,-2.17394664835681e-07,3.2992861649834e-07,1.12533951662929e-07,2.03877394705587e-07,5.48426116918904e-08,5.48426116919237e-08,-1.39652534886972e-07,1.3965253488668e-07,-2.12367848157819e-07,-4.1740340924917e-07,NaN,NaN,NaN,2.89528344434134e-07,1.6727000040087e-07,7.93767438574856e-08,2.28019754538055e-08,2.2801975453782e-08,-2.33523106158344e-07,1.79696397474757e-07,-5.38267086841786e-08,2.40801279495734e-08,-1.17057455734868e-07,-9.29773277853916e-08,-5.73584137452023e-08,-2.11307294180071e-08,-2.11307294182329e-08,-5.44554511349336e-07,5.44554511349466e-07,-3.05896700683089e-07,0,1,0
1647.5136,-3.84700512310828e-07,2.75181215643292e-08,-3.57182390746553e-07,-2.46745548210083e-08,-5.95316598099206e-08,-5.95316598102932e-08,NaN,NaN,-1.57888798357778e-07,-5.39147594106807e-07,2.23962293478751e-07,-5.39147594107804e-07,-1.14188369025935e-07,2.34443537591157e-07,1.20255168565304e-07,-9.79605643727576e-07,2.55266779959234e-07,-7.24338863768416e-07,2.28795910241486e-07,-4.64589759081157e-07,2.2879591024177e-07,-2.39193292953355e-07,3.51792525092598e-07,1.12599232139528e-07,2.2650716046273e-07,8.04684438789612e-08,8.04684438790002e-08,-1.41199936663955e-07,1.41199936663658e-07,-2.09827189267623e-07,-5.42489811431033e-07,NaN,NaN,NaN,2.8784318430699e-07,1.80394754417914e-07,7.43780988299833e-08,2.94678320617264e-08,2.94678320616973e-08,-2.38278843274849e-07,1.90260432796026e-07,-4.80184104794242e-08,3.24725847377548e-08,-1.10307434863537e-07,-7.78348501258806e-08,-5.39015115048865e-08,-1.6373507820678e-08,-1.63735078209092e-08,-5.54239450654674e-07,5.54239450654802e-07,-3.05261636205296e-07,0,1,0
1647.616,-4.09331267720762e-07,2.48806940129872e-08,-3.84450573707823e-07,-9.80694185246595e-09,-6.49526798278578e-08,-6.49526798282387e-08,NaN,NaN,-1.59430728241881e-07,-5.77374680478948e-07,2.1060507413204e-07,-5.77374680479955e-07,-1.32712690434288e-07,2.44948928614745e-07,1.12236238180542e-07,-1.01134026689885e-06,2.6406634549041e-07,-7.47273921408526e-07,2.39260436701038e-07,-4.60933858210442e-07,2.39260436701326e-07,-2.53493803896317e-07,3.65037530885059e-07,1.11543726989043e-07,2.47950235730691e-07,1.08931802589056e-07,1.08931802589101e-07,-1.43511294740758e-07,1.43511294740455e-07,-2.06505026297746e-07,-6.85550422571402e-07,NaN,NaN,NaN,2.85901499457425e-07,1.94143295377974e-07,6.95504929093065e-08,3.61841766733256e-08,3.61841766732908e-08,-2.4033159887212e-07,1.9706683553323e-07,-4.3264763339501e-08,3.96665422941183e-08,-1.02197961004729e-07,-6.25314187107111e-08,-4.97904126392431e-08,-1.14702204286447e-08,-1.14702204288812e-08,-5.65321437651783e-07,5.65321437651911e-07,-3.03363473839112e-07,0,1,0
1647.7184,-4.35730981180344e-07,2.15129729600935e-08,-4.14218008220291e-07,7.01412424614458e-09,-7.11863956545851e-08,-7.11863956549743e-08,NaN,NaN,-1.61939436678082e-07,-6.15754426321287e-07,1.96131957330334e-07,-6.15754426322294e-07,-1.48459066904165e-07,2.5556289498161e-07,1.0710382807753e-07,-1.04107949121989e-06,2.70281189756547e-07,-7.70798301463438e-07,2.46395680010134e-07,-4.57340718313029e-07,2.46395680010425e-07,-2.55750102989178e-07,3.65862728170666e-07,1.10112625181805e-07,2.66635197188193e-07,1.39110918649207e-07,1.39110918649258e-07,-1.46544804521598e-07,1.4654480452129e-07,-2.02707017113457e-07,-8.41395718147499e-07,NaN,NaN,NaN,2.83765509626518e-07,2.08600775456816e-07,6.48118550729845e-08,4.28353542609489e-08,4.28353542609086e-08,-2.37390902544273e-07,1.97946205177127e-07,-3.94446973677677e-08,4.51083433765805e-08,-9.24629149524936e-08,-4.73545715760158e-08,-4.57552018459424e-08,-6.50933546165094e-09,-6.50933546189218e-09,-5.77850766794743e-07,5.77850766794871e-07,-3.00173227095619e-07,0,0,0
1647.8208,-4.63216527565334e-07,1.7625470646746e-08,-4.45591056918621e-07,2.42482947116142e-08,-7.79143235146529e-08,-7.79143235150499e-08,NaN,NaN,-1.65463481920182e-07,-6.53033209773094e-07,1.8210904575604e-07,-6.53033209774096e-07,-1.60536564631047e-07,2.65620797232544e-07,1.05084232601584e-07,-1.06846959975015e-06,2.73722307655123e-07,-7.94747292095124e-07,2.49037094766889e-07,-4.53848622817209e-07,2.49037094767182e-07,-2.41475071579205e-07,3.50895344680789e-07,1.09420273101916e-07,2.81199497557266e-07,1.69686799155958e-07,1.69686799156013e-07,-1.50248032628005e-07,1.50248032627694e-07,-1.9864880062153e-07,-1.00250157424415e-06,NaN,NaN,NaN,2.81516023677008e-07,2.2371757893914e-07,5.99791891898553e-08,4.92685939716485e-08,4.92685939716033e-08,-2.27379802611447e-07,1.90826893451713e-07,-3.65529091603666e-08,4.84291005477541e-08,-8.09151868597662e-08,-3.24860863121164e-08,-4.2677687659141e-08,-1.55235898305963e-09,-1.55235898330464e-09,-5.92251100229307e-07,5.92251100229436e-07,-2.95728817389528e-07,0,0,0
1647.9232,-4.90829941563557e-07,1.35706608742046e-08,-4.77259280689377e-07,4.01459563435874e-08,-8.46370003507783e-08,-8.46370003511821e-08,NaN,NaN,-1.69826786748113e-07,-6.87661379149625e-07,1.69862474285896e-07,-6.87661379150632e-07,-1.68376952573073e-07,2.74254860489899e-07,1.05877907916914e-07,-1.09365975225768e-06,2.74520860577401e-07,-8.19138891680386e-07,2.46117378688103e-07,-4.50443484289854e-07,2.46117378688398e-07,-2.06769215983026e-07,3.17566701585582e-07,1.10797485602905e-07,2.90788823580144e-07,1.99260158854037e-07,1.99260158854096e-07,-1.54546824696435e-07,1.54546824696121e-07,-1.94322085928639e-07,-1.15944142547612e-06,NaN,NaN,NaN,2.79232350465774e-07,2.39258493642872e-07,5.48432008654872e-08,5.5288374291311e-08,5.52883742912618e-08,-2.08560682697846e-07,1.73869292187934e-07,-3.46913905105547e-08,4.95134030724123e-08,-6.74721925893576e-08,-1.79587895170507e-08,-4.14783390066616e-08,3.40796459375056e-09,3.40796459350274e-09,-6.09173711516817e-07,6.09173711516947e-07,-2.901245681837e-07,0,0,0
1648.0256,-5.17486518159467e-07,9.82670370324807e-09,-5.07659814456236e-07,5.29469698575028e-08,-9.07080873760861e-08,-9.07080873764959e-08,NaN,NaN,-1.74643691770075e-07,-7.18095675967247e-07,1.60229473994727e-07,-7.18095675968258e-07,-1.71874465481161e-07,2.80494731829362e-07,1.08620266348288e-07,-1.11726647706577e-06,2.73114607339518e-07,-8.44151869726353e-07,2.36843257396024e-07,-4.46919936118178e-07,2.36843257396321e-07,-1.48878995408069e-07,2.64510497751203e-07,1.15631502343495e-07,2.95237258990079e-07,2.2647736693537e-07,2.26477366935433e-07,-1.59357192945596e-07,1.59357192945282e-07,-1.894441604882e-07,-1.30181520771379e-06,NaN,NaN,NaN,2.76987642884077e-07,2.54789633042729e-07,4.92278848905899e-08,6.06742384074752e-08,6.06742384074233e-08,-1.79634808978296e-07,1.45644019475033e-07,-3.39907895039164e-08,4.85244181751581e-08,-5.21643380912509e-08,-3.63991991619918e-09,-4.29787677260055e-08,8.47846263325018e-09,8.47846263300052e-09,-6.29313501376903e-07,6.29313501377034e-07,-2.83478863105169e-07,0,0,0
1648.128,-5.42142031062772e-07,6.95487024139367e-09,-5.35187160821389e-07,6.10645875752072e-08,-9.53982631145257e-08,-9.53982631149401e-08,NaN,NaN,-1.79390559649418e-07,-7.43119479900123e-07,1.53401549904593e-07,-7.43119479901136e-07,-1.71461997765268e-07,2.83408252910415e-07,1.11946255145236e-07,-1.14027473002326e-06,2.70199745896081e-07,-8.70074984127281e-07,2.20895694266151e-07,-4.42748940249315e-07,2.2089569426645e-07,-6.66638018876637e-08,1.91898967526268e-07,1.25235165638976e-07,2.95077162224507e-07,2.50145344698854e-07,2.50145344698918e-07,-1.64625864274712e-07,1.646258642744e-07,-1.83515588773825e-07,-1.4195064593089e-06,NaN,NaN,NaN,2.74868669866394e-07,2.69702061712402e-07,4.3026221386967e-08,6.52140775634914e-08,6.52140775634381e-08,-1.39848749046777e-07,1.05322175313827e-07,-3.45265737336119e-08,4.5880502661726e-08,-3.51452192185261e-08,1.07352834430931e-08,-4.77583676084452e-08,1.38666678082999e-08,1.38666678080496e-08,-6.53202485780382e-07,6.53202485780514e-07,-2.75878827838653e-07,0,0,0
1648.2304,-5.63916217279953e-07,5.53022057609707e-09,-5.58385996703861e-07,6.32695028633064e-08,-9.7987613754402e-08,-9.79876137548196e-08,NaN,NaN,-1.83501751643786e-07,-7.62034293716906e-07,1.48894106079194e-07,-7.62034293717929e-07,-1.68090543251006e-07,2.82253368375943e-07,1.14162825125024e-07,-1.16383828473933e-06,2.66613380646073e-07,-8.97224904093352e-07,1.98596637475398e-07,-4.37012839647514e-07,1.98596637475699e-07,3.91052385856703e-08,1.01631977990016e-07,1.40737216576064e-07,2.91411685201701e-07,2.69324705168675e-07,2.69324705168741e-07,-1.70380957940528e-07,1.70380957940219e-07,-1.75931110874553e-07,-1.50402732795728e-06,NaN,NaN,NaN,2.73014337940637e-07,2.83268182114583e-07,3.62197482250078e-08,6.87364635158209e-08,6.87364635157673e-08,-8.91282608493817e-08,5.28282074779476e-08,-3.63000533721039e-08,4.21898227969132e-08,-1.67130936662863e-08,2.54767291305201e-08,-5.60229723593023e-08,1.98481591196723e-08,1.98481591194222e-08,-6.81012426967626e-07,6.81012426967759e-07,-2.6731169592017e-07,0,0,0
1648.3328,-5.82148556589511e-07,6.04881231991674e-09,-5.76099744269596e-07,5.88816349977464e-08,-9.78819080075756e-08,-9.78819080079947e-08,NaN,NaN,-1.86459049261645e-07,-7.74666838421539e-07,1.45651549963237e-07,-7.74666838422568e-07,-1.63112365335396e-07,2.76616108718153e-07,1.13503743382845e-07,-1.18895445598307e-06,2.63134647137185e-07,-9.25819808845971e-07,1.71004144693851e-07,-4.28446057238344e-07,1.71004144694155e-07,1.6560091546237e-07,-2.63634669238422e-09,1.62964568770369e-07,2.85722305976664e-07,2.83391729219061e-07,2.83391729219127e-07,-1.76747596580611e-07,1.76747596580306e-07,-1.66080171229005e-07,-1.54968052149859e-06,NaN,NaN,NaN,2.71644482915363e-07,2.94731062001752e-07,2.88905234878894e-08,7.11323677018804e-08,7.11323677018275e-08,-2.8264689918591e-08,-1.10233190485153e-08,-3.92880089677828e-08,3.81482761917972e-08,2.67211182858959e-09,4.08203880202804e-08,-6.75174564876018e-08,2.67092453938325e-08,2.67092453935833e-08,-7.12421248066409e-07,7.12421248066542e-07,-2.5763001198542e-07,0,0,0
1648.4352,-5.96400802821989e-07,8.82750809220983e-09,-5.87573294729778e-07,4.79394512583839e-08,-9.47350731874452e-08,-9.47350731878644e-08,NaN,NaN,-1.87860262749273e-07,-7.81223442369707e-07,1.42291717134233e-07,-7.8122344237074e-07,-1.58086305962806e-07,2.66509286227598e-07,1.08422980264878e-07,-1.21605041113292e-06,2.60243966516361e-07,-9.55806444616639e-07,1.39914272507762e-07,-4.15582972617514e-07,1.39914272508069e-07,3.07931283915471e-07,-1.15619207906162e-07,1.92312076009696e-07,2.79664803210001e-07,2.92061559317217e-07,2.92061559317282e-07,-1.83889698295644e-07,1.83889698295344e-07,-1.53428947240039e-07,-1.55428538628632e-06,NaN,NaN,NaN,2.71044291080821e-07,3.0342099122179e-07,2.12266738894994e-08,7.23681169545358e-08,7.23681169544843e-08,4.08856307788223e-08,-8.4394716791915e-08,-4.35090860137745e-08,3.44022625422062e-08,2.24109563522972e-08,5.68132188943978e-08,-8.15210979635178e-08,3.46754622999759e-08,3.46754622997279e-08,-7.46570827608004e-07,7.46570827608135e-07,-2.46609003026019e-07,0,0,0
1648.5376,-6.06431559583783e-07,1.39276789161082e-08,-5.92503880667672e-07,3.12671051121075e-08,-8.85398740679956e-08,-8.85398740684137e-08,NaN,NaN,-1.87462669269936e-07,-7.82071963067868e-07,1.37440198815114e-07,-7.82071963068916e-07,-1.54536450647797e-07,2.5239131210387e-07,9.78548614561572e-08,-1.24466208489639e-06,2.57958767083461e-07,-9.86703317812994e-07,1.07737024417701e-07,-3.96990976354636e-07,1.07737024418009e-07,4.59374922934831e-07,-2.30722648501953e-07,2.28652274433268e-07,2.74874639437675e-07,2.95375128196271e-07,2.95375128196334e-07,-1.9189787152521e-07,1.91897871524914e-07,-1.37608893511286e-07,-1.51931209277112e-06,NaN,NaN,NaN,2.71497488789371e-07,3.08871684642707e-07,1.35103659538708e-08,7.24924678216672e-08,7.24924678216172e-08,1.15368003623153e-07,-1.64407228315619e-07,-4.90392246931532e-08,3.13998446443189e-08,4.18448070618547e-08,7.32446517060691e-08,-9.69458180386078e-08,4.38417523488277e-08,4.38417523485814e-08,-7.82132919353769e-07,7.82132919353899e-07,-2.34090592549656e-07,0,0,0
1648.64,-6.1216718350147e-07,2.11342516096628e-08,-5.91032931891803e-07,1.03549305268914e-08,-7.96449903800092e-08,-7.96449903804255e-08,NaN,NaN,-1.8520155819052e-07,-7.77562401905021e-07,1.30033893889041e-07,-7.77562401906067e-07,-1.53710744758345e-07,2.35070850315854e-07,8.13601055575903e-08,-1.27344313941601e-06,2.55879232730389e-07,-1.01756390668569e-06,7.72190213237863e-08,-3.7156106098336e-07,7.72190213240975e-08,6.12042923549557e-07,-3.4069848651908e-07,2.7134443703087e-07,2.72783227913077e-07,2.9366318221421e-07,2.93663182214272e-07,-2.00699485620922e-07,2.00699485620631e-07,-1.18515321686342e-07,-1.449424273969e-06,NaN,NaN,NaN,2.73201365628676e-07,3.10895424954911e-07,6.07330067669583e-09,7.16355019843788e-08,7.16355019843298e-08,1.91454529329389e-07,-2.47384962424142e-07,-5.59304330954449e-08,2.92884451693843e-08,6.03675894664997e-08,8.96560346357812e-08,-1.12523994377627e-07,5.41298315194131e-08,5.41298315191688e-08,-8.17521927593274e-07,8.17521927593403e-07,-2.20124409389238e-07,0,1,0
1648.7424,-6.13688645630251e-07,2.99982442427554e-08,-5.83690401387491e-07,-1.29408652963374e-08,-6.86899905370388e-08,-6.86899905374529e-08,NaN,NaN,-1.81188361031155e-07,-7.67965103186684e-07,1.19498508539107e-07,-7.67965103187726e-07,-1.56388536189521e-07,2.15521461744345e-07,5.91329255549027e-08,-1.30054137965797e-06,2.53453481245793e-07,-1.04708789841224e-06,5.10420161100436e-08,-3.3882058012487e-07,5.1042016110356e-08,7.57959245372396e-07,-4.38642786732428e-07,3.19316458640363e-07,2.74442829280144e-07,2.87503455412989e-07,2.8750345541305e-07,-2.10050196879426e-07,2.10050196879138e-07,-9.63869234061415e-08,-1.35159007391456e-06,NaN,NaN,NaN,2.76209048931221e-07,3.09594696918187e-07,-7.75958727542883e-10,6.99982333173088e-08,6.999823331726e-08,2.6529944164875e-07,-3.29345303935939e-07,-6.40458622878837e-08,2.79092058701046e-08,7.75154370071823e-08,1.05424642877186e-07,-1.27038157942566e-07,6.5287407022715e-08,6.52874070224728e-08,-8.51241061196245e-07,8.51241061196373e-07,-2.05016929357623e-07,0,1,0
1648.8448,-6.112301826977e-07,3.99209495552448e-08,-5.7130923314245e-07,-3.67531048270201e-08,-5.64940212856026e-08,-5.64940212860143e-08,NaN,NaN,-1.75689204003896e-07,-7.53492591848906e-07,1.05806558971909e-07,-7.53492591849936e-07,-1.62769424262665e-07,1.94689645306274e-07,3.19202210436849e-08,-1.32409069523197e-06,2.5030707377358e-07,-1.07378362145845e-06,3.13960841355894e-08,-2.99204398325192e-07,3.13960841359014e-08,8.90200090422579e-07,-5.19090234689705e-07,3.7110985573327e-07,2.80378132345999e-07,2.77678009268203e-07,2.77678009268261e-07,-2.1959481585242e-07,2.19594815852136e-07,-7.1826113271195e-08,-1.23400065609689e-06,NaN,NaN,NaN,2.80419593472181e-07,3.05321382071068e-07,-6.82004310237029e-09,6.78358366666291e-08,6.78358366665792e-08,3.33632393538846e-07,-4.06521780522811e-07,-7.28893869846641e-08,2.68822182445779e-08,9.29998339925762e-08,1.19882052237055e-07,-1.39519898694859e-07,7.69158398607892e-08,7.69158398605491e-08,-8.82225694219705e-07,8.82225694219831e-07,-1.89288121201423e-07,0,1,0
1648.9472,-6.05153709873297e-07,5.02461076427574e-08,-5.54907602230534e-07,-5.94614303648562e-08,-4.39436269561795e-08,-4.39436269565891e-08,NaN,NaN,-1.69076820546477e-07,-7.34284494012656e-07,8.94689106208022e-08,-7.34284494013673e-07,-1.72458797040961e-07,1.73362380117632e-07,9.03583076744099e-10,-1.34251099325528e-06,2.46439706321407e-07,-1.09607128693394e-06,1.96506912608665e-08,-2.5418127837799e-07,1.96506912611773e-08,1.00361555457378e-06,-5.78789452142718e-07,4.24826102431461e-07,2.90517754051843e-07,2.65123707184393e-07,2.65123707184449e-07,-2.28941639020225e-07,2.28941639019942e-07,-4.57298943978874e-08,-1.10497776525074e-06,NaN,NaN,NaN,2.85603158194311e-07,2.98604710024553e-07,-1.19579627093751e-08,6.54347396931604e-08,6.54347396931085e-08,3.94161329235063e-07,-4.75693986780039e-07,-8.15326575456799e-08,2.57349951413312e-08,1.06687693918329e-07,1.32422689059563e-07,-1.49353076452134e-07,8.85061864386223e-08,8.85061864383835e-08,-9.1002299388508e-07,9.10022993885203e-07,-1.73599469316673e-07,0,0,0
1649.0496,-5.9586681700834e-07,6.03387902167788e-08,-5.35528026791555e-07,-7.97909811743161e-08,-3.18993995024082e-08,-3.18993995028161e-08,NaN,NaN,-1.61752781651951e-07,-7.10280216120663e-07,7.14712890457404e-08,-7.10280216121666e-07,-1.84559552847661e-07,1.52092137615417e-07,-3.24674152321734e-08,-1.35451913970543e-06,2.42195218861074e-07,-1.11232392084443e-06,1.62068708596421e-08,-2.06139272329273e-07,1.62068708599523e-08,1.09494619036996e-06,-6.16880244105218e-07,4.78065946265145e-07,3.04264370870753e-07,2.50865796232948e-07,2.50865796233004e-07,-2.3771240910132e-07,2.37712409101038e-07,-1.91302028474816e-08,-9.71963383161852e-07,NaN,NaN,NaN,2.91437495653116e-07,2.90052008341041e-07,-1.61790653058354e-08,6.30803538766818e-08,6.30803538766268e-08,4.45595061029505e-07,-5.34292074931415e-07,-8.86970139026191e-08,2.40293688136108e-08,1.18555647863355e-07,1.42585016676871e-07,-1.56264338142367e-07,9.94849044801129e-08,9.94849044798753e-08,-9.3476351372041e-07,9.3476351372053e-07,-1.58697090576742e-07,0,0,0
1649.152,-5.83696710114682e-07,6.96487049851899e-08,-5.14048005129483e-07,-9.67940562332164e-08,-2.11188841272735e-08,-2.11188841276802e-08,NaN,NaN,-1.54053597013169e-07,-6.81030139371794e-07,5.31274438099609e-08,-6.8103013937279e-07,-1.97863775525279e-07,1.31151980365906e-07,-6.67117951593034e-08,-1.35898254229703e-06,2.38053740400446e-07,-1.12092880189666e-06,2.05366901553877e-08,-1.58025098376482e-07,2.0536690155697e-08,1.16253342759506e-06,-6.34501891206522e-07,5.28031536388945e-07,3.20709031982286e-07,2.35936424623288e-07,2.35936424623343e-07,-2.45568383383238e-07,2.45568383382956e-07,7.016647023442e-09,-8.4069372370188e-07,NaN,NaN,NaN,2.97544167280842e-07,2.80224095289639e-07,-1.95136783263874e-08,6.10177671823866e-08,6.10177671823277e-08,4.8746614017159e-07,-5.80421015241335e-07,-9.29548750704607e-08,2.14588969194062e-08,1.28649383944156e-07,1.50108280863468e-07,-1.60235783521822e-07,1.09280941817212e-07,1.09280941816975e-07,-9.56984377349326e-07,9.56984377349445e-07,-1.45368513117674e-07,0,0,0
1649.2544,-5.68771236835536e-07,7.77608304993736e-08,-4.91010406336151e-07,-1.09792471707397e-07,-1.21922382997516e-08,-1.21922383001579e-08,NaN,NaN,-1.46168390276338e-07,-6.45573569493886e-07,3.58465838993384e-08,-6.45573569494881e-07,-2.11103320717432e-07,1.10524048015089e-07,-1.00579272702275e-07,-1.35479957805684e-06,2.34370262422343e-07,-1.12042931563459e-06,3.13493710829585e-08,-1.12838095003663e-07,3.13493710832653e-08,1.20593499776285e-06,-6.34082541686608e-07,5.71852456076657e-07,3.38917603233374e-07,2.2129124819019e-07,2.21291248190246e-07,-2.5222727785697e-07,2.52227277856686e-07,3.20193788129389e-08,-7.14697802513114e-07,NaN,NaN,NaN,3.03526668461685e-07,2.69518050862745e-07,-2.19957883438078e-08,5.94173060313498e-08,5.94173060312866e-08,5.19973902902792e-07,-6.12926892068404e-07,-9.29529891663342e-08,1.78993712073219e-08,1.37068020821337e-07,1.54967392028567e-07,-1.6139315735249e-07,1.17409634912009e-07,1.17409634911772e-07,-9.77375541452495e-07,9.77375541452611e-07,-1.34397117022676e-07,0,0,0
1649.3568,-5.50962675406119e-07,8.44265683424674e-08,-4.66536107063639e-07,-1.18332428872283e-07,-5.49527565782227e-09,-5.49527565822907e-09,NaN,NaN,-1.38098835750317e-07,-6.0250045392914e-07,2.0870590742554e-08,-6.02500453930123e-07,-2.23191987411748e-07,8.99481134381688e-08,-1.33243873973514e-07,-1.34089914257104e-06,2.31172183283755e-07,-1.10972695928738e-06,4.68064848330576e-08,-7.31276295250682e-08,4.68064848333629e-08,1.22560384638389e-06,-6.18593377533865e-07,6.07010468850449e-07,3.58177527881184e-07,2.07736520413593e-07,2.0773652041365e-07,-2.57476155055274e-07,2.57476155054989e-07,5.55429612330542e-08,-5.95233311910868e-07,NaN,NaN,NaN,3.09012354422332e-07,2.58113051982572e-07,-2.36531199951479e-08,5.83593105022052e-08,5.83593105021378e-08,5.43909519945293e-07,-6.31487967866326e-07,-8.75784479217612e-08,1.34064377153115e-08,1.43971682468511e-07,1.57378120183732e-07,-1.59909887547302e-07,1.23549562258747e-07,1.2354956225851e-07,-9.96495965683454e-07,9.96495965683569e-07,-1.26504110834326e-07,0,0,0
1649.4592,-5.29928231585405e-07,8.95622378429066e-08,-4.40365993742483e-07,-1.22164610299377e-07,-1.16969579359903e-09,-1.16969579400732e-09,NaN,NaN,-1.29680598206789e-07,-5.50247470293205e-07,9.06200098600983e-09,-5.50247470294187e-07,-2.33389234440004e-07,6.90391070399023e-08,-1.64350127400036e-07,-1.31636329405522e-06,2.28083755578757e-07,-1.08827953847658e-06,6.47452874778698e-08,-4.06428106305903e-08,6.47452874781716e-08,1.2226319252271e-06,-5.90960133243632e-07,6.31671791983891e-07,3.7811377042183e-07,1.95872696492488e-07,1.95872696492549e-07,-2.6117504704416e-07,2.61175047043873e-07,7.75614199796261e-08,-4.81702226570547e-07,NaN,NaN,NaN,3.13690798019743e-07,2.46012996873766e-07,-2.45165618258642e-08,5.78443718313333e-08,5.78443718312619e-08,5.60603176322404e-07,-6.36660832934252e-07,-7.6057656612582e-08,8.1696889275368e-09,1.49587820299145e-07,1.57757509226592e-07,-1.55945395789984e-07,1.27585754763246e-07,1.27585754763008e-07,-1.0144930945649e-06,1.01449309456502e-06,-1.22278423331479e-07,0,0,0
1649.5616,-5.05244563792153e-07,9.32138490329231e-08,-4.12030714759212e-07,-1.21246886537931e-07,8.64909986267842e-10,8.64909985856925e-10,NaN,NaN,-1.20659402377879e-07,-4.87583577921157e-07,7.98145102270971e-10,-4.87583577922128e-07,-2.41335486012932e-07,4.74439266479157e-08,-1.93891559364951e-07,-1.28063985456782e-06,2.2440034515136e-07,-1.05623950941659e-06,8.29092685595223e-08,-1.62173042851573e-08,8.29092685598215e-08,1.19854418386921e-06,-5.53703741590657e-07,6.44840442278988e-07,3.98640261757869e-07,1.86059334627881e-07,1.86059334627945e-07,-2.63250481000418e-07,2.63250481000127e-07,9.81963068920769e-08,-3.72465580508665e-07,NaN,NaN,NaN,3.17339350981302e-07,2.33171804838712e-07,-2.46318242263443e-08,5.78221057200414e-08,5.78221057199662e-08,5.71832676190792e-07,-6.29867912594445e-07,-5.80352364043922e-08,2.44532576246545e-09,1.54191800696999e-07,1.56637126459375e-07,-1.49623367507378e-07,1.29607649043861e-07,1.29607649043622e-07,-1.03088116669355e-06,1.03088116669366e-06,-1.22102501558501e-07,0,0,0
1649.664,-4.76594913982905e-07,9.55074866523875e-08,-3.81087427330498e-07,-1.1577335290612e-07,8.76629536050987e-10,8.76629535636629e-10,NaN,NaN,-1.10789069550663e-07,-4.14145755939032e-07,-4.02536831742264e-09,-4.14145755940012e-07,-2.46958905475249e-07,2.49864056408795e-08,-2.21972499834305e-07,-1.23378614177164e-06,2.19293156291833e-07,-1.01449298547994e-06,9.9180881126526e-08,1.57703454872047e-10,9.91808811268231e-08,1.15517796410684e-06,-5.0879620434636e-07,6.46381759760914e-07,4.1977906096112e-07,1.78408057595851e-07,1.78408057595919e-07,-2.63689582073733e-07,2.63689582073438e-07,1.17515773900128e-07,-2.6579483462822e-07,NaN,NaN,NaN,3.19835942514679e-07,2.19652088987854e-07,-2.40635522538419e-08,5.82227378122778e-08,5.82227378121991e-08,5.79658899180244e-07,-6.13332517593214e-07,-3.3673618413714e-08,-3.50995129083509e-09,1.58063734434034e-07,1.54553783143109e-07,-1.41051897435083e-07,1.29870456202366e-07,1.29870456202124e-07,-1.04446566555927e-06,1.04446566555938e-06,-1.26082110736243e-07,0,0,0
1649.7664,-4.43947077083535e-07,9.66102736398793e-08,-3.47336803443633e-07,-1.06229458492494e-07,-7.19968566827472e-10,-7.19968567246198e-10,NaN,NaN,-9.99128113705267e-08,-3.3084222796666e-07,-5.92392052368302e-09,-3.30842227967648e-07,-2.5031573517052e-07,1.76024018766953e-09,-2.48555494982786e-07,-1.17666541288244e-06,2.12090382164883e-07,-9.64575030717711e-07,1.11783330651547e-07,9.20749433864245e-09,1.11783330651843e-07,1.09467850920367e-06,-4.57683881942318e-07,6.36994627261798e-07,4.41431037001066e-07,1.72806671009907e-07,1.72806671009982e-07,-2.62545758641866e-07,2.62545758641567e-07,1.35382461501664e-07,-1.60599112474991e-07,NaN,NaN,NaN,3.21165605573961e-07,2.05756228540402e-07,-2.28937866466608e-08,5.89775861035575e-08,5.89775861034758e-08,5.86167220817061e-07,-5.8991600524544e-07,-3.74878442912812e-09,-9.48919509549809e-09,1.61444065613943e-07,1.51954870518354e-07,-1.30376044018686e-07,1.28738321721081e-07,1.28738321720836e-07,-1.05347241262137e-06,1.05347241262147e-06,-1.33985885878576e-07,0,0,0
1649.8688,-4.07669037311906e-07,9.67123206852838e-08,-3.10956716626598e-07,-9.34482686791135e-08,-3.40479527646613e-09,-3.40479527688966e-09,NaN,NaN,-8.80044409766927e-08,-2.3998387061286e-07,-5.73849638991273e-09,-2.39983870613852e-07,-2.51451643297767e-07,-2.18440258664993e-08,-2.73295669164202e-07,-1.11100302383933e-06,2.02539684316153e-07,-9.08463339523341e-07,1.19409714111059e-07,1.22979614154754e-08,1.19409714111352e-07,1.01957357558661e-06,-4.01423786663098e-07,6.18149788923963e-07,4.63190831891058e-07,1.6896863767543e-07,1.68968637675511e-07,-2.5995527863454e-07,2.59955278634236e-07,1.51409724758441e-07,-5.67176420898839e-08,NaN,NaN,NaN,3.21423136374126e-07,1.9207707261485e-07,-2.12214491396552e-08,6.00243825763316e-08,6.00243825762469e-08,5.93137988425154e-07,-5.62812704042091e-07,3.03252843823098e-08,-1.53624286253245e-08,1.64505367407751e-07,1.49142938782335e-07,-1.17832247943887e-07,1.2662519699544e-07,1.26625196995192e-07,-1.05585928029809e-06,1.05585928029819e-06,-1.45198062829162e-07,1,0,0
1649.9712,-3.68554017067027e-07,9.60199119252831e-08,-2.72534105141719e-07,-7.86172393961415e-08,-6.59949300217799e-09,-6.5994930026067e-09,NaN,NaN,-7.51691886156997e-08,-1.45102286062086e-07,-4.55780602681398e-09,-1.4510228606308e-07,-2.50329912531145e-07,-4.51734266025744e-08,-2.95503339133652e-07,-1.03921481694285e-06,1.90941714223481e-07,-8.48273102719546e-07,1.21257656396069e-07,1.13870306123035e-08,1.2125765639636e-07,9.32809103154819e-07,-3.40870894566632e-07,5.91938208588635e-07,4.84263318208139e-07,1.66496284611495e-07,1.66496284611584e-07,-2.56153108643339e-07,2.56153108643029e-07,1.65034360462902e-07,4.51312883996423e-08,NaN,NaN,NaN,3.20804445591069e-07,1.79440007178532e-07,-1.91633288326673e-08,6.13014474032947e-08,6.13014474032079e-08,6.01735720762128e-07,-5.35150167597066e-07,6.65855531643062e-08,-2.10869706653277e-08,1.67343579764831e-07,1.4625660909941e-07,-1.03767298525516e-07,1.23941608059568e-07,1.23941608059317e-07,-1.04971941100234e-06,1.04971941100245e-06,-1.58696589223119e-07,1,0,0
1650.0736,-3.27750441536512e-07,9.47419942789671e-08,-2.33008447257517e-07,-6.31842092143725e-08,-9.73271911438762e-09,-9.73271911482131e-09,NaN,NaN,-6.16185849076675e-08,-5.04973610398152e-08,-3.63199471468064e-09,-5.04973610408197e-08,-2.46806310996047e-07,-6.74019153874328e-08,-3.14208226383411e-07,-9.63993329581416e-07,1.78108900706322e-07,-7.85884428875287e-07,1.16983544788963e-07,8.88386569065485e-09,1.16983544789252e-07,8.37593735904185e-07,-2.76842312246537e-07,5.60751423658099e-07,5.03499583268019e-07,1.64946393732338e-07,1.64946393732434e-07,-2.51472463004339e-07,2.51472463004025e-07,1.75678550845539e-07,1.4352096775677e-07,NaN,NaN,NaN,3.19573208664862e-07,1.68740630034557e-07,-1.68459001145637e-08,6.27355700485682e-08,6.27355700484792e-08,6.12341560569618e-07,-5.09613430394462e-07,1.02728130174398e-07,-2.67153042666802e-08,1.69983779802884e-07,1.4326847553611e-07,-8.86060676452648e-08,1.21049031168966e-07,1.21049031168712e-07,-1.03365265258198e-06,1.03365265258208e-06,-1.73088702804629e-07,1,0,0
1650.176,-2.8661784063889e-07,9.30620183849855e-08,-1.93555822253875e-07,-4.86580217725495e-08,-1.23224647449384e-08,-1.23224647453773e-08,NaN,NaN,-4.76358662500713e-08,3.93710323251955e-08,-4.25568341792257e-09,3.93710323241869e-08,-2.40621635856611e-07,-8.7663118265684e-08,-3.28284754122222e-07,-8.87758294270194e-07,1.6517808663568e-07,-7.2258020763472e-07,1.06620812420811e-07,7.35316977365741e-09,1.066208124211e-07,7.37016770011433e-07,-2.10207776727308e-07,5.26808993284575e-07,5.19544666394417e-07,1.63889024997012e-07,1.63889024997114e-07,-2.46318677167733e-07,2.46318677167413e-07,1.82952907650142e-07,2.36499339844317e-07,NaN,NaN,NaN,3.18000856514948e-07,1.60721562496255e-07,-1.43808280320149e-08,6.4229040096324e-08,6.4229040096233e-08,6.24610589613861e-07,-4.88198468777676e-07,1.36412120835426e-07,-3.23959251135873e-08,1.72392386908184e-07,1.39996461794502e-07,-7.27855988735469e-08,1.18225738326934e-07,1.18225738326678e-07,-1.00700054800691e-06,1.007000548007e-06,-1.86724866586206e-07,0,0,0
1650.2784,-2.46552920358759e-07,9.1104224808362e-08,-1.55448695550366e-07,-3.63698201936146e-08,-1.40519951001003e-08,-1.40519951005436e-08,NaN,NaN,-3.35441654073784e-08,1.20477109096293e-07,-7.62198217719183e-09,1.20477109095254e-07,-2.31427614190829e-07,-1.05192175979772e-07,-3.36619790170526e-07,-8.12163874925398e-07,1.53317731378139e-07,-6.58846143547477e-07,9.0507079200322e-08,9.1409820601321e-09,9.05070792006127e-08,6.33634281431452e-07,-1.41925482130229e-07,4.91708799301673e-07,5.31056914662154e-07,1.62951600094682e-07,1.6295160009479e-07,-2.41122147722374e-07,2.41122147722052e-07,1.86826955108028e-07,3.21800833023967e-07,NaN,NaN,NaN,3.16303006076441e-07,1.55770328327737e-07,-1.18379395187281e-08,6.56559726044694e-08,6.56559726043763e-08,6.37707273077157e-07,-4.72126090073372e-07,1.65581183003026e-07,-3.83455000756735e-08,1.74489898590116e-07,1.36144398514346e-07,-5.66918993919196e-08,1.15653585873736e-07,1.15653585873479e-07,-9.69906457009515e-07,9.69906457009608e-07,-1.97869377274078e-07,0,0,0
1650.3808,-2.08820075305384e-07,8.89121941219129e-08,-1.19907881183438e-07,-2.72859120382587e-08,-1.4808148259299e-08,-1.48081482597454e-08,NaN,NaN,-1.9680710778256e-08,1.89686193362953e-07,-1.46736785298404e-08,1.89686193361893e-07,-2.18872156565262e-07,-1.19436492060366e-07,-3.38308648625551e-07,-7.37859842037149e-07,1.43396983446692e-07,-5.94462858590686e-07,6.9239578232967e-08,1.60449506552684e-08,6.92395782332586e-08,5.29295721758609e-07,-7.3064753923067e-08,4.56230967835993e-07,5.36934955770225e-07,1.61842627993094e-07,1.61842627993207e-07,-2.36283039039119e-07,2.36283039038795e-07,1.87693639429716e-07,3.97134796589233e-07,NaN,NaN,NaN,3.14605811640279e-07,1.53825527083718e-07,-9.23978239226781e-09,6.68774120278993e-08,6.68774120278042e-08,6.50571538817483e-07,-4.6186198833978e-07,1.88709550476945e-07,-4.47931733412686e-08,1.76169148406846e-07,1.31375975065481e-07,-4.06275274651071e-08,1.13429368113711e-07,1.13429368113454e-07,-9.23231532580174e-07,9.23231532580266e-07,-2.04901761104458e-07,0,0,0
1650.4832,-1.7438925877573e-07,8.64529957793427e-08,-8.79362629963513e-08,-2.19244875786085e-08,-1.46669238801207e-08,-1.46669238805694e-08,NaN,NaN,-6.37025196739958e-09,2.45074033285798e-07,-2.59777636420232e-08,2.45074033284713e-07,-2.02722940164633e-07,-1.30123530190315e-07,-3.3284647035487e-07,-6.64635328515251e-07,1.3575405353621e-07,-5.28881274979279e-07,4.3653174012376e-08,2.90866330988366e-08,4.36531740126692e-08,4.25307337601609e-07,-4.80332504601727e-09,4.20504012556044e-07,5.36495167340914e-07,1.60354717638971e-07,1.60354717639087e-07,-2.32116583686212e-07,2.32116583685888e-07,1.86300211038232e-07,4.60600119103723e-07,NaN,NaN,NaN,3.12956853148668e-07,1.54432644502129e-07,-6.58732768127576e-09,6.77738364680251e-08,6.77738364679283e-08,6.62124736677223e-07,-4.57174341974908e-07,2.04950394701559e-07,-5.19300487322991e-08,1.77332489285402e-07,1.25402440553008e-07,-2.4815363216391e-08,1.11588921582192e-07,1.11588921581935e-07,-8.68389429702421e-07,8.68389429702512e-07,-2.06555206909547e-07,0,0,0
1650.5856,-1.43793739540186e-07,8.36465789679605e-08,-6.01471605721861e-08,-2.03816070718475e-08,-1.38372108074566e-08,-1.38372108079062e-08,NaN,NaN,6.10533389098607e-09,2.86129443834474e-07,-4.16288566720546e-08,2.86129443833361e-07,-1.82973290895548e-07,-1.37290430752561e-07,-3.20263721648031e-07,-5.91963626385065e-07,1.30202216616318e-07,-4.61761409768992e-07,1.48031847467977e-08,4.83795251081681e-08,1.48031847470914e-08,3.22832808419763e-07,6.16288811383257e-08,3.84461689558542e-07,5.29557451586409e-07,1.58352764670218e-07,1.58352764670336e-07,-2.28806779060593e-07,2.28806779060271e-07,1.83573376616121e-07,5.11180164297219e-07,NaN,NaN,NaN,3.11366385044255e-07,1.56919207755281e-07,-3.90593289776935e-09,6.8282515585169e-08,6.82825155850702e-08,6.71445762530448e-07,-4.5723519970217e-07,2.14210562827527e-07,-5.9891359709866e-08,1.77948854247515e-07,1.18057494537555e-07,-9.43158302780007e-09,1.10126052193775e-07,1.10126052193521e-07,-8.0716796908686e-07,8.07167969086951e-07,-2.02180135445031e-07,0,0,0
1650.688,-1.17068327965574e-07,8.04065461264459e-08,-3.66617818390871e-08,-2.2446865203927e-08,-1.25906548322455e-08,-1.25906548326948e-08,NaN,NaN,1.75295892520945e-08,3.13765770826008e-07,-6.11804340382156e-08,3.13765770824868e-07,-1.59893242668137e-07,-1.41268291187153e-07,-3.01161533855215e-07,-5.1982892468515e-07,1.26297873725862e-07,-3.93531050959537e-07,-1.60624177906026e-08,7.30878496365548e-08,-1.60624177903099e-08,2.23370904768542e-07,1.2503107547474e-07,3.48401980243732e-07,5.16419072079105e-07,1.55758969214533e-07,1.5575896921465e-07,-2.26384727571134e-07,2.26384727570816e-07,1.80407900931459e-07,5.49085635830244e-07,NaN,NaN,NaN,3.09850199104632e-07,1.60603248322482e-07,-1.29110512755209e-09,6.8423735929246e-08,6.84237359291458e-08,6.77950478307673e-07,-4.60823413631316e-07,2.17127064675609e-07,-6.87630586398356e-08,1.78105041713241e-07,1.09341983073314e-07,5.33673571106543e-09,1.08999150893831e-07,1.08999150893581e-07,-7.41612420109813e-07,7.41612420109905e-07,-1.91950236911714e-07,0,0,0
1650.7904,-9.38348844943375e-08,7.6677333091919e-08,-1.71575514023757e-08,-2.77674610697532e-08,-1.12047541255212e-08,-1.12047541259693e-08,NaN,NaN,2.77518666335486e-08,3.30039862017486e-07,-8.36264657379022e-08,3.30039862016334e-07,-1.34028444223114e-07,-1.42612359829797e-07,-2.76640804052839e-07,-4.49543452993978e-07,1.23743485443614e-07,-3.25799967550612e-07,-4.75480288241515e-08,1.01499831377645e-07,-4.75480288238608e-08,1.29129693681923e-07,1.8427800615066e-07,3.13407699833029e-07,4.97746111548022e-07,1.52548901654539e-07,1.52548901654654e-07,-2.24750165263818e-07,2.24750165263508e-07,1.77503611339529e-07,5.75687152095946e-07,NaN,NaN,NaN,3.08451588730318e-07,1.64938638606246e-07,1.06631100890472e-09,6.83045264080366e-08,6.83045264079354e-08,6.81522394254082e-07,-4.66628037590141e-07,2.14894356663198e-07,-7.85812112754024e-08,1.78014401458848e-07,9.94331901833567e-08,1.92199228561041e-08,1.08131391177639e-07,1.08131391177395e-07,-6.74022119903762e-07,6.74022119903855e-07,-1.76897998849092e-07,0,0,0
1650.8928,-7.35254329434624e-08,7.24646003180736e-08,-1.06083262534456e-09,-3.60002594218311e-08,-9.92654328287583e-09,-9.92654328332183e-09,NaN,NaN,3.66688104450071e-08,3.37609609408693e-07,-1.074803765662e-07,3.37609609407528e-07,-1.06165388715461e-07,-1.41993160000346e-07,-2.4815854871574e-07,-3.84144690515295e-07,1.22699857109121e-07,-2.6144483340642e-07,-7.81826131409619e-08,1.31249722933437e-07,-7.81826131406739e-08,4.31130826593685e-08,2.38304970667608e-07,2.81418053327419e-07,4.74449614035792e-07,1.48764289927644e-07,1.48764289927757e-07,-2.23738105469766e-07,2.23738105469463e-07,1.75296560513647e-07,5.93043254620862e-07,NaN,NaN,NaN,3.07241151698838e-07,1.69548473346728e-07,2.88873319468231e-09,6.80994823345568e-08,6.80994823344552e-08,6.82512010351098e-07,-4.73540687605019e-07,2.0897132274534e-07,-8.93072720448884e-08,1.77967357538745e-07,8.86600854937712e-08,3.18144924308475e-08,1.07413208552718e-07,1.0741320855248e-07,-6.07010792306953e-07,6.07010792307047e-07,-1.58722364566458e-07,0,0,0
1650.9952,-5.56306699765918e-08,6.78617404904551e-08,1.22310705139084e-08,-4.68956723500881e-08,-8.941314780208e-09,-8.9413147806511e-09,NaN,NaN,4.42104207551364e-08,3.39134515201717e-07,-1.30977961793509e-07,3.39134515200552e-07,-7.72681494056218e-08,-1.40087558327947e-07,-2.17355707733505e-07,-3.28065087049122e-07,1.238102420195e-07,-2.04254845029863e-07,-1.06540256463615e-07,1.59698018649506e-07,-1.0654025646333e-07,-3.11715160020686e-08,2.86066165431186e-07,2.54894649429554e-07,4.47596004368696e-07,1.44529677913327e-07,1.44529677913438e-07,-2.23203267031656e-07,2.23203267031361e-07,1.73959095065674e-07,6.0333528931695e-07,NaN,NaN,NaN,3.06309273595293e-07,1.74176497311778e-07,3.85706092165778e-09,6.80173982256919e-08,6.80173982255906e-08,6.81574057678528e-07,-4.80791419499378e-07,2.00782638178417e-07,-1.00798409485451e-07,1.78246038059316e-07,7.74476285737827e-08,4.2595977391086e-08,1.06712864167435e-07,1.06712864167203e-07,-5.4346980203515e-07,5.43469802035245e-07,-1.39420040622343e-07,0,0,0
1651.0976,-3.98416097963011e-08,6.30660994365935e-08,2.3224489640338e-08,-6.02883663685215e-08,-8.33393601892553e-09,-8.33393601936514e-09,NaN,NaN,5.03512672005775e-08,3.36858645487737e-07,-1.5236601964571e-07,3.36858645486564e-07,-4.83824279599709e-08,-1.37506630126546e-07,-1.85889058086458e-07,-2.86089743078356e-07,1.27896829462413e-07,-1.58192913616178e-07,-1.3141260427675e-07,1.84403924194661e-07,-1.3141260427647e-07,-9.03310761818601e-08,3.26542311162807e-07,2.36211234981377e-07,4.18362179026247e-07,1.40051713241356e-07,1.40051713241463e-07,-2.23077996651922e-07,2.23077996651637e-07,1.7342358966689e-07,6.08530271822412e-07,NaN,NaN,NaN,3.0575838220901e-07,1.78624092621335e-07,3.68563171560249e-09,6.82617297837661e-08,6.82617297836663e-08,6.79397926731145e-07,-4.87878631086385e-07,1.91519295644032e-07,-1.12804080834876e-07,1.79043938131818e-07,6.62398572968644e-08,5.10052955265692e-08,1.05897015991456e-07,1.05897015991231e-07,-4.86314591921313e-07,4.8631459192141e-07,-1.20880207723602e-07,0,1,0
1651.2,-2.60435864149404e-08,5.83722911879091e-08,3.2328704773014e-08,-7.60095508020546e-08,-8.05619724615637e-09,-8.0561972465922e-09,NaN,NaN,5.51407517949903e-08,3.32472138367753e-07,-1.70195001030255e-07,3.32472138366573e-07,-2.0521270054605e-08,-1.34768140222028e-07,-1.55289410276579e-07,-2.61957785069883e-07,1.35473806009216e-07,-1.26483979060895e-07,-1.519812674406e-07,2.03558943213633e-07,-1.51981267440324e-07,-1.318315073697e-07,3.58826615178133e-07,2.26995107808855e-07,3.88023153581424e-07,1.35592865862294e-07,1.35592865862397e-07,-2.23376190024423e-07,2.23376190024148e-07,1.73422721523608e-07,6.10315273299805e-07,NaN,NaN,NaN,3.05686606029191e-07,1.82705928286364e-07,2.20796923232112e-09,6.89889742126407e-08,6.89889742125437e-08,6.76434453720475e-07,-4.9437153325184e-07,1.82062920467913e-07,-1.24991455035469e-07,1.80418325307838e-07,5.5426870272294e-08,5.65726626400675e-08,1.04859670956375e-07,1.04859670956156e-07,-4.38094820907379e-07,4.38094820907476e-07,-1.0457543420553e-07,0,1,0
1651.3024,-1.42163023629835e-08,5.413882473927e-08,3.99225223763308e-08,-9.37593924043726e-08,-7.92330867657092e-09,-7.92330867700277e-09,NaN,NaN,5.87294510986355e-08,3.27185658437315e-07,-1.83552739157751e-07,3.27185658436122e-07,5.43521749309392e-09,-1.32295846794546e-07,-1.26860629301403e-07,-2.57127023176874e-07,1.4631049281327e-07,-1.10816530363823e-07,-1.6790448132619e-07,2.16285443909027e-07,-1.67904481325918e-07,-1.54558151004093e-07,3.82214188988516e-07,2.27656037984836e-07,3.5795102237125e-07,1.31428500554393e-07,1.31428500554493e-07,-2.24149257318825e-07,2.24149257318558e-07,1.7355904476662e-07,6.1013271474329e-07,NaN,NaN,NaN,3.06157520882737e-07,1.86216430128496e-07,-5.54939884520585e-10,7.02711616010518e-08,7.02711616009588e-08,6.72673023330855e-07,-4.99689483155809e-07,1.72983540174331e-07,-1.36974824932956e-07,1.82281423230603e-07,4.53065982975743e-08,5.90343996343149e-08,1.03556215006575e-07,1.03556215006362e-07,-4.00673822356378e-07,4.00673822356474e-07,-9.13991941432134e-08,0,1,0
1651.4048,-4.30959148022323e-09,5.07328455502147e-08,4.64232540700343e-08,-1.12986587082688e-07,-7.64863418160684e-09,-7.6486341820347e-09,NaN,NaN,6.13751443822567e-08,3.21899395966923e-07,-1.92209279927391e-07,3.21899395965731e-07,2.88075470443992e-08,-1.30426402009797e-07,-1.01618854965352e-07,-2.70152014491156e-07,1.59246052237519e-07,-1.10905962253847e-07,-1.79274003288266e-07,2.22776320502659e-07,-1.79274003287997e-07,-1.58972632266566e-07,3.96228390329977e-07,2.37255758063815e-07,3.29597719431703e-07,1.27799885419768e-07,1.27799885419864e-07,-2.25418530009444e-07,2.25418530009186e-07,1.73399840685465e-07,6.09184862168259e-07,NaN,NaN,NaN,3.07165994452669e-07,1.88908849503636e-07,-4.36862644218629e-09,7.20732827243347e-08,7.20732827242465e-08,6.6747393771002e-07,-5.02913402654315e-07,1.64560535054996e-07,-1.48333685725497e-07,1.84423510183453e-07,3.60898244578862e-08,5.84170538980986e-08,1.02033848899059e-07,1.02033848898851e-07,-3.75089465920788e-07,3.75089465920884e-07,-8.16373305233623e-08,0,0,0
1651.5072,3.8562423932317e-09,4.84586046214428e-08,5.2314847014715e-08,-1.32828021978249e-07,-6.91222276467669e-09,-6.91222276510105e-09,NaN,NaN,6.34215229072331e-08,3.17359839135745e-07,-1.96650616728225e-07,3.17359839134555e-07,4.91535148449017e-08,-1.29411500002946e-07,-8.02579851580007e-08,-2.96889468414413e-07,1.72346649608912e-07,-1.24542818805703e-07,-1.86473323685106e-07,2.24261577578263e-07,-1.86473323684841e-07,-1.46914661551908e-07,4.00634654873953e-07,2.53719993322441e-07,3.04432512111022e-07,1.24870912618856e-07,1.2487091261895e-07,-2.27109843755121e-07,2.27109843754871e-07,1.72580900484702e-07,6.08391465104888e-07,NaN,NaN,NaN,3.08616224506758e-07,1.90510736725944e-07,-8.81318810082299e-09,7.42548599100296e-08,7.42548599099465e-08,6.59514088926023e-07,-5.02672392398587e-07,1.56841696526734e-07,-1.58630955770195e-07,1.86556241790443e-07,2.79252860201798e-08,5.50733824777817e-08,1.00443084598166e-07,1.00443084597962e-07,-3.61560734783965e-07,3.61560734784059e-07,-7.50451752015924e-08,0,0,0
1651.6096,1.06359063609655e-08,4.74792148553199e-08,5.81151212163232e-08,-1.52150137829705e-07,-5.44902941155463e-09,-5.44902941197585e-09,NaN,NaN,6.52507095112589e-08,3.14234746675461e-07,-1.97987576952659e-07,3.14234746674287e-07,6.62737725794394e-08,-1.29407288962502e-07,-6.31335163830204e-08,-3.31429108913911e-07,1.83341208334243e-07,-1.48087900579863e-07,-1.90007114314284e-07,2.22787407329284e-07,-1.9000711431402e-07,-1.2123946878455e-07,3.95529405753169e-07,2.74289936969007e-07,2.83818564412642e-07,1.22694057215905e-07,1.22694057215997e-07,-2.29012520196348e-07,2.29012520196103e-07,1.70903175439699e-07,6.08323966095413e-07,NaN,NaN,NaN,3.10321158446119e-07,1.90785152772364e-07,-1.33610879920692e-08,7.65953892116927e-08,7.65953892116141e-08,6.46935261571001e-07,-4.97172652331675e-07,1.49762609238631e-07,-1.6745493777251e-07,1.88368584468917e-07,2.09136466963399e-08,4.96566001244652e-08,9.90192111554217e-08,9.90192111552213e-08,-3.59565080272488e-07,3.5956508027258e-07,-7.10009089468269e-08,0,0,0
1651.712,1.65480650713251e-08,4.77497412611196e-08,6.42978063324804e-08,-1.69700471005821e-07,-3.13177690596559e-09,-3.13177690638461e-09,NaN,NaN,6.72248035236987e-08,3.13112568872834e-07,-1.97741476674124e-07,3.1311256887166e-07,8.01849237540805e-08,-1.30457610607763e-07,-5.02726868536395e-08,-3.67370438895187e-07,1.90152971190286e-07,-1.77217467705091e-07,-1.90380573923564e-07,2.20831614644283e-07,-1.90380573923301e-07,-8.54591545490294e-08,3.81546079151223e-07,2.96086924602575e-07,2.68833990041991e-07,1.21191726244215e-07,1.21191726244306e-07,-2.30777758767508e-07,2.30777758767269e-07,1.68408042356672e-07,6.09167096445643e-07,NaN,NaN,NaN,3.12025090720014e-07,1.89623613774112e-07,-1.74834334283369e-08,7.88339354839952e-08,7.88339354839203e-08,6.27714996770006e-07,-4.84444919740737e-07,1.43270077028577e-07,-1.74496944517116e-07,1.89591198271751e-07,1.50942537545693e-08,4.30288065211721e-08,9.80319999016818e-08,9.80319999014841e-08,-3.6791758616563e-07,3.6791758616572e-07,-6.87146084216227e-08,0,0,0
1651.8144,2.22264989035617e-08,4.89884777911259e-08,7.1214976694722e-08,-1.84344983338435e-07,-1.80515542511587e-11,-1.80515546684813e-11,NaN,NaN,6.96385702842552e-08,3.14487104465078e-07,-1.97527726900885e-07,3.14487104463919e-07,9.10742916491801e-08,-1.32493699631422e-07,-4.14194079821986e-08,-3.99018879484531e-07,1.91371778014416e-07,-2.07647101470301e-07,-1.88090264759618e-07,2.20813997756625e-07,-1.88090264759356e-07,-4.34963898488737e-08,3.60156188103667e-07,3.16659798255168e-07,2.60062115843681e-07,1.20159924538301e-07,1.20159924538392e-07,-2.31962473991254e-07,2.31962473991019e-07,1.65415618148325e-07,6.10796703192635e-07,NaN,NaN,NaN,3.13450351126689e-07,1.87152693148159e-07,-2.07547003541767e-08,8.07119892193322e-08,8.07119892192599e-08,6.00201914733239e-07,-4.62835333446371e-07,1.3736658128618e-07,-1.7964529995531e-07,1.90056440762205e-07,1.04111408068306e-08,3.61149736784283e-08,9.77097022507871e-08,9.77097022505915e-08,-3.84801554445551e-07,3.84801554445641e-07,-6.74750499005937e-08,0,0,0
1651.9168,2.83442722606672e-08,5.07175962600787e-08,7.90618685207803e-08,-1.95339699422437e-07,3.66453824563055e-09,3.66453824521378e-09,NaN,NaN,7.26935012752178e-08,3.18746867545652e-07,-1.98709304523738e-07,3.18746867544499e-07,9.92537484659812e-08,-1.35361064526613e-07,-3.61073160605882e-08,-4.22284738040093e-07,1.86614767267352e-07,-2.35669970772927e-07,-1.83708847845725e-07,2.24596614085547e-07,-1.83708847845463e-07,5.10895552484294e-10,3.33902492963156e-07,3.34413388516012e-07,2.57405934275695e-07,1.19301664639833e-07,1.19301664639925e-07,-2.32118303374649e-07,2.32118303374417e-07,1.62495743781397e-07,6.13007409217177e-07,NaN,NaN,NaN,3.14368362815555e-07,1.83823857405658e-07,-2.29337929440588e-08,8.20144234879014e-08,8.20144234878301e-08,5.63674031548133e-07,-4.31612515158347e-07,1.320615163891e-07,-1.83049963494134e-07,1.89735982346294e-07,6.68601885209602e-09,2.97304739198387e-08,9.81609308060866e-08,9.81609308058925e-08,-4.07801705185192e-07,4.07801705185281e-07,-6.68761915893366e-08,0,0,0
1652.0192,3.55074294062515e-08,5.23812447597477e-08,8.78886741660349e-08,-2.02562091184935e-07,7.60088138455032e-09,7.60088138413347e-09,NaN,NaN,7.64863536976737e-08,3.2611402856788e-07,-2.0212871803986e-07,3.26114028566726e-07,1.05113766173315e-07,-1.38857717996721e-07,-3.37439518233634e-08,-4.35268137388456e-07,1.76740356129805e-07,-2.58527781258838e-07,-1.77967046872419e-07,2.33108494228648e-07,-1.77967046872156e-07,4.25329725665429e-08,3.06333406033249e-07,3.48866378600161e-07,2.60004653246101e-07,1.1829073725981e-07,1.18290737259904e-07,-2.3091239074223e-07,2.30912390742e-07,1.60342308648564e-07,6.15787728151293e-07,NaN,NaN,NaN,3.14685527547707e-07,1.80440103946919e-07,-2.4012119686953e-08,8.26067197027161e-08,8.26067197026445e-08,5.18717131584045e-07,-3.91429043076543e-07,1.27288088506817e-07,-1.85121058706522e-07,1.88748811966346e-07,3.62775325975989e-09,2.44218099594039e-08,9.93329810200404e-08,9.93329810198475e-08,-4.34062936945485e-07,4.34062936945575e-07,-6.6929179766818e-08,0,0,0
1652.1216,4.41346748431707e-08,5.34970476632199e-08,9.76317225064281e-08,-2.06616386329378e-07,1.15066340123637e-08,1.1506634011947e-08,NaN,NaN,8.10063156271163e-08,3.36516773487729e-07,-2.07981038614785e-07,3.36516773486562e-07,1.09076680892733e-07,-1.4276886391195e-07,-3.36921830191751e-08,-4.38494099377593e-07,1.63845699331714e-07,-2.74648400046068e-07,-1.71761706450347e-07,2.46204235994382e-07,-1.71761706450082e-07,7.90629908397678e-08,2.81607100870545e-07,3.60670091710681e-07,2.66309155422874e-07,1.16849429941287e-07,1.16849429941382e-07,-2.28240206117661e-07,2.28240206117432e-07,1.59582824102555e-07,6.19488893876917e-07,NaN,NaN,NaN,3.1451456147575e-07,1.78091808633737e-07,-2.42180953405756e-08,8.24612340634831e-08,8.24612340634101e-08,4.67299408048612e-07,-3.44431846578111e-07,1.22867561469816e-07,-1.86461739141493e-07,1.87342322335519e-07,8.80583193963354e-10,2.03641190413458e-08,1.0102634988159e-07,1.01026349881399e-07,-4.60581371323523e-07,4.60581371323613e-07,-6.80147182736176e-08,0,0,0
1652.224,5.43751588166856e-08,5.37698446435503e-08,1.08145003460276e-07,-2.08740446733947e-07,1.52250619038076e-08,1.52250619033906e-08,NaN,NaN,8.61493945890546e-08,3.49504255916358e-07,-2.15818489190288e-07,3.49504255915179e-07,1.11561908452205e-07,-1.46900676309917e-07,-3.53387678576716e-08,-4.34640217573942e-07,1.50972958471677e-07,-2.83667259102458e-07,-1.66096988226648e-07,2.62768938582093e-07,-1.66096988226381e-07,1.07372311896381e-07,2.63939700597145e-07,3.71312012493893e-07,2.74320653336664e-07,1.14812200117581e-07,1.14812200117679e-07,-2.24276122841626e-07,2.24276122841397e-07,1.60617558595946e-07,6.24814377869752e-07,NaN,NaN,NaN,3.14188033722981e-07,1.78003671301001e-07,-2.39621465531592e-08,8.16590192427814e-08,8.16590192427067e-08,4.12558492146224e-07,-2.94006131966383e-07,1.18552360179155e-07,-1.87767404214236e-07,1.85851712845003e-07,-1.91569136929547e-09,1.73544619855917e-08,1.02947107269742e-07,1.02947107269551e-07,-4.84492495964168e-07,4.84492495964259e-07,-7.07252281779224e-08,0,0,0
1652.3264,6.6103894923296e-08,5.31270834800534e-08,1.19230978403391e-07,-2.10506305716637e-07,1.87595361278622e-08,1.87595361274456e-08,NaN,NaN,9.17532950319706e-08,3.64311323588577e-07,-2.2465213465581e-07,3.64311323587391e-07,1.12978533651593e-07,-1.51112013754128e-07,-3.81334801024953e-08,-4.27657823478232e-07,1.4148616828504e-07,-2.86171655193388e-07,-1.61988694541415e-07,2.80991891398956e-07,-1.61988694541148e-07,1.25533568438333e-07,2.57020911107852e-07,3.82554479546549e-07,2.81937692983465e-07,1.12153236204001e-07,1.12153236204101e-07,-2.19431990549745e-07,2.19431990549518e-07,1.63554643402704e-07,6.32649938419545e-07,NaN,NaN,NaN,3.14186167697996e-07,1.81304206387581e-07,-2.37238124115083e-08,8.03611737703141e-08,8.03611737702381e-08,3.58383732462364e-07,-2.44286654648113e-07,1.14097077813563e-07,-1.89730940439847e-07,1.84649587894634e-07,-5.08135254527497e-09,1.49099861301278e-08,1.04765378234878e-07,1.04765378234689e-07,-5.03271115930081e-07,5.03271115930174e-07,-7.56814492569898e-08,0,1,0
1652.4288,7.89799709270489e-08,5.16832072879428e-08,1.30663178215035e-07,-2.13406740420284e-07,2.22376045438591e-08,2.22376045434437e-08,NaN,NaN,9.76342711373297e-08,3.80033256718698e-07,-2.33121510835714e-07,3.80033256717489e-07,1.13745127962879e-07,-1.55331133530959e-07,-4.15860055680412e-08,-4.21514661379537e-07,1.38236424534382e-07,-2.83278236845352e-07,-1.60344058609309e-07,2.98715235178798e-07,-1.60344058609045e-07,1.32370550595021e-07,2.63437563665926e-07,3.95808114261306e-07,2.87312585296297e-07,1.0897201386471e-07,1.08972013864812e-07,-2.14241185623235e-07,2.1424118562301e-07,1.68231587781992e-07,6.43795734014367e-07,NaN,NaN,NaN,3.1499556280523e-07,1.88756460784979e-07,-2.39161047753999e-08,7.87610764022582e-08,7.87610764021822e-08,3.08896757378626e-07,-1.99587796013841e-07,1.09308961364097e-07,-1.92975070731687e-07,1.84100797864191e-07,-8.87427286755876e-09,1.24313854309895e-08,1.06164375057142e-07,1.06164375056955e-07,-5.14886310369939e-07,5.14886310370031e-07,-8.33736766424373e-08,0,1,0
1652.5312,9.25303958639331e-08,4.96615530652521e-08,1.42191948929229e-07,-2.18472027284356e-07,2.58342768282703e-08,2.58342768278564e-08,NaN,NaN,1.03609767617107e-07,3.95801349902113e-07,-2.39714449791706e-07,3.95801349900893e-07,1.14311666442642e-07,-1.59553528771183e-07,-4.5241862328503e-08,-4.19056209275989e-07,1.42836855746233e-07,-2.76219353529952e-07,-1.61830589778222e-07,3.1381273877323e-07,-1.61830589777961e-07,1.27432960129451e-07,2.84214139549523e-07,4.11647099679323e-07,2.89125789841459e-07,1.05446489903358e-07,1.05446489903461e-07,-2.09215738151975e-07,2.09215738151752e-07,1.74284574716439e-07,6.58685287164305e-07,NaN,NaN,NaN,3.16955112221645e-07,2.00535390252247e-07,-2.47758851578431e-08,7.70369869974163e-08,7.70369869973417e-08,2.679005557319e-07,-1.63806504115999e-07,1.04094051615214e-07,-1.98003364555015e-07,1.84527077883418e-07,-1.34762866716587e-08,9.37182895741054e-09,1.0688129046437e-07,1.06881290464186e-07,-5.17965686923711e-07,5.17965686923803e-07,-9.40412810338024e-08,0,1,0
1652.6336,1.06241655948983e-07,4.73009706721371e-08,1.53542626621165e-07,-2.26026662278154e-07,2.96910712269224e-08,2.96910712265106e-08,NaN,NaN,1.09510878741058e-07,4.10911428360635e-07,-2.43019917667566e-07,4.10911428359404e-07,1.15149308912616e-07,-1.63834635327458e-07,-4.86853264148046e-08,-4.21363507707357e-07,1.55339894307902e-07,-2.66023613399647e-07,-1.66767151432412e-07,3.24576795396426e-07,-1.66767151432156e-07,1.10958831430697e-07,3.18618686254539e-07,4.29577517685572e-07,2.86732399385642e-07,1.01771595260993e-07,1.01771595261097e-07,-2.04722807419019e-07,2.04722807418799e-07,1.81237387910015e-07,6.77187214092589e-07,NaN,NaN,NaN,3.20146678068136e-07,2.1613585873043e-07,-2.63115943858483e-08,7.53186449452016e-08,7.53186449451304e-08,2.38310197274757e-07,-1.39799268741204e-07,9.85109285328666e-08,-2.05153941075521e-07,1.86177448815764e-07,-1.8976492259818e-08,5.36940133576652e-09,1.06742024145657e-07,1.06742024145475e-07,-5.11949427029762e-07,5.11949427029852e-07,-1.07598784812438e-07,0,0,0
1652.736,1.19650930585305e-07,4.4771896250038e-08,1.64422826835387e-07,-2.35626667770166e-07,3.38569812631125e-08,3.38569812627035e-08,NaN,NaN,1.15191482090382e-07,4.24910558137639e-07,-2.41974133131115e-07,4.24910558136416e-07,1.16699373848115e-07,-1.68291370439768e-07,-5.15919965916157e-08,-4.27668537987316e-07,1.74349269729975e-07,-2.53319268257527e-07,-1.7506985919732e-07,3.30044904967958e-07,-1.75069859197068e-07,8.38191946456589e-08,3.64267720269206e-07,4.48086914915184e-07,2.80174039246012e-07,9.81006318486984e-08,9.81006318488032e-08,-2.00908620313003e-07,2.00908620312787e-07,1.8858350908589e-07,6.98552299462786e-07,NaN,NaN,NaN,3.24355718223155e-07,2.34429232044858e-07,-2.83124727699775e-08,7.3671658328359e-08,7.36716583282929e-08,2.21630329903899e-07,-1.28831544097286e-07,9.27987858059289e-08,-2.1455858933189e-07,1.89203970978653e-07,-2.53546183532985e-08,3.21113225087271e-10,1.05684462008528e-07,1.0568446200835e-07,-4.97189020755643e-07,4.97189020755732e-07,-1.23621663840912e-07,0,0,0
1652.8384,1.3241596331733e-07,4.21280964887919e-08,1.74544059806165e-07,-2.46165963550975e-07,3.82632907737333e-08,3.82632907733276e-08,NaN,NaN,1.20533627057925e-07,4.37639275932964e-07,-2.36050648155614e-07,4.37639275931746e-07,1.19301229583983e-07,-1.7310537032716e-07,-5.38041407431389e-08,-4.35739301858675e-07,1.97412223892423e-07,-2.38327077966431e-07,-1.86250915963959e-07,3.30164421783073e-07,-1.86250915963711e-07,4.75458503102277e-08,4.17421414574376e-07,4.64967264884901e-07,2.70081623282662e-07,9.45069654053468e-08,9.4506965405452e-08,-1.97682510110629e-07,1.97682510110418e-07,1.95836310018241e-07,7.21485211977882e-07,NaN,NaN,NaN,3.29095803317805e-07,2.53821328861539e-07,-3.04064727052938e-08,7.20964918766079e-08,7.20964918765482e-08,2.17648337707402e-07,-1.30297257003519e-07,8.73510807032018e-08,-2.26120839021314e-07,1.93646279976143e-07,-3.24745590452326e-08,-5.61420021810228e-09,1.03766450667253e-07,1.03766450667079e-07,-4.74990629960229e-07,4.74990629960315e-07,-1.41393577016063e-07,0,0,0
1652.9408,1.44332279156688e-07,3.93144740184695e-08,1.836467531752e-07,-2.56119497736942e-07,4.27364979405678e-08,4.27364979401652e-08,NaN,NaN,1.25447786063213e-07,4.49197205377688e-07,-2.25370860206115e-07,4.49197205376475e-07,1.23120654025643e-07,-1.78501590961268e-07,-5.5380936935586e-08,-4.42613372769481e-07,2.21526978899476e-07,-2.21086393870174e-07,-1.9945035567273e-07,3.25744408422987e-07,-1.99450355672486e-07,4.49356338634201e-09,4.7336460307864e-07,4.77858166465259e-07,2.57517012643998e-07,9.09823509702823e-08,9.09823509703881e-08,-1.94766282573334e-07,1.94766282573127e-07,2.02545409750599e-07,7.44260291701358e-07,NaN,NaN,NaN,3.33685396598513e-07,2.72460114605646e-07,-3.21499675249047e-08,7.05376656355899e-08,7.05376656355375e-08,2.24482073003566e-07,-1.4184907471442e-07,8.26329982884691e-08,-2.3951845592503e-07,1.99426040491207e-07,-4.00924154338845e-08,-1.20864646424694e-08,1.01162446691372e-07,1.01162446691201e-07,-4.47616847732482e-07,4.47616847732565e-07,-1.59993300665661e-07,0,0,0
1653.0432,1.55281720265855e-07,3.62271276808997e-08,1.91508847946798e-07,-2.63878267358977e-07,4.70456830775277e-08,4.70456830771289e-08,NaN,NaN,1.29865494696895e-07,4.59796492809353e-07,-2.10734407969956e-07,4.59796492808136e-07,1.28097062803741e-07,-1.84686623277783e-07,-5.65895604740035e-08,-4.45424230972461e-07,2.43629802189062e-07,-2.01794428783558e-07,-2.13514914916542e-07,3.18233466207802e-07,-2.13514914916301e-07,-4.20581484263639e-08,5.26904160395763e-07,4.84846011969655e-07,2.4379465509292e-07,8.74743401693792e-08,8.74743401694857e-08,-1.91800753622196e-07,1.91800753621994e-07,2.08305259018698e-07,7.648366150076e-07,NaN,NaN,NaN,3.37369900057816e-07,2.88477604776948e-07,-3.31288513804956e-08,6.89014268089363e-08,6.89014268088913e-08,2.38970506167671e-07,-1.59912449406962e-07,7.90580567600361e-08,-2.5422866689256e-07,2.06349923565187e-07,-4.78787433274351e-08,-1.86807678454362e-08,9.81506617979283e-08,9.81506617977625e-08,-4.18187720855147e-07,4.18187720855225e-07,-1.78389330035794e-07,0,0,0
1653.1456,1.65134072719071e-07,3.2792950332257e-08,1.97927023051373e-07,-2.68101768739821e-07,5.09664203141388e-08,5.09664203137434e-08,NaN,NaN,1.33721812563874e-07,4.695200057924e-07,-1.93570288873973e-07,4.69520005791166e-07,1.33931075130992e-07,-1.91763616341099e-07,-5.78325412100677e-08,-4.4197969105989e-07,2.60946231190099e-07,-1.81033459869938e-07,-2.2715539776271e-07,3.09415534499538e-07,-2.27155397762471e-07,-8.81543355404129e-08,5.73042635209369e-07,4.84888299669195e-07,2.3030363548547e-07,8.39427281475578e-08,8.39427281476657e-08,-1.88476492179402e-07,1.88476492179206e-07,2.12780328526986e-07,7.80999278359099e-07,NaN,NaN,NaN,3.39469010120845e-07,3.00253374341045e-07,-3.30446940643381e-08,6.7080292525475e-08,6.70802925254368e-08,2.5727756653749e-07,-1.80416627029857e-07,7.68609395069653e-08,-2.69573043038351e-07,2.14120743632198e-07,-5.54522994062143e-08,-2.50562453647237e-08,9.50844396074994e-08,9.50844396073383e-08,-3.90385317132873e-07,3.90385317132949e-07,-1.9552089874478e-07,0,0,0
1653.248,1.73652463464867e-07,2.90309717384531e-08,2.02683435203367e-07,-2.67995010415674e-07,5.43343650781301e-08,5.43343650777378e-08,NaN,NaN,1.36931473618672e-07,4.78078443579173e-07,-1.75812263041434e-07,4.78078443577917e-07,1.40125110885792e-07,-1.99658782337853e-07,-5.95336714520226e-08,-4.30961917177377e-07,2.71180764386178e-07,-1.59781152791335e-07,-2.39155772088211e-07,3.01102188203076e-07,-2.39155772087974e-07,-1.29768345006533e-07,6.07720573579931e-07,4.77952228573623e-07,2.18341604201679e-07,8.04057237995909e-08,8.04057237997001e-08,-1.84641514248693e-07,1.84641514248503e-07,2.15742347109842e-07,7.90567235274566e-07,NaN,NaN,NaN,3.39509578474384e-07,3.06650111826535e-07,-3.17648846715698e-08,6.49797626177824e-08,6.497976261775e-08,2.75556471362164e-07,-1.99540712670701e-07,7.60157586907984e-08,-2.84776978981953e-07,2.22359362395265e-07,-6.24176165867501e-08,-3.10460852531764e-08,9.23450571816024e-08,9.2345057181446e-08,-3.67968602841958e-07,3.67968602842032e-07,-2.10366259100141e-07,0,0,0
1653.3504,1.80448354450783e-07,2.5075002745353e-08,2.05523357196188e-07,-2.63446448764685e-07,5.70676744302395e-08,5.70676744298493e-08,NaN,NaN,1.39368589167647e-07,4.84687708797277e-07,-1.59705998145364e-07,4.84687708796001e-07,1.4606987528608e-07,-2.0808608429762e-07,-6.20162090115021e-08,-4.11932479431494e-07,2.72662285515944e-07,-1.39270193915675e-07,-2.48555105052148e-07,2.94855744148768e-07,-2.4855510505191e-07,-1.63481338309287e-07,6.28408922475913e-07,4.64927584166841e-07,2.08968812604635e-07,7.69573136819251e-08,7.69573136820362e-08,-1.80351671064857e-07,1.80351671064671e-07,2.17104638526543e-07,7.91673879753293e-07,NaN,NaN,NaN,3.37307047186441e-07,3.07163287202324e-07,-2.93308397201177e-08,6.25405025738754e-08,6.25405025738469e-08,2.90555077516683e-07,-2.14319636407503e-07,7.62354411085182e-08,-2.99036066894365e-07,2.30638370145862e-07,-6.83976967485647e-08,-3.66916630043109e-08,9.02836698944829e-08,9.0283669894331e-08,-3.54212330753117e-07,3.54212330753191e-07,-2.22017387339663e-07,0,0,0
1653.4528,1.85004204153779e-07,2.11531652664072e-08,2.06157369420244e-07,-2.55018933682952e-07,5.91521631969708e-08,5.91521631965822e-08,NaN,NaN,1.40859232320893e-07,4.88133513846717e-07,-1.47558395354515e-07,4.88133513845429e-07,1.51153200405494e-07,-2.16559350934001e-07,-6.54061505284716e-08,-3.85374337334933e-07,2.64584413343866e-07,-1.20789923991181e-07,-2.54755378033634e-07,2.91752342671408e-07,-2.54755378033395e-07,-1.87025360353667e-07,6.34431720500564e-07,4.47406360147106e-07,2.0288406152399e-07,7.37535782217197e-08,7.37535782218331e-08,-1.75857870954871e-07,1.7585787095469e-07,2.16954566026074e-07,7.83087144261446e-07,NaN,NaN,NaN,3.32981898445847e-07,3.01962263614533e-07,-2.592977897952e-08,5.97505899486924e-08,5.9750589948666e-08,3.00087921885565e-07,-2.23028756757712e-07,7.70591651271943e-08,-3.11579154960881e-07,2.38519180559087e-07,-7.30599744018546e-08,-4.22174446840477e-08,8.91634824700474e-08,8.91634824698999e-08,-3.51372728043823e-07,3.51372728043899e-07,-2.29775988875384e-07,0,0,0
1653.5552,1.86754829955313e-07,1.75314400741974e-08,2.04286270029576e-07,-2.43825672609124e-07,6.05979942547935e-08,6.05979942544063e-08,NaN,NaN,1.41189617770283e-07,4.86995505773718e-07,-1.41465530501727e-07,4.86995505772413e-07,1.54861779422561e-07,-2.24447334506724e-07,-6.95855550841281e-08,-3.52801241171854e-07,2.47311726178506e-07,-1.05489514993453e-07,-2.57560058011396e-07,2.92200781881576e-07,-2.57560058011154e-07,-1.99624225334119e-07,6.27021436020138e-07,4.27397210686227e-07,2.00327479618412e-07,7.09765178810794e-08,7.09765178811953e-08,-1.71547981004499e-07,1.71547981004322e-07,2.15585156240927e-07,7.64486101663718e-07,NaN,NaN,NaN,3.26919040138558e-07,2.91830253389358e-07,-2.18444652306029e-08,5.66469964892619e-08,5.66469964892359e-08,3.03325510270352e-07,-2.25327057615663e-07,7.79984526540312e-08,-3.21720423705985e-07,2.45579330703763e-07,-7.61410930022833e-08,-4.79677763002921e-08,8.91125836653763e-08,8.91125836652326e-08,-3.60266415535442e-07,3.60266415535521e-07,-2.33259038102278e-07,0,0,0
1653.6576,1.85196727937855e-07,1.44393222547651e-08,1.99636050192692e-07,-2.31338172763794e-07,6.13856189523429e-08,6.13856189519568e-08,NaN,NaN,1.40123246852379e-07,4.79927862151853e-07,-1.43078880099778e-07,4.79927862150514e-07,1.56854602572241e-07,-2.31060552430235e-07,-7.42059498579609e-08,-3.16818441304063e-07,2.22564867017037e-07,-9.42535742871236e-08,-2.5715404980735e-07,2.95852473989528e-07,-2.57154049807104e-07,-2.02075472730241e-07,6.09129839538009e-07,4.07054366807979e-07,2.01029599233035e-07,6.87892089720959e-08,6.87892089722143e-08,-1.67869663825278e-07,1.67869663825105e-07,2.13508689851946e-07,7.36570490238688e-07,NaN,NaN,NaN,3.19688079796711e-07,2.78021184009584e-07,-1.7402192723708e-08,5.33104773531279e-08,5.33104773531005e-08,3.00866182431656e-07,-2.22178442244277e-07,7.8687740186721e-08,-3.28902372720311e-07,2.51427199403291e-07,-7.74751733170806e-08,-5.43273601944342e-08,9.00984603027446e-08,9.00984603026045e-08,-3.80084512383413e-07,3.80084512383496e-07,-2.324776799391e-07,0,1,0
1653.76,1.7998811916139e-07,1.19999269025012e-08,1.91988046063971e-07,-2.19175663078246e-07,6.14216658333111e-08,6.14216658329264e-08,NaN,NaN,1.37421036427378e-07,4.65893683586361e-07,-1.53442092759358e-07,4.65893683585e-07,1.56998219692794e-07,-2.35759152411047e-07,-7.8760932718222e-08,-2.81028704979317e-07,1.9332692407689e-07,-8.77017809025157e-08,-2.54035172048919e-07,3.01641317064303e-07,-2.54035172048669e-07,-1.96542504843324e-07,5.85028197659634e-07,3.88485692816528e-07,2.0422731104971e-07,6.72961828979909e-08,6.72961828981114e-08,-1.65253875832359e-07,1.6525387583219e-07,2.11426759506115e-07,7.00938809492433e-07,NaN,NaN,NaN,3.11946077817706e-07,2.62066966094626e-07,-1.29399510240542e-08,4.98585552719962e-08,4.98585552719667e-08,2.94589744017472e-07,-2.15601357647695e-07,7.89883863691204e-08,-3.32735655272691e-07,2.55714616947074e-07,-7.70210383256762e-08,-6.16479302945362e-08,9.19309212987298e-08,9.19309212985934e-08,-4.08524738171505e-07,4.08524738171593e-07,-2.27858207309305e-07,0,1,0
1653.8624,1.71026969963382e-07,1.01884474532362e-08,1.81215417416704e-07,-2.08917847993443e-07,6.05295729978173e-08,6.05295729974344e-08,NaN,NaN,1.32873765662898e-07,4.44335023943921e-07,-1.72891273659582e-07,4.44335023942537e-07,1.55355087688e-07,-2.38069564418654e-07,-8.27144767306244e-08,-2.49703688735783e-07,1.63438873374192e-07,-8.6264815361673e-08,-2.48928890829556e-07,3.07967700439468e-07,-2.48928890829303e-07,-1.86105960354562e-07,5.59767830642562e-07,3.73661870288227e-07,2.08751080338551e-07,6.6519343424962e-08,6.65193434250842e-08,-1.64049969892655e-07,1.64049969892491e-07,2.1013601389809e-07,6.59825533396758e-07,NaN,NaN,NaN,3.04347476045965e-07,2.45586735430627e-07,-8.78882261629714e-09,4.64368561366207e-08,4.64368561365887e-08,2.87306171612412e-07,-2.08302202136253e-07,7.90039694755023e-08,-3.33037461113966e-07,2.58161928995235e-07,-7.48755321187897e-08,-7.01997033007501e-08,9.42904449410529e-08,9.42904449409196e-08,-4.42197660428173e-07,4.42197660428268e-07,-2.20210348143973e-07,0,1,0
1653.9648,1.5851206213889e-07,8.8424051652874e-09,1.6735446730427e-07,-2.01958583365122e-07,5.84952812421904e-08,5.84952812418104e-08,NaN,NaN,1.26359416658623e-07,4.15314681735991e-07,-2.01010037776998e-07,4.15314681734592e-07,1.52123740164701e-07,-2.37787951067274e-07,-8.56642109025444e-08,-2.27175821782654e-07,1.3695129646121e-07,-9.02245253215175e-08,-2.42718048832291e-07,3.12999509041634e-07,-2.42718048832036e-07,-1.74164211248827e-07,5.38563628914347e-07,3.64399417665755e-07,2.13177336741297e-07,6.63968776407901e-08,6.63968776409133e-08,-1.64483247522499e-07,1.64483247522339e-07,2.1037086031586e-07,6.15850414662982e-07,NaN,NaN,NaN,2.97481282618511e-07,2.30133590897516e-07,-5.26656922828474e-09,4.32052569298367e-08,4.32052569298027e-08,2.82217444487497e-07,-2.03231763223012e-07,7.89856812638288e-08,-3.2986785156236e-07,2.58606028205654e-07,-7.12618233567639e-08,-8.01543179815046e-08,9.67742247788944e-08,9.67742247787641e-08,-4.77182989359361e-07,4.77182989359462e-07,-2.10665967522812e-07,0,0,0
1654.0672,1.42968861845277e-07,7.72825083513358e-09,1.50697112680506e-07,-1.99388471113562e-07,5.51605442556346e-08,5.5160544255258e-08,NaN,NaN,1.17913428259254e-07,3.7961103688074e-07,-2.3663703152368e-07,3.79611036879333e-07,1.47553292109975e-07,-2.35042254233243e-07,-8.74889621232412e-08,-2.17060746365257e-07,1.17383015124796e-07,-9.96777312405262e-08,-2.36379666921496e-07,3.1502082409252e-07,-2.3637966692124e-07,-1.63778054741708e-07,5.26101080387812e-07,3.62323025646347e-07,2.16032020219636e-07,6.68077930099154e-08,6.68077930100389e-08,-1.666442658585e-07,1.66644265858346e-07,2.12619966091133e-07,5.71828423150239e-07,NaN,NaN,NaN,2.91837030139169e-07,2.17066138138242e-07,-2.66007633090672e-09,4.03174592080352e-08,4.03174592080004e-08,2.82277060742036e-07,-2.03109990753209e-07,7.91670699881716e-08,-3.23556954389107e-07,2.5706439129413e-07,-6.64925630950336e-08,-9.15924200275061e-08,9.89555509075443e-08,9.89555509074171e-08,-5.09616189623086e-07,5.09616189623194e-07,-2.0057872701542e-07,0,0,0
1654.1696,1.25212642039935e-07,6.63519693369597e-09,1.31847838973728e-07,-2.01887992020767e-07,5.05249950269089e-08,5.05249950265364e-08,NaN,NaN,1.07779355082693e-07,3.38700646763943e-07,-2.77923765232851e-07,3.38700646762539e-07,1.4186925669004e-07,-2.30297267856826e-07,-8.84280111667598e-08,-2.21564229543933e-07,1.07066196541792e-07,-1.14498033002195e-07,-2.30898624283434e-07,3.12742576852779e-07,-2.30898624283179e-07,-1.57051724591401e-07,5.25775458237018e-07,3.68723733645863e-07,2.16011024819994e-07,6.76113271974041e-08,6.76113271975271e-08,-1.7050354400725e-07,1.70503544007102e-07,2.16968721645912e-07,5.30599370601764e-07,NaN,NaN,NaN,2.87784666492654e-07,2.07419481297278e-07,-1.18695234215596e-09,3.78983750543215e-08,3.78983750542876e-08,2.89591227821327e-07,-2.09979999648622e-07,7.96112281720524e-08,-3.14706262723825e-07,2.53785843701506e-07,-6.09204190223751e-08,-1.04519012357901e-07,1.00451872857034e-07,1.0045187285691e-07,-5.36206782868311e-07,5.36206782868425e-07,-1.91361566248929e-07,0,0,0
1654.272,1.06259510610938e-07,5.45057088087568e-09,1.1171008149191e-07,-2.09633736484891e-07,4.48121221300402e-08,4.48121221296737e-08,NaN,NaN,9.64152309473861e-08,2.94614876484418e-07,-3.22462698119385e-07,2.94614876483035e-07,1.35238454829379e-07,-2.24308912902502e-07,-8.90704580730979e-08,-2.41059687466713e-07,1.06693980213468e-07,-1.34365707253286e-07,-2.27157788682137e-07,3.05523441775876e-07,-2.27157788681885e-07,-1.54668530520851e-07,5.39017633675392e-07,3.84349103154787e-07,2.12172125444692e-07,6.86780628638987e-08,6.86780628640204e-08,-1.75929858962056e-07,1.75929858961915e-07,2.23011841522246e-07,4.94858439401833e-07,NaN,NaN,NaN,2.85555523525516e-07,2.01793664897561e-07,-9.43918563858602e-10,3.60256342981828e-08,3.60256342981517e-08,3.04980143129827e-07,-2.24849833548737e-07,8.01303095804409e-08,-3.04151698391924e-07,2.49258035919723e-07,-5.48936624722561e-08,-1.18868899402961e-07,1.00988105403731e-07,1.0098810540361e-07,-5.54605101062719e-07,5.54605101062837e-07,-1.84288243483791e-07,0,0,0
1654.3744,8.72203625325856e-08,4.18600344605722e-09,9.14063659787367e-08,-2.22237618925954e-07,3.84706522618018e-08,3.8470652261442e-08,NaN,NaN,8.44507596988757e-08,2.49716827159598e-07,-3.67523885317748e-07,2.49716827158245e-07,1.27780204780951e-07,-2.18041169084333e-07,-9.02609643033569e-08,-2.73965417324245e-07,1.15138654448552e-07,-1.58826762875721e-07,-2.25832273131995e-07,2.93499629832921e-07,-2.25832273131747e-07,-1.55733606739307e-07,5.64958263973893e-07,4.09224657234828e-07,2.04071518822934e-07,6.98963793730132e-08,6.98963793731332e-08,-1.8269607680415e-07,1.82696076804017e-07,2.29874613973791e-07,4.6698351587124e-07,NaN,NaN,NaN,2.85222308636314e-07,2.00300873998803e-07,-1.86063266670937e-09,3.47178196394244e-08,3.47178196393984e-08,3.27766427473037e-07,-2.47471806167987e-07,8.02946213044062e-08,-2.92883834369344e-07,2.44159113457262e-07,-4.87247209121363e-08,-1.34494111706922e-07,1.00439474767374e-07,1.00439474767257e-07,-5.63586078103825e-07,5.63586078103947e-07,-1.80319823890426e-07,0,0,0
1654.4768,6.91961463148847e-08,2.95042240845789e-09,7.21465687234329e-08,-2.38736529846514e-07,3.21046982506335e-08,3.21046982502812e-08,NaN,NaN,7.26054917033623e-08,2.06447594725842e-07,-4.10397943390776e-07,2.06447594724529e-07,1.19611747599234e-07,-2.12553597893709e-07,-9.29418502944523e-08,-3.16913163816894e-07,1.29614631568462e-07,-1.87298532248445e-07,-2.27303013844e-07,2.77620345277637e-07,-2.27303013843757e-07,-1.58003192079878e-07,6.00555190984351e-07,4.42551998904707e-07,1.91838896847558e-07,7.11585416777329e-08,7.11585416778507e-08,-1.90475464744441e-07,1.90475464744317e-07,2.36363592200741e-07,4.4881780965975e-07,NaN,NaN,NaN,2.86679885728954e-07,2.02576381652801e-07,-3.67617882589313e-09,3.39285000463941e-08,3.39285000463751e-08,3.55821413851237e-07,-2.76298436331666e-07,7.95229775189359e-08,-2.81922713261926e-07,2.39257257838069e-07,-4.26654554239112e-08,-1.51138069903016e-07,9.88501287044334e-08,9.88501287043212e-08,-5.63093784126471e-07,5.63093784126596e-07,-1.79989281107454e-07,0,0,0
1654.5792,5.31757723222516e-08,1.88402477398998e-09,5.50597970963274e-08,-2.57644826163371e-07,2.63474566220309e-08,2.63474566216864e-08,NaN,NaN,6.1585431807436e-08,1.67070810600004e-07,-4.4876578325978e-07,1.67070810598733e-07,1.10906610480529e-07,-2.08867545201067e-07,-9.7960934720515e-08,-3.65216369299726e-07,1.46200213112576e-07,-2.19016156187146e-07,-2.31591261857255e-07,2.59548169394205e-07,-2.31591261857017e-07,-1.58430883772855e-07,6.41104329493493e-07,4.82673445720861e-07,1.76182040885575e-07,7.23423046971908e-08,7.23423046973064e-08,-1.9884134679318e-07,1.98841346793064e-07,2.41218045668914e-07,4.41379699403646e-07,NaN,NaN,NaN,2.89627794616734e-07,2.07822501565994e-07,-5.95033651610187e-09,3.35458887268143e-08,3.35458887268037e-08,3.85877587424712e-07,-3.0864439213185e-07,7.72331952922352e-08,-2.72163376115746e-07,2.35278967368562e-07,-3.68844087472367e-08,-1.68411051224126e-07,9.64322336755525e-08,9.64322336754452e-08,-5.54199950762467e-07,5.54199950762593e-07,-1.83341348790332e-07,0,0,0
1654.6816,3.99388853297187e-08,1.07873735979708e-09,4.1017622689597e-08,-2.77083077186156e-07,2.17123829043998e-08,2.17123829040633e-08,NaN,NaN,5.1977963727373e-08,1.3343362981481e-07,-4.80982507842353e-07,1.33433629813561e-07,1.01941690112331e-07,-2.0782570541956e-07,-1.05884015307205e-07,-4.13582008078369e-07,1.60603526649524e-07,-2.52978481428822e-07,-2.38327469109109e-07,2.41394674713516e-07,-2.38327469108876e-07,-1.5388996818607e-07,6.80985189831085e-07,5.27095221645223e-07,1.58309374739134e-07,7.33006986866241e-08,7.33006986867379e-08,-2.07280882700658e-07,2.07280882700552e-07,2.43386137992161e-07,4.44559272825094e-07,NaN,NaN,NaN,2.93561558989021e-07,2.14869945057745e-07,-8.1153574331195e-09,3.34000259115705e-08,3.34000259115688e-08,4.14084109482249e-07,-3.41056718415573e-07,7.30273910660597e-08,-2.64237297585505e-07,2.32783666911576e-07,-3.14536306739817e-08,-1.85784095500831e-07,9.35445603391323e-08,9.35445603390307e-08,-5.389753644387e-07,5.38975364438827e-07,-1.89922504255957e-07,0,0,0
1654.784,2.9979576161797e-08,5.19361645638607e-10,3.04989378075132e-08,-2.94990105453108e-07,1.84695545171904e-08,1.84695545168622e-08,NaN,NaN,4.41706342723088e-08,1.06781254275068e-07,-5.06207939499746e-07,1.06781254273851e-07,9.3104626506383e-08,-2.0996505572945e-07,-1.16860429223043e-07,-4.5692533838656e-07,1.69001995416747e-07,-2.87923342969774e-07,-2.46779695834255e-07,2.25335715458715e-07,-2.46779695834028e-07,-1.41922857178761e-07,7.14530599271863e-07,5.72607742093293e-07,1.3977861308228e-07,7.38658821475789e-08,7.38658821476911e-08,-2.1522976102863e-07,2.15229761028533e-07,2.4224294517861e-07,4.56941788751633e-07,NaN,NaN,NaN,2.9779384695452e-07,2.22284845908623e-07,-9.56484539904052e-09,3.32793195303859e-08,3.32793195303928e-08,4.36683370821482e-07,-3.69816241673682e-07,6.68671291471934e-08,-2.58436492027607e-07,2.32082540265006e-07,-2.63539517626544e-08,-2.02613624961025e-07,9.06459332470042e-08,9.06459332469084e-08,-5.2024907757448e-07,5.20249077574607e-07,-1.9883566616248e-07,0,0,0
1654.8864,2.34784258516391e-08,7.57603411781873e-11,2.35541861928927e-08,-3.09401250692111e-07,1.65939723709104e-08,1.659397237059e-08,NaN,NaN,3.83199278566675e-08,8.76845779623485e-08,-5.24392991929301e-07,8.76845779611462e-08,8.48454782511249e-08,-2.15425470656937e-07,-1.30579992405787e-07,-4.91104332687756e-07,1.68788774621048e-07,-3.22315558066654e-07,-2.55959530559709e-07,2.13223984822401e-07,-2.55959530559485e-07,-1.21360576228432e-07,7.36921418790616e-07,6.15560842562357e-07,1.22303156854714e-07,7.38684386269961e-08,7.38684386271075e-08,-2.22129162787582e-07,2.22129162787493e-07,2.37697563579376e-07,4.75910538250231e-07,NaN,NaN,NaN,3.01530354290308e-07,2.2856528432318e-07,-9.76381742530259e-09,3.29569441421954e-08,3.29569441422098e-08,4.5058408563609e-07,-3.91416232119083e-07,5.91678535164091e-08,-2.5471180694678e-07,2.33216917283459e-07,-2.14948896633731e-08,-2.18198603369197e-07,8.82269797656788e-08,8.82269797655888e-08,-5.0124361647638e-07,5.01243616476507e-07,-2.08874742502305e-07,0,1,0
1654.9888,2.03274119528335e-08,-4.48348715633941e-10,1.98790632372755e-08,-3.18743157765794e-07,1.58030617120846e-08,1.58030617117715e-08,NaN,NaN,3.43727049428123e-08,7.60889306456103e-08,-5.36174368339345e-07,7.60889306444183e-08,7.75931895243762e-08,-2.23910568743462e-07,-1.4631737921906e-07,-5.13363232616912e-07,1.5903401403608e-07,-3.54329218580764e-07,-2.64798811066008e-07,2.06319813009568e-07,-2.64798811065788e-07,-9.27034497277873e-08,7.44963331724676e-07,6.52259881997047e-07,1.07553703905897e-07,7.31693023679425e-08,7.3169302368054e-08,-2.27497229655772e-07,2.27497229655691e-07,2.30180985643208e-07,4.98066906894628e-07,NaN,NaN,NaN,3.03999408640142e-07,2.32416892455065e-07,-8.35224384702944e-09,3.22250409688866e-08,3.22250409689068e-08,4.53672119786176e-07,-4.02906195558174e-07,5.07659242274106e-08,-2.52717944928877e-07,2.35980030003682e-07,-1.67379149252473e-08,-2.31857080727071e-07,8.67330361071075e-08,8.67330361070236e-08,-4.85100977189906e-07,4.85100977190034e-07,-2.18706481513568e-07,0,1,0
1655.0912,2.01732240931921e-08,-1.2374050094614e-09,1.89358190838088e-08,-3.22077610777169e-07,1.56540185070619e-08,1.56540185067549e-08,NaN,NaN,3.21118949975326e-08,7.14033513418534e-08,-5.42715367542767e-07,7.14033513406473e-08,7.16774843274066e-08,-2.34705193649161e-07,-1.6302770932173e-07,-5.2236490007732e-07,1.40514445213162e-07,-3.81850454864078e-07,-2.72354412594161e-07,2.05179339162125e-07,-2.72354412593941e-07,-5.82238988663063e-08,7.37578970769008e-07,6.7935507190285e-07,9.69771305754558e-08,7.16949950859533e-08,7.16949950860659e-08,-2.30998539343562e-07,2.30998539343487e-07,2.20542911477425e-07,5.1980211973173e-07,NaN,NaN,NaN,3.04594081723798e-07,2.33014031984401e-07,-5.21507543707132e-09,3.09303961399068e-08,3.09303961399304e-08,4.44913945134918e-07,-4.02140857211891e-07,4.27730879224403e-08,-2.51873595032823e-07,2.3995384637434e-07,-1.1919748658535e-08,-2.4300061468409e-07,8.64961462243067e-08,8.64961462242288e-08,-4.74376452270163e-07,4.74376452270293e-07,-2.2702669565213e-07,0,1,0
1655.1936,2.24510467800567e-08,-2.40154439552647e-09,2.00495023846136e-08,-3.19232104886225e-07,1.56465581208981e-08,1.5646558120596e-08,NaN,NaN,3.11981769144635e-08,7.2566448305269e-08,-5.45486447128069e-07,7.2566448304038e-08,6.72805031964425e-08,-2.46749479723454e-07,-1.79468976526987e-07,-5.17935745576006e-07,1.15357938675898e-07,-4.02577806900019e-07,-2.7797893204496e-07,2.09651664303737e-07,-2.77978932044741e-07,-2.17701743088549e-08,7.15905198515625e-07,6.94135024206915e-07,9.16364497111093e-08,6.94606107067507e-08,6.94606107068651e-08,-2.3248932927304e-07,2.3248932927297e-07,2.09905123925311e-07,5.37781841195005e-07,NaN,NaN,NaN,3.02971158138203e-07,2.3013889118003e-07,-5.02569071472031e-10,2.90022844167117e-08,2.90022844167363e-08,4.24417532715185e-07,-3.88046262403164e-07,3.63712703114382e-08,-2.51429170223084e-07,2.44548249015859e-07,-6.8809212072756e-09,-2.51191457278425e-07,8.76912580841327e-08,8.76912580840599e-08,-4.70618932819447e-07,4.70618932819579e-07,-2.32657423789172e-07,0,0,0
1655.296,2.64239950703338e-08,-3.96253583233056e-09,2.24614592380931e-08,-3.10780750900644e-07,1.52930928298589e-08,1.52930928295601e-08,NaN,NaN,3.12070309236145e-08,7.81290003364354e-08,-5.45972045201528e-07,7.81290003351757e-08,6.44199901920009e-08,-2.58769644292616e-07,-1.94349654100592e-07,-5.00785299262394e-07,8.65146363593821e-08,-4.14270662902919e-07,-2.81413892142644e-07,2.18934170134855e-07,-2.81413892142423e-07,1.17200648166912e-08,6.82998224303931e-07,6.9471828912077e-07,9.20777851061659e-08,6.65676105517942e-08,6.65676105519115e-08,-2.32020537126323e-07,2.32020537126257e-07,1.99516172780274e-07,5.49251040126438e-07,NaN,NaN,NaN,2.99077357299429e-07,2.24161397488482e-07,5.40403046938945e-09,2.64658363547732e-08,2.64658363547963e-08,3.93497601613538e-07,-3.60892694861142e-07,3.26049067518144e-08,-2.50550634398112e-07,2.49051121383037e-07,-1.49951301512532e-09,-2.56176405812712e-07,9.03200509126284e-08,9.03200509125599e-08,-4.74126721598829e-07,4.74126721598963e-07,-2.34621550403694e-07,0,0,0
1655.3984,3.12547311217626e-08,-5.8872042439484e-09,2.53675268779118e-08,-2.97893067700603e-07,1.41551134249174e-08,1.41551134246199e-08,NaN,NaN,3.16723873066803e-08,8.64122509201087e-08,-5.45351533755226e-07,8.64122509188199e-08,6.29567507424934e-08,-2.69450977139118e-07,-2.06494226396601e-07,-4.72348280886839e-07,5.72337393274627e-08,-4.15114541559284e-07,-2.8279294076542e-07,2.31686322982502e-07,-2.82792940765197e-07,3.69493442558338e-08,6.43239959802717e-07,6.80189304058705e-07,9.82406918173377e-08,6.31761345667684e-08,6.31761345668891e-08,-2.29801242486122e-07,2.29801242486058e-07,1.90617234679531e-07,5.52218655633936e-07,NaN,NaN,NaN,2.9311417838623e-07,2.15897372914962e-07,1.19669114887351e-08,2.34426036231343e-08,2.34426036231537e-08,3.54637190594468e-07,-3.22426380755733e-07,3.22108098381538e-08,-2.48425354198364e-07,2.52705430375244e-07,4.2800761768306e-09,-2.57896376529954e-07,9.42195691523548e-08,9.42195691522892e-08,-4.83933240435955e-07,4.83933240436092e-07,-2.32234613384951e-07,0,0,0
1655.5008,3.61064227449701e-08,-8.13829532135314e-09,2.79681274237226e-08,-2.82121124695302e-07,1.18661538345476e-08,1.18661538342494e-08,NaN,NaN,3.21339291802249e-08,9.57156772371989e-08,-5.44261395970569e-07,9.57156772358798e-08,6.26217283696084e-08,-2.77616960515738e-07,-2.14995232146108e-07,-4.34740235638477e-07,3.05987390119692e-08,-4.04141496626419e-07,-2.82556642640033e-07,2.46216527197975e-07,-2.82556642639805e-07,4.9186272849857e-08,6.01568153505705e-07,6.50754426355725e-07,1.09429333623762e-07,5.94636528192651e-08,5.94636528193895e-08,-2.26144192665458e-07,2.26144192665394e-07,1.84296847905021e-07,5.4557625345624e-07,NaN,NaN,NaN,2.85473551984301e-07,2.0640920221807e-07,1.85719502894714e-08,2.01447114208151e-08,2.01447114208287e-08,3.11240537160055e-07,-2.75739429678773e-07,3.55011074806984e-08,-2.44382904232376e-07,2.54816663660337e-07,1.04337594279122e-08,-2.56477484252725e-07,9.90958958639829e-08,9.90958958639188e-08,-4.98048446577754e-07,4.98048446577895e-07,-2.25201473083486e-07,0,0,0
