time,S1-D1,S1-D8,S1-D9,S1-D15,S2-D1,S2-D2,S2-D3,S2-D9,S3-D1,S3-D2,S3-D16,S4-D2,S4-D3,S4-D5,S5-D3,S5-D4,S5-D5,S6-D2,S6-D5,S6-D17,S7-D6,S7-D7,S8-D6,S8-D7,S8-D18,S9-D3,S9-D4,S9-D9,S9-D11,S9-D19,S10-D8,S10-D9,S10-D10,S10-D11,S11-D8,S11-D10,S11-D20,S12-D10,S12-D11,S12-D12,S13-D4,S13-D11,S13-D12,S14-D10,S14-D12,S14-D21,S15-D13,S15-D14,S16-D13,S16-D14,S16-D22,SART_Target,SART_NonTarget,SART_Probe
2039.5008,1.28682396116434e-07,1.18635373440674e-08,NaN,NaN,1.44628540717279e-08,1.12064531073078e-07,NaN,NaN,1.41455256056173e-07,5.3095027997241e-08,1.81943646657922e-08,5.30950279964118e-08,-4.31613611067045e-09,-2.2628645131111e-08,-2.69447812418337e-08,NaN,-2.72364339284551e-07,6.77645619579826e-08,4.69071854741021e-08,-5.25900304891483e-07,4.69071854739731e-08,2.10827874694833e-07,NaN,NaN,-1.25259796860938e-07,-2.24089599576311e-08,NaN,8.28607086348501e-08,-8.28607086349227e-08,9.66363493947199e-08,3.70346043534442e-07,-3.1134028565221e-07,NaN,NaN,-6.21457575249755e-08,4.17805278487163e-08,-2.68556508676186e-08,-3.2267900683425e-08,-3.22679006833892e-08,1.28184033553959e-07,3.82659091739699e-09,1.32010624471351e-07,3.25417062382001e-08,-1.90478839254528e-07,-1.57937133016298e-07,3.64428430975121e-07,2.29894026082427e-07,2.29894026082376e-07,NaN,1.26123242763157e-08,1.32110874175937e-07,0,1,0
2039.6032,1.27342073642594e-07,1.27399789311444e-08,NaN,NaN,1.47472536018432e-08,1.06996733027696e-07,NaN,NaN,1.36129522288617e-07,4.04699113844202e-08,1.36872443731044e-08,4.04699113835904e-08,-3.93651287209338e-09,-2.14524701931566e-08,-2.53889830653057e-08,NaN,-2.68297219523851e-07,6.43499017715937e-08,4.36570395425582e-08,-5.40005114409926e-07,4.36570395424261e-08,1.96228645517285e-07,NaN,NaN,-1.23340228919744e-07,-2.52654965861509e-08,NaN,7.9033434649025e-08,-7.90334346490941e-08,1.08927746947179e-07,4.14770765852431e-07,-2.83745393708281e-07,NaN,NaN,-6.22696727891849e-08,3.78167889539607e-08,-2.49092553049243e-08,-3.23684895007687e-08,-3.2368489500734e-08,1.28722002331821e-07,9.04213626601002e-10,1.29626215958416e-07,3.43541180944859e-08,-1.95787450571063e-07,-1.61433332476545e-07,3.49208186414471e-07,2.29714238030984e-07,2.29714238030932e-07,NaN,1.02863645801135e-08,1.28879477704603e-07,0,1,0
2039.7056,1.24766327544764e-07,1.29755661876393e-08,NaN,NaN,1.4919170302098e-08,1.00550921152568e-07,NaN,NaN,1.31019709796936e-07,2.46979973688532e-08,9.44672372096348e-09,2.4697997368023e-08,-3.3145663230507e-09,-2.01007589472753e-08,-2.34153252703846e-08,NaN,-2.65287621345087e-07,6.14033214163033e-08,3.95006429137139e-08,-5.54072830713972e-07,3.95006429135782e-08,1.74770190055569e-07,NaN,NaN,-1.21099003555445e-07,-2.83439472597034e-08,NaN,7.44437502287621e-08,-7.44437502288272e-08,1.18340718230551e-07,4.5638243047021e-07,-2.60878982816434e-07,NaN,NaN,-6.21291662234713e-08,3.32377069593093e-08,-2.19457560917232e-08,-3.26515302072956e-08,-3.26515302072621e-08,1.28265891047567e-07,-1.97255563376184e-09,1.26293335413799e-07,3.7483860970598e-08,-1.99229963870562e-07,-1.6174610289993e-07,3.3035702101489e-07,2.29098771948969e-07,2.29098771948917e-07,NaN,7.61233983997191e-09,1.25596151160991e-07,0,1,0
2039.808,1.21009377052453e-07,1.25714629916978e-08,NaN,NaN,1.499253036684e-08,9.30050334420152e-08,NaN,NaN,1.2636659157592e-07,6.38455740580104e-09,5.41590465718723e-09,6.38455740497054e-09,-2.4266204589313e-09,-1.85497490266017e-08,-2.09763694855939e-08,NaN,-2.62899084608905e-07,5.90965060559146e-08,3.3913626872545e-08,-5.66482366371178e-07,3.39136268724059e-08,1.46587835402304e-07,NaN,NaN,-1.18734945339424e-07,-3.15897619674727e-08,NaN,6.91386628175779e-08,-6.91386628176387e-08,1.24448328577864e-07,4.96201904349914e-07,-2.41247574824848e-07,NaN,NaN,-6.16188841732913e-08,2.80300330008585e-08,-1.81906558043094e-08,-3.3115980001354e-08,-3.3115980001322e-08,1.2682837405589e-07,-4.74362903941737e-09,1.22084745016467e-07,4.1529367154142e-08,-2.00544382421264e-07,-1.59015015267082e-07,3.08982316360215e-07,2.28035801506725e-07,2.28035801506672e-07,NaN,4.69381951664579e-09,1.22178345430311e-07,0,0,0
2039.9104,1.16218007615045e-07,1.15738714265225e-08,NaN,NaN,1.49759287640344e-08,8.4689199306858e-08,NaN,NaN,1.22325077044815e-07,-1.38313302087507e-08,1.55056172381235e-09,-1.38313302095823e-08,-1.27267950142725e-09,-1.68071459298849e-08,-1.80798254313746e-08,NaN,-2.60703064884724e-07,5.74988424338624e-08,2.65909685238127e-08,-5.76008935407751e-07,2.65909685236713e-08,1.1242767657767e-07,NaN,NaN,-1.1646281864509e-07,-3.49535062936611e-08,NaN,6.31946345193033e-08,-6.319463451936e-08,1.27099657630347e-07,5.35370283047106e-07,-2.2257409201492e-07,NaN,NaN,-6.06369341704194e-08,2.21976770906261e-08,-1.38972821642222e-08,-3.37527011898655e-08,-3.37527011898353e-08,1.24438295513532e-07,-7.37345280188351e-09,1.17064842711644e-07,4.60711259605517e-08,-1.9964626565778e-07,-1.53575139697185e-07,2.86321735414601e-07,2.26387326339622e-07,2.26387326339568e-07,NaN,1.62889397453099e-09,1.18542590658067e-07,0,0,0
2040.0128,1.10602419383912e-07,1.00711705119742e-08,NaN,NaN,1.48713516158195e-08,7.59538693099706e-08,NaN,NaN,1.18942804144028e-07,-3.53786019806309e-08,-2.17026271923695e-09,-3.53786019814639e-08,1.09560336478569e-10,-1.49178586943694e-08,-1.48082983579542e-08,NaN,-2.58319575425471e-07,5.65656797305768e-08,1.75614308069103e-08,-5.81945498780037e-07,1.75614308067687e-08,7.36577686511542e-08,NaN,NaN,-1.14507575388787e-07,-3.83912863451912e-08,NaN,5.67141963020979e-08,-5.67141963021507e-08,1.26390619724389e-07,5.75266166362553e-07,-2.01633796188959e-07,NaN,NaN,-5.90916182362888e-08,1.57670439661252e-08,-9.34128128745673e-09,-3.453936260259e-08,-3.45393626025612e-08,1.21135345322792e-07,-9.83952974774031e-09,1.11295815575048e-07,5.06916431072737e-08,-1.96632616519863e-07,-1.45940973412541e-07,2.63657976695665e-07,2.23902893721322e-07,2.23902893721267e-07,NaN,-1.48734785038668e-09,1.14602359729938e-07,0,0,0
2040.1152,1.04396645386605e-07,8.18609295136395e-09,NaN,NaN,1.46778550501602e-08,6.71368277098334e-08,NaN,NaN,1.16152236480074e-07,-5.78060600626099e-08,-5.74521752938541e-09,-5.7806060063445e-08,1.6362960950546e-09,-1.29593210343224e-08,-1.13230249393316e-08,NaN,-2.55414020214841e-07,5.61518510667232e-08,7.22079410316761e-09,-5.84137666192844e-07,7.22079410302854e-09,3.21533817915878e-08,NaN,NaN,-1.13106550025925e-07,-4.18575838310944e-08,NaN,4.9816368803657e-08,-4.98163688037059e-08,1.22616006994354e-07,6.17590583442107e-07,-1.74396999075398e-07,NaN,NaN,-5.69045809095016e-08,8.79349663471609e-09,-4.80961558858191e-09,-3.5434840367161e-08,-3.54348403671337e-08,1.16963406456298e-07,-1.21131014717625e-08,1.04850304984532e-07,5.49907383997544e-08,-1.91751109690081e-07,-1.36760371290272e-07,2.42227004694961e-07,2.20283503453906e-07,2.2028350345385e-07,NaN,-4.55524509765692e-09,1.10264769540938e-07,0,0,0
2040.2176,9.78212567060382e-08,6.06335615661611e-09,NaN,NaN,1.43982761628016e-08,5.85352853748692e-08,NaN,NaN,1.1378311028876e-07,-8.07699508976223e-08,-9.16252112013617e-09,-8.07699508984602e-08,3.18073136101481e-09,-1.10278205249379e-08,-7.84708916398688e-09,NaN,-2.51670879909731e-07,5.60431154833937e-08,-3.72460533865739e-09,-5.82914485558345e-07,-3.7246053387916e-09,-9.89394641637272e-09,NaN,NaN,-1.1250801101974e-07,-4.52946221455297e-08,NaN,4.26234174669264e-08,-4.26234174669718e-08,1.16210970638222e-07,6.64359420329598e-07,-1.36541725483786e-07,NaN,NaN,-5.40102794630903e-08,1.36765842187151e-09,-5.79291247442797e-10,-3.63743012320668e-08,-3.63743012320406e-08,1.11965573236564e-07,-1.41387311843233e-08,9.78268420522379e-08,5.86036275492622e-08,-1.85353654990779e-07,-1.26750027441458e-07,2.23129434360992e-07,2.15281454441479e-07,2.15281454441422e-07,NaN,-7.46347075467333e-09,1.05432002622126e-07,0,0,0
2040.32,9.10608723610872e-08,3.85447290744838e-09,NaN,NaN,1.40445491096594e-08,5.03876367009632e-08,NaN,NaN,1.11595071937956e-07,-1.03969809601188e-07,-1.24171485591566e-08,-1.03969809602029e-07,4.59001882720836e-09,-9.21989283445237e-09,-4.62987400730742e-09,NaN,-2.4677365371979e-07,5.59850002630369e-08,-1.43852514745993e-08,-5.78932411014653e-07,-1.43852514747261e-08,-5.01844269730613e-08,NaN,NaN,-1.12955793030622e-07,-4.86226162256378e-08,NaN,3.52456837413551e-08,-3.52456837413975e-08,1.0769382949279e-07,7.17746653860419e-07,-8.42373687525263e-08,NaN,NaN,-5.0352843944514e-08,-6.3798345367072e-09,3.11233576288258e-09,-3.72669465099782e-08,-3.72669465099526e-08,1.06182582245019e-07,-1.58202243820328e-08,9.03623578629839e-08,6.12248289690274e-08,-1.7784968437549e-07,-1.16624855406398e-07,2.07250606494185e-07,2.08801995821679e-07,2.08801995821621e-07,NaN,-1.00888473726235e-08,1.00012249060421e-07,0,0,0
2040.4224,8.42573152719546e-08,1.70175290733389e-09,NaN,NaN,1.36384723540398e-08,4.28627192888563e-08,NaN,NaN,1.09320244109792e-07,-1.2707632407788e-07,-1.55243984488558e-08,-1.27076324078725e-07,5.71123001005081e-09,-7.61413598358005e-09,-1.90290597359199e-09,NaN,-2.40412722443577e-07,5.56924968289308e-08,-2.3838421411861e-08,-5.72987243352706e-07,-2.38384214119773e-08,-8.65072688567586e-08,NaN,NaN,-1.14662655074087e-07,-5.17356579739981e-08,NaN,2.77668605674815e-08,-2.77668605675207e-08,9.76148038534265e-08,7.79794871570133e-07,-1.49429955618441e-08,NaN,NaN,-4.58840561559843e-08,-1.4280604485154e-08,6.09612664013503e-09,-3.79996522331013e-08,-3.7999652233076e-08,9.9653228403139e-08,-1.70190856551716e-08,8.26341427479661e-08,6.26324665313925e-08,-1.6966340181048e-07,-1.07030935279018e-07,1.95196200036464e-07,2.00970395424847e-07,2.00970395424789e-07,NaN,-1.23046589090303e-08,9.39385596386831e-08,0,0,0
2040.5248,7.75087106341593e-08,-2.75869471021036e-10,NaN,NaN,1.32083587737636e-08,3.60516318441567e-08,NaN,NaN,1.06699957494868e-07,-1.49696601898332e-07,-1.85236728399031e-08,-1.49696601899181e-07,6.41613121942472e-09,-6.2585825486013e-09,1.57548670761469e-10,NaN,-2.32322052365811e-07,5.48400100929649e-08,-3.12422299066655e-08,-5.65849601386451e-07,-3.12422299067687e-08,-1.16899913309368e-07,NaN,NaN,-1.17788118238316e-07,-5.45057802712571e-08,NaN,2.02341216027973e-08,-2.02341216028335e-08,8.65079677663242e-08,8.52095585374846e-07,7.20996336056178e-08,NaN,NaN,-4.05654620284274e-08,-2.21422885759945e-08,8.28543082381528e-09,-3.84475935797319e-08,-3.8447593579706e-08,9.24131423485942e-08,-1.75666525841328e-08,7.48464897644613e-08,6.27029203480124e-08,-1.61196596357708e-07,-9.84936760096209e-08,1.87256557844468e-07,1.92144632470435e-07,1.92144632470375e-07,NaN,-1.39923667714773e-08,8.7185816945981e-08,0,0,0
2040.6272,7.08668625610234e-08,-1.99243139162261e-09,NaN,NaN,1.27842659838041e-08,2.99610091509663e-08,NaN,NaN,1.03505916936112e-07,-1.71391518661952e-07,-2.14725329926101e-08,-1.71391518662805e-07,6.61656774393769e-09,-5.16612116702151e-09,1.45044657685504e-09,NaN,-2.22334329360916e-07,5.30464584768389e-08,-3.58859954939004e-08,-5.58162872340319e-07,-3.58859954939872e-08,-1.39733983805037e-07,NaN,NaN,-1.22430691425031e-07,-5.67928747834955e-08,NaN,1.26560550398611e-08,-1.26560550398946e-08,7.48482563690748e-08,9.35556536595792e-07,1.75838483785634e-07,NaN,NaN,-3.43738589859085e-08,-2.97698054396002e-08,9.67059229253699e-09,-3.84885876353707e-08,-3.84885876353437e-08,8.44907428685358e-08,-1.72853199717101e-08,6.72054228968263e-08,6.14109720966222e-08,-1.52802136644169e-07,-9.1391164547468e-08,1.83406731715215e-07,1.82873224644953e-07,1.82873224644893e-07,NaN,-1.50508386911039e-08,7.97771619109671e-08,0,0,0
2040.7296,6.43312634955211e-08,-3.39884339905729e-09,NaN,NaN,1.23946438212669e-08,2.45082102802805e-08,NaN,NaN,9.95460731172074e-08,-1.91731913850835e-07,-2.44350135152645e-08,-1.91731913851692e-07,6.26853004378361e-09,-4.31608968410151e-09,1.95244035962175e-09,NaN,-2.10444343921038e-07,4.9876387723596e-08,-3.7197260298557e-08,-5.50436213405174e-07,-3.71972602986253e-08,-1.53717310119511e-07,NaN,NaN,-1.28625721946387e-07,-5.84552280475315e-08,NaN,5.00629976971062e-09,-5.00629976974167e-09,6.30231700624778e-08,1.03030873699325e-06,2.93723084239616e-07,NaN,NaN,-2.73068644927347e-08,-3.69838602274377e-08,1.03024844571843e-08,-3.80153314995411e-08,-3.80153314995128e-08,7.59033922692585e-08,-1.60112986732141e-08,5.98920935960465e-08,5.88172291031281e-08,-1.44770283738909e-07,-8.59530546356984e-08,1.83330957121907e-07,1.73813445899611e-07,1.7381344589955e-07,NaN,-1.54021701848636e-08,7.17818314895146e-08,0,1,0
2040.832,5.78397829116474e-08,-4.48210240901067e-09,NaN,NaN,1.20661352264779e-08,1.95173651447115e-08,NaN,NaN,9.46594852582391e-08,-2.10369317497034e-07,-2.74692256887019e-08,-2.10369317497894e-07,5.36733794402436e-09,-3.65724335195654e-09,1.71009459200814e-09,NaN,-1.96858513639514e-07,4.4867935030873e-08,-3.47451985992685e-08,-5.43135955890857e-07,-3.47451985993157e-08,-1.57842706497586e-07,NaN,NaN,-1.36336531669167e-07,-5.93569783333285e-08,NaN,-2.77201280532318e-09,2.77201280529457e-09,5.13252859662133e-08,1.1357315135866e-06,4.22093858351455e-07,NaN,NaN,-1.93860053231412e-08,-4.36295648111585e-08,1.02791096026612e-08,-3.69414038490776e-08,-3.69414038490476e-08,6.66588231178198e-08,-1.36131863521822e-08,5.30456367656411e-08,5.50475649317746e-08,-1.37320580213869e-07,-8.22730152820086e-08,1.8645196662259e-07,1.65637669242598e-07,1.65637669242536e-07,NaN,-1.49964694606752e-08,6.33116647572703e-08,0,1,0
2040.9344,5.12602321961191e-08,-5.26206560266793e-09,NaN,NaN,1.18257565611075e-08,1.47186314613396e-08,NaN,NaN,8.87066136952086e-08,-2.27092380233461e-07,-3.06186933228634e-08,-2.27092380234325e-07,3.93855996533048e-09,-3.10894762792202e-09,8.29612337349357e-10,NaN,-1.81999098433437e-07,3.75791346178607e-08,-2.82564693160907e-08,-5.36821535804382e-07,-2.82564693161155e-08,-1.51341759255363e-07,NaN,NaN,-1.45441479617557e-07,-5.93727907296617e-08,NaN,-1.07631310047623e-08,1.07631310047361e-08,3.99613886919141e-08,1.25054878754814e-06,5.56486739623167e-07,NaN,NaN,-1.06571086283689e-08,-4.95760710281068e-08,9.74120052503883e-09,-3.52015246580584e-08,-3.52015246580263e-08,5.67662748049575e-08,-1.00059414264476e-08,4.67603333785149e-08,5.0272346621791e-08,-1.30591291553651e-07,-8.03189449317705e-08,1.91958682395498e-07,1.58956672674484e-07,1.58956672674421e-07,NaN,-1.3815862452854e-08,5.451869848261e-08,0,1,0
2041.0368,4.43949997338528e-08,-5.78785903046738e-09,NaN,NaN,1.17020805106351e-08,9.75933805041753e-09,NaN,NaN,8.15634040226073e-08,-2.41845697558336e-07,-3.39087530650521e-08,-2.41845697559202e-07,2.03059457112813e-09,-2.56253268272736e-09,-5.31938111657876e-10,NaN,-1.66459769986808e-07,2.76370569166762e-08,-1.76205131789541e-08,-5.32252075519094e-07,-1.76205131789556e-08,-1.33691487690264e-07,NaN,NaN,-1.55728023847703e-07,-5.83933583651961e-08,NaN,-1.90740328694893e-08,1.90740328694661e-08,2.90707251126046e-08,1.3729686420033e-06,6.9186845202372e-07,NaN,NaN,-1.18932540562038e-09,-5.4712903049205e-08,8.87250714570912e-09,-3.27499502223071e-08,-3.27499502222727e-08,4.62560121346982e-08,-5.16220606428491e-09,4.10938060704198e-08,4.46930539543103e-08,-1.24630410810586e-07,-7.99373568561827e-08,1.98846065499996e-07,1.54273513211743e-07,1.54273513211679e-07,NaN,-1.18756023666489e-08,4.5592179499707e-08,0,0,0
2041.1392,3.70106238036483e-08,-6.13440673620514e-09,NaN,NaN,1.17228320879011e-08,4.23483296337835e-09,NaN,NaN,7.31236043965482e-08,-2.54710210494016e-07,-3.73450105709495e-08,-2.54710210494883e-07,-2.86800151846032e-10,-1.88782951273796e-09,-2.17462966464225e-09,NaN,-1.50945912919709e-07,1.47831534881315e-08,-2.85251692816994e-09,-5.30428351289737e-07,-2.85251692814759e-09,-1.04682576070411e-07,NaN,NaN,-1.668974316207e-07,-5.63359131451247e-08,NaN,-2.78235210310688e-08,2.78235210310486e-08,1.87478154400474e-08,1.50086349296582e-06,8.22901318270597e-07,NaN,NaN,8.92552050231346e-09,-5.89489796504695e-08,7.89784867170191e-09,-2.95609692231254e-08,-2.95609692230883e-08,3.51982986536485e-08,8.78747530687264e-10,3.6077046184344e-08,3.85374398305185e-08,-1.19399743428877e-07,-8.08623035982624e-08,2.05985773545766e-07,1.51960223585741e-07,1.51960223585676e-07,NaN,-9.22278371249574e-09,3.67544624309542e-08,0,0,0
2041.2416,2.88910473507958e-08,-6.39808934465717e-09,NaN,NaN,1.19096837019515e-08,-2.26217651929664e-09,NaN,NaN,6.33096105464598e-08,-2.65869346198885e-07,-4.09092408128143e-08,-2.65869346199751e-07,-2.91865582801443e-09,-9.48038117108818e-10,-3.86669394518103e-09,NaN,-1.36230233126364e-07,-1.08393905556339e-09,1.59765664356393e-08,-5.32565842460582e-07,1.59765664356835e-08,-6.45322131170613e-08,NaN,NaN,-1.78577004915126e-07,-5.31614335647719e-08,NaN,-3.71221065096362e-08,3.71221065096191e-08,9.06499975781942e-09,1.63197713492103e-06,9.44286846153757e-07,NaN,NaN,1.95722025622142e-08,-6.2217935376193e-08,7.07442821798183e-09,-2.56337152611276e-08,-2.56337152610881e-08,2.37132829821474e-08,8.00512483123031e-09,3.17184078133875e-08,3.20557431773661e-08,-1.14793653975408e-07,-8.27379107979434e-08,2.1223270495721e-07,1.5223837512134e-07,1.52238375121275e-07,NaN,-5.93685587130753e-09,2.82554781797424e-08,0,0,0
2041.344,1.98998840116615e-08,-6.69041281904989e-09,NaN,NaN,1.2272127866204e-08,-1.00828767491577e-08,NaN,NaN,5.20935127576869e-08,-2.75591010134722e-07,-4.45502709384311e-08,-2.75591010135587e-07,-5.73988700259799e-09,3.78034960960522e-10,-5.36185204169468e-09,NaN,-1.23127206285447e-07,-1.98646152996383e-08,3.87869467119966e-08,-5.39987915983738e-07,3.87869467120611e-08,-1.40105914313225e-08,NaN,NaN,-1.90338964220143e-07,-4.88959473402267e-08,NaN,-4.70432161023569e-08,4.70432161023431e-08,8.84279033214176e-11,1.76408923144538e-06,1.05115272979265e-06,NaN,NaN,3.06104579790097e-08,-6.44887519319181e-08,6.67328133170057e-09,-2.10015563715824e-08,-2.10015563715405e-08,1.19692348600315e-08,1.60312312011277e-08,2.80004660611701e-08,2.55040782969404e-08,-1.10658626973666e-07,-8.51545486766242e-08,2.16556869546151e-07,1.55149320403857e-07,1.5514932040379e-07,NaN,-2.13456555520855e-09,2.03637134726484e-08,0,0,0
2041.4464,1.00333557715033e-08,-7.12899393280844e-09,NaN,NaN,1.28013276772236e-08,-1.94645046045368e-08,NaN,NaN,3.95278137194206e-08,-2.84234368632202e-07,-4.81721410998649e-08,-2.84234368633064e-07,-8.59300502036383e-09,2.17168458211486e-09,-6.42132043830531e-09,NaN,-1.12470099277624e-07,-4.12144931709577e-08,6.54647597748606e-08,-5.53933670150477e-07,6.54647597749427e-08,4.54651437466035e-08,NaN,NaN,-2.01728335504249e-07,-4.36485623186327e-08,NaN,-5.75914108284009e-08,5.75914108283911e-08,-8.11512315578467e-09,1.89503908463308e-06,1.13942846994353e-06,NaN,NaN,4.1874057371656e-08,-6.57770382775808e-08,6.94951063818208e-09,-1.57445436386234e-08,-1.5744543638579e-08,1.69044975959092e-10,2.4703714880077e-08,2.48727598560482e-08,1.91075859594667e-08,-1.06800476068862e-07,-8.76928901092905e-08,2.18177433716655e-07,1.60515593715745e-07,1.60515593715677e-07,NaN,2.02406247218277e-09,1.33520001204375e-08,0,0,0
2041.5488,-5.52667865912281e-10,-7.82590232657116e-09,NaN,NaN,1.34653200107464e-08,-3.04829463818435e-08,NaN,NaN,2.57764264832098e-08,-2.92257345716765e-07,-5.16276595700978e-08,-2.92257345717621e-07,-1.12902732177586e-08,4.45692339729006e-09,-6.83334982052364e-09,NaN,-1.0506401913589e-07,-6.4516706514276e-08,9.57649132179667e-08,-5.75299709093206e-07,9.57649132180626e-08,1.1180559334356e-07,NaN,NaN,-2.12302469117946e-07,-3.7615696820661e-08,NaN,-6.86782610687902e-08,6.86782610687853e-08,-1.54797322780207e-08,2.0225605174952e-06,1.20616840986671e-06,NaN,NaN,5.31727276280961e-08,-6.61521435133101e-08,8.10429827153867e-09,-1.00009246204144e-08,-1.00009246203677e-08,-1.14740998370317e-08,3.371890521775e-08,2.22448053807317e-08,1.30186097413009e-08,-1.0298460694979e-07,-8.99659972083803e-08,2.16661514716913e-07,1.67915304709984e-07,1.67915304709914e-07,NaN,6.33682680576431e-09,7.47746912232532e-09,0,0,0
2041.6512,-1.1554733608483e-08,-8.87494098123781e-09,NaN,NaN,1.42080953437194e-08,-4.30272783218704e-08,NaN,NaN,1.1130996060711e-08,-3.00188795356491e-07,-5.47271951576558e-08,-3.00188795357339e-07,-1.36226918235156e-08,7.19768635658158e-09,-6.42500546698746e-09,NaN,-1.01593152975922e-07,-8.88991927351826e-08,1.29188645017743e-07,-6.04353861758047e-07,1.29188645017849e-07,1.82307626365785e-07,NaN,NaN,-2.21682277864219e-07,-3.10630208527226e-08,NaN,-8.01167309619267e-08,8.01167309619264e-08,-2.19499547923979e-08,2.14398253826825e-06,1.24975627088514e-06,NaN,NaN,6.42995606452622e-08,-6.5736055997828e-08,1.02468839492289e-08,-3.97007584584788e-09,-3.97007584579902e-09,-2.27670601955069e-08,4.27539691990021e-08,1.99869090035097e-08,7.29916062533997e-09,-9.89486148734646e-08,-9.16494542480116e-08,2.11948850429259e-07,1.76703081458086e-07,1.76703081458016e-07,NaN,1.05741224353904e-08,2.95515705738814e-09,0,0,0
2041.7536,-2.25754799941187e-08,-1.03401584181888e-08,NaN,NaN,1.49548264607266e-08,-5.68066431122965e-08,NaN,NaN,-3.99999360248753e-09,-3.0855077824548e-07,-5.72660682387694e-08,-3.0855077824632e-07,-1.53790179932027e-08,1.03104620066132e-08,-5.06855598664086e-09,NaN,-1.02486619356756e-07,-1.13318238904053e-07,1.64904513286864e-07,-6.40499794822769e-07,1.64904513286976e-07,2.53807112155931e-07,NaN,NaN,-2.29605733351139e-07,-2.42845087067991e-08,NaN,-9.1638944811898e-08,9.16389448119028e-08,-2.7494819488166e-08,2.25595726585016e-06,1.26990794315589e-06,NaN,NaN,7.50450355791277e-08,-6.46907473140091e-08,1.33697675894182e-08,2.10148651834497e-09,2.10148651839574e-09,-3.35636569696631e-08,5.15098835725587e-08,1.79462266029116e-08,1.94297385215117e-09,-9.44386692176357e-08,-9.2495695365367e-08,2.04290668467527e-07,1.8609381478842e-07,1.86093814788348e-07,NaN,1.45062265757659e-08,-7.18569742152844e-11,0,0,0
2041.856,-3.32013939362588e-08,-1.22468080167598e-08,NaN,NaN,1.56230106423052e-08,-7.13879300792142e-08,NaN,NaN,-1.91309486366456e-08,-3.17749385344698e-07,-5.90629536551703e-08,-3.17749385345529e-07,-1.63733621861033e-08,1.36864018675462e-08,-2.68696031860577e-09,NaN,-1.07778370729391e-07,-1.36696521538388e-07,2.01757137399664e-07,-6.82208278645291e-07,2.01757137399776e-07,3.22911109716961e-07,NaN,NaN,-2.35961690056535e-07,-1.75480366815983e-08,NaN,-1.02932330322305e-07,1.02932330322315e-07,-3.21134333669471e-08,2.35438467039417e-06,1.26744023929169e-06,NaN,NaN,8.52148811148378e-08,-6.31934743851002e-08,1.73515935377436e-08,7.95165975744227e-09,7.95165975749437e-09,-4.37768109950093e-08,5.97534111251668e-08,1.59766001301746e-08,-3.0720440164528e-09,-8.92602995866455e-08,-9.23323436029761e-08,1.94132563928688e-07,1.95283687138331e-07,1.95283687138257e-07,NaN,1.79335770845256e-08,-1.55601689343234e-09,0,0,0
2041.9584,-4.30716872662742e-08,-1.45754427848872e-08,NaN,NaN,1.61348917005813e-08,-8.62485101705391e-08,NaN,NaN,-3.37530637130757e-08,-3.27973865122396e-07,-5.99941080251665e-08,-3.27973865123217e-07,-1.64715343868488e-08,1.72134740189911e-08,7.41939632096813e-10,NaN,-1.17014246019583e-07,-1.5806579768081e-07,2.3834959980853e-07,-7.27177250979939e-07,2.3834959980864e-07,3.8625381190537e-07,NaN,NaN,-2.40782647328184e-07,-1.10446663332615e-08,NaN,-1.13680993259884e-07,1.13680993259899e-07,-3.58195458126819e-08,2.43457347223089e-06,1.24384846874518e-06,NaN,NaN,9.4646337778473e-08,-6.14042705463154e-08,2.19935563620093e-08,1.33409642796336e-08,1.33409642796861e-08,-5.33690876669928e-08,6.73397834205154e-08,1.3970695753541e-08,-7.72192509387576e-09,-8.33219232952099e-08,-9.10438483889589e-08,1.81994025670459e-07,2.03556981757917e-07,2.03556981757841e-07,NaN,2.07072776909521e-08,-1.55024764840717e-09,0,1,0
2042.0608,-5.19132058593399e-08,-1.72604560225385e-08,NaN,NaN,1.64252770777631e-08,-1.0082883454552e-07,NaN,NaN,-4.73828219367642e-08,-3.39144780858021e-07,-6.00097117739411e-08,-3.39144780858832e-07,-1.56052092680732e-08,2.07900218539484e-08,5.1848125858333e-09,NaN,-1.2926089496151e-07,-1.76662865712266e-07,2.73167168419856e-07,-7.72674810293879e-07,2.73167168419959e-07,4.40735320556291e-07,NaN,NaN,-2.44196819305524e-07,-4.8597695250016e-09,NaN,-1.23599730510388e-07,1.23599730510406e-07,-3.86090196711717e-08,2.49158996824297e-06,1.20081248758331e-06,NaN,NaN,1.03217776555783e-07,-5.94353223274352e-08,2.70779330423543e-08,1.80829131416824e-08,1.80829131417351e-08,-6.23261986233594e-08,7.42077002714613e-08,1.18815016481215e-08,-1.18848743762306e-08,-7.66568857368626e-08,-8.85417601129627e-08,1.68382315658097e-07,2.10344367393748e-07,2.10344367393671e-07,NaN,2.27319733332729e-08,-1.89992362955988e-10,0,1,0
2042.1632,-5.95432663649972e-08,-2.01936941157205e-08,NaN,NaN,1.64440636605101e-08,-1.14582015835205e-07,NaN,NaN,-5.96007418088185e-08,-3.5093285264665e-07,-5.91286082341691e-08,-3.50932852647452e-07,-1.37726527916847e-08,2.43269413864594e-08,1.05542885947365e-08,NaN,-1.43244953850298e-07,-1.91965638190854e-07,3.04741259136425e-07,-8.15962879924475e-07,3.04741259136518e-07,4.83753409268817e-07,NaN,NaN,-2.46368921452362e-07,1.02348369130829e-09,NaN,-1.32455544496565e-07,1.32455544496587e-07,-4.04331366718369e-08,2.52082293291057e-06,1.13984189432001e-06,NaN,NaN,1.10848628019368e-07,-5.73360127704001e-08,3.24216361208738e-08,2.20587339075686e-08,2.20587339076212e-08,-7.06281846474588e-08,8.03535454574828e-08,9.72536081004479e-09,-1.53151415212419e-08,-6.9425339516717e-08,-8.47404810378254e-08,1.53745664468451e-07,2.15235235067335e-07,2.15235235067256e-07,NaN,2.39549909308223e-08,2.33737713617835e-09,0,1,0
2042.2656,-6.58603994825145e-08,-2.32319576481438e-08,NaN,NaN,1.61578011892201e-08,-1.27021643505935e-07,NaN,NaN,-7.0089644091265e-08,-3.62841352048645e-07,-5.74183380915878e-08,-3.62841352049438e-07,-1.10336754646198e-08,2.77422082088649e-08,1.67085327442107e-08,NaN,-1.57588019358156e-07,-2.03687008248615e-07,3.31849114109464e-07,-8.5469713062092e-07,3.31849114109544e-07,5.1342754485913e-07,NaN,NaN,-2.4746932241245e-07,6.69002232899189e-09,NaN,-1.40076526326063e-07,1.40076526326088e-07,-4.12020989627734e-08,2.51883524643809e-06,1.06227664532803e-06,NaN,NaN,1.17489665757286e-07,-5.51040677475428e-08,3.78965867174944e-08,2.52167563823282e-08,2.52167563823799e-08,-7.82329449473009e-08,8.57981726067275e-08,7.56522765944792e-09,-1.76529009347418e-08,-6.19032893584176e-08,-7.95561902930235e-08,1.38456316995943e-07,2.17965501771029e-07,2.17965501770949e-07,NaN,2.43546840751098e-08,5.81699857960627e-09,0,0,0
2042.368,-7.08381611401239e-08,-2.62074092598005e-08,NaN,NaN,1.55527893259812e-08,-1.37762577401912e-07,NaN,NaN,-7.86743602087424e-08,-3.74326389346664e-07,-5.49707429406326e-08,-3.74326389347451e-07,-7.50584509850101e-09,3.09528351686913e-08,2.34469900701594e-08,NaN,-1.7104835689951e-07,-2.11746509372809e-07,3.5369406764504e-07,-8.87206423217186e-07,3.53694067645104e-07,5.28760124457334e-07,NaN,NaN,-2.47691771353565e-07,1.22402254424218e-08,NaN,-1.46348291537331e-07,1.46348291537358e-07,-4.08249342977628e-08,2.48439436675531e-06,9.69680682686903e-07,NaN,NaN,1.23107824836074e-07,-5.27206078801653e-08,4.34062206505046e-08,2.75606131733088e-08,2.75606131733595e-08,-8.50772275302548e-08,9.05575837762696e-08,5.48035624603691e-09,-1.84713076661401e-08,-5.44615452318792e-08,-7.29328528978813e-08,1.22819636392644e-07,2.18399945389645e-07,2.18399945389562e-07,NaN,2.39381564723158e-08,1.00122505705578e-08,0,0,0
2042.4704,-7.45250691939257e-08,-2.89423164150266e-08,NaN,NaN,1.46374940178322e-08,-1.46548327582016e-07,NaN,NaN,-8.53506450478754e-08,-3.84929837530893e-07,-5.18802291527765e-08,-3.84929837531675e-07,-3.36386662502615e-09,3.38672697050818e-08,3.05034030800279e-08,NaN,-1.82689737012252e-07,-2.16234872274143e-07,3.69998312727256e-07,-9.12581719462939e-07,3.69998312727301e-07,5.29691598635973e-07,NaN,NaN,-2.47307956094386e-07,1.77358743761952e-08,NaN,-1.51199396440838e-07,1.51199396440867e-07,-3.9271448437963e-08,2.41933737009386e-06,8.64412743848132e-07,NaN,NaN,1.27672950961801e-07,-5.01935270964214e-08,4.88310025810829e-08,2.91320152084064e-08,2.91320152084558e-08,-9.10898470476916e-08,9.46253131300108e-08,3.53546608234195e-09,-1.73523832086984e-08,-4.75332303687329e-08,-6.48856135772921e-08,1.07108492407667e-07,2.16521850037671e-07,2.16521850037587e-07,NaN,2.27487684612146e-08,1.46539544768519e-08,0,0,0
2042.5728,-7.70488149276662e-08,-3.12695813956056e-08,NaN,NaN,1.34416714650783e-08,-1.53264536235282e-07,NaN,NaN,-9.02899421448949e-08,-3.94398893584917e-07,-4.82289154405557e-08,-3.94398893585696e-07,1.1593814672473e-09,3.63812399316504e-08,3.75406213988726e-08,NaN,-1.9195016848331e-07,-2.17383535252165e-07,3.80990675799171e-07,-9.30570474763716e-07,3.80990675799197e-07,5.17073525956081e-07,NaN,NaN,-2.46726680975052e-07,2.31615691803219e-08,NaN,-1.54581297152143e-07,1.54581297152174e-07,-3.66327510537818e-08,2.32890769723094e-06,7.50054305959404e-07,NaN,NaN,1.31153724752591e-07,-4.75894549427975e-08,5.39699514527063e-08,2.99952594661452e-08,2.99952594661927e-08,-9.62081157317175e-08,9.79712031384419e-08,1.76308740674739e-09,-1.39766267562937e-08,-4.15710377895971e-08,-5.55476645457507e-08,9.16162205868704e-08,2.12436957263455e-07,2.12436957263369e-07,NaN,2.08778747225392e-08,1.94258064251192e-08,0,0,0
2042.6752,-7.86191566733807e-08,-3.30551709679707e-08,NaN,NaN,1.20130303381155e-08,-1.57937546940679e-07,NaN,NaN,-9.381583815456e-08,-4.02751023869546e-07,-4.40825359526071e-08,-4.02751023870323e-07,5.77442533954903e-09,3.83812095622153e-08,4.41556349017415e-08,NaN,-1.98620930309811e-07,-2.15541645093832e-07,3.87324303045676e-07,-9.41365667378696e-07,3.8732430304568e-07,4.92603563862274e-07,NaN,NaN,-2.46520380507001e-07,2.84131062635696e-08,NaN,-1.56451874511831e-07,1.56451874511864e-07,-3.3154609788566e-08,2.22141750953217e-06,6.31494250616849e-07,NaN,NaN,1.33525887363331e-07,-4.50405572784939e-08,5.85080314517572e-08,3.02298187906266e-08,3.02298187906724e-08,-1.00391555425125e-07,1.00556698362573e-07,1.65142937471278e-10,-8.20826172688538e-09,-3.69976312679319e-08,-4.52058929946772e-08,7.67150729264458e-08,2.06386617945702e-07,2.06386617945615e-07,NaN,1.84744412228817e-08,2.39612175075993e-08,0,0,0
2042.7776,-7.95164362587293e-08,-3.42134217705579e-08,NaN,NaN,1.0413405457458e-08,-1.60710932966214e-07,NaN,NaN,-9.63559479031505e-08,-4.10241198875218e-07,-3.94984310658103e-08,-4.10241198875994e-07,1.01468448326115e-08,3.97568069561843e-08,4.99036517887748e-08,NaN,-2.0276079507985e-07,-2.11152789995892e-07,3.89968313959854e-07,-9.45430216908612e-07,3.89968313959838e-07,4.58724731297172e-07,NaN,NaN,-2.47387876458711e-07,3.33149760110601e-08,NaN,-1.56770780451126e-07,1.5677078045116e-07,-2.92194432653093e-08,2.10732062256714e-06,5.14654771387238e-07,NaN,NaN,1.34789728107449e-07,-4.27228854771202e-08,6.20327865160601e-08,2.99323014892415e-08,2.99323014892853e-08,-1.03631616785948e-07,1.02360863832846e-07,-1.27075295308039e-09,-1.59422523981202e-10,-3.41506289150351e-08,-3.43100514388767e-08,6.2904276182116e-08,1.98750918338206e-07,1.98750918338119e-07,NaN,1.57465522040201e-08,2.7863677808929e-08,0,0,0
2042.88,-8.00545408965939e-08,-3.47094519698876e-08,NaN,NaN,8.7134928433095e-09,-1.61797214623185e-07,NaN,NaN,-9.83761602086983e-08,-4.17229344365206e-07,-3.45407094528758e-08,-4.17229344365982e-07,1.39259976715974e-08,4.04177357416432e-08,5.43437334132211e-08,NaN,-2.04579321720226e-07,-2.04725320016318e-07,3.90092247253662e-07,-9.43419632918635e-07,3.90092247253626e-07,4.18461093495584e-07,NaN,NaN,-2.50049117204455e-07,3.76591145674548e-08,NaN,-1.55508762824036e-07,1.5550876282407e-07,-2.5272655993071e-08,1.99786767807261e-06,4.05923893456643e-07,NaN,NaN,1.34988908576056e-07,-4.08138278068092e-08,6.41019704731223e-08,2.92219298907493e-08,2.92219298907911e-08,-1.05957208446431e-07,1.03406629551932e-07,-2.55057889447799e-09,9.78345142465695e-09,-3.32286254121077e-08,-2.34451739873119e-08,5.08306785776722e-08,1.90025494868855e-07,1.90025494868766e-07,NaN,1.29505455915426e-08,3.07528557157181e-08,0,0,0
2042.9824,-8.05248381728033e-08,-3.45517004066447e-08,NaN,NaN,6.98370270578735e-09,-1.61418169150888e-07,NaN,NaN,-1.0030670696008e-07,-4.24006630375316e-07,-2.92931978646986e-08,-4.24006630376093e-07,1.67897200979905e-08,4.03077038723499e-08,5.70974239703221e-08,NaN,-2.04329991292007e-07,-1.96800159264966e-07,3.88938569840325e-07,-9.36130008683432e-07,3.88938569840269e-07,3.75191957086194e-07,NaN,NaN,-2.55107344918001e-07,4.12506268264492e-08,NaN,-1.52665166280356e-07,1.52665166280391e-07,-2.17225818298841e-08,1.9035411539587e-06,3.11380335748164e-07,NaN,NaN,1.34222095159068e-07,-3.94440309130506e-08,6.43347662438343e-08,2.82410687900012e-08,2.82410687900413e-08,-1.07434188373341e-07,1.03776723625327e-07,-3.65746474799392e-09,2.09840170838399e-08,-3.42541636872957e-08,-1.32701466033189e-08,4.12671772530808e-08,1.80774352296278e-07,1.80774352296189e-07,NaN,1.03669391617065e-08,3.23237377519229e-08,0,0,0
2043.0848,-8.11430505244957e-08,-3.37811884514901e-08,NaN,NaN,5.28251468688781e-09,-1.59756463141612e-07,NaN,NaN,-1.02475671396259e-07,-4.3066344719733e-07,-2.38625872655076e-08,-4.30663447198108e-07,1.84920958917226e-08,3.94102236941257e-08,5.79023195858312e-08,NaN,-2.0225411421051e-07,-1.87925711098507e-07,3.87682465733026e-07,-9.24400693089909e-07,3.87682465732951e-07,3.32411335430022e-07,NaN,NaN,-2.62929151333293e-07,4.39458130260966e-08,NaN,-1.48284679805747e-07,1.48284679805782e-07,-1.88552898955351e-08,1.83256688516614e-06,2.3598389404663e-07,NaN,NaN,1.32642759279709e-07,-3.86598807251644e-08,6.24887877098738e-08,2.71476831745774e-08,2.71476831746162e-08,-1.08157938325122e-07,1.03614428831051e-07,-4.54350949405208e-09,3.26242884770084e-08,-3.70659522952521e-08,-4.44166381810873e-09,3.50450405932585e-08,1.71568360268592e-07,1.71568360268501e-07,NaN,8.26607663196768e-09,3.23982042523221e-08,0,1,0
2043.1872,-8.20194945245851e-08,-3.24606279116544e-08,NaN,NaN,3.64824864226232e-09,-1.56934084702186e-07,NaN,NaN,-1.05070425861479e-07,-4.37049491507741e-07,-1.83705448062024e-08,-4.37049491508521e-07,1.88960277074966e-08,3.77463611867933e-08,5.66423888942739e-08,NaN,-1.98597030436969e-07,-1.78644492407121e-07,3.87298366114289e-07,-9.09030859109465e-07,3.87298366114199e-07,2.93493992396223e-07,NaN,NaN,-2.73573884736772e-07,4.56728773472894e-08,NaN,-1.42467170160788e-07,1.42467170160824e-07,-1.6787312225509e-08,1.78989750556798e-06,1.82995871037742e-07,NaN,NaN,1.30447146284115e-07,-3.84076638950365e-08,5.85003617232301e-08,2.61033904477155e-08,2.61033904477536e-08,-1.08241284068673e-07,1.03110348748689e-07,-5.13093531996651e-09,4.37925791386564e-08,-4.13415127980016e-08,2.45106634078748e-09,3.29531265843284e-08,1.6291375986193e-07,1.62913759861839e-07,NaN,6.87109399603055e-09,3.0953321179427e-08,0,1,0
2043.2896,-8.3161466680844e-08,-3.06636081589008e-08,NaN,NaN,2.09873481286258e-09,-1.53018881708392e-07,NaN,NaN,-1.08139141727547e-07,-4.42820685042191e-07,-1.29398540551696e-08,-4.42820685042973e-07,1.7979439968398e-08,3.53689735243922e-08,5.33484134927754e-08,NaN,-1.93674594236202e-07,-1.69484467692843e-07,3.88462559485514e-07,-8.90802358803905e-07,3.88462559485412e-07,2.61435179210703e-07,NaN,NaN,-2.86781404100695e-07,4.64342537288022e-08,NaN,-1.35368195831903e-07,1.35368195831939e-07,-1.54591700296013e-08,1.77695241581499e-06,1.53796389664379e-07,NaN,NaN,1.27853157662235e-07,-3.85433661675044e-08,5.24862535013351e-08,2.52613904926247e-08,2.52613904926627e-08,-1.07800286444891e-07,1.02478408698811e-07,-5.32187774606394e-09,5.35757338497737e-08,-4.66461824925848e-08,6.92955135731866e-09,3.56266717219276e-08,1.55180321727771e-07,1.55180321727679e-07,NaN,6.32906223916595e-09,2.81206817602988e-08,0,1,0
2043.392,-8.45030667573796e-08,-2.84651808490503e-08,NaN,NaN,6.37228768141762e-10,-1.48049784933767e-07,NaN,NaN,-1.11623660034481e-07,-4.47528797256023e-07,-7.6818004996954e-09,-4.47528797256807e-07,1.58187605543673e-08,3.23583837466767e-08,4.81771443010303e-08,NaN,-1.87928240210721e-07,-1.60942068097213e-07,3.91507784928804e-07,-8.70579029311065e-07,3.91507784928695e-07,2.38566639542627e-07,NaN,NaN,-3.02013947208617e-07,4.62976191782633e-08,NaN,-1.27190927300024e-07,1.2719092730006e-07,-1.4662363384243e-08,1.792034152486e-06,1.47999402280813e-07,NaN,NaN,1.25074970811692e-07,-3.88625298272891e-08,4.47181529624997e-08,2.47551979315363e-08,2.47551979315742e-08,-1.06939348164354e-07,1.01925767365341e-07,-5.01358079899867e-09,6.11549401868101e-08,-5.2497150974452e-08,8.65778921248515e-09,4.3443735208129e-08,1.48552585589371e-07,1.48552585589278e-07,NaN,6.69765467502565e-09,2.41604591287977e-08,0,0,0
2043.4944,-8.5944788701839e-08,-2.59361709195529e-08,NaN,NaN,-7.40933194159715e-10,-1.42066521115611e-07,NaN,NaN,-1.15399923812045e-07,-4.50704582829807e-07,-2.68839976806426e-09,-4.50704582830593e-07,1.25637503908102e-08,2.88204242192172e-08,4.13841746100147e-08,NaN,-1.81910754488976e-07,-1.53451036177007e-07,3.96420882760185e-07,-8.49369882225707e-07,3.96420882760072e-07,2.26335479046518e-07,NaN,NaN,-3.18532558636348e-07,4.53843040500565e-08,NaN,-1.18173350261853e-07,1.18173350261889e-07,-1.40832397519323e-08,1.83102019281165e-06,1.63605751681367e-07,NaN,NaN,1.22299387173282e-07,-3.91361830868504e-08,3.55882083623609e-08,2.46877828099506e-08,2.46877828099894e-08,-1.05738541612921e-07,1.01624354312296e-07,-4.11418730061071e-09,6.59017033155105e-08,-5.84224171891549e-08,7.47928612647964e-09,5.64407580529797e-08,1.43026680466757e-07,1.43026680466663e-07,NaN,7.94619570108329e-09,1.94225952978608e-08,0,0,0
2043.5968,-8.73822009006665e-08,-2.31412445641058e-08,NaN,NaN,-2.04491204414139e-09,-1.35131949791124e-07,NaN,NaN,-1.19305785375372e-07,-4.51911823378954e-07,1.97302197033054e-09,-4.51911823379742e-07,8.41622882710185e-09,2.48835790775956e-08,3.32998079046859e-08,NaN,-1.76198624796626e-07,-1.47344511871771e-07,4.0286770773279e-07,-8.28305985682968e-07,4.02867707732677e-07,2.25227735159765e-07,NaN,NaN,-3.35478485533794e-07,4.38581917151867e-08,NaN,-1.08575048278791e-07,1.08575048278827e-07,-1.33444612707463e-08,1.88797285459141e-06,1.97043241734662e-07,NaN,NaN,1.19667632771667e-07,-3.91400755918892e-08,2.55805757596829e-08,2.51215403006076e-08,2.51215403006477e-08,-1.04247058990003e-07,1.01691302961725e-07,-2.55575602826445e-09,6.74619575902086e-08,-6.39996711387119e-08,3.46228645161749e-09,7.42604211816971e-08,1.38455152089364e-07,1.38455152089268e-07,NaN,9.9652855223234e-09,1.43108763770519e-08,0,0,0
2043.6992,-8.87163002947495e-08,-2.01382515968393e-08,NaN,NaN,-3.28804632130948e-09,-1.27343437921398e-07,NaN,NaN,-1.23151383780918e-07,-4.50783124261155e-07,6.26701731248505e-09,-4.50783124261945e-07,3.61621252026331e-09,2.0692122809155e-08,2.43083353294078e-08,NaN,-1.71284185845901e-07,-1.42824847761294e-07,4.1024598362475e-07,-8.08557410988401e-07,4.1024598362464e-07,2.34831704419429e-07,NaN,NaN,-3.51944170909974e-07,4.19124785577511e-08,NaN,-9.86643038689941e-08,9.86643038690298e-08,-1.20398375657896e-08,1.95560948085032e-06,2.43181879349237e-07,NaN,NaN,1.1726245037397e-07,-3.86751017703902e-08,1.52474124621953e-08,2.60698323356267e-08,2.60698323356684e-08,-1.02482686362461e-07,1.02178321886727e-07,-3.04364475721408e-10,6.5813588535126e-08,-6.88755823307201e-08,-3.06199379547686e-09,9.61427328649404e-08,1.34621909012013e-07,1.34621909011916e-07,NaN,1.25814971007357e-08,9.25645878890094e-09,0,0,0
2043.8016,-8.98545944235256e-08,-1.69777550629032e-08,NaN,NaN,-4.48765578329066e-09,-1.18836963195635e-07,NaN,NaN,-1.26720366006703e-07,-4.47054988809125e-07,1.01977769479633e-08,-4.47054988809918e-07,-1.56895316443474e-09,1.63957894842762e-08,1.4826836319832e-08,NaN,-1.67508195929893e-07,-1.39950249973173e-07,4.17779593786555e-07,-7.91208545695566e-07,4.17779593786452e-07,2.53978162418713e-07,NaN,NaN,-3.67044399031486e-07,3.97514259523824e-08,NaN,-8.87035433899496e-08,8.87035433899848e-08,-9.7761749107901e-09,2.02578892618469e-06,2.95542907948579e-07,NaN,NaN,1.15100224577239e-07,-3.75845340011132e-08,5.17290728172211e-09,2.7491903717679e-08,2.7491903717723e-08,-1.00432144183644e-07,1.03064255986454e-07,2.63211180282215e-09,6.12822319844309e-08,-7.27774733247917e-08,-1.1495241340248e-08,1.20957995468525e-07,1.31324545455723e-07,1.31324545455624e-07,NaN,1.55765283591768e-08,4.69286674023337e-09,0,0,0
2043.904,-9.07148712432247e-08,-1.37042114686626e-08,NaN,NaN,-5.66237510514659e-09,-1.09787895122104e-07,NaN,NaN,-1.29773813727797e-07,-4.40603165510218e-07,1.38114485041819e-08,-4.40603165511011e-07,-6.85917824823412e-09,1.21387601411193e-08,5.27958189287668e-09,NaN,-1.65057114418546e-07,-1.38635611159634e-07,4.24657087365416e-07,-7.77097680113351e-07,4.24657087365319e-07,2.80906726218137e-07,NaN,NaN,-3.80000286195536e-07,3.75677892782618e-08,NaN,-7.89329186464264e-08,7.89329186464611e-08,-6.23158836303755e-09,2.09015769850128e-06,3.46844900823009e-07,NaN,NaN,1.13130568541388e-07,-3.57713083233438e-08,-4.08527369690234e-09,2.92945306999322e-08,2.92945306999787e-08,-9.80501658058718e-08,1.04250142687181e-07,6.19997688132108e-09,5.45053627738794e-08,-7.55306892743929e-08,-2.10253265004058e-08,1.47275430282877e-07,1.28444483116691e-07,1.28444483116591e-07,NaN,1.87089409154191e-08,1.02219581711393e-09,0,0,0
2044.0064,-9.12348343949245e-08,-1.03592662168833e-08,NaN,NaN,-6.82713032625647e-09,-1.00407833403475e-07,NaN,NaN,-1.3206343796431e-07,-4.3147025383646e-07,1.718962192422e-08,-4.31470253837254e-07,-1.19829160654848e-08,8.05007933222835e-09,-3.93283673326405e-09,NaN,-1.64012995363085e-07,-1.38660721472187e-07,4.30189873403614e-07,-7.66672218797608e-07,4.30189873403524e-07,3.13439232318298e-07,NaN,NaN,-3.90224137954143e-07,3.55197514741834e-08,NaN,-6.9554877647177e-08,6.95548776472109e-08,-1.21863435215458e-09,2.14095104991107e-06,3.89841623038687e-07,NaN,NaN,1.11244943266455e-07,-3.32130378100144e-08,-1.20657641467999e-08,3.13417855525713e-08,3.134178555262e-08,-9.52636701824171e-08,1.05564346339269e-07,1.03006761568646e-08,4.63498264619382e-08,-7.7083833526198e-08,-3.07340070641566e-08,1.7346891946014e-07,1.25984444274388e-07,1.25984444274286e-07,NaN,2.1734934947782e-08,-1.42524966152531e-09,0,0,0
2044.1088,-9.13852208568928e-08,-6.98506530816171e-09,NaN,NaN,-7.98770684579014e-09,-9.09350855867763e-08,NaN,NaN,-1.33354331126524e-07,-4.19877553188801e-07,2.04353572123207e-08,-4.19877553189597e-07,-1.67030399311296e-08,4.23714372972915e-09,-1.24658962014073e-08,NaN,-1.64421787029895e-07,-1.39686558890127e-07,4.33947102761939e-07,-7.59940299972271e-07,4.33947102761855e-07,3.49145069032364e-07,NaN,NaN,-3.97378829622898e-07,3.3712627959679e-08,NaN,-6.07230244325173e-08,6.07230244325503e-08,5.2692815564338e-09,2.17183210209373e-06,4.18268992415295e-07,NaN,NaN,1.09292436344391e-07,-2.9970872157971e-08,-1.84605529138172e-08,3.34710424972527e-08,3.34710424973035e-08,-9.19875114924914e-08,1.06783840331918e-07,1.47963288394395e-08,3.78013946654356e-08,-7.75306445057955e-08,-3.97292498402612e-08,1.97863364961463e-07,1.24059133999028e-07,1.24059133998925e-07,NaN,2.44272253267849e-08,-2.42615887148257e-09,0,0,0
2044.2112,-9.11836175898287e-08,-3.62510244942647e-09,NaN,NaN,-9.13631790293233e-09,-8.16178172902056e-08,NaN,NaN,-1.33455119861633e-07,-4.06204622739912e-07,2.36538866420406e-08,-4.06204622740709e-07,-2.08427897705195e-08,7.84229157583618e-10,-2.00585606129418e-08,NaN,-1.66336753047032e-07,-1.41286997808543e-07,4.35829670417352e-07,-7.56557850369019e-07,4.3582967041727e-07,3.85481405490288e-07,NaN,NaN,-4.01395963967679e-07,3.21908676891086e-08,NaN,-5.25368378821768e-08,5.25368378822091e-08,1.3043051326903e-08,2.17863801628494e-06,4.27687431313079e-07,NaN,NaN,1.07100053230073e-07,-2.61889245973443e-08,-2.31417430799483e-08,3.5513452053836e-08,3.55134520538883e-08,-8.81483164401964e-08,1.07668220659769e-07,1.95199042195854e-08,2.98464065522834e-08,-7.7114065913023e-08,-4.7267659360645e-08,2.18911684982113e-07,1.2284698193023e-07,1.22846981930126e-07,NaN,2.65942611500105e-08,-1.88537095768539e-09,0,0,0
2044.3136,-9.07004710923492e-08,-3.21413501885493e-10,NaN,NaN,-1.02489073776167e-08,-7.26875379387039e-08,NaN,NaN,-1.32248228556698e-07,-3.90911412923988e-07,2.69304123730395e-08,-3.90911412924785e-07,-2.43047964159143e-08,-2.24354945465333e-09,-2.65483458705724e-08,NaN,-1.69813535880793e-07,-1.42997916636162e-07,4.36063550407703e-07,-7.5602384064914e-07,4.36063550407621e-07,4.19906742812431e-07,NaN,NaN,-4.0244873567631e-07,3.09439548819801e-08,NaN,-4.50420895050291e-08,4.50420895050612e-08,2.17426163372049e-08,2.15988784447113e-06,4.1601539863478e-07,NaN,NaN,1.04495146192511e-07,-2.20814179616878e-08,-2.61504994057462e-08,3.73165980409912e-08,3.73165980410442e-08,-8.37051920514635e-08,1.07994657544104e-07,2.42894654926538e-08,2.33631167989296e-08,-7.620115813816e-08,-5.28380413391396e-08,2.35372632538376e-07,1.22527796947616e-07,1.22527796947511e-07,NaN,2.80988219530967e-08,1.61307957565624e-10,0,1,0
2044.416,-9.00460647992274e-08,2.89091666712297e-09,NaN,NaN,-1.12858928717482e-08,-6.43222626460825e-08,NaN,NaN,-1.29707451810647e-07,-3.74398991756746e-07,3.03098916232827e-08,-3.74398991757543e-07,-2.7074449928521e-08,-4.79339675502034e-09,-3.18678466835448e-08,NaN,-1.74872547161015e-07,-1.44375069603947e-07,4.3511156636746e-07,-7.57896843548471e-07,4.35111566367373e-07,4.49982452700135e-07,NaN,NaN,-4.00884732096112e-07,2.99247803398074e-08,NaN,-3.82358699309999e-08,3.82358699310319e-08,3.08988875832203e-08,2.11687795804569e-06,3.83604961271866e-07,NaN,NaN,1.01326384043317e-07,-1.79078191843204e-08,-2.76517470937766e-08,3.87634993327491e-08,3.87634993328023e-08,-7.86586793213107e-08,1.07581482380225e-07,2.89228030589272e-08,1.90405122670232e-08,-7.5228013216199e-08,-5.61875009490879e-08,2.46450244262902e-07,1.23230432340713e-07,1.23230432340606e-07,NaN,2.88696766953133e-08,3.5642421562792e-09,0,1,0
2044.5184,-8.93409821520564e-08,5.9885797286556e-09,NaN,NaN,-1.21983113261345e-08,-5.66101486118699e-08,NaN,NaN,-1.25896704729518e-07,-3.56858616144517e-07,3.37853925584567e-08,-3.56858616145313e-07,-2.92053089914758e-08,-6.81984329289276e-09,-3.60251522843702e-08,NaN,-1.81461050210346e-07,-1.45048258196446e-07,4.33527437690629e-07,-7.61910545765716e-07,4.33527437690533e-07,4.73493583885733e-07,NaN,NaN,-3.97143775283064e-07,2.90726598402996e-08,NaN,-3.20739466284701e-08,3.20739466285022e-08,4.00086786274954e-08,2.05329280847384e-06,3.32882216317123e-07,NaN,NaN,9.74795558971055e-08,-1.39426255703186e-08,-2.7876449317293e-08,3.97817438819647e-08,3.97817438820178e-08,-7.30486219299695e-08,1.06296638411599e-07,3.32480164816427e-08,1.73359196518218e-08,-7.46327958462282e-08,-5.72968761943204e-08,2.51870134403188e-07,1.25002474267947e-07,1.2500247426784e-07,NaN,2.89021763145929e-08,8.09015853911432e-09,0,1,0
2044.6208,-8.86865334218154e-08,8.96116772611742e-09,NaN,NaN,-1.29385162025693e-08,-4.95315633183451e-08,NaN,NaN,-1.20957008285819e-07,-3.3819364312219e-07,3.73004144325017e-08,-3.38193643122985e-07,-3.07958898092832e-08,-8.28654248826029e-09,-3.90824322975431e-08,NaN,-1.89436742976514e-07,-1.44763777100291e-07,4.31805751195046e-07,-7.67922753971871e-07,4.31805751194937e-07,4.88626044214955e-07,NaN,NaN,-3.91696825627672e-07,2.83297856067854e-08,NaN,-2.64766986009462e-08,2.64766986009791e-08,4.85896854189389e-08,1.97450220772831e-06,2.67779092699135e-07,NaN,NaN,9.28862350565477e-08,-1.04495133539575e-08,-2.70818355203507e-08,4.03415736344198e-08,4.03415736344723e-08,-6.69461805291655e-08,1.04054734815397e-07,3.71085542862442e-08,1.84658988568485e-08,-7.48025682913027e-08,-5.63366694343699e-08,2.51894552705588e-07,1.27795739688947e-07,1.27795739688838e-07,NaN,2.82507049001382e-08,1.34508139082811e-08,0,0,0
2044.7232,-8.81484763786197e-08,1.1809010658523e-08,NaN,NaN,-1.34711191594317e-08,-4.29694189844711e-08,NaN,NaN,-1.15092369278856e-07,-3.18067188096923e-07,4.07657112000314e-08,-3.18067188097717e-07,-3.19711412863894e-08,-9.17586260233683e-09,-4.11470038887235e-08,NaN,-1.98584477418059e-07,-1.43413106577028e-07,4.30294159746296e-07,-7.75764742251174e-07,4.30294159746171e-07,4.94201585725577e-07,NaN,NaN,-3.85023645572743e-07,2.7644352679686e-08,NaN,-2.13315082174776e-08,2.13315082175114e-08,5.62031300520307e-08,1.88686611390986e-06,1.93217142723331e-07,NaN,NaN,8.75251747270885e-08,-7.66424425104347e-09,-2.55440805145746e-08,4.04471563835475e-08,4.04471563835991e-08,-6.04416726785395e-08,1.00806741063459e-07,4.03650683849325e-08,2.24129506656961e-08,-7.60478206226004e-08,-5.36348699568208e-08,2.47285134546999e-07,1.31452643049958e-07,1.31452643049848e-07,NaN,2.70186639311621e-08,1.93216135088645e-08,0,0,0
2044.8256,-8.77571813952605e-08,1.45404209301811e-08,NaN,NaN,-1.37797063186318e-08,-3.67447645902261e-08,NaN,NaN,-1.08559585358737e-07,-2.96056717201433e-07,4.40842915083584e-08,-2.96056717202225e-07,-3.28751340738272e-08,-9.50103097195778e-09,-4.23761650457793e-08,NaN,-2.08666324080783e-07,-1.41046383520973e-07,4.29202554270641e-07,-7.85122311454402e-07,4.29202554270498e-07,4.89920351823275e-07,NaN,NaN,-3.77618909637981e-07,2.69640790184971e-08,NaN,-1.64950735970032e-08,1.64950735970381e-08,6.24574854832618e-08,1.79725963424006e-06,1.14735606206105e-07,NaN,NaN,8.14186372335631e-08,-5.78258412825093e-09,-2.35739926401486e-08,4.01273587275751e-08,4.01273587276257e-08,-5.36289153853891e-08,9.65280421751839e-08,4.28991267898076e-08,2.8934700883174e-08,-7.86020228934407e-08,-4.96673220101832e-08,2.39208611267419e-07,1.35691704111865e-07,1.35691704111754e-07,NaN,2.5349245486507e-08,2.53539472397852e-08,0,0,0
2044.928,-8.75217706024276e-08,1.71697018453509e-08,NaN,NaN,-1.38678658774348e-08,-3.06667600109543e-08,NaN,NaN,-1.01662097055415e-07,-2.71844466747261e-07,4.71742458835549e-08,-2.71844466748052e-07,-3.36726671603893e-08,-9.31350060299592e-09,-4.29861677633763e-08,NaN,-2.19480907959077e-07,-1.37866871505698e-07,4.28678632800472e-07,-7.95517977599857e-07,4.2867863280031e-07,4.76534789676598e-07,NaN,NaN,-3.70005881260482e-07,2.62300026369003e-08,NaN,-1.18019753706134e-08,1.18019753706493e-08,6.70115993127584e-08,1.71281837604935e-06,3.81787265370016e-08,NaN,NaN,7.46278854665819e-08,-4.9481017718221e-09,-2.15355513851503e-08,3.94306417293207e-08,3.94306417293703e-08,-4.6591060990639e-08,9.12143210234431e-08,4.46232600328167e-08,3.75752008424861e-08,-8.26317520124152e-08,-4.50565511698451e-08,2.29083543189171e-07,1.40107199377665e-07,1.40107199377551e-07,NaN,2.34173550040459e-08,3.11878346184192e-08,0,0,0
2045.0304,-8.74522017326553e-08,1.97150865854538e-08,NaN,NaN,-1.37556948577987e-08,-2.45817488837995e-08,NaN,NaN,-9.47460347822354e-08,-2.45358526410754e-07,4.99800695992163e-08,-2.45358526411542e-07,-3.45530474417537e-08,-8.7009973045837e-09,-4.32540447463246e-08,NaN,-2.30892984691638e-07,-1.34205971230724e-07,4.28876226669141e-07,-8.0638012200699e-07,4.28876226668963e-07,4.55880197046241e-07,NaN,NaN,-3.62741983326388e-07,2.53773140477894e-08,NaN,-7.08174691032111e-09,7.08174691035815e-09,6.95860091976873e-08,1.64080464273138e-06,-3.06723491511052e-08,NaN,NaN,6.72510095963938e-08,-5.24022759153357e-09,-1.98492778414067e-08,3.84249847033378e-08,3.84249847033865e-08,-3.93934647608857e-08,8.48896685949689e-08,4.54962038340957e-08,4.76895047072163e-08,-8.82419121847862e-08,-4.05524074774846e-08,2.18394647416341e-07,1.44198147591103e-07,1.44198147590989e-07,NaN,2.14223738205083e-08,3.6466841233554e-08,0,0,0
2045.1328,-8.75779867483793e-08,2.2195872293803e-08,NaN,NaN,-1.34736208543696e-08,-1.84049100452128e-08,NaN,NaN,-8.81936466503643e-08,-2.16799065327227e-07,5.24688618742434e-08,-2.16799065328013e-07,-3.57282685915032e-08,-7.77541264599235e-09,-4.35036812374786e-08,NaN,-2.42816784806206e-07,-1.30484929372925e-07,4.29961183026713e-07,-8.17168790903393e-07,4.29961183026518e-07,4.30716547665869e-07,NaN,NaN,-3.56404101294384e-07,2.4343923772318e-08,NaN,-2.18091521610284e-09,2.18091521614104e-09,6.99867558396823e-08,1.58846791621509e-06,-8.65691175593987e-08,NaN,NaN,5.94221511985085e-08,-6.66669546048934e-09,-1.89676940809258e-08,3.72002481776525e-08,3.72002481777003e-08,-3.20845735610238e-08,7.76199267461571e-08,4.55353531851457e-08,5.84958003912468e-08,-9.54693680113925e-08,-3.6973567620059e-08,2.0851780895767e-07,1.47427987710372e-07,1.47427987710256e-07,NaN,1.95814049481655e-08,4.0856781520972e-08,0,0,0
2045.2352,-8.79499705764062e-08,2.46295174726259e-08,NaN,NaN,-1.30554509504025e-08,-1.21243572720608e-08,NaN,NaN,-8.2406327676758e-08,-1.86541594198691e-07,5.46169456741806e-08,-1.86541594199474e-07,-3.74188789823872e-08,-6.65369621208589e-09,-4.40725751944515e-08,NaN,-2.55178776277792e-07,-1.27172082565364e-07,4.32059106403063e-07,-8.27538598996033e-07,4.32059106402856e-07,4.04389965780405e-07,NaN,NaN,-3.51543809972824e-07,2.30831670866074e-08,NaN,3.01592634637448e-09,-3.01592634633457e-09,6.81442048230926e-08,1.56273449327244e-06,-1.25331487767295e-07,NaN,NaN,5.13071987768528e-08,-9.16330094016534e-09,-1.9320198059535e-08,3.58680238890823e-08,3.58680238891299e-08,-2.47014835857109e-08,6.95194845417593e-08,4.48180009560612e-08,6.91596080498961e-08,-1.04267379721058e-07,-3.51077716710741e-08,2.00582060411252e-07,1.49299101231085e-07,1.49299101230968e-07,NaN,1.81199398070152e-08,4.40719490492859e-08,0,0,0
2045.3376,-8.86201248044541e-08,2.70300070633817e-08,NaN,NaN,-1.25323397056693e-08,-5.78060337148211e-09,NaN,NaN,-7.77724831183971e-08,-1.54978117250654e-07,5.63983783372047e-08,-1.54978117251434e-07,-3.98261510721383e-08,-5.43832262132798e-09,-4.52644736934397e-08,NaN,-2.67896419183881e-07,-1.24743217559405e-07,4.35198902558858e-07,-8.37502938464437e-07,4.35198902558642e-07,3.8037251463888e-07,NaN,NaN,-3.4861651416214e-07,2.15739961204225e-08,NaN,8.57162546119543e-09,-8.57162546115361e-09,6.41571873098476e-08,1.56963075572835e-06,-1.44324422032135e-07,NaN,NaN,4.30907638236687e-08,-1.26026316189909e-08,-2.12419596548068e-08,3.45543081701059e-08,3.45543081701537e-08,-1.72760379809921e-08,6.0745230159707e-08,4.34691921787278e-08,7.88977973285653e-08,-1.14489699349905e-07,-3.55919020212505e-08,1.95372076211471e-07,1.49416870858967e-07,1.49416870858848e-07,NaN,1.72543850592058e-08,4.59081076297808e-08,0,0,0
2045.44,-8.96093862749282e-08,2.94079978648723e-08,NaN,NaN,-1.1928418258359e-08,5.65709400570328e-10,NaN,NaN,-7.46238080751762e-08,-1.22382761314239e-07,5.77833148901498e-08,-1.22382761315015e-07,-4.30973662640145e-08,-4.20393315905308e-09,-4.73012994230356e-08,NaN,-2.80880075215171e-07,-1.23646604835415e-07,4.39304194147745e-07,-8.47538783691129e-07,4.39304194147523e-07,3.61765917721647e-07,NaN,NaN,-3.47907450395049e-07,1.98221819524901e-08,NaN,1.4491984546796e-08,-1.44919845467521e-08,5.83185991766704e-08,1.61355465865721e-06,-1.42701457735974e-07,NaN,NaN,3.49538947300025e-08,-1.68131046025812e-08,-2.49135067717729e-08,3.3383917366992e-08,3.33839173670407e-08,-9.84083568160533e-09,5.14805718759481e-08,4.16397361943556e-08,8.70789756905117e-08,-1.25884956257789e-07,-3.88059805671868e-08,1.93274081779829e-07,1.47523583020356e-07,1.47523583020234e-07,NaN,1.71652818716767e-08,4.62723564697863e-08,0,0,0
2045.5424,-9.08807238702588e-08,3.17717910981295e-08,NaN,NaN,-1.12585253217762e-08,6.86400973263753e-09,NaN,NaN,-7.31879068589254e-08,-8.88608509365091e-08,5.87459603019536e-08,-8.88608509372805e-08,-4.72948903776221e-08,-2.99393437696993e-09,-5.02888247545544e-08,NaN,-2.94042257174293e-07,-1.24264082151792e-07,4.44233160059559e-07,-8.58559382619853e-07,4.44233160059334e-07,3.50861948520774e-07,NaN,NaN,-3.49483381922047e-07,1.78513841947034e-08,NaN,2.07309333664118e-08,-2.07309333663654e-08,5.11000647940361e-08,1.6966240744683e-06,-1.21324063855525e-07,NaN,NaN,2.70484734334912e-08,-2.16055790042917e-08,-3.03334279263665e-08,3.24596366102307e-08,3.24596366102811e-08,-2.43650270043631e-09,4.19176418111461e-08,3.94811391107227e-08,9.32954647507901e-08,-1.38104568300223e-07,-4.48091035493419e-08,1.94275223219e-07,1.43499245568912e-07,1.43499245568789e-07,NaN,1.79682319476505e-08,4.51969024315166e-08,1,0,0
2045.6448,-9.23288288820042e-08,3.41271445319995e-08,NaN,NaN,-1.05292104455135e-08,1.30928520727816e-08,NaN,NaN,-7.35415187198334e-08,-5.43947429535294e-08,5.92768892509456e-08,-5.43947429542955e-08,-5.23764771803532e-08,-1.82724549843273e-09,-5.42037226787426e-08,NaN,-3.07303583314995e-07,-1.26856519981088e-07,4.4982052379342e-07,-8.71696566900187e-07,4.49820523793196e-07,3.48844674629518e-07,NaN,NaN,-3.53185220551876e-07,1.56903765912224e-08,NaN,2.72016179392184e-08,-2.72016179391692e-08,4.30913046481211e-08,1.81820732218423e-06,-8.24416994217702e-08,NaN,NaN,1.94779253919455e-08,-2.67971910889913e-08,-3.73298584801453e-08,3.18417496933558e-08,3.18417496934086e-08,4.88140168491673e-09,3.22462364800115e-08,3.71276381649415e-08,9.73878906184076e-08,-1.50718231179559e-07,-5.33303405610582e-08,1.9801492197877e-07,1.37341263670766e-07,1.37341263670641e-07,NaN,1.96912426344286e-08,4.28307008118653e-08,1,0,0
2045.7472,-9.37881407015158e-08,3.64745944248836e-08,NaN,NaN,-9.74354208992038e-09,1.92645473047324e-08,NaN,NaN,-7.55666275950339e-08,-1.89590819040049e-08,5.93934948977034e-08,-1.89590819047645e-08,-5.81892854268074e-08,-7.11155537452174e-10,-5.89004409642105e-08,NaN,-3.20588194387981e-07,-1.31493319403788e-07,4.55877988719635e-07,-8.87900969611058e-07,4.55877988719414e-07,3.55688866735482e-07,NaN,NaN,-3.58654687256874e-07,1.3366902226203e-08,NaN,3.37883224429412e-08,-3.37883224428893e-08,3.49123460052766e-08,1.97456340228869e-06,-2.93287780969605e-08,NaN,NaN,1.22922916781562e-08,-3.22197143794639e-08,-4.55985931959622e-08,3.15345329589929e-08,3.15345329590489e-08,1.20383118447776e-08,2.26564615503351e-08,3.46947733951262e-08,9.94191524466691e-08,-1.63231296565963e-07,-6.38121441192004e-08,2.03865485633998e-07,1.29137661547216e-07,1.29137661547088e-07,NaN,2.22623826801078e-08,3.9413348731113e-08,1,0,0
2045.8496,-9.50549885637246e-08,3.88046780603406e-08,NaN,NaN,-8.90809277333042e-09,2.54176132601674e-08,NaN,NaN,-7.89183454578606e-08,1.73491249394196e-08,5.9143524951918e-08,1.73491249386674e-08,-6.4478012012855e-08,3.46200596479675e-10,-6.41318114163205e-08,NaN,-3.33792887805521e-07,-1.37981314941578e-07,4.62145011465334e-07,-9.07455226921858e-07,4.62145011465118e-07,3.70248572500642e-07,NaN,NaN,-3.6537747303131e-07,1.09159275135974e-08,NaN,4.03552401571163e-08,-4.03552401570611e-08,2.71299151054302e-08,2.15850128554099e-06,3.39675191970212e-08,NaN,NaN,5.50008222093005e-09,-3.77078635340393e-08,-5.47484313694326e-08,3.14840962624417e-08,3.1484096262501e-08,1.89394944714222e-08,1.33553676686987e-08,3.22948621401343e-08,9.96137559391238e-08,-1.75102263120761e-07,-7.54885071815443e-08,2.11018189237258e-07,1.19043632268354e-07,1.19043632268224e-07,NaN,2.55089098011414e-08,3.5240086850648e-08,0,0,0
2045.952,-9.59155067856074e-08,4.10926829744418e-08,NaN,NaN,-8.0401528720649e-09,3.16045682203609e-08,NaN,NaN,-8.30184162345391e-08,5.42276297064029e-08,5.85997258435519e-08,5.42276297056591e-08,-7.09068266368165e-08,1.32777841826017e-09,-6.95790482184961e-08,NaN,-3.46719109485647e-07,-1.45815246246031e-07,4.68213955236234e-07,-9.29529409276375e-07,4.68213955236024e-07,3.90477273753418e-07,NaN,NaN,-3.72732561265692e-07,8.40158086329209e-09,NaN,4.6751124542888e-08,-4.67511245428295e-08,2.02054834973206e-08,2.35909504522691e-06,1.02752392783696e-07,NaN,NaN,-9.0642471045687e-10,-4.30743029237141e-08,-6.43407788415618e-08,3.1587493783672e-08,3.15874937837348e-08,2.54727029887033e-08,4.5875692600191e-09,3.00602722487363e-08,9.82800066247622e-08,-1.85755530816021e-07,-8.74755241911649e-08,2.18573072046355e-07,1.07269016371859e-07,1.07269016371727e-07,NaN,2.91695360114814e-08,3.06242296199673e-08,0,0,0
2046.0544,-9.61677129419428e-08,4.32949716296858e-08,NaN,NaN,-7.17446908377829e-09,3.78852553849192e-08,NaN,NaN,-8.70823485336779e-08,9.11813555347357e-08,5.78465762802632e-08,9.11813555340008e-08,-7.70922158694532e-08,2.20427504129116e-09,-7.48879408280968e-08,NaN,-3.5898151958464e-07,-1.54167565131978e-07,4.73469829356254e-07,-9.51888635402601e-07,4.73469829356051e-07,4.13727507811243e-07,NaN,NaN,-3.80046914309726e-07,5.94352603499891e-09,NaN,5.2811732201809e-08,-5.28117322017475e-08,1.4484504952282e-08,2.56164156470937e-06,1.7178152680584e-07,NaN,NaN,-6.91970613852319e-09,-4.80843347819624e-08,-7.39213219831341e-08,3.17096284096954e-08,3.17096284097617e-08,3.15164991716892e-08,-3.35297553482474e-09,2.81635236368783e-08,9.57231427650377e-08,-1.94584843291986e-07,-9.88617005268533e-08,2.25644161548262e-07,9.40826314657479e-08,9.40826314656137e-08,NaN,3.29203669991495e-08,2.58614019420495e-08,0,0,0
2046.1568,-9.56296936837764e-08,4.53490261408431e-08,NaN,NaN,-6.3679105877999e-09,4.43312811079918e-08,NaN,NaN,-9.01791808135366e-08,1.27638816785324e-07,5.69620285982287e-08,1.27638816784596e-07,-8.26407404179011e-08,2.93534844991591e-09,-7.97053919679155e-08,NaN,-3.69934066561642e-07,-1.61927671200224e-07,4.77082998180356e-07,-9.70842622093838e-07,4.77082998180157e-07,4.37112709773e-07,NaN,NaN,-3.86654329371718e-07,3.73506127805321e-09,NaN,5.83633574307639e-08,-5.83633574306995e-08,1.02158477744142e-08,2.7481437785233e-06,2.35450146624581e-07,NaN,NaN,-1.2489488869553e-08,-5.24439106762756e-08,-8.30473201496505e-08,3.17036042591048e-08,3.1703604259174e-08,3.695280327533e-08,-1.01263372446301e-08,2.68264660307136e-08,9.21627135031832e-08,-2.00955742448763e-07,-1.08793028945484e-07,2.31477885118781e-07,7.98280898301143e-08,7.98280898299781e-08,NaN,3.64123218460214e-08,2.12009461191757e-08,0,0,0
2046.2592,-9.41361530027757e-08,4.71790115285056e-08,NaN,NaN,-5.69871234944031e-09,5.10377403813464e-08,NaN,NaN,-9.1318317784476e-08,1.63127200976096e-07,5.59992907129794e-08,1.63127200975374e-07,-8.71860631240474e-08,3.47528954082679e-09,-8.37107735831476e-08,NaN,-3.78663968796908e-07,-1.67796545093169e-07,4.78073835340655e-07,-9.81506943362192e-07,4.7807383534046e-07,4.5790497559652e-07,NaN,NaN,-3.91952691813674e-07,2.04253853025017e-09,NaN,6.32308916177173e-08,-6.32308916176504e-08,7.57998663732898e-09,2.89857628589576e-06,2.88141053192162e-07,NaN,NaN,-1.75094964739301e-08,-5.58106008973247e-08,-9.13145536971354e-08,3.14314003526232e-08,3.14314003526945e-08,4.16791565410905e-08,-1.53646577734033e-08,2.63144987677005e-08,8.76759712366158e-08,-2.04224688982979e-07,-1.16548717746266e-07,2.35565073059575e-07,6.49288245908684e-08,6.49288245907306e-08,NaN,3.93155041040487e-08,1.68283282324309e-08,0,0,0
2046.3616,-9.15330007218528e-08,4.87064263015936e-08,NaN,NaN,-5.25859210572115e-09,5.81321675902378e-08,NaN,NaN,-8.95550477177985e-08,1.97427684981385e-07,5.49747451759842e-08,1.97427684980667e-07,-9.04226110344608e-08,3.78106806924344e-09,-8.66415429651421e-08,NaN,-3.84077137853179e-07,-1.7043510577987e-07,4.75439102250256e-07,-9.78378763056701e-07,4.75439102250065e-07,4.73906605070603e-07,NaN,NaN,-3.95454251315018e-07,1.18144361555987e-09,NaN,6.72520598434991e-08,-6.72520598434306e-08,6.70698487944109e-09,2.99295996053692e-06,3.24756593925913e-07,NaN,NaN,-2.18235961442227e-08,-5.78284331494268e-08,-9.83870136395467e-08,3.07832492673677e-08,3.07832492674404e-08,4.5616388719953e-08,-1.87016158037767e-08,2.69147729161895e-08,8.2180084971926e-08,-2.03787451315977e-07,-1.21607366343953e-07,2.37726485529921e-07,4.986004456034e-08,4.9860044560201e-08,NaN,4.13631139928562e-08,1.28576169916158e-08,0,0,0
2046.464,-8.7680440060539e-08,4.98620819540688e-08,NaN,NaN,-5.13972792686797e-09,6.57688324849434e-08,NaN,NaN,-8.4104715781836e-08,2.306404705748e-07,5.38659445869169e-08,2.30640470574081e-07,-9.2135464444686e-08,3.82016247572259e-09,-8.83153019688876e-08,NaN,-3.85052191823401e-07,-1.68646533351852e-07,4.68305274568361e-07,-9.56131408029828e-07,4.68305274568173e-07,4.83736549925112e-07,NaN,NaN,-3.9682881067684e-07,1.47154707361052e-09,NaN,7.02958967031276e-08,-7.02958967030581e-08,7.67352893095994e-09,3.01393850702518e-06,3.41415205953945e-07,NaN,NaN,-2.52491610313174e-08,-5.81784945637004e-08,-1.04030877640557e-07,2.96941670319923e-08,2.96941670320651e-08,4.87105553700297e-08,-1.98109924522389e-08,2.88995629178039e-08,7.54513344991035e-08,-1.99158544522234e-07,-1.23707210023033e-07,2.3815075965962e-07,3.50912101047925e-08,3.50912101046525e-08,NaN,4.23855130321801e-08,9.3301696487634e-09,0,0,0
2046.5664,-8.24718359154285e-08,5.05956674413714e-08,NaN,NaN,-5.41952031537883e-09,7.40993469668523e-08,NaN,NaN,-7.44553682007252e-08,2.63127602221748e-07,5.2619391307085e-08,2.63127602221022e-07,-9.22262752821607e-08,3.57796034614213e-09,-8.8648314935944e-08,NaN,-3.80620575879259e-07,-1.61557312172513e-07,4.56072353334727e-07,-9.10490751567709e-07,4.56072353334542e-07,4.86997052614739e-07,NaN,NaN,-3.95939537245954e-07,3.18057138583235e-09,NaN,7.22804336439146e-08,-7.22804336438446e-08,1.04794635266285e-08,2.94937256869433e-06,3.36208150029839e-07,NaN,NaN,-2.76114600100446e-08,-5.66333719186117e-08,-1.08148410305727e-07,2.81554453062468e-08,2.81554453063185e-08,5.09331680735019e-08,-1.84545098940299e-08,3.2478658179485e-08,6.71749385163693e-08,-1.9007098178465e-07,-1.22896043268184e-07,2.37357046204889e-07,2.1025772283751e-08,2.10257722836108e-08,NaN,4.23271258787675e-08,6.21724015006232e-09,0,0,0
2046.6688,-7.58678851102466e-08,5.08826704611359e-08,NaN,NaN,-6.14488464326167e-09,8.32218468806997e-08,NaN,NaN,-6.04642224840346e-08,2.95352674770453e-07,5.11643482467745e-08,2.95352674769715e-07,-9.07321038614516e-08,3.06581657623549e-09,-8.76662872851447e-08,NaN,-3.70140421722211e-07,-1.48762215390412e-07,4.38531651744011e-07,-8.39073467105904e-07,4.38531651743828e-07,4.84277980676391e-07,NaN,NaN,-3.92858443309742e-07,6.47073774119731e-09,NaN,7.31833699125934e-08,-7.31833699125241e-08,1.50184140764838e-08,2.79447351416801e-06,3.09800704294698e-07,NaN,NaN,-2.87819384653811e-08,-5.31034130505273e-08,-1.10796185017498e-07,2.62191220242982e-08,2.62191220243673e-08,5.22856527582921e-08,-1.45360242898909e-08,3.77496284684141e-08,5.70228300242872e-08,-1.76572405195441e-07,-1.19549575171059e-07,2.36071795628601e-07,7.95800773384536e-09,7.95800773370539e-09,NaN,4.12434888744715e-08,3.42927175541163e-09,0,0,0
2046.7712,-6.79363595428274e-08,5.07297254122806e-08,NaN,NaN,-7.31863334199772e-09,9.31238818575832e-08,NaN,NaN,-4.2418133436477e-08,3.27678916141239e-07,4.94275633849601e-08,3.27678916140482e-07,-8.78308907320183e-08,2.32957925685942e-09,-8.55013114750925e-08,NaN,-3.53438961068469e-07,-1.30410490696411e-07,4.15953232127714e-07,-7.42062441607266e-07,4.15953232127537e-07,4.76962642647163e-07,NaN,NaN,-3.8784060107301e-07,1.13628452106501e-08,NaN,7.30407535036504e-08,-7.30407535035823e-08,2.10641183115889e-08,2.55305452839142e-06,2.65598627043248e-07,NaN,NaN,-2.87119999253543e-08,-4.76631664580366e-08,-1.12167976126116e-07,2.3995073379844e-08,2.39950733799097e-08,5.28085975393819e-08,-8.14845757485066e-09,4.46601399645443e-08,4.47550357666052e-08,-1.59089037319657e-07,-1.1433400155296e-07,2.35049089763173e-07,-3.95166570063966e-09,-3.95166570077954e-09,NaN,3.92810068634007e-08,8.37696288974918e-10,0,1,0
2046.8736,-5.88832484126375e-08,5.01771169744525e-08,NaN,NaN,-8.8919311375412e-09,1.03637851628407e-07,NaN,NaN,-2.10411306905357e-08,3.60202326479901e-07,4.73445813031922e-08,3.6020232647912e-07,-8.3828934752002e-08,1.45707416102909e-09,-8.23718605909132e-08,NaN,-3.30898931374653e-07,-1.07222469169392e-07,3.89125057582655e-07,-6.22569986669618e-07,3.89125057582484e-07,4.66873769532931e-07,NaN,NaN,-3.81253931368026e-07,1.77272292797201e-08,NaN,7.19330566329081e-08,-7.1933056632842e-08,2.8284989329081e-08,2.23759854343375e-06,2.0929889226951e-07,NaN,NaN,-2.7453876869378e-08,-4.05504089201907e-08,-1.1253820320814e-07,2.16419650896359e-08,2.16419650896976e-08,5.25899106978362e-08,4.05229223615473e-10,5.29951399214646e-08,3.03264126515238e-08,-1.38436372827534e-07,-1.0810996017592e-07,2.34883326362256e-07,-1.46812956558638e-08,-1.46812956560031e-08,NaN,3.66469744825961e-08,-1.69025672132615e-09,0,1,0
2046.976,-4.90600625937494e-08,4.92956492138008e-08,NaN,NaN,-1.07657749278672e-08,1.14425580373877e-07,NaN,NaN,2.56388800531219e-09,3.9267791661967e-07,4.48664646078639e-08,3.92677916618861e-07,-7.91285946618795e-08,5.81028635174872e-10,-7.85475660266531e-08,NaN,-3.03468613606761e-07,-8.04283716424461e-08,3.59307793100343e-07,-4.86533555839151e-07,3.5930779310018e-07,4.55873131182225e-07,NaN,NaN,-3.73490404634833e-07,2.53017360661246e-08,NaN,6.99637258739024e-08,-6.99637258738393e-08,3.62818334053765e-08,1.86801520754464e-06,1.47883859412206e-07,NaN,NaN,-2.5164052391295e-08,-3.2139198112982e-08,-1.12185976831635e-07,1.93515864795319e-08,1.9351586479589e-08,5.17664033909653e-08,1.06260814414621e-08,6.23924848324407e-08,1.39664857474433e-08,-1.15763731084107e-07,-1.01797245336578e-07,2.35855699028923e-07,-2.43219865807393e-08,-2.43219865808775e-08,NaN,3.35776879628403e-08,-4.25374308987008e-09,0,1,0
2047.0784,-3.8935065928364e-08,4.81765158016308e-08,NaN,NaN,-1.28026932560994e-08,1.25003324500995e-07,NaN,NaN,2.70469418309984e-08,4.245517558976e-07,4.19644660048307e-08,4.24551755896761e-07,-7.41757122925896e-08,-1.28685983206156e-10,-7.4304398275753e-08,NaN,-2.72583657642983e-07,-5.16219952832418e-08,3.28081750240838e-07,-3.42034706140896e-07,3.28081750240686e-07,4.4552842633286e-07,NaN,NaN,-3.64893784489031e-07,3.37283437828264e-08,NaN,6.72386074488677e-08,-6.72386074488073e-08,4.46321870843954e-08,1.46914239017391e-06,8.83197056732764e-08,NaN,NaN,-2.20898850230706e-08,-2.28957287826562e-08,-1.11330252624431e-07,1.73234287482656e-08,1.73234287483178e-08,5.05168885286222e-08,2.18649555313753e-08,7.23818440600113e-08,-3.80043953517074e-09,-9.24260819481947e-08,-9.62265214832824e-08,2.37851363927963e-07,-3.30222404011877e-08,-3.30222404013246e-08,NaN,3.03079473863863e-08,-6.89198073532477e-09,0,0,0
2047.1808,-2.90297814052828e-08,4.69157996584657e-08,NaN,NaN,-1.48476554917976e-08,1.34804882400892e-07,NaN,NaN,5.09993496254451e-08,4.55066964210767e-07,3.86349576026194e-08,4.55066964209898e-07,-6.93931842729517e-08,-4.86458644627459e-10,-6.98796429175453e-08,NaN,-2.40006974910286e-07,-2.25436160796292e-08,2.97112354216063e-07,-1.98112692642557e-07,2.97112354215923e-07,4.36906307935429e-07,NaN,NaN,-3.55723364554121e-07,4.25976753498854e-08,NaN,6.38530212442657e-08,-6.3853021244208e-08,5.29272419843349e-08,1.06737069612662e-06,3.63180754280402e-08,NaN,NaN,-1.85432133757596e-08,-1.33271946147035e-08,-1.10097268765898e-07,1.57306903025335e-08,1.57306903025806e-08,4.90450452116095e-08,3.3393078593797e-08,8.24381238054211e-08,-2.22095327046079e-08,-6.97997258377922e-08,-9.20092585423199e-08,2.40374425472246e-07,-4.0924666646708e-08,-4.09246666468439e-08,NaN,2.70434869971265e-08,-9.57793896558791e-09,0,0,0
2047.2832,-1.98409269015314e-08,4.55984687195798e-08,NaN,NaN,-1.67528468365714e-08,1.43264061611697e-07,NaN,NaN,7.31479024569731e-08,4.83395237715765e-07,3.4902514072861e-08,4.83395237714867e-07,-6.51185015928734e-08,-3.19793898818996e-10,-6.54382954916671e-08,NaN,-2.07616744445523e-07,5.1570688012981e-09,2.679103453671e-07,-6.33977462174011e-08,2.67910345366973e-07,4.30492095469138e-07,NaN,NaN,-3.46152263678353e-07,5.14942091838773e-08,NaN,5.98879276347894e-08,-5.9887927634734e-08,6.07982544886948e-08,6.87162213752501e-07,-4.45392401760713e-09,NaN,NaN,-1.48659575235978e-08,-3.93218481369939e-09,-1.08524627409046e-07,1.46881227985027e-08,1.46881227985453e-08,4.75503601791984e-08,4.44884971747442e-08,9.20388573539584e-08,-4.03679312995991e-08,-4.90942709540573e-08,-8.94622022535781e-08,2.42654855974919e-07,-4.81265541630832e-08,-4.81265541632182e-08,NaN,2.39409206344829e-08,-1.22314627445792e-08,0,0,0
2047.3856,-1.1776427947802e-08,4.42881726306533e-08,NaN,NaN,-1.8397881465885e-08,1.49891907802492e-07,NaN,NaN,9.2497953645009e-08,5.08753240860619e-07,3.08167923182744e-08,5.08753240859696e-07,-6.15652837387953e-08,5.05442084463266e-10,-6.10598416543142e-08,NaN,-1.77186940832308e-07,3.01141901322432e-08,2.41664932836616e-07,5.5036114520991e-08,2.41664932836503e-07,4.26209119192015e-07,NaN,NaN,-3.36290655545931e-07,6.00377500244986e-08,NaN,5.54126664941369e-08,-5.54126664940831e-08,6.79337637368043e-08,3.4831603439686e-07,-3.24594867223908e-08,NaN,NaN,-1.1393477622412e-08,4.84052377141449e-09,-1.06594412715954e-07,1.42338259363561e-08,1.42338259363945e-08,4.61914628628148e-08,5.4522888830422e-08,1.00714351693254e-07,-5.73890040019684e-08,-3.12192467547218e-08,-8.86082507566134e-08,2.43810701849335e-07,-5.46777763540031e-08,-5.46777763541372e-08,NaN,2.11012276984786e-08,-1.47467914384659e-08,0,0,0
2047.488,-5.12522043250415e-09,4.3026314229995e-08,NaN,NaN,-1.96991770667312e-08,1.54330626280361e-07,NaN,NaN,1.08398214923826e-07,5.30480664953892e-07,2.64420980733375e-08,5.30480664952949e-07,-5.88176090978392e-08,2.07061677849505e-09,-5.67469923193326e-08,NaN,-1.50202021965038e-07,5.13571645918051e-08,2.19178007636471e-07,1.52363305259453e-07,2.19178007636371e-07,4.23505270919929e-07,NaN,NaN,-3.26223701957148e-07,6.79161908248678e-08,NaN,5.0491299486064e-08,-5.04912994860108e-08,7.40859382472441e-08,6.44698040752744e-08,-4.77383727460755e-08,NaN,NaN,-8.42164561891029e-09,1.26203015239906e-08,-1.04279969560422e-07,1.43291374816076e-08,1.43291374816423e-08,4.50552348385497e-08,6.30283052210391e-08,1.08083540059607e-07,-7.2513074839642e-08,-1.67271005545893e-08,-8.92401753941552e-08,2.43021029339398e-07,-6.0603717648468e-08,-6.06037176486011e-08,NaN,1.85777075382597e-08,-1.70273492759313e-08,0,0,0
2047.5904,-6.07014664690283e-11,4.18381458877508e-08,NaN,NaN,-2.06080044365545e-08,1.56377597977638e-07,NaN,NaN,1.205371367579e-07,5.48080470964646e-07,2.18433065842205e-08,5.48080470963689e-07,-5.68511912183516e-08,4.40174152750207e-09,-5.24494496908427e-08,NaN,-1.2772590027147e-07,6.83407619093525e-08,2.00870035547204e-07,2.26217034114817e-07,2.00870035547117e-07,4.21470904506908e-07,NaN,NaN,-3.16048591401511e-07,7.49060500473013e-08,NaN,4.51893635977773e-08,-4.51893635977237e-08,7.90673627059216e-08,-1.57192217751458e-07,-5.11011859057431e-08,NaN,NaN,-6.18200359227793e-09,1.91303289129498e-08,-1.01585216336458e-07,1.48732469153444e-08,1.48732469153766e-08,4.41469909055839e-08,6.97286535148327e-08,1.13875644420436e-07,-8.51897024839041e-08,-5.81609830534229e-09,-9.10058007891695e-08,2.39665417584617e-07,-6.59316404069261e-08,-6.59316404070582e-08,NaN,1.63908936816084e-08,-1.90172377130631e-08,0,0,0
2047.6928,3.33864108624449e-09,4.07402332301707e-08,NaN,NaN,-2.11021285113753e-08,1.55983335122341e-07,NaN,NaN,1.28899860954011e-07,5.61240066745867e-07,1.70736160547353e-08,5.61240066744902e-07,-5.5567001138624e-08,7.4757114225482e-09,-4.80912897160724e-08,NaN,-1.10321896187705e-07,8.0916277664021e-08,1.86809399990384e-07,2.76528435160305e-07,1.8680939999031e-07,4.18969110974316e-07,NaN,NaN,-3.05894875832924e-07,8.088154940567e-08,NaN,3.95772539862647e-08,-3.957725398621e-08,8.27457257802592e-08,-3.15393330738595e-07,-4.35266292872251e-08,NaN,NaN,-4.82641861657807e-09,2.41947431114767e-08,-9.85610111446108e-08,1.57264601145169e-08,1.57264601145474e-08,4.34065793699258e-08,7.4534020809349e-08,1.17940600179295e-07,-9.5110775212802e-08,1.63192557076734e-09,-9.34788496419568e-08,2.33394846329911e-07,-7.07035721548144e-08,-7.07035721549454e-08,NaN,1.45406821857598e-08,-2.07195585867753e-08,0,0,0
2047.7952,5.06996485767778e-09,3.9745132817128e-08,NaN,NaN,-2.1177923415222e-08,1.53233240662619e-07,NaN,NaN,1.33711670309013e-07,5.69848124429423e-07,1.21681467709596e-08,5.69848124428453e-07,-5.48237800901624e-08,1.12304189741702e-08,-4.35933611159906e-08,NaN,-9.80197479293019e-08,8.92689393296019e-08,1.76741535608149e-07,3.05163967237541e-07,1.76741535608086e-07,4.14792520122264e-07,NaN,NaN,-2.95925413117011e-07,8.58144049921484e-08,NaN,3.37287538553881e-08,-3.37287538553314e-08,8.50413573158553e-08,-4.13781472176778e-07,-2.59725747299756e-08,NaN,NaN,-4.42061927265205e-09,2.77403849447019e-08,-9.53005875318821e-08,1.67356878536134e-08,1.67356878536429e-08,4.27406146415083e-08,7.7508579747822e-08,1.20249194389352e-07,-1.02202606996455e-07,5.99191156409665e-09,-9.6210695432278e-08,2.24133173781551e-07,-7.49693108599911e-08,-7.4969310860121e-08,NaN,1.30130159438436e-08,-2.21988415534072e-08,0,0,0
2047.8976,5.19756247089263e-09,3.88623685042447e-08,NaN,NaN,-2.08475300696448e-08,1.48322307415392e-07,NaN,NaN,1.35379946214572e-07,5.73999800136539e-07,7.14519110507711e-09,5.73999800135569e-07,-5.44626514571369e-08,1.55737496031365e-08,-3.88889018539994e-08,NaN,-9.03391796375406e-08,9.38407701833124e-08,1.70128942547613e-07,3.15483843360748e-07,1.70128942547559e-07,4.0785974812738e-07,NaN,NaN,-2.86323551504468e-07,8.9764637645022e-08,NaN,2.77171869110918e-08,-2.77171869110327e-08,8.59275653731908e-08,-4.59753994222611e-07,4.99035657745546e-10,NaN,NaN,-4.94574289491969e-09,2.97928004613361e-08,-9.1925730568751e-08,1.77572720585859e-08,1.77572720586154e-08,4.20554872710423e-08,7.88275398495856e-08,1.2088302712065e-07,-1.06596700822947e-07,7.81713866204444e-09,-9.87795621608178e-08,2.12042361845151e-07,-7.87698961469987e-08,-7.87698961471275e-08,NaN,1.17846211741437e-08,-2.35693601231651e-08,0,0,0
2048,3.85372721363007e-09,3.80965256331772e-08,NaN,NaN,-2.01409650457361e-08,1.41526060128706e-07,NaN,NaN,1.34434978209367e-07,5.73966847254983e-07,2.01537863693533e-09,5.73966847254016e-07,-5.43230177009301e-08,2.03890729113085e-08,-3.39339447896203e-08,NaN,-8.63857738231217e-08,9.52486311084253e-08,1.66224246272147e-07,3.1184501135611e-07,1.66224246272102e-07,3.97423406104174e-07,NaN,NaN,-2.77268624263725e-07,9.28623381378956e-08,NaN,2.16125685760823e-08,-2.16125685760202e-08,8.54335784138554e-08,-4.63214258902083e-07,3.4508280517454e-08,NaN,NaN,-6.30761528648872e-09,3.04651137097074e-08,-8.85699976333865e-08,1.86744081199473e-08,1.86744081199765e-08,4.12819091236396e-08,7.87337024277519e-08,1.20015611551415e-07,-1.08592856703922e-07,7.74873648228731e-09,-1.00844120221546e-07,1.97476004837636e-07,-8.21307872806922e-08,-8.21307872808199e-08,NaN,1.0826928933467e-08,-2.4970906983885e-08,0,1,0
2048.1024,1.24063989938437e-09,3.74444643801547e-08,NaN,NaN,-1.91092571183548e-08,1.3316832771955e-07,NaN,NaN,1.31467395337115e-07,5.70121280883218e-07,-3.2038362093046e-09,5.70121280882256e-07,-5.42512509474809e-08,2.55388254327157e-08,-2.87124255147628e-08,NaN,-8.5024559495865e-08,9.42001229109775e-08,1.64179619210818e-07,2.99044683273999e-07,1.64179619210782e-07,3.83230918670325e-07,NaN,NaN,-2.68903133341934e-07,9.52822745261417e-08,NaN,1.54807880539159e-08,-1.54807880538502e-08,8.36485118066644e-08,-4.35353553217382e-07,7.42432108150899e-08,NaN,NaN,-8.35349069362047e-09,2.99394828378084e-08,-8.53605164033413e-08,1.94069968211763e-08,1.94069968212057e-08,4.03892980662319e-08,7.74978178158541e-08,1.1788711588211e-07,-1.08615748649846e-07,6.4285565409567e-09,-1.02187192108797e-07,1.80918559120883e-07,-8.50715002648726e-08,-8.50715002649995e-08,NaN,1.01067917812719e-08,-2.65367570135531e-08,0,1,0
2048.2048,-2.37711216188637e-09,3.68945062304579e-08,NaN,NaN,-1.78240283552759e-08,1.23589545255546e-07,NaN,NaN,1.27065476045617e-07,5.62833452171444e-07,-8.47500422150814e-09,5.6283345217049e-07,-5.41054833155327e-08,3.08701529267747e-08,-2.32353303887542e-08,NaN,-8.51002901141105e-08,9.14129024663122e-08,1.63168903050853e-07,2.81751990353165e-07,1.63168903050824e-07,3.65589307640638e-07,NaN,NaN,-2.61303828967298e-07,9.72157167735826e-08,NaN,9.38371672577586e-09,-9.3837167257059e-09,8.07213648702344e-08,-3.87517950911924e-07,1.17545493621628e-07,NaN,NaN,-1.08938752013178e-08,2.84425410003118e-08,-8.24024310800644e-08,1.99130791760636e-08,1.99130791760932e-08,3.93888728906027e-08,7.53877136591839e-08,1.14776586549812e-07,-1.07163060501834e-07,4.43041312478927e-09,-1.02732647376948e-07,1.62911525177119e-07,-8.76189414235458e-08,-8.7618941423672e-08,NaN,9.5843731482515e-09,-2.8363986830692e-08,0,1,0
2048.3072,-6.69707771918501e-09,3.64289303019434e-08,NaN,NaN,-1.63710915918691e-08,1.13119321727295e-07,NaN,NaN,1.21759932273951e-07,5.52381380203863e-07,-1.37359054893701e-08,5.52381380202916e-07,-5.37616126698706e-08,3.62257617940899e-08,-1.7535850875775e-08,NaN,-8.56344571487595e-08,8.75467070965632e-08,1.6248782237218e-07,2.6401022063514e-07,1.62487822372157e-07,3.45314914968869e-07,NaN,NaN,-2.544698294955e-07,9.88458830171042e-08,NaN,3.37853884266648e-09,-3.37853884259223e-09,7.68528393697823e-08,-3.30183534050775e-07,1.62159155344419e-07,NaN,NaN,-1.37246243148396e-08,2.62182258777024e-08,-7.97700730673186e-08,2.01842346282488e-08,2.01842346282788e-08,3.83225339561508e-08,7.26528905641835e-08,1.1097542452036e-07,-1.04748233943581e-07,2.21696468290956e-09,-1.0253126926057e-07,1.43983808102469e-07,-8.98068854253029e-08,-8.98068854254282e-08,NaN,9.21209049466068e-09,-3.0495702123713e-08,0,0,0
2048.4096,-1.14190451352916e-08,3.6028554573826e-08,NaN,NaN,-1.48382266832688e-08,1.02054038960406e-07,NaN,NaN,1.15983385743617e-07,5.38900418697531e-07,-1.89056253323105e-08,5.38900418696593e-07,-5.31222958905895e-08,4.1460021352511e-08,-1.16622745380709e-08,NaN,-8.59371418489391e-08,8.31530687245117e-08,1.6160477240217e-07,2.48874840386527e-07,1.61604772402154e-07,3.23568810118219e-07,NaN,NaN,-2.48328806426159e-07,1.00332408612075e-07,NaN,-2.48490582567695e-09,2.48490582575542e-09,7.22802482777465e-08,-2.72098799563118e-07,2.05977267992523e-07,NaN,NaN,-1.66454697833519e-08,2.35024090916008e-08,-7.75019022001838e-08,2.02381693132191e-08,2.02381693132492e-08,3.72391399778203e-08,6.95244624776135e-08,1.0676360245546e-07,-1.01841221519108e-07,1.2483680491341e-10,-1.01716384714088e-07,1.24594266976118e-07,-9.16564184533181e-08,-9.16564184534427e-08,NaN,8.93606106776838e-09,-3.29177959116267e-08,0,0,0
2048.512,-1.6285611810383e-08,3.56774112588883e-08,NaN,NaN,-1.32997834050359e-08,9.06425107983651e-08,NaN,NaN,1.10052323766648e-07,5.22388663212187e-07,-2.38980585173926e-08,5.22388663211255e-07,-5.2123710992549e-08,4.64563643306457e-08,-5.66734666189385e-09,NaN,-8.56220750084871e-08,7.86443593799851e-08,1.60153024333483e-07,2.38219484900318e-07,1.60153024333473e-07,3.01603525221803e-07,NaN,NaN,-2.42750070448555e-07,1.01804966278764e-07,NaN,-8.16798924276806e-09,8.1679892428506e-09,6.7262361030841e-08,-2.19720415503446e-07,2.47133695264866e-07,NaN,NaN,-1.94741844318986e-08,2.05030292703651e-08,-7.5591734588134e-08,2.01091932189282e-08,2.01091932189584e-08,3.61675447223852e-08,6.62210895326919e-08,1.02388634255104e-07,-9.88103420321437e-08,-1.62218711837557e-09,-1.00432529150408e-07,1.0508510688937e-07,-9.31471425038832e-08,-9.31471425040072e-08,NaN,8.69787266550762e-09,-3.55659089179369e-08,0,0,0
2048.6144,-2.11037742717414e-08,3.53659303432062e-08,NaN,NaN,-1.18033580300407e-08,7.90846526990566e-08,NaN,NaN,1.04176660485183e-07,5.02763225154413e-07,-2.86358716823115e-08,5.02763225153487e-07,-5.07344757023355e-08,5.11393467512123e-08,4.04871048887967e-10,NaN,-8.45555129589708e-08,7.428492845945e-08,1.5788239861059e-07,2.32719351099506e-07,1.57882398610588e-07,2.80498095298776e-07,NaN,NaN,-2.37556383370886e-07,1.03361160504943e-07,NaN,-1.36450089955989e-08,1.36450089956851e-08,6.20697702451238e-08,-1.77035604953501e-07,2.83948112047553e-07,NaN,NaN,-2.20568406170942e-08,1.73875100400224e-08,-7.39765717059345e-08,1.98362452754214e-08,1.98362452754515e-08,3.50963451489178e-08,6.29515648853222e-08,9.8047910034268e-08,-9.58791737789709e-08,-2.87858880887129e-09,-9.87577625877264e-08,8.56606316588491e-08,-9.41943955590233e-08,-9.41943955591469e-08,NaN,8.43622766514199e-09,-3.83370290695803e-08,0,0,0
2048.7168,-2.57396462757819e-08,3.50914721241092e-08,NaN,NaN,-1.03641445702942e-08,6.75432312244448e-08,NaN,NaN,9.8490005071618e-08,4.79939848552222e-07,-3.3058757580441e-08,4.79939848551302e-07,-4.89486138300959e-08,5.54758832385909e-08,6.52726940850763e-09,NaN,-8.2781464408029e-08,7.02046008149532e-08,1.54611762050938e-07,2.32008284378988e-07,1.54611762050941e-07,2.6098379801357e-07,NaN,NaN,-2.32540236876835e-07,1.05063741094334e-07,NaN,-1.88993888710134e-08,1.88993888711031e-08,5.69776548898231e-08,-1.45719202478207e-07,3.14878637897506e-07,NaN,NaN,-2.42739710767136e-08,1.42769777238426e-08,-7.25342239525833e-08,1.94505155394912e-08,1.94505155395209e-08,3.39645695264792e-08,5.99116610181792e-08,9.38762305446872e-08,-9.31205264998703e-08,-3.53580086261208e-09,-9.66563273623619e-08,6.64158297946893e-08,-9.46464785443797e-08,-9.4646478544503e-08,NaN,8.09125542486267e-09,-4.11050603260873e-08,0,0,0
2048.8192,-3.00927561052384e-08,3.48560895786872e-08,NaN,NaN,-8.96958883984166e-09,5.61639542427689e-08,NaN,NaN,9.30838794571618e-08,4.53904020247843e-07,-3.71240730768795e-08,4.53904020246927e-07,-4.67794062684406e-08,5.9464269124251e-08,1.26848628558243e-08,NaN,-8.04550341889507e-08,6.64294494237778e-08,1.50221590034386e-07,2.34984630683667e-07,1.50221590034394e-07,2.43412353341314e-07,NaN,NaN,-2.27494362357229e-07,1.06935759381576e-07,NaN,-2.39144276702417e-08,2.39144276703348e-08,5.22540469047598e-08,-1.25478652030432e-07,3.38633769720522e-07,NaN,NaN,-2.60416335037864e-08,1.12463722337502e-08,-7.11041192138422e-08,1.89671108958552e-08,1.89671108958844e-08,3.26638869257032e-08,5.72774506401193e-08,8.99413375658522e-08,-9.0498394585513e-08,-3.4906002243528e-09,-9.39889948097412e-08,4.74213110983812e-08,-9.43118750071566e-08,-9.43118750072795e-08,NaN,7.61316164537638e-09,-4.37424006397453e-08,0,0,0
2048.9216,-3.40636303182547e-08,3.46632718398423e-08,NaN,NaN,-7.59266728072703e-09,4.50975567387836e-08,NaN,NaN,8.8031661579403e-08,4.24755784621253e-07,-4.08022135826182e-08,4.2475578462034e-07,-4.42581436339703e-08,6.31143377239579e-08,1.88561940900027e-08,NaN,-7.77949002303538e-08,6.2922482774225e-08,1.4469158046766e-07,2.40195089358809e-07,1.44691580467672e-07,2.27842787515132e-07,NaN,NaN,-2.22252895786226e-07,1.08955963394075e-07,NaN,-2.86626964470818e-08,2.86626964471781e-08,4.81437665724641e-08,-1.14488099007511e-07,3.54472665073012e-07,NaN,NaN,-2.73067972793117e-08,8.33107944234233e-09,-6.95288932862208e-08,1.83843976203326e-08,1.83843976203612e-08,3.10512623605362e-08,5.51983658282388e-08,8.62496281888058e-08,-8.79466032891924e-08,-2.63324195323436e-09,-9.05798452422983e-08,2.88412579619285e-08,-9.30146734667705e-08,-9.30146734668932e-08,NaN,6.97298676796478e-09,-4.61443943405743e-08,0,0,0
2049.024,-3.75317252462015e-08,3.45164039931337e-08,NaN,NaN,-6.20805679043608e-09,3.45147826160239e-08,NaN,NaN,8.33955900667211e-08,3.92725128209863e-07,-4.40713958379508e-08,3.92725128208952e-07,-4.14364709739382e-08,6.64268418936759e-08,2.49903709197538e-08,NaN,-7.50520703185143e-08,5.96244010390404e-08,1.38148201746736e-07,2.46184173849068e-07,1.38148201746751e-07,2.14184565447333e-07,NaN,NaN,-2.16725891985377e-07,1.11058777928681e-07,NaN,-3.30997670418244e-08,3.30997670419238e-08,4.4853656975482e-08,-1.09886432923519e-07,3.62579720527863e-07,NaN,NaN,-2.80387249814192e-08,5.54038634758594e-09,-6.76983943811054e-08,1.76911915933473e-08,1.76911915933753e-08,2.89689227073848e-08,5.37927675647874e-08,8.27616902722036e-08,-8.54521010361697e-08,-8.59144418922452e-10,-8.63112454549602e-08,1.10340457753622e-08,-9.06587986426871e-08,-9.06587986428095e-08,NaN,6.1707099592254e-09,-4.82479259476732e-08,0,0,0
2049.1264,-4.03586273761351e-08,3.44196293831663e-08,NaN,NaN,-4.80406849022206e-09,2.46036876041878e-08,NaN,NaN,7.92160831055929e-08,3.58163978717035e-07,-4.69166359901708e-08,3.58163978716127e-07,-3.83889078714766e-08,6.93822934548176e-08,3.09933855833579e-08,NaN,-7.24871584749224e-08,5.64799159981035e-08,1.30882028884818e-07,2.51714106561436e-07,1.30882028884836e-07,2.02327480778474e-07,NaN,NaN,-2.10912549676177e-07,1.13142995472987e-07,NaN,-3.71658938387751e-08,3.71658938388771e-08,4.25414527259112e-08,-1.08303392864553e-07,3.6431196398106e-07,NaN,NaN,-2.82199438473636e-08,2.87481099847946e-09,-6.55760632760788e-08,1.68788701774363e-08,1.68788701774636e-08,2.62677758897348e-08,5.31470922582512e-08,7.94148681480181e-08,-8.31057790674393e-08,1.89794345365929e-09,-8.12078356136441e-08,-5.41951035217272e-09,-8.727161544438e-08,-8.7271615444502e-08,NaN,5.23774406325115e-09,-5.00371250662547e-08,0,0,0
2049.2288,-4.2417228995198e-08,3.43788217104072e-08,NaN,NaN,-3.38660856498364e-09,1.55465123490109e-08,NaN,NaN,7.54902814482303e-08,3.21529198902727e-07,-4.93352204449017e-08,3.21529198901821e-07,-3.52122820094308e-08,7.19453581549867e-08,3.67330761455735e-08,NaN,-7.03416268280102e-08,5.34407473224934e-08,1.23323773837946e-07,2.55837029897928e-07,1.23323773837967e-07,1.92205759209048e-07,NaN,NaN,-2.04891478141389e-07,1.15090556458792e-07,NaN,-4.07955177725419e-08,4.07955177726463e-08,4.130826164248e-08,-1.06350635077958e-07,3.62134253289783e-07,NaN,NaN,-2.78397279740117e-08,3.42089007693239e-10,-6.3198244906151e-08,1.5954080165381e-08,1.59540801654078e-08,2.28296483201763e-08,5.33182397752144e-08,7.61478880954231e-08,-8.11025849470593e-08,5.62625223649452e-09,-7.54763327104255e-08,-1.97818685463624e-08,-8.3003521297247e-08,-8.30035212973683e-08,NaN,4.23519436998703e-09,-5.15351630142167e-08,0,1,0
2049.3312,-4.36285019351753e-08,3.4400685982463e-08,NaN,NaN,-1.97642305739944e-09,7.48715561409051e-09,NaN,NaN,7.21555510992918e-08,2.83372443473229e-07,-5.13463348704852e-08,2.83372443472325e-07,-3.20181080193581e-08,7.40820431115943e-08,4.20639350922543e-08,NaN,-6.87934777183925e-08,5.04541484012029e-08,1.15988129941489e-07,2.57876026964791e-07,1.15988129941514e-07,1.83786961279475e-07,NaN,NaN,-1.98793093634706e-07,1.16792166140292e-07,NaN,-4.39320057609803e-08,4.39320057610867e-08,4.11981790148129e-08,-1.01059585259886e-07,3.59165309339291e-07,NaN,NaN,-2.68910122816241e-08,-2.03198599852742e-09,-6.06482530916127e-08,1.49472913778721e-08,1.49472913778984e-08,1.85829956486049e-08,5.4337674701538e-08,7.29206703501757e-08,-7.96960441482738e-08,1.02122879348472e-08,-6.94837562132854e-08,-3.12956116168077e-08,-7.80787759065303e-08,-7.8078775906651e-08,NaN,3.24887554729123e-09,-5.27853278322924e-08,0,1,0
2049.4336,-4.39830742512713e-08,3.44904451669445e-08,NaN,NaN,-6.0323823382535e-10,5.04233005870548e-10,NaN,NaN,6.90936994531409e-08,2.44336462087228e-07,-5.29984717402347e-08,2.44336462086327e-07,-2.89151992283099e-08,7.57801249114655e-08,4.6864925683174e-08,NaN,-6.79151541315355e-08,4.74534347533502e-08,1.09393526049579e-07,2.57386314976027e-07,1.09393526049609e-07,1.77011905315452e-07,NaN,NaN,-1.92758549975816e-07,1.18172363591092e-07,NaN,-4.65439003377449e-08,4.65439003378531e-08,4.2209174813034e-08,-9.02973856582606e-08,3.5839591973101e-07,NaN,NaN,-2.53705705755628e-08,-4.1984123220209e-09,-5.80137768728767e-08,1.39136920754546e-08,1.3913692075481e-08,1.35096011079163e-08,5.62148331949042e-08,6.97244343028542e-08,-7.91241197420705e-08,1.54432194673954e-08,-6.36809002745328e-08,-3.93467291282297e-08,-7.27135805303469e-08,-7.27135805304669e-08,NaN,2.37831509479217e-09,-5.38249926079568e-08,0,1,0
2049.536,-4.35395888169978e-08,3.46495700157211e-08,NaN,NaN,6.99874243212659e-10,-5.40366272738856e-09,NaN,NaN,6.6158253717766e-08,2.0513709664333e-07,-5.43680958257179e-08,2.05137096642431e-07,-2.59861668193323e-08,7.70630977672597e-08,5.10769309479459e-08,NaN,-6.76659280760626e-08,4.43582044027089e-08,1.03970758388994e-07,2.54130701730063e-07,1.03970758389031e-07,1.717155517234e-07,NaN,NaN,-1.86892879285814e-07,1.19205657436683e-07,NaN,-4.86373036170103e-08,4.86373036171198e-08,4.43116280861469e-08,-7.31414499143058e-08,3.61784632688811e-07,NaN,NaN,-2.32824655284783e-08,-6.08524981222113e-09,-5.53417433378769e-08,1.29259770318891e-08,1.29259770319155e-08,7.64302304666056e-09,5.89389617903116e-08,6.65819848370073e-08,-7.95313217678705e-08,2.10279974126258e-08,-5.8503324355101e-08,-4.36051988234811e-08,-6.70327072062229e-08,-6.70327072063421e-08,NaN,1.71852845263997e-09,-5.46567968639739e-08,0,0,0
2049.6384,-4.2408301235586e-08,3.48746952124457e-08,NaN,NaN,1.90048015903494e-09,-1.03203717100469e-08,NaN,NaN,6.32113361206854e-08,1.66510023988346e-07,-5.55471319773427e-08,1.66510023987449e-07,-2.32677278544628e-08,7.79920761072098e-08,5.47243482527656e-08,NaN,-6.79281748044928e-08,4.10847406616883e-08,9.99900360033623e-08,2.48066141796117e-07,9.99900360034076e-08,1.67553509993211e-07,NaN,NaN,-1.81229159207289e-07,1.19917812815138e-07,NaN,-5.02578368474551e-08,5.02578368475661e-08,4.74619228106555e-08,-5.00842144054417e-08,3.69566614405803e-07,NaN,NaN,-2.06451075659852e-08,-7.60556729110905e-09,-5.26091122358025e-08,1.20609154101609e-08,1.20609154101876e-08,1.06004137318974e-09,6.24795761803487e-08,6.35396175535751e-08,-8.09159253118466e-08,2.66266761132288e-08,-5.42892491984726e-08,-4.40977732579961e-08,-6.1021635979389e-08,-6.10216359795074e-08,NaN,1.33914412367104e-09,-5.52267076814735e-08,0,0,0
2049.7408,-4.07341806247851e-08,3.51581365568902e-08,NaN,NaN,2.96992139521745e-09,-1.44033069089065e-08,NaN,NaN,6.01519648095844e-08,1.29120361250023e-07,-5.66226868671251e-08,1.2912036124913e-07,-2.07449873062424e-08,7.86549281472948e-08,5.79099408410711e-08,NaN,-6.85628910196596e-08,3.75666535891722e-08,9.75389497631159e-08,2.39330026195367e-07,9.75389497631708e-08,1.63967367967893e-07,NaN,NaN,-1.75724132531745e-07,1.20371626645982e-07,NaN,-5.14784082090877e-08,5.14784082092001e-08,5.15979922045317e-08,-2.29104091025934e-08,3.80117652286117e-07,NaN,NaN,-1.75006810447193e-08,-8.67549024254579e-09,-4.972534502579e-08,1.13831136778724e-08,1.13831136778998e-08,-6.13203551523406e-09,6.67841438705069e-08,6.06521083553107e-08,-8.31214936795775e-08,3.1881501846139e-08,-5.12399918332929e-08,-4.11868066992804e-08,-5.45367500981304e-08,-5.45367500982478e-08,NaN,1.26894227929685e-09,-5.54224710682907e-08,0,0,0
2049.8432,-3.8691032396918e-08,3.54894344242792e-08,NaN,NaN,3.88685777526017e-09,-1.78669324639011e-08,NaN,NaN,5.69245353828648e-08,9.34574404069442e-08,-5.76570711682995e-08,9.34574404060548e-08,-1.83643907876588e-08,7.91472766061072e-08,6.07828858184671e-08,NaN,-6.94511420920385e-08,3.37826315521121e-08,9.65575082445432e-08,2.28222000799297e-07,9.65575082446088e-08,1.60227023601581e-07,NaN,NaN,-1.7029351052044e-07,1.20643130768976e-07,NaN,-5.23755812771351e-08,5.23755812772488e-08,5.66134260740288e-08,5.79516280082882e-09,3.90492043294038e-07,NaN,NaN,-1.39224688256245e-08,-9.23893887907614e-09,-4.65687962370555e-08,1.09315984258779e-08,1.09315984259058e-08,-1.38075752993056e-08,7.17727575140515e-08,5.79651822147854e-08,-8.58708272144267e-08,3.64426218879528e-08,-4.9428205326328e-08,-3.54621556345461e-08,-4.73634295907357e-08,-4.73634295908521e-08,NaN,1.49276233596791e-09,-5.50985998135013e-08,0,0,0
2049.9456,-3.64893181039042e-08,3.58573642562751e-08,NaN,NaN,4.64173712325257e-09,-2.09639363057755e-08,NaN,NaN,5.35071285277753e-08,5.97559708101049e-08,-5.86768607335438e-08,5.97559708092196e-08,-1.6061109062319e-08,7.95548708289597e-08,6.34937617666595e-08,NaN,-7.05111839391218e-08,2.97794161066633e-08,9.68978197410888e-08,2.15171570884017e-07,9.68978197411654e-08,1.55551154381845e-07,NaN,NaN,-1.64869970664933e-07,1.20799507878944e-07,NaN,-5.30035569287915e-08,5.30035569289064e-08,6.23221771297959e-08,3.33573468580522e-08,3.97395585407005e-07,NaN,NaN,-1.00152128303894e-08,-9.28942522305782e-09,-4.30393851773152e-08,1.0715149539102e-08,1.07151495391308e-08,-2.18322564321249e-08,7.73339056243611e-08,5.55016491922778e-08,-8.88215761877232e-08,3.99836105093925e-08,-4.88379656781849e-08,-2.75903824498883e-08,-3.92906718307177e-08,-3.92906718308333e-08,NaN,1.96146768664579e-09,-5.41185942278042e-08,0,0,0
2050.048,-3.43880661291807e-08,3.62523114385322e-08,NaN,NaN,5.24201359408766e-09,-2.39664801510279e-08,NaN,NaN,4.98887460948637e-08,2.79827933287451e-08,-5.96754436218038e-08,2.79827933278643e-08,-1.37879889776568e-08,7.9946539338579e-08,6.6158550360941e-08,NaN,-7.16999160253303e-08,2.56744518968683e-08,9.83619133783731e-08,2.00674538899223e-07,9.83619133784612e-08,1.49247337635179e-07,NaN,NaN,-1.59448807291544e-07,1.20890887329447e-07,NaN,-5.3377508460246e-08,5.33775084603621e-08,6.84374169882147e-08,5.76442070553272e-08,3.98121720203806e-07,NaN,NaN,-5.90729583104817e-09,-8.87893390040177e-09,-3.90982346834997e-08,1.07183092581373e-08,1.07183092581673e-08,-3.0070594847176e-08,8.332539566352e-08,5.32548008163877e-08,-9.16214100896683e-08,4.22132358463121e-08,-4.94081742432103e-08,-1.81871251786271e-08,-3.01751068933266e-08,-3.01751068934414e-08,NaN,2.60802114584936e-09,-5.23947734015474e-08,0,0,0
2050.1504,-3.26934016289628e-08,3.66676506105834e-08,NaN,NaN,5.71617057549178e-09,-2.71464612467919e-08,NaN,NaN,4.6048513174301e-08,-2.10336461089723e-09,-6.06262964082086e-08,-2.10336461177307e-09,-1.15314846148304e-08,8.03792588133422e-08,6.8847774198531e-08,NaN,-7.29954388754321e-08,2.16345133823174e-08,1.00697651598304e-07,1.852051026679e-07,1.00697651598404e-07,1.4080687105571e-07,NaN,NaN,-1.54095063428039e-07,1.20960114848841e-07,NaN,-5.34741190455184e-08,5.34741190456355e-08,7.45836410621166e-08,7.73630678690422e-08,3.91051669914245e-07,NaN,NaN,-1.73725103668162e-09,-8.11007700467491e-09,-3.47744048868667e-08,1.09139805650414e-08,1.09139805650726e-08,-3.83897723527041e-08,8.9578229311155e-08,5.11884569584964e-08,-9.39528418357559e-08,4.28944501339619e-08,-5.10583917016472e-08,-7.76224457348049e-09,-1.99782733581063e-08,-1.99782733582203e-08,NaN,3.36070623305147e-09,-4.99092773498298e-08,0,0,0
2050.2528,-3.17300054135504e-08,3.7097870684944e-08,NaN,NaN,6.11323223779341e-09,-3.07534232516477e-08,NaN,NaN,4.19455208164254e-08,-3.08500364695083e-08,-6.14985829549779e-08,-3.08500364703786e-08,-9.30800982808423e-09,8.09078679666762e-08,7.1599858138612e-08,NaN,-7.43475554209386e-08,1.78426154438389e-08,1.03574748387182e-07,1.69134662266086e-07,1.03574748387294e-07,1.29939842221148e-07,NaN,NaN,-1.48912970994381e-07,1.2106046782268e-07,NaN,-5.32467925119435e-08,5.32467925120616e-08,8.03422850212458e-08,9.19725845492812e-08,3.75645711186642e-07,NaN,NaN,2.36064419314419e-09,-7.11716100173671e-09,-3.01413184934939e-08,1.12748186767881e-08,1.12748186768203e-08,-4.66568143126528e-08,9.58968433240508e-08,4.92400290114453e-08,-9.55634426522331e-08,4.18708187064459e-08,-5.36926239456394e-08,3.26163232249172e-09,-8.77346420930703e-09,-8.77346420942036e-09,NaN,4.14861926759172e-09,-4.67124090477083e-08,0,0,0
2050.3552,-3.17861759853406e-08,3.75337088283659e-08,NaN,NaN,6.49605290320154e-09,-3.49895279259606e-08,NaN,NaN,3.7520106815796e-08,-5.86093984716213e-08,-6.22667339148246e-08,-5.86093984724856e-08,-7.14564717337608e-09,8.15895434637838e-08,7.44438962904289e-08,NaN,-7.56058972242054e-08,1.44663886315447e-08,1.06583228268202e-07,1.52680032462054e-07,1.06583228268325e-07,1.16576555546397e-07,NaN,NaN,-1.43999081879852e-07,1.21265679091418e-07,NaN,-5.26446876546108e-08,5.26446876547299e-08,8.53155367766678e-08,1.01374469479119e-07,3.52167612434526e-07,NaN,NaN,6.2669176998193e-09,-6.0465293085272e-09,-2.52822311772822e-08,1.1777565298081e-08,1.17775652981144e-08,-5.47306089672891e-08,1.0205451222047e-07,4.73239032532299e-08,-9.62787695980808e-08,3.90904138857501e-08,-5.71883557121817e-08,1.45010831376903e-08,3.2640267063991e-09,3.26402670628623e-09,NaN,4.90033538431572e-09,-4.29056087024343e-08,0,0,0
2050.4576,-3.30480430604942e-08,3.79575836049697e-08,NaN,NaN,6.92955728321627e-09,-3.99823436807081e-08,NaN,NaN,3.27036813416601e-08,-8.56648019130895e-08,-6.29105891297697e-08,-8.56648019139472e-08,-5.06184212467186e-09,8.24778004870258e-08,7.74159583623767e-08,NaN,-7.64673388626039e-08,1.1630734854355e-08,1.09279952027978e-07,1.3589629293607e-07,1.09279952028112e-07,1.00864852008406e-07,NaN,NaN,-1.39404409955356e-07,1.21665267238499e-07,NaN,-5.16258619807089e-08,5.16258619808284e-08,8.91906759008719e-08,1.05573201771136e-07,3.21433583176748e-07,NaN,NaN,9.88219318611412e-09,-5.04188084362777e-09,-2.02667292903321e-08,1.24000521880324e-08,1.24000521880673e-08,-6.24561940696043e-08,1.07792484050527e-07,4.5336289980974e-08,-9.60036177875278e-08,3.46186178396332e-08,-6.13849999477446e-08,2.55822466098164e-08,1.58640385386006e-08,1.58640385384879e-08,NaN,5.54113771243725e-09,-3.86196652365917e-08,0,1,0
2050.56,-3.55442894810461e-08,3.83423597987619e-08,NaN,NaN,7.46706143940153e-09,-4.57599828110378e-08,NaN,NaN,2.74344170949053e-08,-1.12196666849943e-07,-6.34076511819049e-08,-1.12196666850794e-07,-3.04629821434199e-09,8.36078170529223e-08,8.05615188386052e-08,NaN,-7.64902310182229e-08,9.39371545992122e-09,1.11271677779412e-07,1.18718989357869e-07,1.11271677779557e-07,8.31665726873008e-08,NaN,NaN,-1.35119671860489e-07,1.22348725026346e-07,NaN,-5.01622987581248e-08,5.0162298758245e-08,9.17928125182876e-08,1.04401701832e-07,2.84698739506022e-07,NaN,NaN,1.3128611855299e-08,-4.23360089139337e-09,-1.51488695610885e-08,1.31137938847122e-08,1.31137938847485e-08,-6.96681136919961e-08,1.12832139289059e-07,4.31640255971162e-08,-9.4718370989303e-08,2.86365838138496e-08,-6.60817871753025e-08,3.61423797444998e-08,2.86608375623332e-08,2.86608375622206e-08,NaN,5.99452994337317e-09,-3.39954412119283e-08,0,1,0
2050.6624,-3.91195316483278e-08,3.86541087965613e-08,NaN,NaN,8.13897431459492e-09,-5.22373928419289e-08,NaN,NaN,2.16753231404382e-08,-1.38287422127771e-07,-6.37217566684808e-08,-1.38287422128615e-07,-1.05559037137591e-09,8.49800269893412e-08,8.39244366179928e-08,NaN,-7.51937196574695e-08,7.72968544264242e-09,1.12299506514186e-07,1.01021180288016e-07,1.12299506514341e-07,6.40221442889311e-08,NaN,NaN,-1.31080442991868e-07,1.23385062954716e-07,NaN,-4.82404067848129e-08,4.82404067849339e-08,9.31185832428702e-08,9.73659086032435e-08,2.43634395496985e-07,NaN,NaN,1.59484486970963e-08,-3.72956209963004e-09,-9.98054081875673e-09,1.38757335754915e-08,1.38757335755292e-08,-7.62018351270002e-08,1.16900922304276e-07,4.06990871773317e-08,-9.24681377009861e-08,2.14245746080412e-08,-7.10435630927929e-08,4.58437970792585e-08,4.1195058093931e-08,4.11950580938185e-08,NaN,6.18922316469941e-09,-2.91691212820382e-08,0,1,0
2050.7648,-4.34479131400506e-08,3.8857420252584e-08,NaN,NaN,8.94773507748899e-09,-5.92233156265213e-08,NaN,NaN,1.54296300246275e-08,-1.63953687727251e-07,-6.37941403010595e-08,-1.63953687728088e-07,9.7664480491773e-10,8.65497840032267e-08,8.7526428808175e-08,NaN,-7.22118375319705e-08,6.52591271800623e-09,1.12292163060552e-07,8.26428838218517e-08,1.12292163060716e-07,4.40579087736007e-08,NaN,NaN,-1.27182526800929e-07,1.24803640534807e-07,NaN,-4.58608580004857e-08,4.58608580006076e-08,9.33420505785856e-08,8.36542824890714e-08,2.00304415531645e-07,NaN,NaN,1.83015783596622e-08,-3.6060296734059e-09,-4.82590727025305e-09,1.46241602732383e-08,1.46241602732773e-08,-8.19060950271511e-08,1.19766276664625e-07,3.7860181637531e-08,-8.93410337132308e-08,1.3328875405197e-08,-7.60121583078805e-08,5.43851370056266e-08,5.29353848903491e-08,5.29353848902364e-08,NaN,6.06834955987861e-09,-2.42614326712001e-08,0,0,0
2050.8672,-4.80883847808496e-08,3.89210795453434e-08,NaN,NaN,9.87007045603513e-09,-6.6451045359566e-08,NaN,NaN,8.74983749595101e-09,-1.89183250516813e-07,-6.35431470186404e-08,-1.89183250517642e-07,3.1163989688115e-09,8.82281929996071e-08,9.13445919684526e-08,NaN,-6.74327233248315e-08,5.59396126572674e-09,1.11368282144214e-07,6.34034151037894e-08,1.11368282144385e-07,2.38593463773e-08,NaN,NaN,-1.23303857228316e-07,1.26583178088715e-07,NaN,-4.30391271021982e-08,4.30391271023212e-08,9.27841888923687e-08,6.23066998455328e-08,1.57051396676371e-07,NaN,NaN,2.01653303884053e-08,-3.89890892848838e-09,2.32094871275676e-10,1.52832255024393e-08,1.528322550248e-08,-8.66513998331864e-08,1.21270324773669e-07,3.46189249405422e-08,-8.54404492362072e-08,4.7139067631716e-09,-8.07265424728818e-08,6.15167235122994e-08,6.33326282266241e-08,6.33326282265114e-08,NaN,5.59779561383763e-09,-1.93709089381171e-08,0,0,0
2050.9696,-5.25660854314821e-08,3.88227958569567e-08,NaN,NaN,1.08645825517057e-08,-7.36224753003912e-08,NaN,NaN,1.74124491468406e-09,-2.13951401117418e-07,-6.28755286125258e-08,-2.13951401118238e-07,5.40345392437481e-09,8.98947495338591e-08,9.52982034582715e-08,NaN,-6.10488768034603e-08,4.69301265127548e-09,1.09783859000066e-07,4.31397469271878e-08,1.09783859000242e-07,3.86456109452044e-09,NaN,NaN,-1.19332659482274e-07,1.28655078260804e-07,NaN,-3.98065071842005e-08,3.98065071843247e-08,9.1850995955573e-08,3.24663569278058e-08,1.16249789653499e-07,NaN,NaN,2.15388132669047e-08,-4.59804617761268e-09,5.09396881181657e-09,1.57748486792762e-08,1.57748486793181e-08,-9.03362411369743e-08,1.213571349745e-07,3.10208938375864e-08,-8.086436608437e-08,-4.08473501295686e-09,-8.49491010971732e-08,6.70731777611105e-08,7.19008326386848e-08,7.19008326385723e-08,NaN,4.77336982705399e-09,-1.45722224227735e-08,0,0,0
2051.072,-5.6449599732172e-08,3.85526853878472e-08,NaN,NaN,1.18810535676613e-08,-8.0445273527465e-08,NaN,NaN,-5.43706035804189e-09,-2.38202188438468e-07,-6.17061145807957e-08,-2.38202188439281e-07,7.83597227324277e-09,9.14172537589071e-08,9.92532260321912e-08,NaN,-5.34876735908978e-08,3.56378390582373e-09,1.07845217425583e-07,2.17874942012141e-08,1.07845217425763e-07,-1.56702552962701e-08,NaN,NaN,-1.15197952580903e-07,1.30920536095828e-07,NaN,-3.62105020185912e-08,3.62105020187167e-08,9.09626729783909e-08,-6.37686710828771e-09,7.99748582281872e-08,NaN,NaN,2.24495128871529e-08,-5.64831241247958e-09,9.65061945409423e-09,1.60313947342009e-08,1.6031394734244e-08,-9.2894809149038e-08,1.2008500073442e-07,2.71901915854451e-08,-7.57056316400872e-08,-1.2781339161009e-08,-8.84869708009432e-08,7.10227644498568e-08,7.83001983007977e-08,7.83001983006854e-08,NaN,3.62705322384495e-09,-9.92014285430619e-09,0,0,0
2051.1744,-5.93981315688983e-08,3.81149101493121e-08,NaN,NaN,1.28675576000497e-08,-8.66502877697132e-08,NaN,NaN,-1.25740076650939e-08,-2.61801594382006e-07,-5.9978355472172e-08,-2.61801594382811e-07,1.03716323470373e-08,9.26712524236317e-08,1.03042884770714e-07,NaN,-4.52651292081739e-08,1.97117906073614e-09,1.0582680029809e-07,-5.13926634182829e-10,1.05826800298271e-07,-3.45964317873816e-08,NaN,NaN,-1.10895663252899e-07,1.33272693016343e-07,NaN,-3.23127569998104e-08,3.23127569999373e-08,9.04965779636976e-08,-5.42016865114891e-08,4.96899205201098e-08,NaN,NaN,2.29578681458699e-08,-6.95829493269657e-09,1.37903212325067e-08,1.60035146903806e-08,1.60035146904248e-08,-9.43069656010347e-08,1.17622070464451e-07,2.33151048634809e-08,-7.00770948560755e-08,-2.11277100119439e-08,-9.12048048678674e-08,7.35171928515203e-08,8.23930762880852e-08,8.23930762879732e-08,NaN,2.22994678720733e-09,-5.45738357270281e-09,0,0,0
2051.2768,-6.11730186318457e-08,3.75262048112596e-08,NaN,NaN,1.37731566888449e-08,-9.19932251342599e-08,NaN,NaN,-1.94142766581479e-08,-2.84487513862327e-07,-5.76786068525923e-08,-2.84487513863124e-07,1.2941103966653e-08,9.35529290021983e-08,1.064940329689e-07,NaN,-3.68509665729688e-08,-2.53933510563338e-10,1.03926781029871e-07,-2.33266528481697e-08,1.03926781030051e-07,-5.27046637110692e-08,NaN,NaN,-1.06504058252299e-07,1.35613462666014e-07,NaN,-2.81833718734916e-08,2.81833718736197e-08,9.07518457320657e-08,-1.10344444395741e-07,2.60452771837787e-08,NaN,NaN,2.31567092741192e-08,-8.41317422221007e-09,1.74027292121068e-08,1.56628835771773e-08,1.56628835772224e-08,-9.46061202801406e-08,1.14229858437494e-07,1.96237381574195e-08,-6.41506925175202e-08,-2.88868287962551e-08,-9.30375213136244e-08,7.49169734634479e-08,8.42570649017526e-08,8.4257064901641e-08,NaN,6.88390062007882e-10,-1.22213250736619e-09,0,0,0
2051.3792,-6.16259518689392e-08,3.68110981325669e-08,NaN,NaN,1.45477003059919e-08,-9.62534219999927e-08,NaN,NaN,-2.56735964568786e-08,-3.05847160146313e-07,-5.48401072378296e-08,-3.05847160147104e-07,1.54644656551674e-08,9.39844912559559e-08,1.09448956911176e-07,NaN,-2.86069954277785e-08,-3.18830250619728e-09,1.0226983165355e-07,-4.58778299812191e-08,1.02269831653727e-07,-6.95609554719125e-08,NaN,NaN,-1.02183058210962e-07,1.37860444838799e-07,NaN,-2.38923528821916e-08,2.38923528823205e-08,9.19319061659472e-08,-1.7347904069089e-07,8.86322405934683e-09,NaN,NaN,2.31641605644032e-08,-9.88771540087337e-09,2.03798869848804e-08,1.50025015273672e-08,1.5002501527413e-08,-9.38771718750742e-08,1.10236920963448e-07,1.63597490884415e-08,-5.8189180945673e-08,-3.58175121630651e-08,-9.40066931085889e-08,7.57660146637188e-08,8.41555413786414e-08,8.41555413785304e-08,NaN,-8.67632770168638e-10,2.74833898577555e-09,0,0,0
2051.4816,-6.06827873959172e-08,3.59962018244599e-08,NaN,NaN,1.51427363013899e-08,-9.92401705134816e-08,NaN,NaN,-3.10619940481554e-08,-3.25345295724797e-07,-5.15360664421837e-08,-3.2534529572558e-07,1.78630945974776e-08,9.39153395703192e-08,1.11778434167853e-07,NaN,-2.08003094640597e-08,-6.81210392252055e-09,1.00945340303789e-07,-6.71347500201668e-08,1.00945340303962e-07,-8.44663626423414e-08,NaN,NaN,-9.81528813013037e-08,1.39945864795595e-07,NaN,-1.95004653321433e-08,1.95004653322734e-08,9.41391801964407e-08,-2.41701897880014e-07,-2.67127801132461e-09,NaN,NaN,2.31098765730009e-08,-1.12584368515759e-08,2.26183415046056e-08,1.40357221806705e-08,1.40357221807169e-08,-9.22400965669887e-08,1.06000394109481e-07,1.37602975425601e-08,-5.25479251312773e-08,-4.16812408613848e-08,-9.42291659925142e-08,7.67021214578031e-08,8.24780336955239e-08,8.24780336954138e-08,NaN,-2.30202628946364e-09,6.41903658525519e-09,0,0,0
2051.584,-5.8338194886329e-08,3.51069750824572e-08,NaN,NaN,1.55161915226155e-08,-1.00811128410618e-07,NaN,NaN,-3.53151619621126e-08,-3.4240552627263e-07,-4.78647471868774e-08,-3.42405526273408e-07,2.00648306388457e-08,9.3323172639919e-08,1.13388003278824e-07,NaN,-1.36551454610182e-08,-1.1022075091378e-08,1.0005390258903e-07,-8.60186139135867e-08,1.00053902589198e-07,-9.65879971602502e-08,NaN,NaN,-9.46502881083647e-08,1.41812017240024e-07,NaN,-1.50527329224972e-08,1.50527329226279e-08,9.73788379581919e-08,-3.12702289477115e-07,-9.72375112666397e-09,NaN,NaN,2.31163998100201e-08,-1.24161667467523e-08,2.4030742992759e-08,1.27930997110622e-08,1.27930997111091e-08,-8.98241770870692e-08,1.01857906926054e-07,1.2033729839053e-08,-4.76329905207341e-08,-4.62684459875774e-08,-9.39014365081658e-08,7.83181063340524e-08,7.96699163633215e-08,7.96699163632121e-08,NaN,-3.4939636030481e-09,9.76400192741793e-09,0,0,0
2051.6864,-5.46633655274301e-08,3.41682175582463e-08,NaN,NaN,1.56401347490059e-08,-1.00899210283843e-07,NaN,NaN,-3.82305423308454e-08,-3.56519619309415e-07,-4.39317223436438e-08,-3.56519619310187e-07,2.2005231097817e-08,9.22167651298886e-08,1.14221996227768e-07,NaN,-7.39886840684912e-09,-1.56536724349936e-08,9.97316844058701e-08,-1.01714121354757e-07,9.97316844060329e-08,-1.05208751210337e-07,NaN,NaN,-9.18688171599913e-08,1.43407293747068e-07,NaN,-1.05778472455214e-08,1.05778472456526e-08,1.01571252224425e-07,-3.83974693286497e-07,-1.36142898930484e-08,NaN,NaN,2.32799613641549e-08,-1.32788390855267e-08,2.45720374248053e-08,1.13164445057992e-08,1.13164445058465e-08,-8.67439119586196e-08,9.80815200757977e-08,1.13376081172462e-08,-4.38177311123462e-08,-4.94342513942853e-08,-9.32519825064879e-08,8.10149724900129e-08,7.61717561957509e-08,7.61717561956423e-08,NaN,-4.36028559431386e-09,1.27780960601232e-08,0,1,0
2051.7888,-4.98130900715963e-08,3.32064520715629e-08,NaN,NaN,1.55084131707394e-08,-9.95342732952192e-08,NaN,NaN,-3.96991619132326e-08,-3.67342426251636e-07,-3.98343073353976e-08,-3.67342426252403e-07,2.36298237813864e-08,9.06379354732846e-08,1.14267759254736e-07,NaN,-2.26738768566101e-09,-2.05063030011656e-08,1.00139941921991e-07,-1.13946669752631e-07,1.00139941922148e-07,-1.09978315722843e-07,NaN,NaN,-8.99025008231682e-08,1.44685817825035e-07,NaN,-6.09363344863684e-09,6.09363344876852e-09,1.06573119459655e-07,-4.53046722135678e-07,-1.57910617411196e-08,NaN,NaN,2.36566660781795e-08,-1.38017515258978e-08,2.42704426494137e-08,9.65114175227401e-09,9.65114175232185e-09,-8.30857758107204e-08,9.48468610080071e-08,1.1761085197355e-08,-4.13397294008847e-08,-5.11323535696341e-08,-9.24720829703772e-08,8.4900487165025e-08,7.23796089997702e-08,7.23796089996624e-08,NaN,-4.8732966517033e-09,1.54882520593226e-08,0,1,0
2051.8912,-4.40140184103353e-08,3.22516178390916e-08,NaN,NaN,1.51404716179201e-08,-9.68424602592672e-08,NaN,NaN,-3.97211372560565e-08,-3.74733073582064e-07,-3.5651343531153e-08,-3.74733073582827e-07,2.48999075067893e-08,8.86580188801057e-08,1.13557926386962e-07,NaN,1.53767989301167e-09,-2.53659212988426e-08,1.01427085339081e-07,-1.2307831858515e-07,1.01427085339232e-07,-1.11052905896446e-07,NaN,NaN,-8.87170721703465e-08,1.45611954276036e-07,NaN,-1.61412298146008e-09,1.61412298159197e-09,1.12205243214288e-07,-5.177213087184e-07,-1.78669363115677e-08,NaN,NaN,2.42587446754323e-08,-1.39817890067766e-08,2.32422550608824e-08,7.83881618755531e-09,7.83881618760354e-09,-7.89078184627235e-08,9.22228499344016e-08,1.3315031471746e-08,-4.02186863477884e-08,-5.14369967366893e-08,-9.16556830843383e-08,8.97779723911202e-08,6.86229701470976e-08,6.86229701469903e-08,NaN,-5.06705403285679e-09,1.795494640127e-08,0,1,0
2051.9936,-3.75291266513235e-08,3.13369886749705e-08,NaN,NaN,1.45793154678713e-08,-9.30174402681165e-08,NaN,NaN,-3.83961058693652e-08,-3.78730697129857e-07,-3.14391217419224e-08,-3.78730697130617e-07,2.57991995897981e-08,8.63669825629857e-08,1.12166182152853e-07,NaN,3.91642839561863e-09,-3.00207145664518e-08,1.03678834973147e-07,-1.29972201994208e-07,1.03678834973291e-07,-1.09075254616393e-07,NaN,NaN,-8.81587788379586e-08,1.46167796464882e-07,NaN,2.84654559237042e-09,-2.84654559223797e-09,1.18282938870874e-07,-5.76315857617347e-07,-2.15595663949112e-08,NaN,NaN,2.50613722494257e-08,-1.38540904853704e-08,2.16778333116726e-08,5.91256534063324e-09,5.91256534068211e-09,-7.4245603835824e-08,9.01770072015976e-08,1.59314033658412e-08,-4.02394559252836e-08,-5.05431457772384e-08,-9.07826017023853e-08,9.52360481727098e-08,6.51498364484261e-08,6.51498364483195e-08,NaN,-5.02837182811607e-09,2.02603352632236e-08,0,0,0
2052.096,-3.06133871417232e-08,3.04972944459599e-08,NaN,NaN,1.38837511487311e-08,-8.82774078251608e-08,NaN,NaN,-3.58929148955022e-08,-3.79492479953768e-07,-2.72319899493591e-08,-3.79492479954524e-07,2.63349886397045e-08,8.3858133425002e-08,1.10193122064778e-07,NaN,4.92247981228402e-09,-3.42729848469207e-08,1.06878578787231e-07,-1.3570279711199e-07,1.06878578787368e-07,-1.0500537384607e-07,NaN,NaN,-8.79949762795681e-08,1.46358983484917e-07,NaN,7.27415132336139e-09,-7.27415132322838e-09,1.24641600950451e-07,-6.27835735084863e-07,-2.84719003337489e-08,NaN,NaN,2.60166522669035e-08,-1.34824511702454e-08,1.98021357214e-08,3.89662492919383e-09,3.89662492924317e-09,-6.91150390766895e-08,8.85874928974922e-08,1.94724538208703e-08,-4.10186025236745e-08,-4.8739578513049e-08,-8.97581810365901e-08,1.00800194856773e-07,6.21140785682994e-08,6.21140785681934e-08,NaN,-4.87365603581343e-09,2.24879292362719e-08,0,0,0
2052.1984,-2.34839141067966e-08,2.97651190679927e-08,NaN,NaN,1.31165409775446e-08,-8.28312515136621e-08,NaN,NaN,-3.24161794228029e-08,-3.77239483345844e-07,-2.3045377702225e-08,-3.77239483346596e-07,2.65298316513183e-08,8.12131925591758e-08,1.07743024210568e-07,NaN,4.76725107058086e-09,-3.79549401121476e-08,1.10900096757362e-07,-1.41234175163688e-07,1.10900096757494e-07,-9.98456381331123e-08,NaN,NaN,-8.79746782796186e-08,1.46214652270159e-07,NaN,1.16564601207861e-08,-1.16564601206527e-08,1.31147796493971e-07,-6.72017840266351e-07,-3.97790842391628e-08,NaN,NaN,2.70698806624702e-08,-1.29462565383659e-08,1.7822488864468e-08,1.81056554801239e-09,1.8105655480622e-09,-6.35088513043761e-08,8.7258057711462e-08,2.37492064071534e-08,-4.21279480879186e-08,-4.63617015816684e-08,-8.84896496694569e-08,1.06075430411811e-07,5.9569570970086e-08,5.95695709699805e-08,NaN,-4.71753762577983e-09,2.47009522477642e-08,0,0,0
2052.3008,-1.63166897943814e-08,2.91661034351534e-08,NaN,NaN,1.23321336644422e-08,-7.6867631617844e-08,NaN,NaN,-2.81838313725441e-08,-3.72234671217781e-07,-1.88798683640365e-08,-3.7223467121853e-07,2.64070080591487e-08,7.8491880263751e-08,1.04898888322975e-07,NaN,3.7742035206551e-09,-4.09485551845039e-08,1.15533479424651e-07,-1.47179611466159e-07,1.15533479424776e-07,-9.43477424392622e-08,NaN,NaN,-8.78882158767357e-08,1.45780841491357e-07,NaN,1.59848655929899e-08,-1.59848655928563e-08,1.37694350039011e-07,-7.09244424440134e-07,-5.59803695914906e-08,NaN,NaN,2.81731765739437e-08,-1.23266974324183e-08,1.58835376096095e-08,-3.24794418518201e-10,-3.24794418467818e-10,-5.73924937865487e-08,8.5937989952095e-08,2.85454961656136e-08,-4.32167040897668e-08,-4.37413835990129e-08,-8.6958087688653e-08,1.10821725468164e-07,5.74760674918517e-08,5.74760674917467e-08,NaN,-4.644488256339e-09,2.69269826346741e-08,0,0,0
2052.4032,-9.26255921246712e-09,2.87140821869804e-08,NaN,NaN,1.15691056042299e-08,-7.05624376567032e-08,NaN,NaN,-2.34132589317612e-08,-3.64779884632397e-07,-1.47265329483131e-08,-3.64779884633141e-07,2.59782496465983e-08,7.57294807923006e-08,1.01707730438977e-07,NaN,2.30913865365363e-09,-4.32001078729703e-08,1.20518337295491e-07,-1.53725058754951e-07,1.20518337295609e-07,-8.88229322051241e-08,NaN,NaN,-8.75977007062068e-08,1.45110770024592e-07,NaN,2.02520279172195e-08,-2.02520279170859e-08,1.44190366027581e-07,-7.40395617814774e-07,-7.68953752397654e-08,NaN,NaN,2.92929587927013e-08,-1.16944671491561e-08,1.4051013849333e-08,-2.48367023902554e-09,-2.48367023897448e-09,-5.07078021825562e-08,8.43492084277422e-08,3.3641406245253e-08,-4.40788705371644e-08,-4.11707810212987e-08,-8.52496515583393e-08,1.14945513830165e-07,5.57170391474541e-08,5.57170391473499e-08,NaN,-4.69547945166047e-09,2.91566215523245e-08,0,0,0
2052.5056,-2.4643914246895e-09,2.84068378774347e-08,NaN,NaN,1.08496734932773e-08,-6.40897147063623e-08,NaN,NaN,-1.83047453421667e-08,-3.55200505204902e-07,-1.05742254314524e-08,-3.55200505205643e-07,2.52414093506538e-08,7.29433285393575e-08,9.81847378900911e-08,NaN,7.20344870270907e-10,-4.47226329133515e-08,1.25557239470776e-07,-1.60702109783358e-07,1.25557239470886e-07,-8.31364689740616e-08,NaN,NaN,-8.70274183161185e-08,1.44257342915041e-07,NaN,2.44434404291421e-08,-2.44434404290085e-08,1.50556384169208e-07,-7.66739229402661e-07,-1.01977585913159e-07,NaN,NaN,3.04110065567343e-08,-1.11004474276926e-08,1.23296908928605e-08,-4.63590911844821e-09,-4.63590911839641e-09,-4.33856655568707e-08,8.22177420249569e-08,3.88320764681528e-08,-4.46503742534338e-08,-3.88838489210421e-08,-8.35342231743551e-08,1.18429145768573e-07,5.41308838108912e-08,5.41308838107876e-08,NaN,-4.87385520537821e-09,3.13569837157586e-08,0,0,0
2052.608,3.93813297265034e-09,2.82224180991451e-08,NaN,NaN,1.01832979557341e-08,-5.76248833039621e-08,NaN,NaN,-1.30186353990766e-08,-3.43805355329072e-07,-6.41747956809112e-09,-3.43805355329809e-07,2.41890359030782e-08,7.01440303540563e-08,9.43330662572164e-08,NaN,-6.88799086613823e-10,-4.55886848617638e-08,1.30312757766095e-07,-1.67699913072077e-07,1.30312757766197e-07,-7.68654597197203e-08,NaN,NaN,-8.61346749203396e-08,1.43270625548011e-07,NaN,2.85269546293395e-08,-2.85269546292062e-08,1.5672261913934e-07,-7.89919697582074e-07,-1.30795694812839e-07,NaN,NaN,3.15213801440074e-08,-1.05709407991348e-08,1.06972115932933e-08,-6.75163648431067e-09,-6.75163648425841e-09,-3.5360885220138e-08,7.93025212141781e-08,4.39416359941062e-08,-4.49600453767955e-08,-3.7047525573639e-08,-8.20075709503163e-08,1.21242786125501e-07,5.2557970311087e-08,5.2557970310984e-08,NaN,-5.16339236918886e-09,3.34904504367745e-08,0,0,0
2052.7104,9.81708872686968e-09,2.81171850456346e-08,NaN,NaN,9.57003671799188e-09,-5.1338592975508e-08,NaN,NaN,-7.65680502584414e-09,-3.3084020305476e-07,-2.26161574790672e-09,-3.30840203055493e-07,2.28206183204857e-08,6.7344361955678e-08,9.01649802762478e-08,NaN,-1.65833268555617e-09,-4.59198750189053e-08,1.344264223838e-07,-1.74142822964689e-07,1.34426422383894e-07,-6.95183359339368e-08,NaN,NaN,-8.48904954683247e-08,1.42197596504675e-07,NaN,3.24483661589885e-08,-3.24483661588554e-08,1.62623520992658e-07,-8.11970788947182e-07,-1.63352572248768e-07,NaN,NaN,3.26250728163958e-08,-1.01102481974617e-08,9.1286873809986e-09,-8.80793133003272e-09,-8.80793132998014e-09,-2.65845924103776e-08,7.54160863256824e-08,4.88314939153703e-08,-4.50713574458123e-08,-3.57605438277346e-08,-8.08319012734311e-08,1.23288350745991e-07,5.08927211094368e-08,5.08927211093345e-08,NaN,-5.54658465856524e-09,3.55268794905247e-08,0,0,0
