time,S1-D1,S1-D8,S1-D9,S1-D15,S2-D1,S2-D2,S2-D3,S2-D9,S3-D1,S3-D2,S3-D16,S4-D2,S4-D3,S4-D5,S5-D3,S5-D4,S5-D5,S6-D2,S6-D5,S6-D17,S7-D6,S7-D7,S8-D6,S8-D7,S8-D18,S9-D3,S9-D4,S9-D9,S9-D11,S9-D19,S10-D8,S10-D9,S10-D10,S10-D11,S11-D8,S11-D10,S11-D20,S12-D10,S12-D11,S12-D12,S13-D4,S13-D11,S13-D12,S14-D10,S14-D12,S14-D21,S15-D13,S15-D14,S16-D13,S16-D14,S16-D22,SART_Target,SART_NonTarget,SART_Probe
2109.0304,-1.73159616137825e-08,-4.48596007865533e-08,-6.21755624002716e-08,4.16999576887143e-08,-1.31320552455362e-07,-1.31320552455462e-07,NaN,NaN,-2.41231663735532e-07,-4.38490084165318e-08,NaN,9.41315447044243e-09,1.49029751189478e-07,-6.41022560468664e-08,8.49274951428857e-08,NaN,-1.74963144383775e-08,1.57502891318571e-07,2.03766510127857e-07,3.62783720887211e-08,2.03766510127975e-07,1.69300578097387e-06,1.74445881194623e-06,3.43746459291892e-06,2.34145556638811e-07,7.17727799234712e-08,NaN,NaN,-2.04638517606947e-07,2.43601413758454e-09,1.47960179105813e-07,-3.1214768632261e-07,NaN,NaN,-8.79729351705252e-09,3.68445354085577e-08,3.83586300455743e-07,-1.94756877970276e-07,-1.94756877970275e-07,5.75046417607319e-08,5.17045819952855e-08,1.09209223756133e-07,-9.78797253107297e-09,-1.14682888934923e-07,-1.24470861465996e-07,-9.31522204592613e-07,NaN,-1.01149985390608e-07,NaN,-5.21277610162824e-07,-5.78659914324091e-08,0,1,0
2109.1328,-2.43379077126959e-08,-4.25257885482695e-08,-6.68636962608996e-08,4.51515044823681e-08,-1.3356047025038e-07,-1.33560470250486e-07,NaN,NaN,-2.26876588004944e-07,-5.05714005609274e-08,NaN,1.81044901925952e-09,1.46616652686741e-07,-6.62158397630984e-08,8.04008129239099e-08,NaN,-1.82193994828803e-08,1.4855838916403e-07,2.01658180746987e-07,2.97251403326026e-08,2.01658180747106e-07,1.64765353677356e-06,1.71283615131809e-06,3.36048968809045e-06,2.36107599391646e-07,7.17274877287113e-08,NaN,NaN,-2.18807322981106e-07,1.26138719002952e-08,1.58482259696417e-07,-3.29796856179385e-07,NaN,NaN,-8.05955362652646e-09,3.93652654838438e-08,3.90878540395503e-07,-2.0008708073557e-07,-2.00087080735569e-07,4.74093236937493e-08,5.28052964490468e-08,1.0021462014291e-07,-7.01042734970917e-09,-1.19229795616448e-07,-1.26240222966156e-07,-9.04398531858909e-07,NaN,-9.37731514938632e-08,NaN,-5.55539795757527e-07,-5.34763625412298e-08,0,1,0
2109.2352,-3.16135237657991e-08,-3.99100710595483e-08,-7.15235948252807e-08,4.85186164751393e-08,-1.34628796380652e-07,-1.34628796380762e-07,NaN,NaN,-2.10284059269855e-07,-5.7071041409566e-08,NaN,-5.30320193086589e-09,1.44696878784282e-07,-6.8191890696804e-08,7.65049880877399e-08,NaN,-1.86589302970456e-08,1.38973510398331e-07,1.9966290483174e-07,2.43708242094889e-08,1.99662904831861e-07,1.60129747747783e-06,1.68412933962078e-06,3.28542681709742e-06,2.3646059816712e-07,7.11519180424137e-08,NaN,NaN,-2.32106707722427e-07,2.20278194630525e-08,1.68894707077662e-07,-3.44388742184099e-07,NaN,NaN,-7.8332559293304e-09,4.0764515996233e-08,3.94452175021461e-07,-2.03266920449761e-07,-2.0326692044976e-07,3.93612677592987e-08,5.27482354629953e-08,9.21095032224078e-08,-3.22640718944183e-09,-1.24066465454658e-07,-1.27292872644098e-07,-8.71804608564602e-07,NaN,-9.19894248831543e-08,NaN,-5.87708292878165e-07,-4.60849946495456e-08,0,1,0
2109.3376,-3.9125565811364e-08,-3.70184420411171e-08,-7.61440078524145e-08,5.07365925020108e-08,-1.34542540435856e-07,-1.34542540435968e-07,NaN,NaN,-1.92539893527356e-07,-6.34639141292136e-08,NaN,-1.20476657520278e-08,1.43144468677656e-07,-6.98360204082776e-08,7.33084482696361e-08,NaN,-1.88547730868563e-08,1.28981289235064e-07,1.98116770229824e-07,2.06556315618782e-08,1.98116770229944e-07,1.55016784065139e-06,1.65439799016959e-06,3.20456583081978e-06,2.34891128610285e-07,6.98711136277578e-08,NaN,NaN,-2.44023188788529e-07,3.01753140787995e-08,1.77903420937542e-07,-3.53911068909122e-07,NaN,NaN,-8.4305653243882e-09,4.07811500089493e-08,3.93981949585393e-07,-2.04230682282725e-07,-2.04230682282723e-07,3.39818704919169e-08,5.13727200328185e-08,8.53545905248493e-08,1.88570303078266e-09,-1.29569217312114e-07,-1.27683514281326e-07,-8.36050630016463e-07,NaN,-9.67321734640823e-08,NaN,-6.17406946961837e-07,-3.61599463162025e-08,0,0,0
2109.44,-4.67955007362868e-08,-3.38585597319022e-08,-8.06540604681233e-08,5.08799539924782e-08,-1.33339176604125e-07,-1.33339176604237e-07,NaN,NaN,-1.74827076174978e-07,-6.99096253873844e-08,NaN,-1.85759713709918e-08,1.41780415389607e-07,-7.09393043660713e-08,7.08411110237917e-08,NaN,-1.88417167703257e-08,1.18829031788548e-07,1.97311632241867e-07,1.89098586663089e-08,1.97311632241986e-07,1.49027728054241e-06,1.61933184036565e-06,3.10960912090686e-06,2.31233342647971e-07,6.77479887303132e-08,NaN,NaN,-2.5416433520869e-07,3.66052172095422e-08,1.84345724278316e-07,-3.56818055065796e-07,NaN,NaN,-1.00976139576747e-08,3.92644659492924e-08,3.89398637759098e-07,-2.03126277682356e-07,-2.03126277682355e-07,3.16950317932381e-08,4.85970848670198e-08,8.02921166603726e-08,8.56813088389013e-09,-1.36102869669991e-07,-1.27534738786093e-07,-7.99585600975928e-07,NaN,-1.08533409989894e-07,NaN,-6.44534310056898e-07,-2.43219643820192e-08,0,0,0
2109.5424,-5.44799071200782e-08,-3.04371088894031e-08,-8.49170160094171e-08,4.8292815945316e-08,-1.31080942001711e-07,-1.31080942001822e-07,NaN,NaN,-1.58364026229624e-07,-7.66100190327688e-08,NaN,-2.50683957026843e-08,1.40400868385756e-07,-7.13090883993452e-08,6.90917799866676e-08,NaN,-1.86388997035613e-08,1.08759190546072e-07,1.97456839399429e-07,1.92938433868321e-08,1.97456839399547e-07,1.41797966337055e-06,1.57482601632505e-06,2.99280567969442e-06,2.25531279753054e-07,6.47118900084655e-08,NaN,NaN,-2.62305670881919e-07,4.09821975250946e-08,1.87342248155973e-07,-3.52291417251334e-07,NaN,NaN,-1.2963814466741e-08,3.62098553471973e-08,3.80982726016501e-07,-2.00311148267037e-07,-2.00311148267036e-07,3.26376413420907e-08,4.44465302759351e-08,7.70841716181417e-08,1.69371803121845e-08,-1.43972782314796e-07,-1.27035602002598e-07,-7.64715937194133e-07,NaN,-1.27503328658332e-07,NaN,-6.69145670364821e-07,-1.13265825141616e-08,0,0,0
2109.6448,-6.19873263552852e-08,-2.67630783334514e-08,-8.87504046886742e-08,4.26294676369029e-08,-1.27876958448219e-07,-1.27876958448328e-07,NaN,NaN,-1.44357741706505e-07,-8.37954754770452e-08,NaN,-3.17239021497322e-08,1.38817557669439e-07,-7.08067529742382e-08,6.80108046954595e-08,NaN,-1.82510466711773e-08,9.89761838258545e-08,1.98643329802435e-07,2.17477080545842e-08,1.98643329802552e-07,1.330757566586e-06,1.5177373513585e-06,2.84849491794333e-06,2.18048012902259e-07,6.0779186249914e-08,NaN,NaN,-2.68407986275814e-07,4.31402389263796e-08,1.86407826902418e-07,-3.4038440781885e-07,NaN,NaN,-1.70151002284033e-08,3.17732917213486e-08,3.69379973096221e-07,-1.96312455018717e-07,-1.96312455018716e-07,3.6591740660879e-08,3.90764964220088e-08,7.56682370830052e-08,2.69304772301623e-08,-1.53376474108202e-07,-1.26445996878021e-07,-7.3334539384257e-07,NaN,-1.53329118675659e-07,NaN,-6.91328784056728e-07,1.93840295420561e-09,0,0,0
2109.7472,-6.911334122767e-08,-2.28543996307623e-08,-9.19677408583718e-08,3.38531933153522e-08,-1.23915035068893e-07,-1.23915035068998e-07,NaN,NaN,-1.33930212956293e-07,-9.16971383089208e-08,NaN,-3.87418398451722e-08,1.36888680825775e-07,-6.93794530127172e-08,6.75092278133197e-08,NaN,-1.76792473245675e-08,8.96058345982379e-08,2.00812379048675e-07,2.59733133268788e-08,2.0081237904879e-07,1.22801253866191e-06,1.44661856340734e-06,2.67463110206809e-06,2.09224271212775e-07,5.60594430350416e-08,NaN,NaN,-2.72596814538367e-07,4.31110141325064e-08,1.81495985173409e-07,-3.22004274302458e-07,NaN,NaN,-2.20941346535201e-08,2.62588927704832e-08,3.55525575228422e-07,-1.91752896873391e-07,-1.91752896873391e-07,4.29791576756048e-08,3.27771212702638e-08,7.57562789459877e-08,3.82677327390862e-08,-1.64346235759666e-07,-1.26078503020557e-07,-7.06752649742946e-07,NaN,-1.85261496889613e-07,NaN,-7.11135094641506e-07,1.44930195151324e-08,0,0,0
2109.8496,-7.56845104970248e-08,-1.87439325753997e-08,-9.44284430723658e-08,2.223134577804e-08,-1.1948493534881e-07,-1.19484935348911e-07,NaN,NaN,-1.28007017585747e-07,-1.00505556531511e-07,NaN,-4.62884335260053e-08,1.34529799990406e-07,-6.70769108413517e-08,6.74528891493215e-08,NaN,-1.69324755719536e-08,8.0671189562027e-08,2.03746423410586e-07,3.14659049085004e-08,2.037464234107e-07,1.11150513594368e-06,1.36212913057846e-06,2.473634266521e-06,1.99601647083647e-07,5.07434496421816e-08,NaN,NaN,-2.75118491787485e-07,4.11174156104498e-08,1.72976747377063e-07,-2.98741731192131e-07,NaN,NaN,-2.7927242462688e-08,2.0075600842807e-08,3.40492397900878e-07,-1.87256092568398e-07,-1.87256092568397e-07,5.09453977052701e-08,2.59472991781433e-08,7.68926968835345e-08,5.04541764177271e-08,-1.76700845371131e-07,-1.26246668953375e-07,-6.85423042262725e-07,NaN,-2.22115062304947e-07,NaN,-7.2857751225731e-07,2.53790037121025e-08,0,0,0
2109.952,-8.15905240839579e-08,-1.44799707402788e-08,-9.60704948241791e-08,8.33271504160263e-09,-1.14967285833401e-07,-1.14967285833498e-07,NaN,NaN,-1.27176216611743e-07,-1.103206306005e-07,NaN,-5.44489006995719e-08,1.31710695455571e-07,-6.40472675419547e-08,6.76634279138892e-08,NaN,-1.60315917388514e-08,7.21083623643872e-08,2.07100807739386e-07,3.75909325588381e-08,2.07100807739499e-07,9.8522320030614e-07,1.26693311220028e-06,2.25215631250529e-06,1.89738281376572e-07,4.50770958572348e-08,NaN,NaN,-2.76289246228882e-07,3.75382239099881e-08,1.6156708304543e-07,-2.72602718841072e-07,NaN,NaN,-3.4171149814433e-08,1.36698407681923e-08,3.25312517245139e-07,-1.83352178230263e-07,-1.83352178230263e-07,5.95182759985081e-08,1.90418472825441e-08,7.85601232811755e-08,6.28393426725834e-08,-1.90030636237239e-07,-1.27191293564621e-07,-6.68943621394539e-07,NaN,-2.62307467673912e-07,NaN,-7.43664186826304e-07,3.38296282844904e-08,0,0,0
2110.0544,-8.67894555399261e-08,-1.0119655409549e-08,-9.69091109494181e-08,-6.97886334853763e-09,-1.10781580465961e-07,-1.10781580466054e-07,NaN,NaN,-1.31553104344637e-07,-1.21109914203942e-07,NaN,-6.31815870000195e-08,1.28445100057969e-07,-6.05104255414307e-08,6.79346745168169e-08,NaN,-1.50042699183066e-08,6.38182012976987e-08,2.10468833508513e-07,4.36789977969312e-08,2.10468833508625e-07,8.54785798952778e-07,1.16518873646547e-06,2.01997453541712e-06,1.80150209892262e-07,3.93326153155192e-08,NaN,NaN,-2.76444779721674e-07,3.28596411326336e-08,1.48234720101902e-07,-2.45719633596968e-07,NaN,NaN,-4.04627258061966e-08,7.45701595918914e-09,3.10838756020938e-07,-1.80405077676645e-07,-1.80405077676645e-07,6.77853808622906e-08,1.25102429097889e-08,8.02956237722048e-08,7.47140794444235e-08,-2.03720137452776e-07,-1.29006058008313e-07,-6.559964095102e-07,NaN,-3.0392404186913e-07,NaN,-7.56434827795242e-07,3.94333574202501e-08,0,0,0
2110.1568,-9.12944946511059e-08,-5.71975260050828e-09,-9.70142472515571e-08,-2.25647818666491e-08,-1.07322947021295e-07,-1.07322947021384e-07,NaN,NaN,-1.40715053540497e-07,-1.32695034939911e-07,NaN,-7.22976103680101e-08,1.24773961821886e-07,-5.67158558700237e-08,6.80581059521474e-08,NaN,-1.38758010655765e-08,5.57235785460742e-08,2.13447281517553e-07,4.91088833742667e-08,2.13447281517664e-07,7.26720821884744e-07,1.06193747474032e-06,1.78865829662393e-06,1.71292638088671e-07,3.37880428948902e-08,NaN,NaN,-2.758914876791e-07,2.76293348797518e-08,1.34079811876101e-07,-2.20096869281183e-07,NaN,NaN,-4.64556140817917e-08,1.77487395262072e-09,2.97684620840064e-07,-1.78574984055929e-07,-1.7857498405593e-07,7.50293047196283e-08,6.74587221182139e-09,8.17751769315768e-08,8.54109789975063e-08,-2.16996481470335e-07,-1.31585502472785e-07,-6.44499127693722e-07,NaN,-3.4479309361854e-07,NaN,-7.67000350279582e-07,4.22319647487271e-08,0,0,0
2110.2592,-9.51629277942308e-08,-1.33178062320321e-09,-9.64947084173764e-08,-3.70704008308034e-08,-1.04926028040388e-07,-1.04926028040474e-07,NaN,NaN,-1.53759664215875e-07,-1.44771295696567e-07,NaN,-8.14766907214681e-08,1.20744709847352e-07,-5.28990438247772e-08,6.7845666022865e-08,NaN,-1.26620859380406e-08,4.78043516727078e-08,2.15676568675793e-07,5.33639141335706e-08,2.15676568675902e-07,6.07873648897226e-07,9.62612165612513e-07,1.57048581450861e-06,1.63564141895017e-07,2.87162792248246e-08,NaN,NaN,-2.748597558001e-07,2.24218329997443e-08,1.20194385414863e-07,-1.97409803843215e-07,NaN,NaN,-5.18418160659119e-08,-3.1371919357268e-09,2.86228592377932e-07,-1.77818038583873e-07,-1.77818038583874e-07,8.07902637577238e-08,2.0530302699908e-09,8.28432940278433e-08,9.43762414558611e-08,-2.28991837533206e-07,-1.34615596077297e-07,-6.3188494706147e-07,NaN,-3.82586361540886e-07,NaN,-7.75609293974694e-07,4.27303936065789e-08,0,0,0
2110.3616,-9.84979419447829e-08,2.99488107797188e-09,-9.55030608667521e-08,-4.90486994055655e-08,-1.03867160537375e-07,-1.03867160537458e-07,NaN,NaN,-1.69489616463208e-07,-1.56951684606324e-07,NaN,-9.03141138952543e-08,1.16393626221408e-07,-4.92516481901316e-08,6.71419780315711e-08,NaN,-1.13681934110586e-08,4.00994913390165e-08,2.16853622204546e-07,5.60640619321786e-08,2.16853622204653e-07,5.04944364589117e-07,8.726534965588e-07,1.37759786114678e-06,1.57303613090598e-07,2.43749856392224e-08,NaN,NaN,-2.73464254848677e-07,1.78102111388317e-08,1.07524969746755e-07,-1.78874084910148e-07,NaN,NaN,-5.63683485545625e-08,-7.14519397722144e-09,2.7664230408326e-07,-1.77919829317631e-07,-1.77919829317632e-07,8.4862448885107e-08,-1.37175718169783e-09,8.34906917035392e-08,1.01198239741783e-07,-2.38812003610255e-07,-1.3761376386842e-07,-6.15439348428392e-07,NaN,-4.149609634762e-07,NaN,-7.82724453628989e-07,4.18312932246233e-08,0,1,0
2110.464,-1.01458822155024e-07,7.20367778810756e-09,-9.42551443668564e-08,-5.71446869753553e-08,-1.04386653692281e-07,-1.04386653692361e-07,NaN,NaN,-1.8667178833799e-07,-1.68822357068545e-07,NaN,-9.83870415546494e-08,1.11737408344078e-07,-4.59148734923891e-08,6.5822534851988e-08,NaN,-9.99258250301856e-09,3.26796089840105e-08,2.16728745853155e-07,5.69847207118588e-08,2.1672874585326e-07,4.24003482501987e-07,7.9711102629756e-07,1.22111450879841e-06,1.52762825010869e-07,2.09868972810694e-08,NaN,NaN,-2.71682673634598e-07,1.43301549521266e-08,9.67867553774947e-08,-1.65211770860241e-07,NaN,NaN,-5.98583291343103e-08,-1.02260134503375e-08,2.68912664841361e-07,-1.78556512869122e-07,-1.78556512869123e-07,8.72542984932959e-08,-3.45103554269252e-09,8.38032629507347e-08,1.05600509459583e-07,-2.45603673506532e-07,-1.40003164046894e-07,-5.92611989504105e-07,NaN,-4.39727763005184e-07,NaN,-7.89040695140062e-07,4.07275721296225e-08,0,1,0
2110.5664,-1.04267106173001e-07,1.12205611074393e-08,-9.30465450654998e-08,-6.02958375452188e-08,-1.06702875244699e-07,-1.06702875244777e-07,NaN,NaN,-2.04282260064554e-07,-1.79994402636688e-07,NaN,-1.05323809893607e-07,1.06776854994178e-07,-4.29939324027484e-08,6.37829225917308e-08,NaN,-8.53492683380506e-09,2.56056163404834e-08,2.15102968040574e-07,5.6071752516146e-08,2.15102968040677e-07,3.69874886305048e-07,7.40135370372064e-07,1.11001025667597e-06,1.50060853835737e-07,1.87083898700031e-08,NaN,NaN,-2.69361647237877e-07,1.24313762741112e-08,8.84551465433013e-08,-1.56710598232549e-07,NaN,NaN,-6.22370443968508e-08,-1.24736117959499e-08,2.62852163278384e-07,-1.79370249148743e-07,-1.79370249148744e-07,8.81487340905934e-08,-4.23452333982693e-09,8.39142107508989e-08,1.07423156119105e-07,-2.48613130822785e-07,-1.41189974703621e-07,-5.61287906325436e-07,NaN,-4.55004972094997e-07,NaN,-7.95405030676572e-07,4.07867095516544e-08,0,1,0
2110.6688,-1.07195807615677e-07,1.49478624402366e-08,-9.22479451753778e-08,-5.78820630332798e-08,-1.10999345669832e-07,-1.10999345669907e-07,NaN,NaN,-2.21658974450238e-07,-1.90139747658182e-07,NaN,-1.10858854447735e-07,1.01510326672459e-07,-4.05773012921866e-08,6.09330253805764e-08,NaN,-7.00375099283443e-09,1.889790153481e-08,2.11843708781046e-07,5.34525498836442e-08,2.11843708781147e-07,3.45404553946173e-07,7.04360055565003e-07,1.04976460951004e-06,1.49145720042093e-07,1.75954746652707e-08,NaN,NaN,-2.66242778446444e-07,1.24275853818149e-08,8.28039415259822e-08,-1.53317720325645e-07,NaN,NaN,-6.35537751125363e-08,-1.40991265464948e-08,2.58114014582797e-07,-1.80039573680614e-07,-1.80039573680615e-07,8.78817083500803e-08,-3.90090071541876e-09,8.39808076347951e-08,1.06615121050734e-07,-2.47232309236945e-07,-1.4061718818615e-07,-5.20050293387495e-07,NaN,-4.5932095736476e-07,NaN,-8.02680576991367e-07,4.34421671514839e-08,0,0,0
2110.7712,-1.10536953726193e-07,1.82648117316668e-08,-9.22721419944624e-08,-4.97704258277419e-08,-1.17386096834588e-07,-1.17386096834659e-07,NaN,NaN,-2.38534680019749e-07,-1.99011512682787e-07,NaN,-1.14864407669431e-07,9.59463828070921e-08,-3.87396911037829e-08,5.72066917036144e-08,NaN,-5.41998615096634e-09,1.25310341277428e-08,2.06920676658882e-07,4.94304493034931e-08,2.06920676658978e-07,3.50814038443345e-07,6.90333007847063e-07,1.04114704628929e-06,1.49794203340224e-07,1.75834543495574e-08,NaN,NaN,-2.61993210668754e-07,1.44637813045534e-08,7.99300584572373e-08,-1.54699541613805e-07,NaN,NaN,-6.39839892037115e-08,-1.5413391159092e-08,2.54240337259147e-07,-1.80327093645016e-07,-1.80327093645017e-07,8.69241172942861e-08,-2.74471542063303e-09,8.41794018737876e-08,1.03240074201651e-07,-2.41034765333931e-07,-1.37794691132214e-07,-4.68426989541884e-07,NaN,-4.51667293681581e-07,NaN,-8.1161533802183e-07,5.00928370953162e-08,0,0,0
2110.8736,-1.14554393425446e-07,2.10336609133362e-08,-9.35207325120468e-08,-3.62515682229049e-08,-1.25851963514763e-07,-1.2585196351483e-07,NaN,NaN,-2.5496693621678e-07,-2.06456956241193e-07,NaN,-1.17359815710932e-07,9.01052402464496e-08,-3.75221390370936e-08,5.25831012096626e-08,NaN,-3.81538030905829e-09,6.44787317862052e-09,2.004391710886e-07,4.44489039648289e-08,2.00439171088692e-07,3.83448064104454e-07,6.96286903797463e-07,1.07973496790082e-06,1.51663006363103e-07,1.84933535304683e-08,NaN,NaN,-2.56239682291736e-07,1.85137112863793e-08,7.97374455993943e-08,-1.60253147413511e-07,NaN,NaN,-6.38014003553129e-08,-1.67841616095707e-08,2.5075600305594e-07,-1.80096957099952e-07,-1.80096957099953e-07,8.58360016133072e-08,-1.14389595308347e-09,8.46921056603593e-08,9.74812880970618e-08,-2.29813026623386e-07,-1.32331738526255e-07,-4.07040489637189e-07,NaN,-4.31546445964079e-07,NaN,-8.22735384566862e-07,6.20086275157984e-08,0,0,0
2110.976,-1.19435468323204e-07,2.31078782385998e-08,-9.63275900845424e-08,-1.79272661518539e-08,-1.36228561133902e-07,-1.36228561133964e-07,NaN,NaN,-2.71203982790459e-07,-2.12426946016919e-07,NaN,-1.18503307390308e-07,8.40102679134245e-08,-3.69055035244593e-08,4.71047643892732e-08,NaN,-2.22838297470459e-09,5.75796402763788e-10,1.92643153771148e-07,3.90285145362416e-08,1.92643153771235e-07,4.38085492033819e-07,7.18426667675613e-07,1.15651215970836e-06,1.54369674483175e-07,2.00636502598923e-08,NaN,NaN,-2.48621308284053e-07,2.44014381899881e-08,8.19084067893769e-08,-1.69110426837107e-07,NaN,NaN,-6.33258224791879e-08,-1.85722049544875e-08,2.47280528317598e-07,-1.79309533842549e-07,-1.79309533842551e-07,8.518293627072e-08,4.86200496892244e-10,8.56691367677486e-08,8.96333726606153e-08,-2.13628540859091e-07,-1.23995168198403e-07,-3.37598329015247e-07,NaN,-3.99061921248521e-07,NaN,-8.36257403934632e-07,8.02278982668193e-08,0,0,0
2111.0784,-1.25253510919257e-07,2.4339099763045e-08,-1.00914411156152e-07,4.37732100229616e-09,-1.48180502189152e-07,-1.48180502189209e-07,NaN,NaN,-2.87536702634734e-07,-2.16979084362261e-07,NaN,-1.18570911217176e-07,7.76805922512619e-08,-3.68020010227101e-08,4.08785912288612e-08,NaN,-7.01208442141724e-10,-5.16637103092932e-09,1.83879500792808e-07,3.36963575265416e-08,1.83879500792889e-07,5.07711528882643e-07,7.51643840347052e-07,1.25935536922864e-06,1.5756168127118e-07,2.19923471473655e-08,NaN,NaN,-2.38870112844031e-07,3.18265259024238e-08,8.59125102169444e-08,-1.80185195117561e-07,NaN,NaN,-6.28656347746289e-08,-2.10609410598076e-08,2.43604585258382e-07,-1.78008524413336e-07,-1.78008524413339e-07,8.54358789245634e-08,1.74112634419279e-09,8.71770052688931e-08,8.00808390055193e-08,-1.92866683186404e-07,-1.12785844180807e-07,-2.62739910617674e-07,NaN,-3.55048858701564e-07,NaN,-8.52019091495505e-07,1.05418959119552e-07,0,0,0
2111.1808,-1.31945517095909e-07,2.45834192873406e-08,-1.07362097808511e-07,2.96527348448249e-08,-1.61222173350882e-07,-1.61222173350932e-07,NaN,NaN,-3.04169279188722e-07,-2.20266043233721e-07,NaN,-1.17921134034529e-07,7.1137612466651e-08,-3.70758104215161e-08,3.40618020454465e-08,NaN,7.20551833473547e-10,-1.08668808977748e-08,1.7453834436246e-07,2.8923825951498e-08,1.74538344362535e-07,5.84541572664294e-07,7.90431913466484e-07,1.37497348612975e-06,1.60948543612823e-07,2.39768282911341e-08,NaN,NaN,-2.26905021952902e-07,4.03864031328132e-08,9.10780189039933e-08,-1.92282914633616e-07,NaN,NaN,-6.26710230294974e-08,-2.43959920114127e-08,2.39697883813344e-07,-1.76305778226404e-07,-1.76305778226408e-07,8.68842679194953e-08,2.27085423391583e-09,8.91551221535486e-08,6.92674562337265e-08,-1.68268429001158e-07,-9.90009727673489e-08,-1.8577176838129e-07,NaN,-3.01184983927361e-07,NaN,-8.69440754176368e-07,1.37703159423307e-07,0,0,0
2111.2832,-1.39304189553604e-07,2.37115635432262e-08,-1.15592626010324e-07,5.6730624518039e-08,-1.74751777439531e-07,-1.74751777439573e-07,NaN,NaN,-3.21108796462433e-07,-2.22499838678917e-07,NaN,-1.16938540960732e-07,6.44298294354119e-08,-3.75817124560939e-08,2.68481169796322e-08,NaN,1.98727194370577e-09,-1.66109564129929e-08,1.64996052204997e-07,2.50776592570097e-08,1.64996052205066e-07,6.61121475569545e-07,8.29789857616148e-07,1.4909113331847e-06,1.64303590278702e-07,2.5749139599775e-08,NaN,NaN,-2.12900928923262e-07,4.9613422068559e-08,9.66999195273576e-08,-2.04239188091319e-07,NaN,NaN,-6.29049407152362e-08,-2.85491283657429e-08,2.35658642564182e-07,-1.74355924560122e-07,-1.74355924560128e-07,8.95847466489885e-08,1.81475384901421e-09,9.13995004981404e-08,5.76588263774022e-08,-1.40907421125739e-07,-8.32485947482492e-08,-1.10280095369848e-07,NaN,-2.39996712317903e-07,NaN,-8.87566318987681e-07,1.76499246164346e-07,0,0,0
2111.3856,-1.46986583707829e-07,2.16257665315393e-08,-1.2536081717624e-07,8.43414586367754e-08,-1.8809742808413e-07,-1.88097428084165e-07,NaN,NaN,-3.38085927475484e-07,-2.23895738684589e-07,NaN,-1.15959826691533e-07,5.76625127359869e-08,-3.81993270469324e-08,1.94631856893721e-08,NaN,3.04574702135234e-09,-2.24555157082464e-08,1.55581036559483e-07,2.23897677906402e-08,1.55581036559548e-07,7.31281380900844e-07,8.65889632129063e-07,1.59717101302894e-06,1.67454297209769e-07,2.71041133623535e-08,NaN,NaN,-1.97288344864353e-07,5.90363941377057e-08,1.02126816205456e-07,-2.15016354015835e-07,NaN,NaN,-6.3635508868366e-08,-3.33207628768402e-08,2.31636794389526e-07,-1.72319099965151e-07,-1.72319099965159e-07,9.33626806058863e-08,2.2124986365705e-10,9.35839304696811e-08,4.57052827188353e-08,-1.12098679907594e-07,-6.63933971886667e-08,-3.96121829941903e-08,NaN,-1.74696863490967e-07,NaN,-9.0524581200103e-07,2.20484693884659e-07,0,0,0
2111.488,-1.54544076775033e-07,1.82794923287938e-08,-1.36264584446194e-07,1.11219272915756e-07,-2.00575112759459e-07,-2.00575112759488e-07,NaN,NaN,-3.54555535291038e-07,-2.24618838157607e-07,NaN,-1.15207158536191e-07,5.10079802572364e-08,-3.8847386656085e-08,1.21605936014728e-08,NaN,3.8422342184555e-09,-2.83999633475168e-08,1.46564905841832e-07,2.09560013443889e-08,1.46564905841891e-07,7.90651421480229e-07,8.96297182269561e-07,1.68694860374885e-06,1.70272357640274e-07,2.79119049533383e-08,NaN,NaN,-1.80671160785177e-07,6.82452508061796e-08,1.06794709603971e-07,-2.23721542017052e-07,NaN,NaN,-6.48508324123182e-08,-3.83868727552316e-08,2.27758585422789e-07,-1.70329013936616e-07,-1.70329013936626e-07,9.78713302718331e-08,-2.55510138692709e-09,9.53162288850435e-08,3.38180092893759e-08,-8.32567402410086e-08,-4.94387309515371e-08,2.36867773823995e-08,NaN,-1.08865526044635e-07,NaN,-9.21438003593439e-07,2.67731062129082e-07,0,0,0
2111.5904,-1.61472692739602e-07,1.36916167777155e-08,-1.47781075961846e-07,1.36234393481493e-07,-2.11554819171946e-07,-2.11554819171968e-07,NaN,NaN,-3.69813280675759e-07,-2.24760378058976e-07,NaN,-1.14760443533296e-07,4.46834309711271e-08,-3.94786000807259e-08,5.20483089072713e-09,NaN,4.32878785308793e-09,-3.4371460164861e-08,1.38167760381591e-07,2.0762497575263e-08,1.38167760381647e-07,8.36594726519594e-07,9.19721328337429e-07,1.75631605485612e-06,1.72667873261205e-07,2.81111334533057e-08,NaN,NaN,-1.63702112815061e-07,7.69280297123567e-08,1.1023048713114e-07,-2.29588757828399e-07,NaN,NaN,-6.64878268253021e-08,-4.33758061396692e-08,2.24074272486692e-07,-1.68488439820088e-07,-1.684884398201e-07,1.02685642206186e-07,-6.47593665861369e-09,9.62097055477093e-08,2.23632701179015e-08,-5.57449420104021e-08,-3.33816718924015e-08,7.82895682502788e-08,NaN,-4.606532772367e-08,NaN,-9.35485438808148e-07,3.15984534514681e-07,0,1,0
2111.6928,-1.67275721839222e-07,7.94893238173472e-09,-1.5932678945745e-07,1.58516186101093e-07,-2.20527509602081e-07,-2.20527509602097e-07,NaN,NaN,-3.8320264491573e-07,-2.24352784290607e-07,NaN,-1.14580991679139e-07,3.89066657041652e-08,-4.00675537786011e-08,-1.16088807410528e-09,NaN,4.47173995968588e-09,-4.02336497796836e-08,1.30565020159552e-07,2.1719241954392e-08,1.30565020159603e-07,8.67736716290872e-07,9.35522340920417e-07,1.80325905721041e-06,1.74589988357668e-07,2.76908097445876e-08,NaN,NaN,-1.46977324599868e-07,8.48731665945299e-08,1.12067215500216e-07,-2.32000188950241e-07,NaN,NaN,-6.84604998368615e-08,-4.7945333062285e-08,2.20546178559479e-07,-1.66894680226104e-07,-1.66894680226118e-07,1.07386329312204e-07,-1.14454213053188e-08,9.59409080070216e-08,1.16635371120495e-08,-3.07510821196084e-08,-1.90875450074567e-08,1.24197486685853e-07,NaN,1.0513200665306e-08,NaN,-9.47207724983386e-07,3.62996032279664e-07,0,1,0
2111.7952,-1.71526701724272e-07,1.19725910040799e-09,-1.70329442623831e-07,1.77524554373612e-07,-2.27162730310885e-07,-2.27162730310896e-07,NaN,NaN,-3.94331239585409e-07,-2.23408535724042e-07,NaN,-1.14569859403933e-07,3.38543021754842e-08,-4.06048272069054e-08,-6.75052503108556e-09,NaN,4.25847937404609e-09,-4.58145407066093e-08,1.23889498445403e-07,2.36783799587221e-08,1.23889498445451e-07,8.83464905245196e-07,9.43302549334772e-07,1.82676745457912e-06,1.76031015966779e-07,2.66735892274309e-08,NaN,NaN,-1.30986151122766e-07,9.19555112739511e-08,1.1208725405571e-07,-2.3057691540539e-07,NaN,NaN,-7.067903337389e-08,-5.18350898571957e-08,2.17077406787956e-07,-1.65671609489242e-07,-1.65671609489258e-07,1.11600020765908e-07,-1.73250781408146e-08,9.42749426252287e-08,1.99131092434579e-09,-9.19995358516423e-09,-7.20864266071328e-09,1.62561526464976e-07,NaN,5.83380551010995e-08,NaN,-9.56791988687257e-07,4.06794990488479e-07,0,1,0
2111.8976,-1.7392036477268e-07,-6.37495162251015e-09,-1.80295316395161e-07,1.93042209613304e-07,-2.31342461335574e-07,-2.31342461335579e-07,NaN,NaN,-4.03209129786023e-07,-2.21958286845251e-07,NaN,-1.14630222168873e-07,2.9641208543762e-08,-4.11016737035221e-08,-1.14604651594193e-08,NaN,3.69793826141032e-09,-5.09439659453433e-08,1.18228309773672e-07,2.64353123657879e-08,1.18228309773717e-07,8.8366100221647e-07,9.42754012602233e-07,1.82641501481787e-06,1.77022948261427e-07,2.51048336868279e-08,NaN,NaN,-1.16108102276794e-07,9.81235268555247e-08,1.10273451333109e-07,-2.25295276957055e-07,NaN,NaN,-7.3062095044074e-08,-5.48880789853569e-08,2.13555764851911e-07,-1.6497816330565e-07,-1.64978163305669e-07,1.14998074721331e-07,-2.3934945981901e-08,9.10631287395655e-08,-6.44471478527138e-09,8.29839042402763e-09,1.85367563886427e-09,1.95354353507735e-07,NaN,9.57490156691486e-08,NaN,-9.64588548122002e-07,4.4584209606145e-07,0,0,0
2112,-1.74306641101097e-07,-1.45574092770612e-08,-1.88864050378131e-07,2.05094178753121e-07,-2.33163812993942e-07,-2.33163812993942e-07,NaN,NaN,-4.10274160236641e-07,-2.20071570755103e-07,NaN,-1.14711716204191e-07,2.63219451327508e-08,-4.16003868821711e-08,-1.52784417490746e-08,NaN,2.81347942013707e-09,-5.54916528977612e-08,1.13617353930199e-07,2.97315714694055e-08,1.13617353930241e-07,8.68660911709869e-07,9.33715767625849e-07,1.80237667933491e-06,1.77614441065777e-07,2.30420498560286e-08,NaN,NaN,-1.02626544886988e-07,1.03387597624298e-07,1.06835864573144e-07,-2.16553014423633e-07,NaN,NaN,-7.55494662002789e-08,-5.7051829865483e-08,2.09877271121755e-07,-1.64981830440088e-07,-1.64981830440108e-07,1.17288262335783e-07,-3.10529293355718e-08,8.62353330003462e-08,-1.35099781922182e-08,2.14619073126208e-08,7.95192912051365e-09,2.24999591170615e-07,NaN,1.22079014945414e-07,NaN,-9.70949596184819e-07,4.79063564908054e-07,0,0,0
2112.1024,-1.72710901416328e-07,-2.31393533360174e-08,-1.95850254752321e-07,2.13853825098113e-07,-2.32918701571136e-07,-2.32918701571132e-07,NaN,NaN,-4.16324878131746e-07,-2.178570969121e-07,NaN,-1.1483031209681e-07,2.39024299580819e-08,-4.21818115661012e-08,-1.82793816076687e-08,NaN,1.63264551036716e-09,-5.93950346754136e-08,1.10038834595686e-07,3.32743048217624e-08,1.10038834595725e-07,8.3929915197474e-07,9.16289720907298e-07,1.75558887288125e-06,1.77833968511285e-07,2.05413320352061e-08,NaN,NaN,-9.07458048599148e-08,1.07804656373793e-07,1.02200650468297e-07,-2.05149007291702e-07,NaN,NaN,-7.8115213078443e-08,-5.83720451625108e-08,2.05938344792265e-07,-1.658113019747e-07,-1.65811301974722e-07,1.18229792272325e-07,-3.84236179757769e-08,7.98061742966824e-08,-1.91458180531101e-08,3.03134375421688e-08,1.11676194891731e-08,2.53976628930767e-07,NaN,1.37656447959952e-07,NaN,-9.76180499756241e-07,5.05825948470493e-07,0,0,0
2112.2048,-1.69338766319085e-07,-3.19250641415341e-08,-2.01263830460596e-07,2.19619264728166e-07,-2.31060398040019e-07,-2.3106039804001e-07,NaN,NaN,-4.22388161763888e-07,-2.15449010522331e-07,NaN,-1.15065115618995e-07,2.23485838275073e-08,-4.29606334030497e-08,-2.06120495751875e-08,NaN,1.81149897872574e-10,-6.26649940871667e-08,1.07426576625239e-07,3.67648363458867e-08,1.07426576625276e-07,7.96952222021202e-07,8.90914128564431e-07,1.68786635058486e-06,1.77668617339045e-07,1.76478000173447e-08,NaN,NaN,-8.061560927526e-08,1.11465275803317e-07,9.69660942750251e-08,-1.9219074024454e-07,NaN,NaN,-8.07711315141532e-08,-5.89804842861581e-08,2.01625333152445e-07,-1.6751190034134e-07,-1.67511900341364e-07,1.1766948333633e-07,-4.57752023849744e-08,7.18942809514905e-08,-2.337166009503e-08,3.51404593929934e-08,1.17687992980816e-08,2.84425487703238e-07,NaN,1.43683031493924e-07,NaN,-9.80568334706756e-07,5.25917045946157e-07,0,0,0
2112.3072,-1.64556989261424e-07,-4.07399336557263e-08,-2.05296922917128e-07,2.22884050911988e-07,-2.28156844764943e-07,-2.2815684476493e-07,NaN,NaN,-4.29546650270343e-07,-2.1298864835403e-07,NaN,-1.15536786841502e-07,2.15850086109106e-08,-4.40635896002575e-08,-2.24785809889881e-08,NaN,-1.51527172045157e-09,-6.53680805127156e-08,1.05676075606438e-07,3.99195788195856e-08,1.05676075606472e-07,7.4358701927524e-07,8.58396634414411e-07,1.6019836536889e-06,1.77083785344348e-07,1.43981190833793e-08,NaN,NaN,-7.23574750198778e-08,1.14492494295325e-07,9.18251234786954e-08,-1.78947514232026e-07,NaN,NaN,-8.3551627407529e-08,-5.90720218219681e-08,1.96835981490226e-07,-1.70017838677375e-07,-1.700178386774e-07,1.15572158539816e-07,-5.2836309728404e-08,6.27358488115469e-08,-2.62968098183296e-08,3.64572033964237e-08,1.01603935782164e-08,3.17841442519334e-07,NaN,1.42006964743787e-07,NaN,-9.84410080689415e-07,5.3955064981315e-07,0,0,0
2112.4096,-1.58849416912901e-07,-4.94310766161695e-08,-2.08280493529049e-07,2.24423310999971e-07,-2.2483034050862e-07,-2.24830340508604e-07,NaN,NaN,-4.38773964605801e-07,-2.10607450993651e-07,NaN,-1.16376425460679e-07,2.1490939189926e-08,-4.56001219229321e-08,-2.41091827326439e-08,NaN,-3.42426033395772e-09,-6.7597116178991e-08,1.04651690646456e-07,4.247880004539e-08,1.04651690646486e-07,6.81815240770039e-07,8.19956648562738e-07,1.50177188933204e-06,1.7607272801069e-07,1.08328381716667e-08,NaN,NaN,-6.6082216166153e-08,1.17051275023076e-07,8.74549703643245e-08,-1.66663976944481e-07,NaN,NaN,-8.64856179852758e-08,-5.88717215020565e-08,1.91529398694021e-07,-1.73143506661552e-07,-1.73143506661576e-07,1.12023283403418e-07,-5.93490855791808e-08,5.26741978243731e-08,-2.81333053116214e-08,3.49606863367572e-08,6.82738102526275e-09,3.54910917875992e-07,NaN,1.34821330815341e-07,NaN,-9.88010406995973e-07,5.47356405460942e-07,0,0,0
2112.512,-1.527585354572e-07,-5.78683833270556e-08,-2.10626918784234e-07,2.25289267239251e-07,-2.21692690096902e-07,-2.21692690096883e-07,NaN,NaN,-4.50823061832342e-07,-2.08409777876024e-07,NaN,-1.17694197558258e-07,2.19115575375132e-08,-4.76446927652832e-08,-2.5733135227405e-08,NaN,-5.50124471490021e-09,-6.94419686516622e-08,1.04191100889124e-07,4.42104645942534e-08,1.0419110088915e-07,6.14901478342366e-07,7.7729102484348e-07,1.39219250318511e-06,1.74697740858124e-07,7.00959181923759e-09,NaN,NaN,-6.18975874903156e-08,1.19359353235513e-07,8.4397762104469e-08,-1.5637152008723e-07,NaN,NaN,-8.95710360095376e-08,-5.86003672262413e-08,1.85765616651334e-07,-1.76592935641968e-07,-1.76592935641993e-07,1.07201598878816e-07,-6.50795477674244e-08,4.21220511115289e-08,-2.91873842728884e-08,3.14542971875832e-08,2.26691291482662e-09,3.95443878257126e-07,NaN,1.24325166429625e-07,NaN,-9.91666271254213e-07,5.50301801109739e-07,0,0,0
2112.6144,-1.46825962120011e-07,-6.59467519080238e-08,-2.12772714028013e-07,2.26687471071664e-07,-2.19290633888748e-07,-2.19290633888726e-07,NaN,NaN,-4.66175368781974e-07,-2.06455246915614e-07,NaN,-1.19554472302493e-07,2.2692066039506e-08,-5.02395065225915e-08,-2.75474404827187e-08,NaN,-7.68819471711625e-09,-7.09643805620093e-08,1.04114515869515e-07,4.49145582296155e-08,1.04114515869537e-07,5.46666980107637e-07,7.326162810661e-07,1.27928326117301e-06,1.73093790521975e-07,3.01112652762462e-09,NaN,NaN,-5.99079886317501e-08,1.2168878412175e-07,8.29689998170486e-08,-1.48748995809236e-07,NaN,NaN,-9.2763005916613e-08,-5.84468830081024e-08,1.79699898051402e-07,-1.79987732981896e-07,-1.79987732981921e-07,1.01331603871072e-07,-6.98257941542805e-08,3.15058097169303e-08,-2.98183486076276e-08,2.673663483096e-08,-3.08171377653073e-09,4.38365597656638e-07,NaN,1.12401326015539e-07,NaN,-9.95637872761828e-07,5.49530661400938e-07,0,0,0
2112.7168,-1.41541875623763e-07,-7.35867448908956e-08,-2.15128620514637e-07,2.29792440737815e-07,-2.18072548020991e-07,-2.18072548020967e-07,NaN,NaN,-4.85034002517789e-07,-2.04746625868608e-07,NaN,-1.21962609395074e-07,2.37199368708284e-08,-5.34082167475513e-08,-2.9688279876355e-08,NaN,-9.91672254105047e-09,-7.21781606770084e-08,1.04242827719387e-07,4.44283346960879e-08,1.04242827719407e-07,4.81265717772951e-07,6.88612079619959e-07,1.16987779739218e-06,1.71432769839426e-07,-1.05339087224182e-09,NaN,NaN,-6.02038665434448e-08,1.24348728628904e-07,8.32127292962824e-08,-1.44054783060759e-07,NaN,NaN,-9.59763779558008e-08,-5.85520580055671e-08,1.73525276613901e-07,-1.82911356334012e-07,-1.82911356334037e-07,9.4630774796518e-08,-7.34242650286482e-08,2.12065097680102e-08,-3.03775769171215e-08,2.14884879707942e-08,-8.88908894618558e-09,4.81790560562163e-07,NaN,1.00370372546924e-07,NaN,-1.00008041249329e-06,5.46160055190911e-07,0,0,0
2112.8192,-1.37304762588406e-07,-8.0731236153487e-08,-2.18035998741871e-07,2.35584583835037e-07,-2.18373580535227e-07,-2.18373580535202e-07,NaN,NaN,-5.07332727723159e-07,-2.0322794690052e-07,NaN,-1.24862721395529e-07,2.49539274427674e-08,-5.71637541278567e-08,-3.22098266847212e-08,NaN,-1.21135401937146e-08,-7.30352272727678e-08,1.04424087205184e-07,4.26336089429745e-08,1.04424087205201e-07,4.22830256296544e-07,6.48197690822092e-07,1.0710279471179e-06,1.69868567322275e-07,-5.05412857611646e-09,NaN,NaN,-6.28337500743218e-08,1.27648754115021e-07,8.48874284827044e-08,-1.42097485654279e-07,NaN,NaN,-9.90975247439598e-08,-5.9005173314775e-08,1.67383369240185e-07,-1.84961362478134e-07,-1.84961362478159e-07,8.7270560274218e-08,-7.57557906239194e-08,1.15147696504407e-08,-3.11487244926333e-08,1.61933155389855e-08,-1.49554089535014e-08,5.23214861937191e-07,NaN,8.88514720757318e-08,NaN,-1.00494454193076e-06,5.41108284307983e-07,0,1,0
2112.9216,-1.34385395553006e-07,-8.73366257418883e-08,-2.21722021294873e-07,2.44763323743589e-07,-2.20405989396759e-07,-2.20405989396733e-07,NaN,NaN,-5.32730486241432e-07,-2.01791110824936e-07,NaN,-1.28139279657471e-07,2.64288687918156e-08,-6.14987757716189e-08,-3.50699069794362e-08,NaN,-1.42057006280223e-08,-7.34168027271912e-08,1.04565513535767e-07,3.9467333874513e-08,1.04565513535783e-07,3.7500995298902e-07,6.14126176252228e-07,9.891361292405e-07,1.68493152857999e-07,-8.85285583515144e-09,NaN,NaN,-6.77523969758111e-08,1.31857261400942e-07,8.74581800798016e-08,-1.42204120604754e-07,NaN,NaN,-1.01999958818406e-07,-5.98526888855435e-08,1.61284023597547e-07,-1.85798021385239e-07,-1.85798021385264e-07,7.93645536216336e-08,-7.67527285054838e-08,2.61182511629354e-09,-3.23020570153569e-08,1.11052709733547e-08,-2.11967860418518e-08,5.59849955433867e-07,NaN,7.77329510790809e-08,NaN,-1.009898524077e-06,5.35009344057821e-07,0,1,0
2113.024,-1.32895728252499e-07,-9.33601906517582e-08,-2.26255918904237e-07,2.57747951577657e-07,-2.24250532507128e-07,-2.24250532507102e-07,NaN,NaN,-5.60593303504183e-07,-2.00289084569043e-07,NaN,-1.31620379018088e-07,2.82383419612677e-08,-6.63623392565268e-08,-3.8123997294894e-08,NaN,-1.61245017345071e-08,-7.31346690027471e-08,1.04661208667447e-07,3.49322122104908e-08,1.04661208667463e-07,3.40495029322562e-07,5.88494376776123e-07,9.28989406097927e-07,1.67327956324081e-07,-1.23188686382317e-08,NaN,NaN,-7.47609956454455e-08,1.37175725060018e-07,9.01117671019299e-08,-1.43217617553684e-07,NaN,NaN,-1.04559635566749e-07,-6.11143107188257e-08,1.55080555081744e-07,-1.85180023386334e-07,-1.8518002338636e-07,7.09805862940367e-08,-7.64059635726246e-08,-5.42537727844239e-09,-3.38691794594012e-08,6.26191398531098e-09,-2.76072654739368e-08,5.89071228893483e-07,NaN,6.62564438325937e-08,NaN,-1.0143141569502e-06,5.28225399911859e-07,0,1,0
2113.1264,-1.32776346739869e-07,-9.87493595202553e-08,-2.31525706260106e-07,2.74734363296271e-07,-2.29858330823687e-07,-2.29858330823662e-07,NaN,NaN,-5.89996305967694e-07,-1.98556879194184e-07,NaN,-1.35089910122243e-07,3.05050869829123e-08,-7.16404893297199e-08,-4.11354023464454e-08,NaN,-1.78094071972939e-08,-7.19538437172938e-08,1.0479993135933e-07,2.9102630365695e-08,1.04799931359347e-07,3.20667772054978e-07,5.72349491814595e-07,8.93017263868804e-07,1.66351923345966e-07,-1.5345104527205e-08,NaN,NaN,-8.34805401719149e-08,1.43736486783754e-07,9.18439301397559e-08,-1.43609052982684e-07,NaN,NaN,-1.06667524790068e-07,-6.27996920632392e-08,1.48521151629176e-07,-1.82981873896833e-07,-1.82981873896859e-07,6.2163289376784e-08,-7.4769741598945e-08,-1.26064522220136e-08,-3.57434698855096e-08,1.53245131919996e-09,-3.4211018566154e-08,6.08882533579643e-07,NaN,5.32167959429844e-08,NaN,-1.01731176841368e-06,5.20928670416644e-07,0,0,0
2113.2288,-1.33814501623694e-07,-1.03439046003175e-07,-2.37253547626853e-07,2.95752441262017e-07,-2.37067466398612e-07,-2.3706746639859e-07,NaN,NaN,-6.19764650944521e-07,-1.96440222080567e-07,NaN,-1.38313818801154e-07,3.33487831226384e-08,-7.71556536545538e-08,-4.38068705315568e-08,NaN,-1.92135857926791e-08,-6.96412595487697e-08,1.05145673780175e-07,2.21259524442513e-08,1.05145673780196e-07,3.15454550419126e-07,5.6551287189093e-07,8.80967422309276e-07,1.65542759520412e-07,-1.78632150544538e-08,NaN,NaN,-9.33849478537313e-08,1.51611045105776e-07,9.1633518333729e-08,-1.41730719202851e-07,NaN,NaN,-1.08239745762501e-07,-6.49221093367393e-08,1.41349914249962e-07,-1.79192009239842e-07,-1.7919200923987e-07,5.29575510453491e-08,-7.1963508324939e-08,-1.90059572794405e-08,-3.77097221080399e-08,-3.30748747934443e-09,-4.10172095872271e-08,6.18289496550488e-07,NaN,3.72519611090669e-08,NaN,-1.01783330901976e-06,5.13205999010304e-07,0,0,0
2113.3312,-1.35688457782429e-07,-1.07358487469279e-07,-2.43046945251695e-07,3.20685518540276e-07,-2.45623802640102e-07,-2.45623802640083e-07,NaN,NaN,-6.48541410519175e-07,-1.93826967521199e-07,NaN,-1.41074531202873e-07,3.68565883725521e-08,-8.26851365812906e-08,-4.58285482083841e-08,NaN,-2.03098511044202e-08,-6.60285872948079e-08,1.05898701453126e-07,1.42213719591887e-08,1.05898701453151e-07,3.23346658065375e-07,5.66607082529808e-07,8.89953740594393e-07,1.64903966764943e-07,-1.98568308629258e-08,NaN,NaN,-1.03882777668609e-07,1.60809891327359e-07,8.86678490487568e-08,-1.36149047982633e-07,NaN,NaN,-1.0922657876828e-07,-6.75088977699558e-08,1.33406831626226e-07,-1.73894839253201e-07,-1.7389483925323e-07,4.34297122169811e-08,-6.8169703818959e-08,-2.47399916018263e-08,-3.95005226862372e-08,-8.48279676034634e-09,-4.79833194464256e-08,6.17531603242645e-07,NaN,1.71669681614024e-08,NaN,-1.01473001024946e-06,5.05148197198373e-07,0,0,0
2113.4336,-1.38019720996447e-07,-1.10442741332996e-07,-2.48462462329434e-07,3.4926269249029e-07,-2.55192633312691e-07,-2.55192633312675e-07,NaN,NaN,-6.74858146838276e-07,-1.90672025728729e-07,NaN,-1.43200709395948e-07,4.10603357923005e-08,-8.79895248576099e-08,-4.69291890649596e-08,NaN,-2.10932679612456e-08,-6.10671611283942e-08,1.0725087893538e-07,5.67396009624233e-09,1.07250878935412e-07,3.4153646903546e-07,5.73208508751298e-07,9.14744977785951e-07,1.64471054920621e-07,-2.13687252021903e-08,NaN,NaN,-1.14419146660911e-07,1.71271768248357e-07,8.25739702897274e-08,-1.25981219834661e-07,NaN,NaN,-1.0961874329534e-07,-7.06072793035788e-08,1.24694444795986e-07,-1.67242257098179e-07,-1.6724225709821e-07,3.36844141717066e-08,-6.36250013177823e-08,-2.99405871459218e-08,-4.08664755228751e-08,-1.41208789409874e-08,-5.49873544637041e-08,6.08160095092316e-07,NaN,-7.77375453568911e-09,NaN,-1.00687910337284e-06,4.96910445208146e-07,0,0,0
2113.536,-1.40413148778273e-07,-1.12640924790251e-07,-2.53054073568521e-07,3.8107481224027e-07,-2.6535701133397e-07,-2.65357011333958e-07,NaN,NaN,-6.97186998032993e-07,-1.87006313098587e-07,NaN,-1.44581405830015e-07,4.5923605601021e-08,-9.28390699229508e-08,-4.6915464321585e-08,NaN,-2.15778042782969e-08,-5.48568097502467e-08,1.09345899259536e-07,-3.18078279296937e-09,1.09345899259574e-07,3.66155343028561e-07,5.8207753895182e-07,9.4823288197956e-07,1.64313515707358e-07,-2.24958757729814e-08,NaN,NaN,-1.24567692564881e-07,1.82859780213537e-07,7.36059193658489e-08,-1.11167020078875e-07,NaN,NaN,-1.09446344018436e-07,-7.42831862352146e-08,1.15410743447827e-07,-1.59423629305549e-07,-1.59423629305581e-07,2.38760483935002e-08,-5.86048384513975e-08,-3.4728790057741e-08,-4.16365214168498e-08,-2.0172221927741e-08,-6.18087433444326e-08,5.92942297103348e-07,NaN,-3.76428511228861e-08,NaN,-9.9333521543299e-07,4.88757845105296e-07,0,0,0
2113.6384,-1.42476090140306e-07,-1.13916790521565e-07,-2.56392880661873e-07,4.15653608343304e-07,-2.75609784416604e-07,-2.75609784416596e-07,NaN,NaN,-7.13973287701081e-07,-1.82925779375916e-07,NaN,-1.45161246189337e-07,5.13391351901072e-08,-9.70277711619962e-08,-4.56886359715492e-08,NaN,-2.17880669164351e-08,-4.76427098731569e-08,1.12249496102747e-07,-1.19817515795335e-08,1.12249496102792e-07,3.92630288688652e-07,5.89476172845173e-07,9.82106461532979e-07,1.64552449789286e-07,-2.33707908574772e-08,NaN,NaN,-1.34081766521797e-07,1.95382648306695e-07,6.27216274215286e-08,-9.25948197588631e-08,NaN,NaN,-1.08767428738799e-07,-7.86134012170639e-08,1.05961686876187e-07,-1.50645909274913e-07,-1.50645909274947e-07,1.4216052239232e-08,-5.34062770792018e-08,-3.91902248398112e-08,-4.17481665482522e-08,-2.6376026427502e-08,-6.8124192975596e-08,5.755760679811e-07,NaN,-7.17776246584224e-08,NaN,-9.73489828799161e-07,4.81122131571416e-07,0,0,0
2113.7408,-1.4382675797383e-07,-1.14244579933517e-07,-2.58071337907355e-07,4.52595737221478e-07,-2.85359396539205e-07,-2.85359396539201e-07,NaN,NaN,-7.23692080814798e-07,-1.78567297230255e-07,NaN,-1.44924122409264e-07,5.71350044746313e-08,-1.00374502777575e-07,-4.32394983026084e-08,NaN,-2.17495631149794e-08,-3.97847829648956e-08,1.15932078689825e-07,-2.03728643381689e-08,1.15932078689877e-07,4.1617347571873e-07,5.91600193625958e-07,1.00777366934382e-06,1.65395065554603e-07,-2.41337084317385e-08,NaN,NaN,-1.42890351862824e-07,2.08641790321226e-07,5.14980913081743e-08,-7.20215817751738e-08,NaN,NaN,-1.07648511630771e-07,-8.36731215847225e-08,9.69614547814409e-08,-1.41130953006985e-07,-1.41130953007022e-07,4.97167644224028e-09,-4.83331804669531e-08,-4.3361504024552e-08,-4.12487174212897e-08,-3.22830101573933e-08,-7.35317275785249e-08,5.60236008561113e-07,NaN,-1.08859415374042e-07,NaN,-9.47192098430417e-07,4.74664009031663e-07,0,0,0
2113.8432,-1.44115356022321e-07,-1.1360761102132e-07,-2.57722967043655e-07,4.91663503253501e-07,-2.93976882037048e-07,-2.93976882037048e-07,NaN,NaN,-7.24994400133112e-07,-1.74086344526319e-07,NaN,-1.43881094633962e-07,6.3087357785921e-08,-1.02722062939371e-07,-3.96347051531201e-08,NaN,-2.14811087907891e-08,-3.1709378842206e-08,1.20265867181408e-07,-2.80384413245263e-08,1.20265867181467e-07,4.32388744353994e-07,5.85117238649216e-07,1.01750598300233e-06,1.671632371137e-07,-2.49027899539858e-08,NaN,NaN,-1.51053737736697e-07,2.2248497106375e-07,4.18866052896673e-08,-5.17996503326424e-08,NaN,NaN,-1.06144307844523e-07,-8.9519724613075e-08,8.92139455377174e-08,-1.31126672068421e-07,-1.3112667206846e-07,-3.55714056903924e-09,-4.3680491879122e-08,-4.72376324479985e-08,-4.02820238542676e-08,-3.73282254029507e-08,-7.76102492570594e-08,5.51011554041259e-07,NaN,-1.47126301579975e-07,NaN,-9.14791653243978e-07,4.70287952028476e-07,0,0,0
2113.9456,-1.43072972543966e-07,-1.12005349890896e-07,-2.55078322434881e-07,5.32795263804036e-07,-3.00892880621417e-07,-3.00892880621419e-07,NaN,NaN,-7.16956414854276e-07,-1.69646482164124e-07,NaN,-1.42073691966575e-07,6.89373673570085e-08,-1.03946076290757e-07,-3.50087089334232e-08,NaN,-2.09923037995573e-08,-2.38555425579027e-08,1.25036139500539e-07,-3.47422715052505e-08,1.25036139500603e-07,4.37936658962282e-07,5.67749373403215e-07,1.0056860323646e-06,1.70284894031894e-07,-2.57486957371723e-08,NaN,NaN,-1.58700927895319e-07,2.36842061378732e-07,3.58638325468669e-08,-3.44885472818575e-08,NaN,NaN,-1.04285221563801e-07,-9.6174229021221e-08,8.36554210293077e-08,-1.20918944974718e-07,-1.2091894497476e-07,-1.10890016125795e-08,-3.97129608167394e-08,-5.08019624291548e-08,-3.90679606719771e-08,-4.09367992816241e-08,-8.00047599534407e-08,5.51322716602257e-07,NaN,-1.84654519137069e-07,NaN,-8.77116357362394e-07,4.69060071091252e-07,0,0,0
2114.048,-1.40579051108876e-07,-1.09468673618832e-07,-2.50047724727732e-07,5.76000090450081e-07,-3.05717440084834e-07,-3.05717440084839e-07,NaN,NaN,-6.99366772158439e-07,-1.65417643404236e-07,NaN,-1.39589705460024e-07,7.44106046446043e-08,-1.03975534066517e-07,-2.95649294215916e-08,NaN,-2.02872985257486e-08,-1.66273081608601e-08,1.2996402833287e-07,-4.03616412400552e-08,1.29964028332936e-07,4.31121739525289e-07,5.38768180335174e-07,9.69889919859554e-07,1.75229872828354e-07,-2.66804477688281e-08,NaN,NaN,-1.65955348814195e-07,2.51727197281638e-07,3.5064207374204e-08,-2.24458835836992e-08,NaN,NaN,-1.02079729794364e-07,-1.03607643460367e-07,8.12400461796482e-08,-1.10830965361897e-07,-1.10830965361941e-07,-1.74237708999043e-08,-3.66414819548712e-08,-5.40652528546108e-08,-3.78731918056208e-08,-4.2638949065071e-08,-8.05121408705294e-08,5.63427760489082e-07,NaN,-2.19621683364406e-07,NaN,-8.3545417503746e-07,4.72035383894438e-07,0,1,0
2114.1504,-1.36720083393102e-07,-1.06076273700966e-07,-2.42796357094096e-07,6.21166812827015e-07,-3.08335787166892e-07,-3.08335787166898e-07,NaN,NaN,-6.72951695229079e-07,-1.61573449951113e-07,NaN,-1.36578699839663e-07,7.92378847891236e-08,-1.02816044531963e-07,-2.35781597425217e-08,NaN,-1.93732367723708e-08,-1.03572907504904e-08,1.3474063757233e-07,-4.49019675533383e-08,1.34740637572398e-07,4.12183608040585e-07,4.99208542905135e-07,9.11392150944801e-07,1.82398668464267e-07,-2.76497143587772e-08,NaN,NaN,-1.72859892893133e-07,2.67203955475912e-07,4.04875333468367e-08,-1.74778542012154e-08,NaN,NaN,-9.95339553534142e-08,-1.11742476819467e-07,8.27759877631005e-08,-1.01208053989938e-07,-1.01208053989985e-07,-2.24857614950425e-08,-3.46060720652651e-08,-5.7091833560143e-08,-3.69734544012185e-08,-4.21625043159333e-08,-7.91359587169869e-08,5.88141370742497e-07,NaN,-2.50482901834963e-07,NaN,-7.91575373346862e-07,4.80050425089485e-07,0,1,0
2114.2528,-1.31807174254064e-07,-1.01960805154342e-07,-2.33767979408438e-07,6.67876163107265e-07,-3.08938292864899e-07,-3.08938292864906e-07,NaN,NaN,-6.39427802893432e-07,-1.58278813279608e-07,NaN,-1.33252251073541e-07,8.31791164866193e-08,-1.00563563629908e-07,-1.7384447142975e-08,NaN,-1.8268944456706e-08,-5.27899740980528e-09,1.3907308371344e-07,-4.84845627053634e-08,1.39073083713507e-07,3.83130074438227e-07,4.51658263877679e-07,8.34788338314982e-07,1.9200450432254e-07,-2.85732715882189e-08,NaN,NaN,-1.79336159621798e-07,2.83327859286695e-07,5.23665546070925e-08,-2.06188012860093e-08,NaN,NaN,-9.667971213346e-08,-1.20471341089282e-07,8.87577657983751e-08,-9.23937585141757e-08,-9.2393758514226e-08,-2.63257140260469e-08,-3.36698308449708e-08,-5.99955448708543e-08,-3.66120131352516e-08,-3.9473729917511e-08,-7.60857430525953e-08,6.24831502073427e-07,NaN,-2.76038946620022e-07,NaN,-7.47727262070455e-07,4.93551889890658e-07,0,1,0
2114.3552,-1.26330257524009e-07,-9.72957809413345e-08,-2.23626038465378e-07,7.15326590516652e-07,-3.07965082872916e-07,-3.07965082872925e-07,NaN,NaN,-6.01299595223469e-07,-1.55665203768899e-07,NaN,-1.29859373802007e-07,8.60514277778476e-08,-9.74001197720142e-08,-1.13486919938559e-08,NaN,-1.70087014172976e-08,-1.50459388887028e-09,1.4273530730473e-07,-5.13126497098461e-08,1.42735307304795e-07,3.47154161023874e-07,3.9965147698843e-07,7.46805638011373e-07,2.04003718768899e-07,-2.93628256395945e-08,NaN,NaN,-1.85207298108278e-07,3.00096192194531e-07,7.02301118436685e-08,-3.20828204665699e-08,NaN,NaN,-9.35936272808817e-08,-1.29682119846917e-07,9.92583482050751e-08,-8.46997033584227e-08,-8.46997033584763e-08,-2.90831479064714e-08,-3.38206144778853e-08,-6.29037623841951e-08,-3.69591423782193e-08,-3.47601708453096e-08,-7.17193132233593e-08,6.71684059035477e-07,NaN,-2.95425726444362e-07,NaN,-7.06494566728426e-07,5.12514994214608e-07,0,0,0
2114.4576,-1.20859381266959e-07,-9.2265790028304e-08,-2.131251712953e-07,7.62419142176863e-07,-3.05986876201936e-07,-3.05986876201944e-07,NaN,NaN,-5.61442701916062e-07,-1.53803152854738e-07,NaN,-1.26644872658413e-07,8.77548374218807e-08,-9.35715288853443e-08,-5.81669146315565e-09,NaN,-1.56391313623761e-08,9.86791341343945e-10,1.45607458066773e-07,-5.36250262167212e-08,1.45607458066835e-07,3.07833833378448e-07,3.46856191735989e-07,6.54690025113505e-07,2.18102468082767e-07,-2.99518154141469e-08,NaN,NaN,-1.90274171340147e-07,3.17424675298658e-07,9.3108422728055e-08,-5.13641369089908e-08,NaN,NaN,-9.03975755839098e-08,-1.39277617450117e-07,1.13919539193061e-07,-7.83735898120193e-08,-7.83735898120762e-08,-3.09267343604104e-08,-3.49783418034575e-08,-6.59050761637092e-08,-3.80742327105897e-08,-2.83810926707144e-08,-6.64553253811331e-08,7.26136829740245e-07,NaN,-3.08081033010101e-07,NaN,-6.70505925855597e-07,5.36462627328062e-07,0,0,0
2114.56,-1.15938854786425e-07,-8.70354590501888e-08,-2.02974313836651e-07,8.07933981616281e-07,-3.03580837153859e-07,-3.03580837153869e-07,NaN,NaN,-5.22659014363e-07,-1.52689695733742e-07,NaN,-1.23815005206045e-07,8.82832032129787e-08,-8.93571890210926e-08,-1.07398580780876e-09,NaN,-1.42122254919956e-08,2.34072751488999e-09,1.47691154791169e-07,-5.56440457702622e-08,1.47691154791228e-07,2.68323779332472e-07,2.96305130828524e-07,5.64628910160074e-07,2.33818100752296e-07,-3.03180843262219e-08,NaN,NaN,-1.9440385450622e-07,3.35141310182844e-07,1.19766719285693e-07,-7.74040425884158e-08,NaN,NaN,-8.72478381819073e-08,-1.49185490240564e-07,1.32029527159056e-07,-7.35794306804165e-08,-7.35794306804766e-08,-3.19917633811139e-08,-3.70112672485888e-08,-6.90030306295473e-08,-3.98712384216875e-08,-2.08260642758264e-08,-6.06973026973419e-08,7.8530658917473e-07,NaN,-3.13739817226461e-07,NaN,-6.42084356547405e-07,5.64548216692545e-07,0,0,0
2114.6624,-1.12018186423852e-07,-8.17331820742338e-08,-1.93751368498123e-07,8.50681820969876e-07,-3.01252404103584e-07,-3.01252404103594e-07,NaN,NaN,-4.87379371299391e-07,-1.5225977010206e-07,NaN,-1.2152882738072e-07,8.77163093287812e-08,-8.50453504540172e-08,2.67095887506634e-09,NaN,-1.27794047341098e-08,2.79709052717073e-09,1.49100566315168e-07,-5.75265094170253e-08,1.49100566315223e-07,2.30716248686306e-07,2.49882113114696e-07,4.8059836180009e-07,2.50550315670125e-07,-3.05030001707939e-08,NaN,NaN,-1.97589157850543e-07,3.52978295570944e-07,1.48880541422882e-07,-1.08753869077627e-07,NaN,NaN,-8.43251925681141e-08,-1.59358648313967e-07,1.52642588831865e-07,-7.03987451177209e-08,-7.03987451177843e-08,-3.23312315075453e-08,-3.97612651301778e-08,-7.20924966375713e-08,-4.20958288225113e-08,-1.27016090267976e-08,-5.47974378491369e-08,8.46262633438338e-07,NaN,-3.12474711995316e-07,NaN,-6.22968962639651e-07,5.95645529309129e-07,0,0,0
2114.7648,-1.09427088837446e-07,-7.64532130887145e-08,-1.85880301926197e-07,8.89565479004882e-07,-2.99407986528831e-07,-2.99407986528841e-07,NaN,NaN,-4.57531323274248e-07,-1.52413583369369e-07,NaN,-1.1991029448727e-07,8.62003976439175e-08,-8.09188773008156e-08,5.28152034340183e-09,NaN,-1.13894054663755e-08,2.64443068316874e-09,1.50034918902253e-07,-5.93318635169452e-08,1.50034918902303e-07,1.95737141427852e-07,2.08191118927998e-07,4.0392826035495e-07,2.67633938990424e-07,-3.06206350031732e-08,NaN,NaN,-1.99959187899613e-07,3.70560418043084e-07,1.79140084577194e-07,-1.43720171236664e-07,NaN,NaN,-8.1828089417946e-08,-1.69765145130342e-07,1.74695967272042e-07,-6.88413747910132e-08,-6.88413747910796e-08,-3.18958330706627e-08,-4.30690094892441e-08,-7.4964842559759e-08,-4.43330724373615e-08,-4.72570706194051e-09,-4.90587794991307e-08,9.06158976827719e-07,NaN,-3.04756365515117e-07,NaN,-6.14176765266692e-07,6.28410865795166e-07,0,0,0
2114.8672,-1.0837451396958e-07,-7.12680328475244e-08,-1.7964254681714e-07,9.23562442795801e-07,-2.98349662727719e-07,-2.98349662727729e-07,NaN,NaN,-4.34483188399756e-07,-1.5304418530179e-07,NaN,-1.19062297875152e-07,8.3925648277567e-08,-7.72456570072932e-08,6.67999127057146e-09,NaN,-1.0089660604034e-08,2.16894685482895e-09,1.50737912003591e-07,-6.10174136168341e-08,1.50737912003638e-07,1.62847766937922e-07,1.7079583124311e-07,3.33643598180146e-07,2.8436900683655e-07,-3.08503757893392e-08,NaN,NaN,-2.01744565895608e-07,3.87400811295944e-07,2.09308647941578e-07,-1.8049850205356e-07,NaN,NaN,-7.99649982007577e-08,-1.80368783908397e-07,1.97095273845584e-07,-6.88494822283527e-08,-6.88494822284216e-08,-3.05470132044999e-08,-4.67893464277979e-08,-7.73363596321541e-08,-4.60561822677659e-08,2.30239605619319e-09,-4.37537862114028e-08,9.62341139017747e-07,NaN,-2.91492046910773e-07,NaN,-6.15999921861687e-07,6.61320925296263e-07,0,0,0
2114.9696,-1.08952317668406e-07,-6.62407993307818e-08,-1.75193116999223e-07,9.51670729449386e-07,-2.98264905670859e-07,-2.98264905670869e-07,NaN,NaN,-4.19010923414456e-07,-1.54053637545123e-07,NaN,-1.19068937352352e-07,8.11045934076477e-08,-7.42658570044687e-08,6.83873640347482e-09,NaN,-8.92866532241775e-09,1.61001489927585e-09,1.51455499934197e-07,-6.2453274964847e-08,1.51455499934241e-07,1.30598264320753e-07,1.36621162393778e-07,2.67219426713655e-07,3.00032562641156e-07,-3.14166382013988e-08,NaN,NaN,-2.03210273794477e-07,4.02908277761823e-07,2.3825077069107e-07,-2.17278911250991e-07,NaN,NaN,-7.89469481716897e-08,-1.91109873148702e-07,2.18755920017118e-07,-7.02958400578429e-08,-7.02958400579141e-08,-2.80861462822829e-08,-5.07969455869298e-08,-7.8883091869073e-08,-4.66971317842796e-08,7.56209568958712e-09,-3.91350360945243e-08,1.01248160860231e-06,NaN,-2.74006400922653e-07,NaN,-6.28089321260314e-07,6.92713873691112e-07,0,0,0
2115.072,-1.11134138218474e-07,-6.14312676651857e-08,-1.72565405883693e-07,9.72866914364397e-07,-2.99203896969542e-07,-2.99203896969553e-07,NaN,NaN,-4.11298507099602e-07,-1.55355406475863e-07,NaN,-1.19985043117428e-07,7.79529230967468e-08,-7.21734656011942e-08,5.77945749584671e-09,NaN,-7.9558979592392e-09,1.13364828442946e-09,1.52406798201486e-07,-6.34412301126512e-08,1.52406798201527e-07,9.69536566793037e-08,1.04226335360024e-07,2.01179992038464e-07,3.13883789039143e-07,-3.25653906868826e-08,NaN,NaN,-2.0457126650809e-07,4.16405211978651e-07,2.64939100358983e-07,-2.52308296325314e-07,NaN,NaN,-7.89831751437856e-08,-2.01898176281823e-07,2.38612717724539e-07,-7.29913359398559e-08,-7.2991335939929e-08,-2.42772883584077e-08,-5.49890011163e-08,-7.92662894745714e-08,-4.57071453304996e-08,1.02852735323081e-08,-3.54218717980248e-08,1.05471223213241e-06,NaN,-2.53936741142522e-07,NaN,-6.49560492733096e-07,7.20865724721367e-07,0,0,0
2115.1744,-1.14767781917123e-07,-5.68935432507922e-08,-1.71661325167946e-07,9.86129882399578e-07,-3.01054319106038e-07,-3.0105431910605e-07,NaN,NaN,-4.10975251149801e-07,-1.56868273460172e-07,NaN,-1.2181992066127e-07,7.46729741260571e-08,-7.10947470469399e-08,3.57822707941062e-09,NaN,-7.21673060968348e-09,8.27777715058912e-10,1.53770916851547e-07,-6.37344111081258e-08,1.53770916851586e-07,5.94973620931938e-08,7.18682119695775e-08,1.31365574061921e-07,3.25186711092779e-07,-3.45395541302745e-08,NaN,NaN,-2.05916986378044e-07,4.27164288440165e-07,2.88462638451675e-07,-2.83938945832855e-07,NaN,NaN,-8.02737322431966e-08,-2.12617885528447e-07,2.55637247339465e-07,-7.67070964901896e-08,-7.67070964902642e-08,-1.88626576062442e-08,-5.92868832635317e-08,-7.81495408696426e-08,-4.25992182948069e-08,9.83642946139431e-09,-3.27627888332479e-08,1.08771875300897e-06,NaN,-2.33040045558943e-07,NaN,-6.7906618940931e-07,7.44117560741067e-07,0,0,0
2115.2768,-1.19569492496732e-07,-5.26699337581909e-08,-1.72239426254951e-07,9.90555033612979e-07,-3.03531732429764e-07,-3.03531732429777e-07,NaN,NaN,-4.17164148368275e-07,-1.58508375835818e-07,NaN,-1.24522335318346e-07,7.1439355385215e-08,-7.10699979840023e-08,3.69357401506157e-10,NaN,-6.74256326730946e-09,7.14649677411967e-10,1.55679792279243e-07,-6.30695742891269e-08,1.55679792279282e-07,1.5687471490799e-08,3.75632295144153e-08,5.32507010043688e-08,3.33270135583829e-07,-3.75465267496408e-08,NaN,NaN,-2.07180836719818e-07,4.34476113073519e-07,3.08069229911056e-07,-3.10721318906067e-07,NaN,NaN,-8.29875964576039e-08,-2.2313233648127e-07,2.68897294853449e-07,-8.11973359019179e-08,-8.11973359019937e-08,-1.15895353729996e-08,-6.36317702252453e-08,-7.52213055981137e-08,-3.69884988121443e-08,5.79669938789313e-09,-3.11917994240878e-08,1.11078389372482e-06,NaN,-2.12946566090987e-07,NaN,-7.14830531558318e-07,7.61043522405771e-07,0,1,0
2115.3792,-1.25137352668995e-07,-4.87881814924263e-08,-1.73925534161446e-07,9.85516923998085e-07,-3.06200888365024e-07,-3.06200888365037e-07,NaN,NaN,-4.28539186336402e-07,-1.60183471825572e-07,NaN,-1.27972006510483e-07,6.83862604978198e-08,-7.20475114552671e-08,-3.66125095715295e-09,NaN,-6.54002739165484e-09,7.70383401662745e-10,1.58209638780464e-07,-6.12153981977056e-08,1.58209638780502e-07,-3.66988351863463e-08,-6.63230519361929e-10,-3.73620657065544e-08,3.37613191762904e-07,-4.17178147776815e-08,NaN,NaN,-2.0817434480847e-07,4.37741868751212e-07,3.23261533689775e-07,-3.31568560981917e-07,NaN,NaN,-8.72271165806128e-08,-2.33283381945553e-07,2.77649231852013e-07,-8.62063071947957e-08,-8.62063071948723e-08,-2.25596670245279e-09,-6.79733653376561e-08,-7.02293320399789e-08,-2.86385311788339e-08,-1.96220228310466e-09,-3.06007334617765e-08,1.12377515142648e-06,NaN,-1.9491568325601e-07,NaN,-7.54709877359762e-07,7.70630721446043e-07,0,1,0
2115.4816,-1.30996241181034e-07,-4.52659687661363e-08,-1.76262209947191e-07,9.70796296059499e-07,-3.08531271408431e-07,-3.08531271408445e-07,NaN,NaN,-4.43424867266773e-07,-1.61792248992335e-07,NaN,-1.31983318746981e-07,6.55973740946785e-08,-7.38965588905276e-08,-8.29918479555218e-09,NaN,-6.58524880357455e-09,9.39919316630661e-10,1.61372346260894e-07,-5.80178747289295e-08,1.61372346260931e-07,-9.90860768108326e-08,-4.44231186942908e-08,-1.43509195505972e-07,3.37916396890631e-07,-4.70761119692593e-08,NaN,NaN,-2.08667379151462e-07,4.36560472110465e-07,3.33925649141714e-07,-3.45949013592581e-07,NaN,NaN,-9.29968766327115e-08,-2.42894013539231e-07,2.81417294027657e-07,-9.14591847629264e-08,-9.14591847630033e-08,9.24283132334995e-09,-7.22598584995671e-08,-6.30170271760876e-08,-1.74999956352672e-08,-1.32377944544162e-08,-3.07377900895221e-08,1.12708539733396e-06,NaN,-1.7965530379283e-07,NaN,-7.96346947154846e-07,7.72418032445596e-07,0,1,0
2115.584,-1.36670072382649e-07,-4.21202821134727e-08,-1.78790354496139e-07,9.46615090952964e-07,-3.09977612122161e-07,-3.09977612122174e-07,NaN,NaN,-4.5995186014007e-07,-1.63230210100009e-07,NaN,-1.36324786123857e-07,6.31014495000203e-08,-7.64382489560416e-08,-1.33367994557208e-08,NaN,-6.82759421651176e-09,1.14083854001637e-09,1.65111986296567e-07,-5.34182501206245e-08,1.65111986296606e-07,-1.71869784243488e-07,-9.47308010844915e-08,-2.66600585328834e-07,3.34122232659163e-07,-5.35278192791787e-08,NaN,NaN,-2.08471086419662e-07,4.30776795681627e-07,3.40431755785869e-07,-3.5401503978072e-07,NaN,NaN,-1.0019562146539e-07,-2.51781616806919e-07,2.80017511422285e-07,-9.66519062925962e-08,-9.66519062926731e-08,2.28922664462152e-08,-7.64374687280173e-08,-5.3545202281672e-08,-3.71941507964045e-09,-2.75132108439927e-08,-3.12326259234721e-08,1.12153941217935e-06,NaN,-1.67263286462033e-07,NaN,-8.37410181360889e-07,7.66526609584201e-07,0,0,0
2115.6864,-1.41761870729717e-07,-3.93747462694153e-08,-1.81136616999145e-07,9.13594061094083e-07,-3.1006774353392e-07,-3.10067743533932e-07,NaN,NaN,-4.76231804885978e-07,-1.64400028197673e-07,NaN,-1.40749860355155e-07,6.08760114462702e-08,-7.94832045943838e-08,-1.86071931478081e-08,NaN,-7.20212167521017e-09,1.26067523365969e-09,1.69311766166293e-07,-4.7436531748652e-08,1.69311766166332e-07,-2.54566004508676e-07,-1.52014822862158e-07,-4.06580827371694e-07,3.26381451959291e-07,-6.08848147540804e-08,NaN,NaN,-2.07487917078072e-07,4.20480943681987e-07,3.43645904641041e-07,-3.56595786948503e-07,NaN,NaN,-1.08633560013967e-07,-2.59779817317732e-07,2.73518522546189e-07,-1.01455242599146e-07,-1.01455242599222e-07,3.85715214964101e-08,-8.04608156611872e-08,-4.18892941646454e-08,1.23965883593304e-08,-4.40390628590591e-08,-3.16424744995674e-08,1.10828314951107e-06,NaN,-1.5731101326118e-07,NaN,-8.7585819984872e-07,7.53563005459024e-07,0,0,0
2115.7888,-1.46012978632922e-07,-3.70571539406348e-08,-1.83070132573565e-07,8.72703259551833e-07,-3.08470177031928e-07,-3.08470177031938e-07,NaN,NaN,-4.90478044928717e-07,-1.65220608571149e-07,NaN,-1.45025625285671e-07,5.88559271742468e-08,-8.28574934156804e-08,-2.40015662411217e-08,NaN,-7.64448459450455e-09,1.15996325363077e-09,1.73812922982663e-07,-4.01345818165104e-08,1.73812922982704e-07,-3.46236147966347e-07,-2.16338880846768e-07,-5.62575028813982e-07,3.1499675942188e-07,-6.89026107523196e-08,NaN,NaN,-2.05716823204554e-07,4.05976258237676e-07,3.44828089235824e-07,-3.55037011806744e-07,NaN,NaN,-1.18060113490342e-07,-2.6676173606568e-07,2.62168482783131e-07,-1.0553647934614e-07,-1.05536479346216e-07,5.60967967309913e-08,-8.43095984174506e-08,-2.82128016863252e-08,3.04553882000476e-08,-6.19593839698705e-08,-3.15039957696608e-08,1.08868323483696e-06,NaN,-1.49021761112342e-07,NaN,-9.10168226130592e-07,7.3446073284223e-07,0,0,0
2115.8912,-1.49315367357969e-07,-3.5183939850046e-08,-1.84499307208019e-07,8.25272839343807e-07,-3.05014581124735e-07,-3.05014581124741e-07,NaN,NaN,-5.0101875845637e-07,-1.656310168867e-07,NaN,-1.48946291941607e-07,5.69382765145325e-08,-8.64001436663633e-08,-2.94618671515114e-08,NaN,-8.10078256849795e-09,6.89967410340692e-10,1.78439411493892e-07,-3.15808615933228e-08,1.78439411493934e-07,-4.45947277811842e-07,-2.87689682404235e-07,-7.33636960216953e-07,3.0038818665565e-07,-7.73165046358255e-08,NaN,NaN,-2.03220662295783e-07,3.87742534014558e-07,3.45428900624488e-07,-3.50915611581408e-07,NaN,NaN,-1.28183395692823e-07,-2.72656570000231e-07,2.46335915788782e-07,-1.08590196146749e-07,-1.08590196146823e-07,7.52780665120289e-08,-8.80045692811455e-08,-1.27265027689792e-08,5.00639758242169e-08,-8.04335665235422e-08,-3.03695906991618e-08,1.0642671715588e-06,NaN,-1.4145859400867e-07,NaN,-9.39474867200755e-07,7.10352647081735e-07,0,0,0
2115.9936,-1.5167530949472e-07,-3.37372604148196e-08,-1.85412569909539e-07,7.7306744953844e-07,-2.99668416668602e-07,-2.99668416668603e-07,NaN,NaN,-5.06241918824031e-07,-1.65593693809577e-07,NaN,-1.5233267297885e-07,5.49777540702706e-08,-8.99331075045394e-08,-3.49553534339401e-08,NaN,-8.52898168458572e-09,-2.78113905776307e-10,1.83018241912846e-07,-2.18320478806162e-08,1.83018241912889e-07,-5.53057922380575e-07,-3.66190155764822e-07,-9.19248078146283e-07,2.83102200438424e-07,-8.58652115590029e-08,NaN,NaN,-2.0007337680681e-07,3.66408331672481e-07,3.46827043500119e-07,-3.45697654735043e-07,NaN,NaN,-1.38674721725403e-07,-2.77454293545056e-07,2.26500828423656e-07,-1.10368774072772e-07,-1.10368774072845e-07,9.59667964771517e-08,-9.16163984490151e-08,4.35039802827785e-09,7.08950695296103e-08,-9.8713485085296e-08,-2.78184155555202e-08,1.03671538913748e-06,NaN,-1.33658002257311e-07,NaN,-9.63588192800436e-07,6.82510865701961e-07,0,0,0
2116.096,-1.53156445195283e-07,-3.26463796665226e-08,-1.85802824861801e-07,7.18353358127419e-07,-2.92505400562829e-07,-2.92505400562824e-07,NaN,NaN,-5.04585116516547e-07,-1.65105091912116e-07,NaN,-1.55031792551743e-07,5.27770029069447e-08,-9.32256339405143e-08,-4.04486310332305e-08,NaN,-8.89412136056207e-09,-1.82480659793526e-09,1.87389252876627e-07,-1.09351872284811e-08,1.87389252876672e-07,-6.6723861952212e-07,-4.52150641986701e-07,-1.11938926150972e-06,2.63847833804821e-07,-9.43021755949971e-08,NaN,NaN,-1.96307793400766e-07,3.42728738196228e-07,3.50068388772262e-07,-3.40439424605287e-07,NaN,NaN,-1.49165457376619e-07,-2.81197827857005e-07,2.03294567786767e-07,-1.10710085046008e-07,-1.1071008504608e-07,1.1807422792317e-07,-9.52635621322419e-08,2.28106657910746e-08,9.27159468136526e-08,-1.16171513950604e-07,-2.34555671367826e-08,1.00786224385946e-06,NaN,-1.24706605208704e-07,NaN,-9.82907186082159e-07,6.52325135977516e-07,0,0,0
2116.1984,-1.53836165562077e-07,-3.17830342983426e-08,-1.85619199860411e-07,6.63867098529211e-07,-2.83696669424058e-07,-2.83696669424046e-07,NaN,NaN,-4.94645997995856e-07,-1.6421318928693e-07,NaN,-1.56926507964443e-07,5.00843575797362e-08,-9.59783867801616e-08,-4.58940292000748e-08,NaN,-9.16209140904525e-09,-3.96437770938479e-09,1.91405556000507e-07,1.05207811722027e-09,1.91405556000552e-07,-7.88234870755186e-07,-5.45908270242092e-07,-1.33414314099818e-06,2.43520904054833e-07,-1.02398485637894e-07,NaN,NaN,-1.91879703436779e-07,3.17559213350526e-07,3.55657490626555e-07,-3.35606598801811e-07,NaN,NaN,-1.59247279019979e-07,-2.83964489509728e-07,1.77549906279119e-07,-1.09561956669807e-07,-1.09561956669878e-07,1.4155033382609e-07,-9.90974184434872e-08,4.24529153827541e-08,1.15377588863511e-07,-1.32303895990966e-07,-1.69263071272836e-08,9.79616136936046e-07,NaN,-1.1380876253071e-07,NaN,-9.98271679594801e-07,6.21271728994844e-07,0,0,0
2116.3008,-1.53788835644992e-07,-3.09739128602133e-08,-1.84762748505193e-07,6.12629679906738e-07,-2.73520081859179e-07,-2.73520081859159e-07,NaN,NaN,-4.75393322005276e-07,-1.63029428817724e-07,NaN,-1.57950855534983e-07,4.66113998856919e-08,-9.78395178405246e-08,-5.12281179544694e-08,NaN,-9.29577219698839e-09,-6.63827191463548e-09,1.94930174350943e-07,1.40281945293484e-08,1.94930174350987e-07,-9.15447370701984e-07,-6.47453821451515e-07,-1.56290119215442e-06,2.23182435079048e-07,-1.09940688609366e-07,NaN,NaN,-1.8665954453786e-07,2.91819795886319e-07,3.63441715632538e-07,-3.31040771034473e-07,NaN,NaN,-1.68484165244716e-07,-2.85839633737324e-07,1.50314148872237e-07,-1.0699848843376e-07,-1.0699848843383e-07,1.66327692197553e-07,-1.03274494545778e-07,6.30531976519309e-08,1.387709925383e-07,-1.46730523020126e-07,-7.95953048165021e-09,9.53748267603861e-07,NaN,-1.00371840210767e-07,NaN,-1.0107739870853e-06,5.90840735270512e-07,0,0,0
2116.4032,-1.53085926989479e-07,-3.00274169022422e-08,-1.83113343891706e-07,5.67607387843788e-07,-2.62355535715686e-07,-2.62355535715656e-07,NaN,NaN,-4.46395048840534e-07,-1.61720710038303e-07,NaN,-1.58099375856563e-07,4.20767939437693e-08,-9.84524843157303e-08,-5.63756903715842e-08,NaN,-9.25486093785523e-09,-9.71660019211188e-09,1.97833343292396e-07,2.78087489241175e-08,1.9783334329244e-07,-1.04744835980194e-06,-7.55926511126874e-07,-1.80337487092975e-06,2.03979864723588e-07,-1.16726160695824e-07,NaN,NaN,-1.80464126009839e-07,2.66447225977295e-07,3.72637941632381e-07,-3.26093669046911e-07,NaN,NaN,-1.76439495910926e-07,-2.86885646621346e-07,1.22800590881182e-07,-1.03221415473623e-07,-1.03221415473693e-07,1.92245898043147e-07,-1.07918622794586e-07,8.43272752487216e-08,1.62762042015656e-07,-1.59189813619956e-07,3.57222839588063e-09,9.31590765757153e-07,NaN,-8.40712205412419e-08,NaN,-1.0215182197763e-06,5.62414729087412e-07,0,0,0
2116.5056,-1.51799303862387e-07,-2.87670487378853e-08,-1.80566352600256e-07,5.31295130632902e-07,-2.50646048752862e-07,-2.50646048752822e-07,NaN,NaN,-4.07974141287968e-07,-1.604773250463e-07,NaN,-1.57422608876454e-07,3.62724549556563e-08,-9.75270488897668e-08,-6.12545939337192e-08,NaN,-8.99871141555312e-09,-1.30040430805268e-08,1.99991145052393e-07,4.20890011491955e-08,1.99991145052436e-07,-1.18153592820188e-06,-8.6909635541885e-07,-2.05063228362167e-06,1.87028473961872e-07,-1.22557065312817e-07,NaN,NaN,-1.73130602518699e-07,2.4234125462651e-07,3.8202393246136e-07,-3.19921274111869e-07,NaN,NaN,-1.82712299701291e-07,-2.87109787548394e-07,9.62896237859008e-08,-9.85443977019899e-08,-9.85443977020605e-08,2.18975845126089e-07,-1.13078715436115e-07,1.0589712969014e-07,1.87116665112106e-07,-1.69516809932499e-07,1.75998551797931e-08,9.13736833257335e-07,NaN,-6.48564161859681e-08,NaN,-1.03133398427424e-06,5.37125038859047e-07,0,1,0
2116.608,-1.5000581259424e-07,-2.70603036497147e-08,-1.77066116243938e-07,5.05366377720494e-07,-2.38840919821315e-07,-2.38840919821265e-07,NaN,NaN,-3.61232888029148e-07,-1.59465664011141e-07,NaN,-1.56008582682104e-07,2.91350280118377e-08,-9.49146081138276e-08,-6.57795801015838e-08,NaN,-8.49094195484398e-09,-1.62475704564571e-08,2.01283924125817e-07,5.64153444894764e-08,2.01283924125858e-07,-1.31339877079939e-06,-9.82949871519525e-07,-2.29634864231987e-06,1.73291361387977e-07,-1.27233029261765e-07,NaN,NaN,-1.64606374189853e-07,2.20325664444057e-07,3.90227692357672e-07,-3.11837491978678e-07,NaN,NaN,-1.8696900207073e-07,-2.86438099198806e-07,7.2014483907501e-08,-9.33621150059091e-08,-9.33621150059809e-08,2.45964783521533e-07,-1.18692355649939e-07,1.27272427871764e-07,2.11429383749864e-07,-1.77600694533574e-07,3.38286892164816e-08,8.99852846682207e-07,NaN,-4.2909683841082e-08,NaN,-1.04052145861617e-06,5.15740008665366e-07,0,1,0
2116.7104,-1.47792913335804e-07,-2.48324075748794e-08,-1.72625320910666e-07,4.90524376284665e-07,-2.27346749822505e-07,-2.27346749822445e-07,NaN,NaN,-3.079176941989e-07,-1.58779071078381e-07,NaN,-1.53953049811747e-07,2.07988233119492e-08,-9.06601149258234e-08,-6.98612916134534e-08,NaN,-7.70505441062128e-09,-1.91442860361964e-08,2.01597050726368e-07,7.0181605583971e-08,2.01597050726406e-07,-1.43704692840254e-06,-1.09156755056593e-06,-2.52861447896943e-06,1.63494791613465e-07,-1.30546331634289e-07,NaN,NaN,-1.55003848815655e-07,2.01142090136246e-07,3.95981559341205e-07,-3.01556665807637e-07,NaN,NaN,-1.88961189759206e-07,-2.84707174769757e-07,5.10629078986878e-08,-8.81060473395983e-08,-8.81060473396718e-08,2.7243180048896e-07,-1.2456938187316e-07,1.47862418615972e-07,2.35080264908859e-07,-1.83330957671157e-07,5.17493072378976e-08,8.88687141586676e-07,NaN,-1.8566630874392e-08,NaN,-1.04873971941834e-06,4.98630483180132e-07,0,1,0
2116.8128,-1.45253511685949e-07,-2.20602861437727e-08,-1.67313797829706e-07,4.86593466944994e-07,-2.164868541837e-07,-2.16486854183629e-07,NaN,NaN,-2.50129074208754e-07,-1.5839782119583e-07,NaN,-1.51321916705204e-07,1.16108746249473e-08,-8.50051218095498e-08,-7.33942471841675e-08,NaN,-6.63043032969054e-09,-2.1347773144183e-08,2.00833523470775e-07,8.26710797293846e-08,2.00833523470811e-07,-1.5452560122168e-06,-1.18755458164935e-06,-2.73281059386713e-06,1.58096188730989e-07,-1.32287354599764e-07,NaN,NaN,-1.445775533413e-07,1.8546902358992e-07,3.98231636288717e-07,-2.89194050776254e-07,NaN,NaN,-1.88530627115343e-07,-2.81682234576869e-07,3.43085879724085e-08,-8.31918163787444e-08,-8.31918163788203e-08,2.97444108808748e-07,-1.30406631887884e-07,1.67037476921041e-07,2.57256730759194e-07,-1.86553774143451e-07,7.0702956615942e-08,8.78249652499582e-07,NaN,7.8134292656755e-09,NaN,-1.05508424049992e-06,4.85813274466819e-07,0,0,0
2116.9152,-1.42458419588372e-07,-1.87513407077134e-08,-1.61209760296069e-07,4.92783243369356e-07,-2.06455556935365e-07,-2.06455556935283e-07,NaN,NaN,-1.89938464837173e-07,-1.58168645100235e-07,NaN,-1.48114521864039e-07,2.10066177544137e-09,-7.83347573595752e-08,-7.6234095583686e-08,NaN,-5.27672595299007e-09,-2.24729779559671e-08,1.98944749240238e-07,9.31465466846011e-08,1.98944749240272e-07,-1.63059291215084e-06,-1.26308969390928e-06,-2.89368260606111e-06,1.57303499368396e-07,-1.32264127290312e-07,NaN,NaN,-1.33629445812562e-07,1.73937150058651e-07,3.9609367585434e-07,-2.7503633199094e-07,NaN,NaN,-1.85606707777825e-07,-2.77096943594752e-07,2.2380934618215e-08,-7.89704679951231e-08,-7.89704679952019e-08,3.20070488793602e-07,-1.35832031821749e-07,1.84238456972031e-07,2.77055697129301e-07,-1.87060192556012e-07,8.99955045734894e-08,8.66048533261693e-07,NaN,3.60048500327098e-08,NaN,-1.0582852039712e-06,4.77037130351313e-07,0,0,0
2117.0176,-1.394140061655e-07,-1.4918283162196e-08,-1.54332289327682e-07,5.08003939434972e-07,-1.97270406222695e-07,-1.97270406222605e-07,NaN,NaN,-1.29030133756325e-07,-1.57814546290249e-07,NaN,-1.44242855075251e-07,-7.08908118607175e-09,-7.10878792132297e-08,-7.81769603988427e-08,NaN,-3.67356434559489e-09,-2.21047423743068e-08,1.95971204822651e-07,1.00959866580637e-07,1.95971204822684e-07,-1.68671824378496e-06,-1.31126807364655e-06,-2.99798631743251e-06,1.61133187782238e-07,-1.30330909628096e-07,NaN,NaN,-1.22397356199725e-07,1.6711693128685e-07,3.88749438577974e-07,-2.59241698794066e-07,NaN,NaN,-1.80199399430271e-07,-2.70699803839543e-07,1.5683551076051e-08,-7.56987475893896e-08,-7.56987475894721e-08,3.39557358318355e-07,-1.4046283183912e-07,1.99094526479415e-07,2.93631990290393e-07,-1.84606390435485e-07,1.09025599855109e-07,8.49333138152762e-07,NaN,6.60422894319572e-08,NaN,-1.05690844025491e-06,4.71872376071791e-07,0,0,0
2117.12,-1.36031502988356e-07,-1.0561471293615e-08,-1.46592974281959e-07,5.31121518561138e-07,-1.88748177621402e-07,-1.88748177621305e-07,NaN,NaN,-6.84883231429408e-08,-1.5697902186256e-07,NaN,-1.39540694041888e-07,-1.52943933724764e-08,-6.36655780080735e-08,-7.89599713800827e-08,NaN,-1.86454489002877e-09,-1.98199363324239e-08,1.92072154047327e-07,1.05643359719666e-07,1.92072154047359e-07,-1.70949301094473e-06,-1.32724551588924e-06,-3.03673852683497e-06,1.69482360526908e-07,-1.26416781619122e-07,NaN,NaN,-1.10982707552645e-07,1.65475473614277e-07,3.75393504548201e-07,-2.41650147516853e-07,NaN,NaN,-1.72390596438566e-07,-2.62294457914179e-07,1.44546554103126e-08,-7.35350018976521e-08,-7.35350018977386e-08,3.55457328741627e-07,-1.43960889060836e-07,2.11496439680972e-07,3.06333518831675e-07,-1.78950506660643e-07,1.2738301217123e-07,8.25394957578182e-07,NaN,9.82705669277685e-08,NaN,-1.04949718150366e-06,4.69782942786504e-07,0,0,0
2117.2224,-1.32135066366654e-07,-5.66510979187547e-09,-1.3780017615852e-07,5.61093411924289e-07,-1.8053427348086e-07,-1.80534273480759e-07,NaN,NaN,-8.78880552579122e-09,-1.5529565503378e-07,NaN,-1.33805970456225e-07,-2.19262020360545e-08,-5.63683025916575e-08,-7.82945046272389e-08,NaN,1.01487814361717e-10,-1.52313546262268e-08,1.87524462929754e-07,1.06961792688435e-07,1.87524462929788e-07,-1.69757312378374e-06,-1.30886680618241e-06,-3.00643992996716e-06,1.82182154298614e-07,-1.20547554726077e-07,NaN,NaN,-9.93364841565078e-08,1.69316459103827e-07,3.55272575395489e-07,-2.21776874445625e-07,NaN,NaN,-1.62327921873938e-07,-2.51770921920742e-07,1.88325320452068e-08,-7.25537869740086e-08,-7.25537869740992e-08,3.67671186235183e-07,-1.46075545309943e-07,2.2159564092542e-07,3.14786216509252e-07,-1.69901759197663e-07,1.44884457311783e-07,7.91948040781062e-07,NaN,1.33285775780094e-07,NaN,-1.03468785630559e-06,4.701806683507e-07,0,0,0
2117.3248,-1.27514962743862e-07,-2.07161216457587e-10,-1.27722123960312e-07,5.96973330563899e-07,-1.72192283275428e-07,-1.72192283275325e-07,NaN,NaN,5.00241579246972e-08,-1.52464023365438e-07,NaN,-1.26865675092892e-07,-2.65518450611547e-08,-4.93748912667379e-08,-7.59267363274169e-08,NaN,2.17770572545569e-09,-8.05081202023604e-09,1.8268710368342e-07,1.04924531401165e-07,1.82687103683458e-07,-1.65246057182126e-06,-1.25675894940594e-06,-2.90921952122824e-06,1.99004811653686e-07,-1.12858867695323e-07,NaN,NaN,-8.72940810384653e-08,1.78717072754421e-07,3.27800287021571e-07,-1.9895776500052e-07,NaN,NaN,-1.50224701648455e-07,-2.39130088235513e-07,2.88791921328759e-08,-7.27662634552563e-08,-7.27662634553514e-08,3.76406944873135e-07,-1.46671735141538e-07,2.29735209731777e-07,3.18929196972905e-07,-1.57389085354845e-07,1.61540111618245e-07,7.47509686193705e-07,NaN,1.71748707523167e-07,NaN,-1.01137076881489e-06,4.72466643054759e-07,0,0,0
2117.4272,-1.22005689794237e-07,5.82209868416086e-09,-1.16183591110072e-07,6.37800624195379e-07,-1.63326501741258e-07,-1.63326501741156e-07,NaN,NaN,1.08049280663599e-07,-1.48312835723171e-07,NaN,-1.18643598943611e-07,-2.89463722649339e-08,-4.27610792980641e-08,-7.17074515625226e-08,NaN,4.32271694182038e-09,1.84289468221911e-09,1.7794728942278e-07,9.97701197710118e-08,1.77947289422824e-07,-1.5782025236792e-06,-1.17408382366273e-06,-2.75228634734297e-06,2.1961588680878e-07,-1.0360257731778e-07,NaN,NaN,-7.46452815901879e-08,1.93466114430715e-07,2.9272222528159e-07,-1.72588394503406e-07,NaN,NaN,-1.36369165599245e-07,-2.24503146959883e-07,4.45364083174257e-08,-7.41377834789202e-08,-7.41377834790199e-08,3.82088634643564e-07,-1.45744491497107e-07,2.36344143146635e-07,3.19018420160767e-07,-1.41543888571364e-07,1.77474531589579e-07,6.9168535563611e-07,NaN,2.14105312992091e-07,NaN,-9.78921946326152e-07,4.76051861052481e-07,0,0,0
2117.5296,-1.15557797692021e-07,1.23999650484184e-08,-1.03157832643601e-07,6.82426309287749e-07,-1.5369313764309e-07,-1.53693137642992e-07,NaN,NaN,1.65227543157964e-07,-1.42837193875853e-07,NaN,-1.09210246678227e-07,-2.91078098128966e-08,-3.65437216843301e-08,-6.56515314967548e-08,NaN,6.50021150361011e-09,1.43486628675472e-08,1.73667734549298e-07,9.19388612734483e-08,1.73667734549349e-07,-1.48096072660779e-06,-1.0661728539275e-06,-2.54713358053633e-06,2.43490677147062e-07,-9.31486257789285e-08,NaN,NaN,-6.12241598669037e-08,2.13009868246872e-07,2.50307211768691e-07,-1.42397704248965e-07,NaN,NaN,-1.21142464210018e-07,-2.08165374327703e-07,6.55266915892537e-08,-7.65983423207173e-08,-7.65983423208212e-08,3.85258400320869e-07,-1.43423036818754e-07,2.41835363502291e-07,3.15612165243513e-07,-1.22771456453999e-07,1.92840708789678e-07,6.25323041949427e-07,NaN,2.60306213706921e-07,NaN,-9.37462325990947e-07,4.80356698027403e-07,0,0,0
2117.632,-1.0827883654038e-07,1.94566746192412e-08,-8.88221619211395e-08,7.29366259069075e-07,-1.43263943741746e-07,-1.43263943741654e-07,NaN,NaN,2.21129441465422e-07,-1.36203339662528e-07,NaN,-9.87999478265784e-08,-2.72417699198665e-08,-3.07288413458891e-08,-5.79706112652899e-08,NaN,8.67674960214163e-09,2.91141806667464e-08,1.70145018470183e-07,8.20414451873401e-08,1.70145018470244e-07,-1.36853419502091e-06,-9.40132837588926e-07,-2.3086670326109e-06,2.69839118640269e-07,-8.19792358867466e-08,NaN,NaN,-4.69914797158716e-08,2.36428733642882e-07,2.01513987991341e-07,-1.08674905724489e-07,NaN,NaN,-1.05036362325706e-07,-1.90541253590715e-07,9.12487074390899e-08,-8.00430001441715e-08,-8.00430001442801e-08,3.86503771281283e-07,-1.39966467944626e-07,2.4653730333683e-07,3.09537836972619e-07,-1.0177986376313e-07,2.07757973209639e-07,5.50547179957363e-07,NaN,3.09619168722145e-07,NaN,-8.88054724206073e-07,4.84817970594318e-07,0,0,0
2117.7344,-1.00432483384077e-07,2.68715938424911e-08,-7.35608895415894e-08,7.76763154338514e-07,-1.32227316051303e-07,-1.3222731605122e-07,NaN,NaN,2.74896465619209e-07,-1.2872276170812e-07,NaN,-8.77917169712474e-08,-2.37244609304299e-08,-2.53428735806772e-08,-4.90673345106495e-08,NaN,1.08199880202591e-08,4.55425099652119e-08,1.67581310757236e-07,7.08182023517381e-08,1.67581310757307e-07,-1.24977729769344e-06,-8.04357798000473e-07,-2.05413509569499e-06,2.97587145612986e-07,-7.06675098394885e-08,NaN,NaN,-3.20782306703273e-08,2.62471992888032e-07,1.4804988506955e-07,-7.23573079923187e-08,NaN,NaN,-8.86536485099789e-08,-1.72193362293355e-07,1.20729053418386e-07,-8.43246205379224e-08,-8.43246205380354e-08,3.86411339188832e-07,-1.35747540916831e-07,2.50663798272171e-07,3.01829604274708e-07,-7.95443880092642e-08,2.22285216265578e-07,4.70672877152989e-07,NaN,3.60589520805121e-07,NaN,-8.32737668535128e-07,4.88930267646456e-07,1,0,0
2117.8368,-9.24006927766875e-08,3.44815855519611e-08,-5.79191072247311e-08,8.22484801554552e-07,-1.20937186289894e-07,-1.20937186289822e-07,NaN,NaN,3.25339481075576e-07,-1.20805576961324e-07,NaN,-7.66622030882031e-08,-1.90487818667865e-08,-2.0440758978924e-08,-3.9489540845263e-08,NaN,1.28982290166549e-08,6.28388255120399e-08,1.66069361803777e-07,5.90757228137351e-08,1.6606936180386e-07,-1.13381042151427e-06,-6.67815373309714e-07,-1.80162579482507e-06,3.25439403812407e-07,-5.98331565835008e-08,NaN,NaN,-1.67831713458204e-08,2.89661465826349e-07,9.22576441739684e-08,-3.49418838372297e-08,NaN,NaN,-7.26756305005771e-08,-1.53783570283539e-07,1.52669070279614e-07,-8.9246506899669e-08,-8.92465068997862e-08,3.85523602445715e-07,-1.3121681432494e-07,2.5430678812094e-07,2.9362679014368e-07,-5.72053259390432e-08,2.36421464204755e-07,3.89959751909745e-07,NaN,4.11161798020392e-07,NaN,-7.74334288799043e-07,4.92306626637074e-07,1,0,0
2117.9392,-8.46250388728129e-08,4.20988260691972e-08,-4.2526212803621e-08,8.64335902541348e-07,-1.09836619933679e-07,-1.09836619933619e-07,NaN,NaN,3.71146736600073e-07,-1.12904221798203e-07,NaN,-6.59230359980634e-08,-1.37551163112339e-08,-1.6098492187602e-08,-2.98536084983992e-08,NaN,1.48808746544388e-08,8.00952941132767e-08,1.65590783492468e-07,4.75940086629031e-08,1.65590783492562e-07,-1.02898853130975e-06,-5.39053639153329e-07,-1.56804217046418e-06,3.5201423740442e-07,-5.00746241895922e-08,NaN,NaN,-1.54504849233544e-09,3.16452283273334e-07,3.68433145480558e-08,1.73062529403001e-09,NaN,NaN,-5.77928680283712e-08,-1.36000104471209e-07,1.85581954527223e-07,-9.45601932348805e-08,-9.45601932350014e-08,3.84280138582617e-07,-1.26843143471803e-07,2.57436995110975e-07,2.86037646831433e-07,-3.59206478790209e-08,2.50116998952514e-07,3.13168847239651e-07,NaN,4.58944105161687e-07,NaN,-7.16065079414056e-07,4.94715426059331e-07,1,0,0
2118.0416,-7.75431481963338e-08,4.95339935412013e-08,-2.80091546551372e-08,9.00337224703558e-07,-9.93801264706378e-08,-9.93801264705909e-08,NaN,NaN,4.11148352051673e-07,-1.05456150273e-07,NaN,-5.60533543409083e-08,-8.35540321438595e-09,-1.23982432542022e-08,-2.07536464681629e-08,NaN,1.67394879628444e-08,9.64000652193542e-08,1.66026818402838e-07,3.70166975415274e-08,1.66026818402943e-07,-9.4176748313138e-07,-4.25077681706396e-07,-1.3668451648389e-06,3.76015901792086e-07,-4.18882129321984e-08,NaN,NaN,1.30906453261945e-08,3.41418547134101e-07,-1.54702633961919e-08,3.57319551077588e-08,NaN,NaN,-4.46118931220671e-08,-1.19459972143338e-07,2.17978212305733e-07,-9.99686339390595e-08,-9.99686339391839e-08,3.82950818267287e-07,-1.23038199465047e-07,2.59912618802395e-07,2.79996167832162e-07,-1.67099705166152e-08,2.63286197315635e-07,2.44981143987533e-07,NaN,5.01570092529418e-07,NaN,-6.61081992119409e-07,4.96066096391814e-07,0,0,0
2118.144,-7.15308609357789e-08,5.66212774850603e-08,-1.49095834507217e-08,9.29023576074362e-07,-8.99673453815101e-08,-8.99673453814747e-08,NaN,NaN,4.44595350216809e-07,-9.88338368404082e-08,NaN,-4.7438178570811e-08,-3.26952196041382e-09,-9.4083265395653e-09,-1.26778484995652e-08,NaN,1.84493730566454e-08,1.10944694384639e-07,1.67176983704896e-07,2.77564969728077e-08,1.6717698370501e-07,-8.75780052680071e-07,-3.30417548343543e-07,-1.20619760102476e-06,3.96400864068801e-07,-3.55952886738685e-08,NaN,NaN,2.65085651909939e-08,3.63419192884915e-07,-6.22630948771873e-08,6.5276690619793e-08,NaN,NaN,-3.35630934364133e-08,-1.04612762480416e-07,2.4854521301199e-07,-1.05134740697439e-07,-1.05134740697566e-07,3.81593555681645e-07,-1.20085762943265e-07,2.61507792738532e-07,2.76152707550407e-07,-3.27986856856071e-10,2.75824720693625e-07,1.89423089358271e-07,NaN,5.37080088666178e-07,NaN,-6.12059777250421e-07,4.96360670778209e-07,0,0,0
2118.2464,-6.68584898922832e-08,6.32410708506485e-08,-3.61741904163509e-09,9.49706259274822e-07,-8.18963177725151e-08,-8.18963177724905e-08,NaN,NaN,4.71392255180643e-07,-9.33101611548212e-08,NaN,-4.03250172213796e-08,1.20793249106731e-09,-7.16064647525451e-09,-5.95271398378389e-09,NaN,1.99910312533571e-08,1.2310375689945e-07,1.6877867082418e-07,1.99523761108907e-08,1.68778670824302e-07,-8.31463645159841e-07,-2.567055768047e-07,-1.08816922196571e-06,4.12503459558045e-07,-3.13008101794276e-08,NaN,NaN,3.80709925851611e-08,3.81704754997027e-07,-1.01645734998019e-07,8.89014822071477e-08,NaN,NaN,-2.48370405950365e-08,-9.16765736945232e-08,2.76282926229457e-07,-1.09698761523941e-07,-1.0969876152407e-07,3.80072104882805e-07,-1.1810141273311e-07,2.61970692149841e-07,2.74827816952017e-07,1.28054260318043e-08,2.87633242983884e-07,1.4941210145821e-07,NaN,5.64223960002714e-07,NaN,-5.7091645762196e-07,4.95660424291664e-07,0,0,0
2118.3488,-6.36673327314044e-08,6.93343005884064e-08,5.66696785700499e-09,9.62625566025459e-07,-7.53433907372675e-08,-7.53433907372526e-08,NaN,NaN,4.92189380327716e-07,-8.90451925698461e-08,NaN,-3.48102450994343e-08,4.90686649322778e-09,-5.63322182342971e-09,-7.26355329809318e-10,NaN,2.13508741725471e-08,1.32472394468707e-07,1.70524506716075e-07,1.34957972362084e-08,1.70524506716204e-07,-8.06406685608046e-07,-2.02894161838232e-07,-1.00930084744747e-06,4.24100986679778e-07,-2.88963893992575e-08,NaN,NaN,4.71762675053347e-08,3.95947436839987e-07,-1.32382511110959e-07,1.05593450220557e-07,NaN,NaN,-1.83673250121873e-08,-8.06250109777513e-08,3.00585943839165e-07,-1.13308649790717e-07,-1.13308649790847e-07,3.78140472529308e-07,-1.17036541731588e-07,2.61103930797862e-07,2.76027064108825e-07,2.261349613086e-08,2.98640560239739e-07,1.2644807495278e-07,NaN,5.82618130726097e-07,NaN,-5.38664464545229e-07,4.94095973643489e-07,0,0,0
2118.4512,-6.19687780066448e-08,7.49029571617588e-08,1.29341791551216e-08,9.68926168330856e-07,-7.03707305539495e-08,-7.03707305539428e-08,NaN,NaN,5.08272629661813e-07,-8.60952802929482e-08,NaN,-3.08583967072902e-08,7.75781068772162e-09,-4.74546473876953e-09,3.01234594933489e-09,NaN,2.25215101887515e-08,1.38863754222821e-07,1.72079013700965e-07,8.10929770264437e-09,1.72079013701098e-07,-7.96255189078034e-07,-1.65965834560099e-07,-9.62221023639346e-07,4.3141263816263e-07,-2.81027941783451e-08,NaN,NaN,5.33192307987888e-08,4.0620440988907e-07,-1.5392747735608e-07,1.14867138113442e-07,NaN,NaN,-1.38608207830991e-08,-7.12230649804201e-08,3.21276794112481e-07,-1.15659647374817e-07,-1.15659647374947e-07,3.75556395383648e-07,-1.16717920537588e-07,2.58838474846198e-07,2.79486219227207e-07,2.93252356847123e-08,3.08811454911966e-07,1.20466281739921e-07,NaN,5.92745376789114e-07,NaN,-5.15385303322036e-07,4.91896259241508e-07,0,0,0
2118.5536,-6.16656294786737e-08,7.99957822285681e-08,1.83301527499069e-08,9.70446597006775e-07,-6.69550625878536e-08,-6.69550625878547e-08,NaN,NaN,5.21283278205593e-07,-8.44376193836899e-08,NaN,-2.83445524101542e-08,9.75943838316142e-09,-4.36784166206094e-09,5.39159672147454e-09,NaN,2.35018693733785e-08,1.42278877293546e-07,1.73095489925703e-07,3.44012733345355e-09,1.7309548992584e-07,-7.95783188320607e-07,-1.41803423139003e-07,-9.3758661146084e-07,4.35037117053073e-07,-2.85330125713458e-08,NaN,NaN,5.61463804204745e-08,4.12842411263936e-07,-1.66394704615186e-07,1.16784848423157e-07,NaN,NaN,-1.08619305953577e-08,-6.30950230319425e-08,3.38589494119942e-07,-1.16529292421711e-07,-1.16529292421841e-07,3.72169205472905e-07,-1.16900927748687e-07,2.55268277724353e-07,2.84714342281472e-07,3.34120086139956e-08,3.18126350895509e-07,1.29896538145559e-07,NaN,5.958195157522e-07,NaN,-5.00331688921018e-07,4.89394773114536e-07,0,0,0
2118.656,-6.25908453255069e-08,8.46826233729743e-08,2.20917780474848e-08,9.69368041351717e-07,-6.50268558993211e-08,-6.50268558993296e-08,NaN,NaN,5.32861410811004e-07,-8.39980497065203e-08,NaN,-2.71025663470725e-08,1.09487526146372e-08,-4.34274605302099e-09,6.606006561982e-09,NaN,2.42963621270368e-08,1.42864095571005e-07,1.7323335391957e-07,-8.59112881397362e-10,1.73233353919708e-07,-7.9979850003285e-07,-1.25948639336707e-07,-9.25747139370807e-07,4.3583685679674e-07,-2.97578929826443e-08,NaN,NaN,5.5504130627999e-08,4.16447876332626e-07,-1.70482439048952e-07,1.11924590413038e-07,NaN,NaN,-8.83492822725971e-09,-5.58060802796751e-08,3.5309110207435e-07,-1.15795663938055e-07,-1.15795663938184e-07,3.67952861666891e-07,-1.17320154348692e-07,2.50632707318331e-07,2.91025690741179e-07,3.55083331471718e-08,3.26534023888388e-07,1.51929327613359e-07,NaN,5.93550909887719e-07,NaN,-4.92135540618612e-07,4.86994735746455e-07,0,0,0
2118.7584,-6.45523439961244e-08,8.90241835746506e-08,2.44718395785487e-08,9.67788902406577e-07,-6.45068727251058e-08,-6.450687272512e-08,NaN,NaN,5.44303626365379e-07,-8.46701141915058e-08,NaN,-2.6963162009712e-08,1.13829123739698e-08,-4.51273981540561e-09,6.8701725589221e-09,NaN,2.49124968819148e-08,1.40870456138357e-07,1.72180810302362e-07,-5.06979762413681e-09,1.72180810302501e-07,-8.03797643322308e-07,-1.14181162047162e-07,-9.17978805370733e-07,4.34779732687184e-07,-3.13649084516858e-08,NaN,NaN,5.14752700890541e-08,4.17733268558358e-07,-1.67365612686834e-07,1.0130727598816e-07,NaN,NaN,-7.25197321207042e-09,-4.89428562490941e-08,3.65534753200485e-07,-1.13438385898927e-07,-1.13438385899055e-07,3.62990904687609e-07,-1.17732172376169e-07,2.45258732311569e-07,2.97578234748797e-07,3.63183251452957e-08,3.33896559894128e-07,1.82910813506793e-07,NaN,5.87856294551695e-07,NaN,-4.89061883138776e-07,4.85092306376281e-07,0,0,0
2118.8608,-6.73716922676423e-08,9.30464920966894e-08,2.56747998290747e-08,9.67317046763656e-07,-6.53297236433529e-08,-6.53297236433729e-08,NaN,NaN,5.56307154984397e-07,-8.63185769334575e-08,NaN,-2.77716862571544e-08,1.11374935330929e-08,-4.75141116978667e-09,6.38608236365694e-09,NaN,2.53581096901218e-08,1.36627310965165e-07,1.69689679133074e-07,-9.36445081262579e-09,1.69689679133213e-07,-8.04410725548727e-07,-1.02978186682853e-07,-9.07388912232858e-07,4.32763233893978e-07,-3.30044374033329e-08,NaN,NaN,4.43935267912254e-08,4.17448057107479e-07,-1.58563078107548e-07,8.62907942161355e-08,NaN,NaN,-5.67318458990066e-09,-4.21804363109625e-08,3.76663984789005e-07,-1.0952934762266e-07,-1.09529347622787e-07,3.5743678073859e-07,-1.1794998528187e-07,2.39486795456846e-07,3.03445153842789e-07,3.65070987568436e-08,3.39952252599665e-07,2.18771888869163e-07,NaN,5.80550563014078e-07,NaN,-4.89244439956122e-07,4.8397087368498e-07,0,0,0
2118.9632,-7.09079565179227e-08,9.67293212053987e-08,2.58213646875077e-08,9.68795166939255e-07,-6.74490433714818e-08,-6.74490433715074e-08,NaN,NaN,5.68863582189241e-07,-8.8769452000793e-08,NaN,-2.93832070670061e-08,1.03163631816324e-08,-4.98793610114743e-09,5.32842708082835e-09,NaN,2.56404952729778e-08,1.30533933782341e-07,1.65622023326434e-07,-1.37824064119519e-08,1.65622023326573e-07,-7.9966405531102e-07,-8.99108536248978e-08,-8.89574908937208e-07,4.30464274666831e-07,-3.44182138368288e-08,NaN,NaN,3.48255602421131e-08,4.16305504832737e-07,-1.45785213435947e-07,6.84364957026848e-08,NaN,NaN,-3.80215122287649e-09,-3.53263528154896e-08,3.87019033169082e-07,-1.04219777792086e-07,-1.04219777792212e-07,3.51474276144235e-07,-1.17868307205759e-07,2.336059689386e-07,3.07727989115998e-07,3.65911779836705e-08,3.44319167099699e-07,2.55418700589546e-07,NaN,5.73065645643015e-07,NaN,-4.90873992346594e-07,4.83709950378193e-07,0,1,0
2119.0656,-7.50596726661655e-08,1.00012379151699e-07,2.49527064855696e-08,9.72240912402483e-07,-7.0820774064962e-08,-7.08207740649934e-08,NaN,NaN,5.81335105767553e-07,-9.17979678596001e-08,NaN,-3.16430428959968e-08,9.05935766656337e-09,-5.21297589296933e-09,3.84638177393091e-09,NaN,2.57685162850064e-08,1.23058709729733e-07,1.59996047585019e-07,-1.82260497402069e-08,1.59996047585159e-07,-7.89081700117635e-07,-7.39703478637592e-08,-8.63052047982702e-07,4.28259175048134e-07,-3.54486196963786e-08,NaN,NaN,2.35127074083216e-08,4.14929813001291e-07,-1.30780486700403e-07,4.93661083185231e-08,NaN,NaN,-1.50500290702496e-09,-2.83365188465562e-08,3.96810686094492e-07,-9.77276454043384e-08,-9.77276454044633e-08,3.45299299444588e-07,-1.17477643252663e-07,2.27821656192047e-07,3.09689574973627e-07,3.68619593084106e-08,3.46551534282066e-07,2.89017593587321e-07,NaN,5.66270273091743e-07,NaN,-4.92337504949842e-07,4.84167692729055e-07,0,1,0
2119.168,-7.97456317307494e-08,1.02814086615738e-07,2.30684548850291e-08,9.76990930040315e-07,-7.53705150613669e-08,-7.5370515061404e-08,NaN,NaN,5.92667480514177e-07,-9.51284137282582e-08,NaN,-3.43698671297951e-08,7.53504192935183e-09,-5.45960688213932e-09,2.07543504754283e-09,NaN,2.57556206696975e-08,1.14725593651329e-07,1.53010009101334e-07,-2.24757022082489e-08,1.53010009101474e-07,-7.73644883452774e-07,-5.57394842204109e-08,-8.293843676745e-07,4.26232825841317e-07,-3.60336098012359e-08,NaN,NaN,1.12787297023149e-08,4.13822099627225e-07,-1.15210790298388e-07,3.06422108251864e-08,NaN,NaN,1.20619060035957e-09,-2.13043206635143e-08,4.05909725843744e-07,-9.03239244559679e-08,-9.03239244560922e-08,3.39131588219818e-07,-1.16864903618566e-07,2.22266684601371e-07,3.08865075992924e-07,3.73656377360605e-08,3.4623071372901e-07,3.16120217763629e-07,NaN,5.60443205256102e-07,NaN,-4.92293243574607e-07,4.85061124795053e-07,0,1,0
2119.2704,-8.48795235993464e-08,1.05052080672623e-07,2.01725570733201e-08,9.81954913479321e-07,-8.09673509112534e-08,-8.09673509112954e-08,NaN,NaN,6.01630658207828e-07,-9.84506034046461e-08,NaN,-3.73554256057636e-08,5.91905595981189e-09,-5.76884912227593e-09,1.50206837859915e-10,NaN,2.56204415730072e-08,1.06076873261747e-07,1.45027409954488e-07,-2.62186367063185e-08,1.4502740995463e-07,-7.55575076608393e-07,-3.72904322792395e-08,-7.92865508888963e-07,4.24259373839647e-07,-3.61933592298583e-08,NaN,NaN,-1.07096729540613e-09,4.13349344477159e-07,-1.00570788204334e-07,1.36925343705332e-08,NaN,NaN,4.21351094164589e-09,-1.4429922075005e-08,4.13952934841101e-07,-8.23096096646086e-08,-8.23096096647324e-08,3.33242149128342e-07,-1.16199245500022e-07,2.17042903628437e-07,3.05115521303236e-07,3.79259364946334e-08,3.43041457797893e-07,3.33642650064192e-07,NaN,5.55369448439038e-07,NaN,-4.89662162799113e-07,4.86105121232401e-07,0,0,0
2119.3728,-9.03575242437725e-08,1.06656797862703e-07,1.62992736189764e-08,9.85865173044647e-07,-8.74267542026423e-08,-8.742675420269e-08,NaN,NaN,6.06995280889019e-07,-1.01446253531882e-07,NaN,-4.03807403936139e-08,4.37109875045837e-09,-6.16036318411454e-09,-1.78926443333797e-09,NaN,2.53842603294844e-08,9.76225965906468e-08,1.3652499595068e-07,-2.90882107643202e-08,1.36524995950825e-07,-7.37912004353825e-07,-2.17767319545957e-08,-7.59688736309765e-07,4.22111838119095e-07,-3.6012511728519e-08,NaN,NaN,-1.28287360844171e-08,4.13761531468068e-07,-8.81374790929097e-08,-2.36426678318516e-10,NaN,NaN,7.33951732455202e-09,-7.9804866035283e-09,4.20514748421139e-07,-7.39774881602669e-08,-7.39774881603906e-08,3.27967796065336e-07,-1.15704723185525e-07,2.12263072879926e-07,2.98616213545886e-07,3.81783381345678e-08,3.36794551680475e-07,3.38800531276062e-07,NaN,5.50485471391186e-07,NaN,-4.83553301766029e-07,4.87133757913043e-07,0,0,0
2119.4752,-9.60684419602623e-08,1.07574972395605e-07,1.15065304353901e-08,9.87440574556815e-07,-9.45471550220769e-08,-9.45471550221304e-08,NaN,NaN,6.07600056520776e-07,-1.03818621994133e-07,NaN,-4.32416413360244e-08,3.02134204007491e-09,-6.62403176474795e-09,-3.6026897243601e-09,NaN,2.50670098440285e-08,8.9794237760241e-08,1.280218170764e-07,-3.07077508752037e-08,1.28021817076549e-07,-7.23982303721695e-07,-1.28451802392829e-08,-7.36827483962332e-07,4.19552385595997e-07,-3.56219864795257e-08,NaN,NaN,-2.34279274558495e-08,4.15223833352215e-07,-7.89300760215432e-08,-1.01240079647504e-08,NaN,NaN,1.03829612466663e-08,-2.25260262530722e-09,4.25264557927456e-07,-6.55663719694595e-08,-6.55663719695837e-08,3.23692495698492e-07,-1.15625577566243e-07,2.08066918132362e-07,2.89798152773702e-07,3.76016051647892e-08,3.27399757938508e-07,3.29108053115439e-07,NaN,5.45030754529972e-07,NaN,-4.73172899289077e-07,4.88142966282389e-07,0,0,0
2119.5776,-1.0192298701127e-07,1.07764207576912e-07,5.84122056568951e-09,9.85444265461006e-07,-1.02165470548139e-07,-1.021654705482e-07,NaN,NaN,6.02312352741296e-07,-1.05324597902055e-07,NaN,-4.57792048485237e-08,1.96592257363008e-09,-7.13311541259378e-09,-5.16719283865549e-09,NaN,2.46829817479123e-08,8.29101422492115e-08,1.20009392890275e-07,-3.07348554052079e-08,1.20009392890429e-07,-7.16906255048141e-07,-1.40305911779736e-08,-7.3093684622748e-07,4.16371136710299e-07,-3.51837600761947e-08,NaN,NaN,-3.24545636604691e-08,4.17835841767172e-07,-7.36826775887811e-08,-1.52241404224565e-08,NaN,NaN,1.31352842439915e-08,2.45751625684233e-09,4.28045135735147e-07,-5.72268216161364e-08,-5.72268216162615e-08,3.20794146380583e-07,-1.16190817093001e-07,2.04603329287694e-07,2.79266886705118e-07,3.55553782322974e-08,3.14822264937429e-07,3.02472498519636e-07,NaN,5.38195076805508e-07,NaN,-4.57757690020602e-07,4.89242886736465e-07,0,0,0
2119.68,-1.07885981476397e-07,1.07184004297915e-07,-7.01977178435985e-10,9.78678430411655e-07,-1.10203613581499e-07,-1.10203613581566e-07,NaN,NaN,5.89960294224796e-07,-1.05807020511572e-07,NaN,-4.79086744661047e-08,1.26519814483592e-09,-7.6663327029731e-09,-6.40113455783312e-09,NaN,2.42367896491142e-08,7.71530573918285e-08,1.12893568317994e-07,-2.89077147720716e-08,1.12893568318154e-07,-7.19181206973275e-07,-2.81930181456679e-08,-7.47374225120324e-07,4.12375773250849e-07,-3.48774130908358e-08,NaN,NaN,-3.96364835266603e-08,4.21622859007459e-07,-7.28486783058762e-08,-1.50994399563618e-08,NaN,NaN,1.53840924600998e-08,5.88005891756395e-09,4.28861220998535e-07,-4.9013460489436e-08,-4.90134604895622e-08,3.19568762244592e-07,-1.17580898654648e-07,2.01987863590054e-07,2.67718112456095e-07,3.13381516804729e-08,2.99056264136576e-07,2.57370889147485e-07,NaN,5.29252039218383e-07,NaN,-4.3655721211891e-07,4.9055228223851e-07,0,0,0
2119.7824,-1.13989206108112e-07,1.05791650404221e-07,-8.1975557038469e-09,9.65996719510918e-07,-1.18677264752226e-07,-1.18677264752302e-07,NaN,NaN,5.69366020063456e-07,-1.05219495002574e-07,NaN,-4.96344981771596e-08,9.40567208805215e-10,-8.22275010915677e-09,-7.28218290005093e-09,NaN,2.37214216416725e-08,7.25624462528432e-08,1.06951211479649e-07,-2.5095842959323e-08,1.06951211479817e-07,-7.32307113675718e-07,-5.69983522587976e-08,-7.89305465935914e-07,4.07364910264721e-07,-3.4883849432474e-08,NaN,NaN,-4.48150345185487e-08,4.26509363753338e-07,-7.66375531104447e-08,-9.62485754940265e-09,NaN,NaN,1.69195193057611e-08,7.8012619207872e-09,4.2781719029827e-07,-4.09054242469156e-08,-4.09054242470433e-08,3.20151967722681e-07,-1.19896915687079e-07,2.00255052035711e-07,2.55862036195056e-07,2.42738215568363e-08,2.80135857751895e-07,1.93096875910762e-07,NaN,5.17669582597985e-07,NaN,-4.08890388855429e-07,4.92087553144739e-07,0,0,0
2119.8848,-1.20309314527783e-07,1.03549866435739e-07,-1.67594480920032e-08,9.46409050086e-07,-1.27652232933015e-07,-1.27652232933099e-07,NaN,NaN,5.39562995251837e-07,-1.03637023898432e-07,NaN,-5.1042244268953e-08,9.69828361582695e-10,-8.82000809640568e-09,-7.85017973452502e-09,NaN,2.31213709977912e-08,6.90450105871275e-08,1.02302603588407e-07,-1.93496484873187e-08,1.02302603588585e-07,-7.5648100310237e-07,-1.00500893961193e-07,-8.56981897064975e-07,4.01126126360849e-07,-3.53634002142658e-08,NaN,NaN,-4.79116991121129e-08,4.32296896814393e-07,-8.50537100548763e-08,1.03143435174685e-09,NaN,NaN,1.75560185518722e-08,8.0988117642521e-09,4.25059833060361e-07,-3.28462378498564e-08,-3.28462378499859e-08,3.22459884256312e-07,-1.23134672512862e-07,1.99325211743559e-07,2.44359201897546e-07,1.38286003554838e-08,2.58187802253026e-07,1.10053437921681e-07,NaN,5.03199971884758e-07,NaN,-3.74285825092799e-07,4.9370037335183e-07,0,0,0
2119.9872,-1.26911675862739e-07,1.00446346546927e-07,-2.6465329315774e-08,9.1929257204121e-07,-1.37155824103346e-07,-1.37155824103438e-07,NaN,NaN,5.001492100993e-07,-1.01254350364696e-07,NaN,-5.22721379630567e-08,1.28131940881033e-09,-9.47644786235333e-09,-8.19512845324743e-09,NaN,2.24220832194982e-08,6.63993822873435e-08,9.88986509222407e-08,-1.19332308052881e-08,9.88986509224295e-08,-7.9048486939546e-07,-1.56973495226249e-07,-9.47458364623138e-07,3.93479732522134e-07,-3.64319612541527e-08,NaN,NaN,-4.89061166481396e-08,4.38662517939725e-07,-9.79125771993837e-08,1.64367041943596e-08,NaN,NaN,1.71675085344375e-08,6.77548455737154e-09,4.2076616093333e-07,-2.47923003740214e-08,-2.47923003741526e-08,3.26164414985322e-07,-1.27170018965585e-07,1.98994396019844e-07,2.33765275082094e-07,-2.5045636574915e-10,2.33514818716334e-07,1.00480712042534e-08,NaN,4.85966557483031e-07,NaN,-3.32670385890003e-07,4.95095492995832e-07,0,0,0
2120.0896,-1.33781165202018e-07,9.65164554149855e-08,-3.72647097869971e-08,8.8462242017617e-07,-1.47076470656069e-07,-1.47076470656171e-07,NaN,NaN,4.51598281248852e-07,-9.83783192372603e-08,NaN,-5.34902359866306e-08,1.74689090586052e-09,-1.0185756860919e-08,-8.4388659547649e-09,NaN,2.16227900702326e-08,6.43464908638841e-08,9.65259799717337e-08,-3.32090261862855e-09,9.65259799719345e-08,-8.31917166722598e-07,-2.23146173244594e-07,-1.05506333996864e-06,3.84349844749233e-07,-3.81457791855057e-08,NaN,NaN,-4.78251560752427e-08,4.45179098705985e-07,-1.14847608104634e-07,3.59397908088855e-08,NaN,NaN,1.57174884553633e-08,3.97425292132575e-09,4.15175407830122e-07,-1.67611475699543e-08,-1.6761147570087e-08,3.30708211787062e-07,-1.3176420182103e-07,1.9894400996614e-07,2.24485758919629e-07,-1.78052268344542e-08,2.06680532085156e-07,-1.03482885150919e-07,NaN,4.66556647919154e-07,NaN,-2.8453012337616e-07,4.95913428685887e-07,0,1,0
2120.192,-1.40772554887051e-07,9.18565017182871e-08,-4.89160531687318e-08,8.43085317031645e-07,-1.57100261998782e-07,-1.57100261998893e-07,NaN,NaN,3.95338051191278e-07,-9.54137692813845e-08,NaN,-5.48696528526874e-08,2.17820452990252e-09,-1.0895646610704e-08,-8.71744208051008e-09,NaN,2.07471454134729e-08,6.25640463438732e-08,9.48412097384217e-08,5.85203138140747e-09,9.48412097386354e-08,-8.77803906336949e-07,-2.94890379964605e-07,-1.17269428630302e-06,3.73817947104867e-07,-4.05038085742841e-08,NaN,NaN,-4.47287104570396e-08,4.51350408498801e-07,-1.35341295588414e-07,5.87532769080872e-08,NaN,NaN,1.3263848018401e-08,-4.00158515111514e-11,4.08627958237563e-07,-8.87003586368452e-09,-8.87003586381867e-09,3.35357918454843e-07,-1.36593709018113e-07,1.98764209436837e-07,2.16746908682147e-07,-3.81941017182453e-08,1.78552806963874e-07,-2.25450210754557e-07,NaN,4.46081327009114e-07,NaN,-2.3096242846512e-07,4.95826635699282e-07,0,1,0
2120.2944,-1.47603662398764e-07,8.66199573115307e-08,-6.09837050872037e-08,7.96000590812e-07,-1.66718499423921e-07,-1.66718499424042e-07,NaN,NaN,3.33536520446818e-07,-9.28367320044695e-08,NaN,-5.65827290977836e-08,2.33302446139717e-09,-1.14983378624953e-08,-9.16531340080891e-09,NaN,1.98473020664077e-08,6.07284798320902e-08,9.34399499577904e-08,1.48738216215736e-08,9.34399499580174e-08,-9.25425754932368e-07,-3.68175878155442e-07,-1.2936016330893e-06,3.62127282067358e-07,-4.34653353937981e-08,NaN,NaN,-3.968710820875e-08,4.56655161131793e-07,-1.58793219573533e-07,8.40688406239081e-08,NaN,NaN,9.9344025846876e-09,-4.93014560840198e-09,4.01574347583326e-07,-1.35329148553792e-09,-1.3532914856732e-09,3.39286629616814e-07,-1.41298675834479e-07,1.97987953782441e-07,2.10588325500908e-07,-6.03192798942322e-08,1.5026904560664e-07,-3.49413187300102e-07,NaN,4.26128244126329e-07,NaN,-1.73579211589583e-07,4.94602546156101e-07,0,1,0
2120.3968,-1.53891919816059e-07,8.09974081370301e-08,-7.28945116790004e-08,7.45082569136371e-07,-1.75304916891311e-07,-1.75304916891443e-07,NaN,NaN,2.68691036168116e-07,-9.11540658848829e-08,NaN,-5.87991403202246e-08,1.93326185017432e-09,-1.18348830699953e-08,-9.90162121953406e-09,NaN,1.9000289785843e-08,5.85605015437275e-08,9.19446656289134e-08,2.30514750123806e-08,9.19446656291532e-08,-9.73068454111981e-07,-4.39979771215222e-07,-1.41304822532871e-06,3.4964010980421e-07,-4.69714374141537e-08,NaN,NaN,-3.27611192346751e-08,4.60594623304431e-07,-1.84605302346393e-07,1.1117130993491e-07,NaN,NaN,5.88691291262561e-09,-1.03475999954625e-08,3.94545165849e-07,5.45016942973437e-09,5.45016942959845e-09,3.41667977678552e-07,-1.45535860692474e-07,1.96132116986184e-07,2.05876585749537e-07,-8.27573473994805e-08,1.23119238350013e-07,-4.6821313121627e-07,NaN,4.08571807274634e-07,NaN,-1.14292158389694e-07,4.92116965190535e-07,0,0,0
2120.4992,-1.59218658135043e-07,7.51868165587595e-08,-8.40318415762563e-08,6.92143041559468e-07,-1.82233238158427e-07,-1.82233238158568e-07,NaN,NaN,2.03189592998653e-07,-9.08563031464314e-08,NaN,-6.16849237805169e-08,6.91592649806612e-10,-1.17127903276484e-08,-1.10211976775574e-08,NaN,1.82979058096097e-08,5.58620449824355e-08,9.00808412728206e-08,2.97914786777924e-08,9.0080841273072e-08,-1.02042450875147e-06,-5.08829721737108e-07,-1.5292542304901e-06,3.36771108784341e-07,-5.09587928016616e-08,NaN,NaN,-2.39988194511854e-08,4.6273643980447e-07,-2.12246260426995e-07,1.39502894756682e-07,NaN,NaN,1.27251260132442e-09,-1.59803703376283e-08,3.88094534566942e-07,1.11404748656321e-08,1.11404748654962e-08,3.41762058063164e-07,-1.4902186436849e-07,1.92740193694779e-07,2.02334130381961e-07,-1.03957195049204e-07,9.83769353327058e-08,-5.74808529679778e-07,NaN,3.95279594888517e-07,NaN,-5.50703990266546e-08,4.88325438431119e-07,0,0,0
2120.6016,-1.63203016105378e-07,6.93625804127785e-08,-9.38404356925706e-08,6.38828865480336e-07,-1.8700009772606e-07,-1.87000097726211e-07,NaN,NaN,1.38981412173604e-07,-9.23720582126693e-08,NaN,-6.53988930619974e-08,-1.65768669537869e-09,-1.09358068879976e-08,-1.25934935830949e-08,NaN,1.78321218155859e-08,5.25325913924112e-08,8.77152697577874e-08,3.46512696766058e-08,8.7715269758049e-08,-1.0685169519073e-06,-5.74813957861782e-07,-1.64333090977062e-06,3.23918994629615e-07,-5.53610116498233e-08,NaN,NaN,-1.34523302870417e-08,4.6274844948311e-07,-2.41267693225652e-07,1.68648796717158e-07,NaN,NaN,-3.78528359547869e-09,-2.15734843643789e-08,3.82731210430403e-07,1.53248664507533e-08,1.53248664506181e-08,3.38979305489874e-07,-1.5155810179744e-07,1.87421203692538e-07,1.99577140256966e-07,-1.22455310296801e-07,7.71218299601055e-08,-6.63119209668746e-07,NaN,3.87794209277165e-07,NaN,2.23056077483356e-09,4.83207367102907e-07,0,0,0
2120.704,-1.65574057846098e-07,6.36501263925763e-08,-1.0192393145349e-07,5.86440089193686e-07,-1.89329475778377e-07,-1.89329475778536e-07,NaN,NaN,7.73933524632153e-08,-9.60301546081808e-08,NaN,-7.0086077289401e-08,-5.32856119385768e-09,-9.3429395545038e-09,-1.46715007480838e-08,NaN,1.76784539453856e-08,4.85594115417836e-08,8.48464427039398e-08,3.73612565134099e-08,8.48464427042094e-08,-1.11921236039565e-06,-6.39125870012769e-07,-1.75833823040998e-06,3.11402934966289e-07,-6.01018088298132e-08,NaN,NaN,-1.20444695593046e-09,4.60417932813935e-07,-2.71279073207739e-07,1.98265608897208e-07,NaN,NaN,-9.1959243815709e-09,-2.69257491242738e-08,3.78838709074216e-07,1.76938696543836e-08,1.769386965425e-08,3.32917599784016e-07,-1.53037437526325e-07,1.79880162257795e-07,1.97158407174494e-07,-1.37069242276138e-07,6.00891648982904e-08,-7.28703757034846e-07,NaN,3.87058619818377e-07,NaN,5.59239261408688e-08,4.76697277452499e-07,0,0,0
2120.8064,-1.66232682206776e-07,5.81098997874372e-08,-1.08122782419304e-07,5.35833203344504e-07,-1.89244249280904e-07,-1.89244249281071e-07,NaN,NaN,1.90610591015326e-08,-1.02031544291472e-07,NaN,-7.58690578501026e-08,-1.04585640349428e-08,-6.84977177513555e-09,-1.73083358098044e-08,NaN,1.78809410106746e-08,4.39865124095299e-08,8.15556107383336e-08,3.78263913071414e-08,8.15556107386089e-08,-1.17454108559162e-06,-7.03384664250922e-07,-1.87792574984411e-06,2.99402297452724e-07,-6.5088774478254e-08,NaN,NaN,1.26012143150003e-08,4.55652145365494e-07,-3.01909336151446e-07,2.28007599805327e-07,NaN,NaN,-1.48981907573713e-08,-3.18780062431692e-08,3.76581502347884e-07,1.80825629085353e-08,1.80825629084039e-08,3.23376931235258e-07,-1.53438379575799e-07,1.69938551659562e-07,1.9461395807546e-07,-1.47046210141643e-07,4.75677479337462e-08,-7.69174287405844e-07,NaN,3.93218952481562e-07,NaN,1.04465177504757e-07,4.68628310419953e-07,0,0,0
2120.9088,-1.65287566730678e-07,5.27346708205803e-08,-1.12552895910057e-07,4.87429912151042e-07,-1.87088210666016e-07,-1.87088210666191e-07,NaN,NaN,-3.60227583571696e-08,-1.10427655529892e-07,NaN,-8.28331977387095e-08,-1.70908703774376e-08,-3.4792373640687e-09,-2.05701077412368e-08,NaN,1.84434156159976e-08,3.88790713605426e-08,7.79426980770196e-08,3.61143098293545e-08,7.79426980772983e-08,-1.23606834189197e-06,-7.68981861737886e-07,-2.00505020363143e-06,2.87915226340897e-07,-7.02108237655106e-08,NaN,NaN,2.77222529379682e-08,4.48464383347693e-07,-3.32766285349573e-07,2.57487012321982e-07,NaN,NaN,-2.08485711103639e-08,-3.63032112135881e-08,3.75817903167962e-07,1.65006500590145e-08,1.65006500588859e-08,3.10362627863199e-07,-1.52812608493572e-07,1.5755001936973e-07,1.91514217848898e-07,-1.52149169565836e-07,3.93650482829863e-08,-7.84352302336192e-07,NaN,4.05525046706296e-07,NaN,1.46414585408914e-07,4.58730921032309e-07,0,0,0
2121.0112,-1.63044568746286e-07,4.74644789021101e-08,-1.15580089844129e-07,4.4136926195305e-07,-1.8348173660616e-07,-1.83481736606339e-07,NaN,NaN,-8.83023699276793e-08,-1.21100478198425e-07,NaN,-9.09986983810604e-08,-2.51625054743582e-08,6.32946967314702e-10,-2.45295585067784e-08,NaN,1.93302803163201e-08,3.33041074806586e-08,7.40756806900911e-08,3.24323491817013e-08,7.4075680690371e-08,-1.30447575019652e-06,-8.36617574093936e-07,-2.14109332429203e-06,2.76769887932067e-07,-7.53349101347152e-08,NaN,NaN,4.37796204715344e-08,4.38964152669872e-07,-3.63392589862548e-07,2.86271533727332e-07,NaN,NaN,-2.69962678575267e-08,-4.00967274319358e-08,3.7606895030596e-07,1.31321948013294e-08,1.31321948012043e-08,2.94087841221446e-07,-1.51268752968804e-07,1.42819088252744e-07,1.87519017232793e-07,-1.5266621578551e-07,3.48528014472041e-08,-7.76204257410747e-07,NaN,4.22353339185481e-07,NaN,1.80436063938252e-07,4.46713119796304e-07,0,0,0
2121.1136,-1.59942908841321e-07,4.22175909994823e-08,-1.17725317841783e-07,3.97772970882863e-07,-1.79211366642855e-07,-1.79211366643039e-07,NaN,NaN,-1.38320051940132e-07,-1.33746497377436e-07,NaN,-1.00281635405379e-07,-3.44985361842406e-08,5.26226145144521e-09,-2.92362747325348e-08,NaN,2.04760407717815e-08,2.73360920374983e-08,6.99701498509721e-08,2.70974345746977e-08,6.99701498512516e-08,-1.37939781544645e-06,-9.06103610053318e-07,-2.28550142550135e-06,2.65702520432464e-07,-8.02998614799776e-08,NaN,NaN,6.02488247456462e-08,4.2736699477259e-07,-3.93233823248819e-07,3.13911371901875e-07,NaN,NaN,-3.32475150644757e-08,-4.3162865418334e-08,3.76580561261922e-07,8.31536432870297e-09,8.31536432858158e-09,2.74976840694363e-07,-1.48954901486693e-07,1.2602193920777e-07,1.82428919689373e-07,-1.49346061007202e-07,3.308285868209e-08,-7.48571385817414e-07,NaN,4.41357826744556e-07,NaN,2.05342023729009e-07,4.32389498965828e-07,0,0,0
2121.216,-1.56457945497087e-07,3.69263262691708e-08,-1.19531619227853e-07,3.56996313626504e-07,-1.75080265546659e-07,-1.75080265546847e-07,NaN,NaN,-1.86369486928808e-07,-1.47876755741736e-07,NaN,-1.10461621051488e-07,-4.48148419404501e-08,1.01362410295159e-08,-3.4678600910678e-08,NaN,2.17999054337715e-08,2.10777723490357e-08,6.55973947786043e-08,2.05048152916122e-08,6.55973947788823e-08,-1.45948722184031e-06,-9.7643105453532e-07,-2.43591827637721e-06,2.54471171497348e-07,-8.49131801376196e-08,NaN,NaN,7.65007251689554e-08,4.14013773974358e-07,-4.21641126032827e-07,3.39979046614653e-07,NaN,NaN,-3.94361675506153e-08,-4.54012304576942e-08,3.76465788198677e-07,2.5066455462015e-09,2.50664554608399e-09,2.53658974539015e-07,-1.4604304421014e-07,1.07615930328975e-07,1.76218184834081e-07,-1.43278333365688e-07,3.29398514683111e-08,-7.06717036940672e-07,NaN,4.59729797548476e-07,NaN,2.20169485469613e-07,4.15790348653953e-07,0,0,0
2121.3184,-1.53005535416349e-07,3.15637243230729e-08,-1.21441811093204e-07,3.19735826484151e-07,-1.71761669797757e-07,-1.71761669797948e-07,NaN,NaN,-2.32283060419564e-07,-1.62849027495042e-07,NaN,-1.21178631244044e-07,-5.57366707161293e-08,1.49761050577546e-08,-4.07605656581226e-08,NaN,2.32218848226461e-08,1.46786674525201e-08,6.09091626871935e-08,1.30974228220912e-08,6.09091626874691e-08,-1.54267843462478e-06,-1.04604880585578e-06,-2.58872724048214e-06,2.42952924721737e-07,-8.8959067734069e-08,NaN,NaN,9.18828909856419e-08,3.99370229563037e-07,-4.47909545239589e-07,3.64093684296509e-07,NaN,NaN,-4.53195127908823e-08,-4.67023919885114e-08,3.74874918937606e-07,-3.77362005584593e-09,-3.77362005595938e-09,2.30937903026003e-07,-1.42716991882682e-07,8.82209111434211e-08,1.69035785312903e-07,-1.35736888252147e-07,3.32988970606728e-08,-6.56746239597921e-07,NaN,4.74547567728595e-07,NaN,2.24261609523936e-07,3.97205602556197e-07,0,1,0
2121.4208,-1.49875378167408e-07,2.61534858876518e-08,-1.23721892279677e-07,2.86958396416063e-07,-1.69691936635434e-07,-1.69691936635627e-07,NaN,NaN,-2.75420157900908e-07,-1.7793756868387e-07,NaN,-1.31968710730877e-07,-6.68382740621113e-08,1.95320080519695e-08,-4.7306266009893e-08,NaN,2.46778451544578e-08,8.33952910460013e-09,5.58668492863609e-08,5.33305779487576e-09,5.58668492866342e-08,-1.62660523424848e-06,-1.11326942114804e-06,-2.73987465539811e-06,2.31190619134406e-07,-9.22204899759175e-08,NaN,NaN,1.05813145710788e-07,3.83988987476324e-07,-4.71332051364236e-07,3.85911251936679e-07,NaN,NaN,-5.06053954772726e-08,-4.6959759028007e-08,3.7114032534647e-07,-1.00122618190259e-08,-1.00122618191356e-08,2.07726064719607e-07,-1.3916233012687e-07,6.85637345928379e-08,1.61171077066186e-07,-1.28002854292078e-07,3.31682227740243e-08,-6.04944093149601e-07,NaN,4.83183453713983e-07,NaN,2.17332174339845e-07,3.77158486293677e-07,0,1,0
2121.5232,-1.47203844123862e-07,2.07641911181732e-08,-1.26439653005604e-07,2.59704089095582e-07,-1.69025650614702e-07,-1.69025650614896e-07,NaN,NaN,-3.14834531513988e-07,-1.924260526318e-07,NaN,-1.42329047588423e-07,-7.76954013314636e-08,2.36087887351611e-08,-5.40866125960566e-08,NaN,2.61306319690788e-08,2.29960181367147e-09,5.04642017715841e-08,-2.35213406195694e-09,5.04642017718554e-08,-1.70905294823769e-06,-1.17666826117489e-06,-2.88572120941418e-06,2.19384540743299e-07,-9.4510428127307e-08,NaN,NaN,1.17853760675823e-07,3.68444507690417e-07,-4.91248646459996e-07,4.05085842314763e-07,NaN,NaN,-5.500124172059e-08,-4.609611566364e-08,3.64863536871199e-07,-1.57757873492635e-08,-1.57757873493699e-08,1.84948268889525e-07,-1.35555888253849e-07,4.93923806357769e-08,1.52992785826068e-07,-1.21194955657622e-07,3.17978301683627e-08,-5.57080565830503e-07,NaN,4.83688074492129e-07,NaN,1.99506484326535e-07,3.56324953868949e-07,0,1,0
2121.6256,-1.44985818722372e-07,1.54930024398165e-08,-1.29492816282466e-07,2.38844159052025e-07,-1.69661907920428e-07,-1.69661907920622e-07,NaN,NaN,-3.49552261394993e-07,-2.05697818003999e-07,NaN,-1.51793656431701e-07,-8.793220549422e-08,2.70764112745202e-08,-6.0855794219456e-08,NaN,2.75738840003131e-08,-3.19284006914823e-09,4.4733659814239e-08,-9.58048544226286e-09,4.47336598145089e-08,-1.78828161895748e-06,-1.23532576749607e-06,-3.02360738645516e-06,2.07840949762832e-07,-9.57038302193033e-08,NaN,NaN,1.27742448126805e-07,3.53266276852917e-07,-5.07087347538864e-07,4.21228362719235e-07,NaN,NaN,-5.82688718765863e-08,-4.40963294006787e-08,3.559333472415e-07,-2.07656539845967e-08,-2.07656539847005e-08,1.63433744248206e-07,-1.32054121981361e-07,3.13796222669464e-08,1.44877906824357e-07,-1.16141750581167e-07,2.87361562431075e-08,-5.17790682948561e-07,NaN,4.75055047331582e-07,NaN,1.71351653132256e-07,3.35424583990092e-07,0,0,0
2121.728,-1.43117806642151e-07,1.04446352674392e-08,-1.3267317137462e-07,2.24867209596427e-07,-1.71330496999722e-07,-1.71330496999916e-07,NaN,NaN,-3.78874649764861e-07,-2.17302095442678e-07,NaN,-1.60002009120678e-07,-9.72503462641333e-08,2.98626747684882e-08,-6.73876714954024e-08,NaN,2.90270443761089e-08,-7.92283836004549e-09,3.87330068806277e-08,-1.60632445900748e-08,3.87330068808969e-08,-1.86312076746255e-06,-1.28884103264706e-06,-3.15196180011123e-06,1.96895540568626e-07,-9.57627767595382e-08,NaN,NaN,1.35377130409697e-07,3.3888935622256e-07,-5.18414162379518e-07,4.33902056509435e-07,NaN,NaN,-6.02712864805062e-08,-4.10359181521704e-08,3.44483612602767e-07,-2.48462636270664e-08,-2.48462636271686e-08,1.43824900846354e-07,-1.28783042687501e-07,1.50418581589564e-08,1.37148354211116e-07,-1.1331599258375e-07,2.38323616272827e-08,-4.90176022768178e-07,NaN,4.5732163818858e-07,NaN,1.33910135125951e-07,3.15119117714891e-07,0,0,0
2121.8304,-1.41454457341978e-07,5.71215342126557e-09,-1.35742303920619e-07,2.17756777252665e-07,-1.73699061950648e-07,-1.73699061950841e-07,NaN,NaN,-4.0259919044278e-07,-2.26984489317164e-07,NaN,-1.66743858556221e-07,-1.05440546298306e-07,3.19363737849309e-08,-7.35041725131318e-08,NaN,3.05238912440846e-08,-1.17525655055646e-08,3.25210187998983e-08,-2.16189940185017e-08,3.25210188001676e-08,-1.93285105187936e-06,-1.33715929780111e-06,-3.27001034968212e-06,1.86837887950067e-07,-9.4748474597505e-08,NaN,NaN,1.4077718453032e-07,3.25631774478169e-07,-5.25001726066743e-07,4.42679827600272e-07,NaN,NaN,-6.1000669924833e-08,-3.70962817415282e-08,3.3081889732049e-07,-2.8043611193293e-08,-2.80436111933941e-08,1.26528406840514e-07,-1.25833670929676e-07,6.94735910943448e-10,1.30028545037123e-07,-1.12825691685738e-07,1.72028533513021e-08,-4.75693329257833e-07,NaN,4.315290423817e-07,NaN,8.8717631844215e-08,2.95960558051979e-07,0,0,0
2121.9328,-1.39855165460767e-07,1.36639046081684e-09,-1.38488774999858e-07,2.17011395155496e-07,-1.76453088669198e-07,-1.76453088669389e-07,NaN,NaN,-4.21060353301252e-07,-2.34678324558099e-07,NaN,-1.71967168249524e-07,-1.12381248244248e-07,3.32939684171203e-08,-7.90872798268827e-08,NaN,3.20990473796898e-08,-1.46511942312053e-08,2.61367565119239e-08,-2.61779528690428e-08,2.6136756512194e-08,-1.99697057887687e-06,-1.38032918683608e-06,-3.37729976571461e-06,1.77868184023148e-07,-9.28139299565995e-08,NaN,NaN,1.44048199052913e-07,3.13704181742748e-07,-5.26888460077369e-07,4.47243655735794e-07,NaN,NaN,-6.05780162794806e-08,-3.25583554574359e-08,3.15347389109403e-07,-3.05147127361942e-08,-3.05147127362952e-08,1.11719096858701e-07,-1.23264299562753e-07,-1.15452027039454e-08,1.23630176273036e-07,-1.14447001132789e-07,9.18317514016377e-09,-4.74284980561064e-07,NaN,3.99574405252446e-07,NaN,3.77589549757599e-08,2.78410987016942e-07,0,0,0
