time,S1-D1,S1-D8,S1-D9,S1-D15,S2-D1,S2-D2,S2-D3,S2-D9,S3-D1,S3-D2,S3-D16,S4-D2,S4-D3,S4-D5,S5-D3,S5-D4,S5-D5,S6-D2,S6-D5,S6-D17,S7-D6,S7-D7,S8-D6,S8-D7,S8-D18,S9-D3,S9-D4,S9-D9,S9-D11,S9-D19,S10-D8,S10-D9,S10-D10,S10-D11,S11-D8,S11-D10,S11-D20,S12-D10,S12-D11,S12-D12,S13-D4,S13-D11,S13-D12,S14-D10,S14-D12,S14-D21,S15-D13,S15-D14,S16-D13,S16-D14,S16-D22
380.1088,0.605057584580847,-0.448042419946111,0.321665574670081,0.428696377318925,-0.26506939182384,-0.265069391824591,-0.711974601497994,-0.775750525514869,-0.786643720614212,-0.0461199889270094,NaN,-0.101173588097512,0.297606184182911,-1.16352265714873,-0.337036664580977,0.680121647968502,-0.499980283366271,0.343875224192985,-2.18445504381441,-0.120315988931707,-2.18445504381353,0.490788494339065,-0.63005729778775,0.113889527109815,NaN,0.0187666405559061,0.382711277662325,0.529565972790733,-0.529565972790618,1.40057669166919,0.000326817490295335,-0.180267819905136,-0.586135247584218,0.661371862761619,-0.533179631011717,0.478527640137793,1.06703601826595,-0.970657821719718,NaN,NaN,0.491072336340166,-0.0462165726267695,-0.298912406831482,-0.00725273537552543,-0.396586032013695,-0.0371925131922774,-0.509403922350837,-0.509403922351308,0.498494338350571,-0.498494338350144,0.279220799476339
380.2112,0.620014505013318,-0.463611636909097,0.327681223746075,0.448383587736299,-0.276211413478061,-0.276211413478762,-0.707078248635195,-0.785059845636234,-0.784802537449266,-0.0444485094945103,NaN,-0.0996174289242247,0.314292057458745,-1.18129080339851,-0.33019579363289,0.712577221813993,-0.535131252886061,0.350697047013016,-2.19192282639861,-0.122461728646364,-2.19192282639774,0.507697235721869,-0.638670293482882,0.125139495352348,NaN,0.000951346482293684,0.355680668777536,0.543797250104597,-0.54379725010448,1.42939859754369,0.0110974299629418,-0.191050511333692,-0.584840732111477,0.663502113367952,-0.549765832387264,0.476036087412173,1.09883012408818,-0.978419119120642,NaN,NaN,0.472891898612655,-0.0481399060590442,-0.311169717421769,-0.00252237077687981,-0.406008027758844,-0.0290868007955078,-0.496933971838512,-0.496933971838985,0.529985747871911,-0.529985747871476,0.309582652889895
380.3136,0.634793670923986,-0.4795998967658,0.333365146443934,0.467829275556746,-0.287891817932634,-0.287891817933283,-0.701182384605502,-0.794208250386839,-0.782083194976521,-0.042743475177101,NaN,-0.098177677464628,0.331356391155239,-1.19893007144392,-0.322911363140768,0.744972226142717,-0.570630536884772,0.357154679332679,-2.19748517000767,-0.124934276517648,-2.1974851700068,0.525059418046455,-0.647481089135566,0.136709715055051,NaN,-0.017184284756763,0.328036140794546,0.558089002571771,-0.55808900257165,1.45689894382655,0.0223772362114655,-0.202409671394976,-0.583702311146164,0.665153511478223,-0.566832880827539,0.472962942134397,1.12976675014832,-0.985926350251082,NaN,NaN,0.453695680693439,-0.050276599460308,-0.323464089914793,0.00271554791942172,-0.414787417787552,-0.0209510732151409,-0.484877400317072,-0.484877400317548,0.561204979748181,-0.561204979747738,0.339610419498928
380.416,0.649386726411888,-0.495972543322462,0.338725164778,0.486941750723127,-0.300102272395897,-0.300102272396493,-0.694279943012244,-0.803165097280428,-0.778472294668545,-0.0409628952129953,NaN,-0.0968183385534281,0.348756001334659,-1.21642229949438,-0.315216163855427,0.777196928021925,-0.606375048043723,0.363211675453223,-2.20119174213979,-0.127738351712956,-2.20119174213893,0.542863857710548,-0.656464283848671,0.148603770184059,NaN,-0.035612706199527,0.299835518339054,0.572412760253574,-0.572412760253449,1.48299711111521,0.034163823839797,-0.214347644549887,-0.58273577938133,0.666302550410727,-0.584359446378062,0.469291841724117,1.15972297529614,-0.993197779417541,NaN,NaN,0.433503611749157,-0.0526611935121503,-0.335759231669778,0.00845823663550285,-0.422881036338335,-0.0128661142719101,-0.473320978925559,-0.473320978926038,0.592082340347199,-0.592082340346749,0.369170778644679
380.5184,0.663785044620163,-0.512693433821423,0.34376951068725,0.505629766701727,-0.312833482079137,-0.312833482079678,-0.686367405066246,-0.811901123058448,-0.773959751809062,-0.0390649281235328,NaN,-0.0955032703636293,0.366443375294963,-1.23374899393379,-0.307147080685927,0.809139603908031,-0.642259990469147,0.368830791417133,-2.20309672882428,-0.130876761386208,-2.20309672882343,0.561097242868536,-0.66559254980362,0.160824300291018,NaN,-0.0543054195265302,0.271135849156054,0.58673893840467,-0.586738938404538,1.50761936133166,0.0464523739890581,-0.226863812148712,-0.581955416197757,0.666927783313573,-0.602321269061192,0.465009159071884,1.18857924497455,-1.00025252670394,NaN,NaN,0.412339729419,-0.0553268816562327,-0.348019300342397,0.0147015823926378,-0.430248108262244,-0.00491244596902445,-0.462349847125094,-0.462349847125575,0.622549581121648,-0.622549581121192,0.398132423257493
380.6208,0.677979731530163,-0.529725084739004,0.34850676645331,0.52380299262884,-0.326075193799216,-0.326075193799696,-0.677444882612049,-0.820388556277512,-0.76853889261808,-0.0370080588154749,NaN,-0.0941963325887382,0.384366889810215,-1.25089134263559,-0.298744884435795,0.840687164824971,-0.678179396188895,0.373974235800854,-2.20325858881887,-0.134350445054841,-2.20325858881803,0.579744088477039,-0.674836776292203,0.17337287720296,NaN,-0.0732330574050757,0.241993209431043,0.601036965238218,-0.601036965238081,1.5306992788696,0.0592357523561335,-0.239954638954912,-0.581373829445752,0.667009975533426,-0.620691186545433,0.460104138595587,1.2162199841806,-1.00711046405655,NaN,NaN,0.390232241343232,-0.0583052367771346,-0.36020909531834,0.02144019336663,-0.43685042858726,0.00283008645423391,-0.452046917751535,-0.452046917752019,0.652540136741642,-0.652540136741178,0.426366718037144
380.7232,0.691961637933294,-0.547028827441051,0.352945807828011,0.541372475669194,-0.339816203233421,-0.33981620323384,-0.667516180135787,-0.828601223592136,-0.762206532198743,-0.0347512817418206,NaN,-0.0928615395755885,0.402471094955332,-1.26783021935392,-0.290053953944758,0.871725838309064,-0.714026671667207,0.378603976136964,-2.20173979055248,-0.138158512432282,-2.20173979055166,0.598786700488291,-0.684166229453465,0.18624988161846,NaN,-0.092365483849175,0.212462542470936,0.615275441093466,-0.615275441093322,1.55217813098364,0.072504587764393,-0.253613709121531,-0.581001806959502,0.666532266338146,-0.639439198519423,0.454569031154675,1.242534165995,-1.01379211962382,NaN,NaN,0.367213535768799,-0.061625945609168,-0.372294242057871,0.0286674470034078,-0.442652535550427,0.0102827270935634,-0.442492318931463,-0.442492318931949,0.68198934297529,-0.681989342974819,0.453748335426388
380.8256,0.705721375275148,-0.564564974873189,0.357095745701147,0.558251099470843,-0.354044366865145,-0.354044366865501,-0.6565888342322,-0.836514657070889,-0.754963033816204,-0.0322542959738986,NaN,-0.0914632245855642,0.42069704937938,-1.28454617938074,-0.281121942696045,0.902141909900365,-0.749695147850779,0.382682109614588,-2.19860651269906,-0.142298284197062,-2.19860651269825,0.618205156879074,-0.693548723844194,0.199454389082219,NaN,-0.111671908070548,0.182597524100635,0.629422333149456,-0.6294223331493,1.57200516302099,0.0862473442379122,-0.267831761183542,-0.580848186833293,0.665480339687894,-0.658532563046804,0.448399228815662,1.2674158502055,-1.02031858428705,NaN,NaN,0.343320150656064,-0.065316555166576,-0.384241380206648,0.0363755479193791,-0.447621875189931,0.0173682219711013,-0.43376287923719,-0.433762879237678,0.710834639756356,-0.710834639755879,0.480155883384844
380.928,0.719249335270129,-0.582293000613734,0.36096586564969,0.574354045973283,-0.368746621106738,-0.368746621107026,-0.644674124915944,-0.844106199180178,-0.746812343975473,-0.0294777077683414,NaN,-0.0899662127536688,0.438982701419676,-1.30101944547039,-0.271999394884872,0.931822519798646,-0.785078627332372,0.386171298553418,-2.19392830126054,-0.146765352101614,-2.19392830125975,0.637977311743039,-0.702950804804429,0.212984071837777,NaN,-0.131121006087877,0.152450449756774,0.643445205198346,-0.643445205198179,1.59013784240495,0.100450395474095,-0.282596732075967,-0.580919748990048,0.66384259829838,-0.67793592037073,0.441593395274321,1.29076470264734,-1.02671140929992,NaN,NaN,0.318592711526899,-0.0694022334072263,-0.396018367869161,0.0445556078837331,-0.451728956803885,0.0240112331802631,-0.425931662766615,-0.425931662767106,0.739015769148778,-0.739015769148294,0.505472533156774
381.0304,0.732535719726624,-0.600171731065703,0.364565570512169,0.589599259201618,-0.383909012383663,-0.383909012383886,-0.631787050793551,-0.851355090930445,-0.737761993062314,-0.0263832246011698,NaN,-0.0883359901206899,0.457263323153456,-1.31722988284341,-0.262739303296634,0.960656501464557,-0.820071923158294,0.389035260363475,-2.18777768680242,-0.151553671640347,-2.18777768680165,0.658078825224621,-0.712337942608988,0.226835118644074,NaN,-0.150681046737824,0.122072141892321,0.657311478056657,-0.657311478056477,1.60654204979388,0.11509810469604,-0.297893811774792,-0.581221123163352,0.661610329838316,-0.69761144241935,0.434153581895917,1.3124864909728,-1.0329924878251,NaN,NaN,0.29307583414579,-0.0739055505526386,-0.407594500891649,0.0531977477476998,-0.454947497967665,0.030138748935009,-0.419067554119478,-0.419067554119973,0.76647497756795,-0.76647497756746,0.529586640574463
381.1328,0.745570587195762,-0.618159549435334,0.367904332196098,0.603907896493295,-0.399516740983331,-0.399516740983486,-0.617946265742032,-0.858242527744245,-0.727823055808605,-0.0229338255909307,NaN,-0.0865388559771053,0.475472008731454,-1.3331569665796,-0.253396599588596,0.9885352391956,-0.854571387065596,0.391239287918302,-2.18022977000536,-0.156655683564999,-2.18022977000461,0.678483213722487,-0.72167474066304,0.241002165997136,NaN,-0.170320025373251,0.091511879413306,0.670988714531812,-0.670988714531622,1.62119219931218,0.13017290783631,-0.313705505996195,-0.581754711865303,0.658777854186239,-0.717519008647838,0.426085318766386,1.33249353671647,-1.03918392518534,NaN,NaN,0.266817975144888,-0.0788462909591596,-0.418940734207493,0.062291210517168,-0.457254557058391,0.0356804772853243,-0.413234885324171,-0.41323488532467,0.793157223385385,-0.79315722338489,0.552392341625351
381.2352,0.758343913732547,-0.636214607408532,0.370991652173587,0.61720474936593,-0.415554218174754,-0.415554218174839,-0.60317398512069,-0.864751678167059,-0.717010077130338,-0.0190939090264065,NaN,-0.0845420584790322,0.493540238265058,-1.34877975046874,-0.244027580636455,1.01535351562779,-0.888475428092588,0.392750766720171,-2.17136179084894,-0.162062445284214,-2.17136179084821,0.699161906126359,-0.730925160443643,0.255478225715881,NaN,-0.190005813243288,0.0608173513993109,0.684444920667525,-0.684444920667323,1.63407126857758,0.145655400013082,-0.330011708623341,-0.582520633909896,0.655342646538833,-0.737616408312807,0.417397675821696,1.35070510166124,-1.04530791103921,NaN,NaN,0.239871221296669,-0.0842412991218631,-0.430029890768795,0.0718244732655154,-0.458630651297032,0.0405692160156739,-0.408493091790178,-0.40849309179068,0.819010383689892,-0.81901038368939,0.573790102117179
381.3376,0.770845656356039,-0.65429503939089,0.373837023168498,0.629418626650092,-0.43200513287135,-0.432005132871361,-0.587495873719584,-0.870867671154619,-0.705340974978517,-0.0148294323331599,NaN,-0.0823139261685895,0.511398495338489,-1.36407684675823,-0.234689287841835,1.04101032398247,-0.921685021350281,0.393539660588171,-2.16125270661708,-0.167763753894256,-2.16125270661637,0.720084292260828,-0.740052764379311,0.270254595085297,NaN,-0.209706327850551,0.0300346354633089,0.697648851675557,-0.697648851675346,1.64517073270398,0.161524426614129,-0.346789786975616,-0.583516694190783,0.651305436111776,-0.757859567369645,0.408103294302102,1.36704769911803,-1.05138660370567,NaN,NaN,0.212291027544841,-0.0901043528014221,-0.440836845266512,0.0817853472502907,-0.459059858222403,0.0447412015652106,-0.404896382536224,-0.404896382536729,0.843985454822982,-0.843985454822474,0.593687210445333
381.44,0.783065807299728,-0.672359175520467,0.376449883538102,0.640482704789059,-0.448852522683863,-0.448852522683806,-0.570940923324331,-0.87657756170233,-0.692836929196641,-0.0101080623060481,NaN,-0.0798240106370219,0.52897691946173,-1.37902642164329,-0.225438860476357,1.06540963194333,-0.954104203056555,0.393578954361598,-2.14998280345187,-0.17374825486521,-2.14998280345118,0.741217759368008,-0.74902097442804,0.2853207468489,NaN,-0.229389722269905,-0.000791802182594566,0.710570311326814,-0.710570311326596,1.65449041159731,0.177757176364878,-0.364014678107755,-0.584738382680983,0.646670280893251,-0.778202796460356,0.398218389923002,1.38145533580058,-1.0574420288497,NaN,NaN,0.184135921015667,-0.096446053972897,-0.45133867408002,0.0921610592768568,-0.458529898989026,0.0481364433862159,-0.402493416090188,-0.402493416090696,0.868036745755358,-0.868036745754843,0.611998213777372
381.5424,0.794994431077549,-0.69036575226007,0.378839558079929,0.650334856244132,-0.466078845152711,-0.466078845152585,-0.553541321841846,-0.881870285128844,-0.679522260529927,-0.00489934804964334,NaN,-0.0770432509134789,0.546205973782218,-1.39360620667408,-0.216332882590097,1.08846109510996,-0.985640545589141,0.392845056600305,-2.13763334992023,-0.180003542878708,-2.13763334991956,0.762527722466906,-0.757793341506859,0.300664207310372,NaN,-0.249024586762561,-0.0316190906556135,0.723180439403384,-0.723180439403161,1.66203824878573,0.194329272133443,-0.381658992579456,-0.586178905420764,0.641444618573704,-0.798599055474997,0.387762729103872,1.39386969948109,-1.06349598928861,NaN,NaN,0.155467179934821,-0.103273735167074,-0.461514773209854,0.102938316625798,-0.457032202605513,0.0506990484140011,-0.40132698526302,-0.401326985263531,0.891122064746587,-0.891122064746067,0.628645307655278
381.6448,0.80662167915828,-0.708274121974298,0.381015180228984,0.658917968515345,-0.483666047986074,-0.483666047985877,-0.535332312543597,-0.886736609448526,-0.665424300873884,0.000825077015020957,NaN,-0.073944164941753,0.563017110350051,-1.40779352364315,-0.207426739644984,1.11008072123935,-1.01620560547244,0.391318169666476,-2.12428627882984,-0.186516264768523,-2.12428627882918,0.783977658596075,-0.766333821122806,0.316270434655886,NaN,-0.268580156446911,-0.0624059304088599,0.735451986663604,-0.735451986663376,1.66783004305925,0.211214859037314,-0.399693125950661,-0.587829249796893,0.635639293863356,-0.81900023116721,0.376759579409221,1.40424031121759,-1.06956998131936,NaN,NaN,0.126348489857647,-0.110591385528067,-0.471346954509158,0.114103365624359,-0.454561950744539,0.0523775403968094,-0.401433718344685,-0.4014337183452,0.913202898351894,-0.913202898351368,0.643558694856523
381.7472,0.817937780135907,-0.726044464792358,0.382985592426306,0.666180264381484,-0.501595640812351,-0.501595640812082,-0.516352039014984,-0.891169089958065,-0.650573252064809,0.00709126581735975,NaN,-0.0705010671196412,0.579343421755934,-1.42156531906208,-0.198773993802662,1.13019148346551,-1.04571533803973,0.38898263045726,-2.11002387030574,-0.193272228790125,-2.11002387030511,0.805529154572711,-0.774607052764202,0.332122708017654,NaN,-0.288026520686958,-0.0931125722231517,0.747359575908271,-0.747359575908038,1.67188915078335,0.228386693486776,-0.418085381628571,-0.589678283633825,0.629268560064388,-0.83935742686553,0.365235632451663,1.41252465742057,-1.07568511506345,NaN,NaN,0.0968455808329349,-0.118399604473198,-0.480819528021261,0.125642051684394,-0.451118102582346,0.0531251788386663,-0.402843800708188,-0.402843800708706,0.934244578470307,-0.934244578469775,0.656676926543046
381.8496,0.828933009265708,-0.743638006935772,0.384759226150328,0.672075626952545,-0.519848773517019,-0.519848773516679,-0.496641368435525,-0.895162019526768,-0.635002025435142,0.0139227159357662,NaN,-0.0666902999061491,0.595120281534306,-1.43489820359702,-0.190425772994097,1.1487238749413,-1.07409047684387,0.385827214887518,-2.09492841556031,-0.200256520238707,-2.09492841555968,0.827141974049834,-0.782578643866523,0.348202032317732,NaN,-0.307334831445766,-0.123700809582012,0.758879945358223,-0.758879945357986,1.67424616448392,0.245816239011473,-0.436802109877716,-0.591712884000842,0.622350047962304,-0.859621265881631,0.353220892288277,1.41868830342338,-1.08186203967024,NaN,NaN,0.0670258457307413,-0.12669559416249,-0.489919366741611,0.137539880432146,-0.446703395414207,0.0529002785899011,-0.405580720880354,-0.405580720880874,0.954216428249967,-0.95421642824943,0.667947225638159
381.952,0.83959764548028,-0.761017247389791,0.386343967703797,0.676563921920884,-0.538406324852742,-0.538406324852334,-0.476243689401578,-0.898711360964504,-0.618746055633419,0.0213401382804541,NaN,-0.0624904597850607,0.610285986349136,-1.44776849421717,-0.182430159700045,1.16561639332068,-1.10125688295218,0.381845388676759,-2.07908186249218,-0.207453624253264,-2.07908186249157,0.848774140433415,-0.790215460882995,0.364487054208974,NaN,-0.326477510446279,-0.154133987646687,0.769992171887196,-0.769992171886951,1.67493855722639,0.263473775887113,-0.455807867961061,-0.593918088191249,0.614904694716094,-0.879742210807406,0.340748521818467,1.42270497283952,-1.08812087575735,NaN,NaN,0.0369579285907168,-0.135473202088697,-0.498635940236099,0.149782074113823,-0.441324311405374,0.0516665231792412,-0.409661047135608,-0.409661047136132,0.973091876484017,-0.973091876483475,0.67732577738065
382.0544,0.849921923266594,-0.778146187886356,0.387747018202741,0.679611298776299,-0.557248998574257,-0.557248998573781,-0.455204691133764,-0.901814653015745,-0.601843092392284,0.0293612503555591,NaN,-0.0578826029064034,0.624782406298194,-1.46015226284249,-0.174831575239575,1.18081594899947,-1.12714587399985,0.377035489184132,-2.06256546410068,-0.214847552998851,-2.06256546410009,0.870382023634087,-0.797485926505107,0.380953978219162,NaN,-0.345428456887994,-0.184377023140769,0.780677875558391,-0.780677875558142,1.67401027347009,0.28132853020384,-0.475065603995478,-0.596277256212588,0.606956632829321,-0.899670897657189,0.327854647543834,1.42455656980494,-1.09448115659649,NaN,NaN,0.00671126911177559,-0.144723018535965,-0.506961305508592,0.162353618602114,-0.434991001821044,0.0493932528873118,-0.41509423706614,-0.415094237066668,0.990848534971866,-0.990848534971319,0.684777966193093
382.1568,0.859895984997654,-0.794990554913343,0.388974757387181,0.681190448568536,-0.576357418253453,-0.576357418252912,-0.433572136802373,-0.904470893351378,-0.584332981753953,0.0380005943540053,NaN,-0.0528504262817446,0.638555631444714,-1.47202539938502,-0.167670175588032,1.1942781993457,-1.15169453739067,0.371400837085811,-2.04545945463322,-0.222421966165314,-2.04545945463265,0.891920420759652,-0.804360315723272,0.397576477785765,NaN,-0.364163255332535,-0.214396426316841,0.790921408626606,-0.790921408626353,1.67151125056067,0.299348822939558,-0.494536861289287,-0.598772232353668,0.598533046647785,-0.919358478748955,0.314578131361436,1.42423312828483,-1.10096177798538,NaN,NaN,-0.0236443954931192,-0.154432524744718,-0.514890055232581,0.175239300901181,-0.427717169023436,0.0460557011378624,-0.421882480151873,-0.421882480152406,1.00746824009369,-1.00746824009314,0.690278541877691
382.2592,0.86950983760605,-0.811518003128402,0.390032619136053,0.681280800374906,-0.595712212101783,-0.595712212101175,-0.411395639449064,-0.906680409213355,-0.566257446465996,0.0472693759346015,NaN,-0.0473804251525914,0.651556591687028,-1.48336369527647,-0.160981284628275,1.2059678070895,-1.17484601728822,0.364949784621245,-2.02784276286369,-0.230160274505309,-2.02784276286314,0.913342630707359,-0.810811040681195,0.414325606763566,NaN,-0.382659379129768,-0.24416031830344,0.80071002914358,-0.800710029143323,1.66749686694728,0.317502234909747,-0.51418199558609,-0.601383495109662,0.589664004325777,-0.938756965573171,0.300960319247046,1.42173268536052,-1.10758095479884,NaN,NaN,-0.0540395514738597,-0.164586281147331,-0.522419232831015,0.188423739566488,-0.419519915218407,0.0416351614551236,-0.430020578452876,-0.430020578453413,1.02293706360309,-1.02293706360253,0.693811706043697
382.3616,0.878753313563739,-0.827698295598476,0.390924980628587,0.679868649051697,-0.615294084160835,-0.615294084160158,-0.388726442500569,-0.908444727605903,-0.547659870120938,0.0571753206552734,NaN,-0.041462028160788,0.663741628824193,-1.49414294919457,-0.15479488663852,1.21585861493096,-1.19654975834058,0.357695705918871,-2.00979275003358,-0.238045726356698,-2.00979275003304,0.934600529619065,-0.816812916328809,0.43116972249572,NaN,-0.400896383297664,-0.273638439596963,0.81003405424778,-0.810034054247518,1.66202732683032,0.3357557828357,-0.533960399258956,-0.60409029215238,0.580382270193978,-0.957819564147949,0.287044773510825,1.41706108640116,-1.1143561803559,NaN,NaN,-0.0844054294594987,-0.175166143367109,-0.529548226124127,0.201891411357036,-0.410419568600406,0.0361190858282357,-0.439495875243329,-0.43949587524387,1.03724529564455,-1.03724529564399,0.695371119976451
382.464,0.887616032154327,-0.843503461318654,0.391655061542531,0.67694721766939,-0.635083872406269,-0.635083872405521,-0.365617204389793,-0.909766456461513,-0.528585087417894,0.0677225433666573,NaN,-0.0350877144964059,0.675073003800988,-1.50433909359836,-0.149135194065057,1.22393373681359,-1.21676169848881,0.349656936402728,-1.99138495509341,-0.246061483036098,-1.99138495509288,0.955644655942816,-0.822343401404511,0.448074431817938,NaN,-0.418856081324699,-0.302802147368021,0.818886986299779,-0.818886986299512,1.65516700177112,0.354076101851777,-0.553830730196647,-0.606870768812145,0.570723100838773,-0.976500997464477,0.272876993207499,1.41023173844472,-1.12130418495836,NaN,NaN,-0.114674514685667,-0.18615149629943,-0.536278649964207,0.215626678304187,-0.400439494682467,0.0295011270581897,-0.450288239746004,-0.45028823974655,1.0503873996302,-1.05038739962962,0.694959845293736
382.5664,0.89608735660227,-0.858907931030047,0.392224829076843,0.67251666493615,-0.655062594769708,-0.65506259476889,-0.342121786739096,-0.910649187075731,-0.50907918259717,0.0789114237309565,NaN,-0.0282531191920865,0.685519321737644,-1.51392833863309,-0.14402030588964,1.23018557708386,-1.23544441197541,0.340856673009031,-1.97269284663747,-0.254190688185908,-1.97269284663696,0.976424313939331,-0.827382810171815,0.465002570954943,NaN,-0.436522699774702,-0.331624401143376,0.82726560822299,-0.827265608222716,1.64698375610325,0.372429627912846,-0.573751143755748,-0.609702106884689,0.560724028118731,-0.99475780872252,0.258504127449054,1.40126533424354,-1.12844089035202,NaN,NaN,-0.144781044657333,-0.197519497265651,-0.542614225192077,0.229613816673222,-0.389605900292255,0.0217811375819771,-0.462370112427623,-0.462370112428174,1.06236194095516,-1.06236194095458,0.692590233438287
382.6688,0.904156345755157,-0.873888651266168,0.392634907720177,0.666584049712723,-0.675211483211833,-0.675211483210943,-0.318295044566251,-0.911097425412181,-0.489189296608011,0.0907384829454552,NaN,-0.0209571314861239,0.695055858148339,-1.52288732781652,-0.139461969947998,1.23461578604836,-1.25256719965836,0.331322847287159,-1.95378759699904,-0.262416533816037,-1.95378759699854,0.996887704651996,-0.831914491510936,0.481914229782085,NaN,-0.453883004340898,-0.360079738237721,0.835170048369811,-0.835170048369531,1.63754828386971,0.390782773000629,-0.59367952508641,-0.612560689005206,0.550424632179415,-1.01254863743569,0.243974686652441,1.39018957147536,-1.1357813544449,NaN,NaN,-0.17466148856009,-0.209245315991239,-0.548560657119774,0.243837043057107,-0.37794764085691,0.0129651333109091,-0.475706612400017,-0.475706612400572,1.07317149683506,-1.07317149683448,0.688283779588666
382.7712,0.911811703965799,-0.888425177639178,0.392884496431501,0.659163262958798,-0.695512006942969,-0.695512006942009,-0.294192613662616,-0.911116554527293,-0.468963439486439,0.103196263800638,NaN,-0.0132019863965711,0.703664778309799,-1.53119329779046,-0.13546545295267,1.23723515155827,-1.2681061175639,0.321087978665184,-1.93473788920922,-0.270722322259269,-1.93473788920873,1.01698209309797,-0.835924974556907,0.498766829227121,NaN,-0.470926391737656,-0.388144243047173,0.842603813666237,-0.842603813665952,1.62693348020542,0.409102088842733,-0.613573719790297,-0.615422296433093,0.539866304964771,-1.02983446289854,0.229338253685625,1.37703888723001,-1.14333969798691,NaN,NaN,-0.204254996370077,-0.221302359175131,-0.55412551400003,0.258280530488234,-0.365496041251904,0.00306522901943197,-0.490255705074091,-0.490255705074649,1.08282255439837,-1.08282255439778,0.682070953131488
382.8736,0.919041736707502,-0.902499750666719,0.392971298219,0.650274932808972,-0.715945888655689,-0.715945888654658,-0.269870687696192,-0.910712821352633,-0.448450300044364,0.116273226497717,NaN,-0.00499334186298553,0.711335257448431,-1.53882423397913,-0.132029506224982,1.23806342320601,-1.28204393988619,0.310189007241383,-1.91560975287474,-0.27909151995446,-1.91560975287426,1.03665401665511,-0.839404083397201,0.515515255133777,NaN,-0.487644942019012,-0.415795516127272,0.849573784908547,-0.849573784908257,1.61521385937214,0.427354419665317,-0.633391763498011,-0.61826234039893,0.529091999662629,-1.04657881486629,0.214645190653717,1.36185421499817,-1.15112900636136,NaN,NaN,-0.233503804106383,-0.233662474189394,-0.559318105127717,0.272928412747893,-0.352284732231359,-0.00790044968807183,-0.505968425286531,-0.505968425287093,1.09132539914178,-1.09132539914119,0.673991007778234
382.976,0.925834318876857,-0.916097358285559,0.392891466246691,0.639946299776801,-0.73649512005508,-0.736495120053977,-0.245385781449114,-0.909893333020468,-0.42769904624611,0.129953678909385,NaN,0.00365967195305515,0.718063525425047,-1.54575901693968,-0.12914640092873,1.23712906662083,-1.29437006587468,0.298667095245682,-1.89646642442773,-0.287507798984121,-1.89646642442726,1.05584952940143,-0.842345026340914,0.532112040520134,NaN,-0.504033427802316,-0.443012645854341,0.856090168258425,-0.856090168258129,1.60246501576777,0.445507050647186,-0.653092114860339,-0.621056119107643,0.518145960032107,-1.0627479557058,0.199946334467739,1.34468275230137,-1.15916120598506,NaN,NaN,-0.262353586115903,-0.246296134620031,-0.564149356459858,0.287764782059862,-0.338349492649284,-0.0199078750752429,-0.522789150714675,-0.522789150715241,1.09869399377644,-1.09869399377585,0.664091760714719
383.0784,0.932176878845059,-0.929205787340647,0.392639568086599,0.628211050180491,-0.75714198191485,-0.757141981913677,-0.220794485148123,-0.908666048301016,-0.406759116917609,0.144217756209804,NaN,0.0127444427872805,0.723852864245099,-1.55197755886322,-0.126802004541856,1.23446894513993,-1.30508038547793,0.286567381469154,-1.87736823857621,-0.29595506638338,-1.87736823857575,1.07451446637348,-0.844744465496532,0.548507577784422,NaN,-0.520089281880523,-0.469776179834256,0.862166402670007,-0.862166402669703,1.58876311131675,0.46352786447652,-0.672633901261174,-0.623779088785281,0.50707342886509,-1.07831103944093,0.18529267902058,1.32557771374769,-1.16744692213972,NaN,NaN,-0.290753751908139,-0.259172614095951,-0.568631678346849,0.302773687314412,-0.323728080753014,-0.0329272460697131,-0.540655922693829,-0.540655922694398,1.1049458484063,-1.10494584840571,0.652429322411737
383.1808,0.938056398727993,-0.941815662117734,0.392208569348731,0.615109095342191,-0.777869068553139,-0.777869068551898,-0.196153219396234,-0.907039757349804,-0.385680011111399,0.159041454804841,NaN,0.0222449102053925,0.728713575031315,-1.55746093231262,-0.124975883270571,1.23012792848611,-1.31417711160091,0.273938681572796,-1.85837256223693,-0.30441748717068,-1.85837256223648,1.09259471045591,-0.846602568629908,0.564650343325827,NaN,-0.535812529217109,-0.496068091224037,0.867819027188812,-0.867819027188499,1.57418437305018,0.481385517053856,-0.69197718650277,-0.626407141560808,0.495920340124174,-1.09324025028856,0.170735047545666,1.30459804744466,-1.17599532793306,NaN,NaN,-0.318657683927544,-0.272260153595986,-0.572778819638258,0.317939137057286,-0.308460041365738,-0.0469231387354344,-0.559500814911541,-0.559500814912115,1.11010188163792,-1.11010188163732,0.639067763467735
383.2832,0.943459431227408,-0.95392046435738,0.391589839384726,0.600686292706165,-0.798659311061669,-0.798659311060357,-0.171517998851275,-0.905024049597774,-0.364511081923942,0.174396716253465,NaN,0.0321416409090776,0.732662913726972,-1.56219149314186,-0.123641432182966,1.22415843700624,-1.32166858036393,0.260833142762046,-1.83953377080741,-0.31287950915405,-1.83953377080698,1.11003645171108,-0.847923040594683,0.580487126410337,NaN,-0.551205690124303,-0.521871735583367,0.873067512136439,-0.873067512136116,1.55880459471063,0.499049631464229,-0.71108325768382,-0.628916884094414,0.484732999405106,-1.10751091806651,0.156323760248097,1.28180810715641,-1.18481399247328,NaN,NaN,-0.346022906658641,-0.285526123558519,-0.576605706342586,0.333245106234999,-0.292586487975026,-0.0618546819337163,-0.579250351686638,-0.579250351687213,1.11418627062507,-1.11418627062447,0.624078714694232
383.3856,0.948372133904167,-0.965516528306643,0.390773182573496,0.584994113865373,-0.819495991401142,-0.81949599139976,-0.14694421025404,-0.902629272255019,-0.343301340069933,0.190251550704169,NaN,0.0424119384515223,0.735724984607204,-1.56615299905819,-0.122766044639022,1.21661994026777,-1.32756902271546,0.247305871217814,-1.82090324765161,-0.321325893347814,-1.8209032476512,1.1267864359996,-0.848713129087102,0.595963262225239,NaN,-0.566273659246341,-0.547171792702139,0.877934056635883,-0.877934056635549,1.54269864398862,0.516490996048721,-0.729914911882485,-0.631285901708427,0.473557755928807,-1.12110160373862,0.142108302054629,1.25727728550001,-1.19390873377693,NaN,NaN,-0.372811180866837,-0.298937177461454,-0.580128266928989,0.348675540659369,-0.276149870642479,-0.0776757636247393,-0.599825973640352,-0.59982597364093,1.11722628890113,-1.11722628890053,0.60754090332193
383.488,0.952780321489513,-0.976603005210842,0.389746898115724,0.568089267610761,-0.840362740547768,-0.84036274054632,-0.122486407959586,-0.899866483611239,-0.322099270880022,0.206570186548618,NaN,0.0530299779713185,0.737930579010604,-1.56933072523791,-0.122311334210729,1.2075784305153,-1.3318983131492,0.233414550565001,-1.80252938242046,-0.329741748681424,-1.80252938242006,1.14279220471318,-0.848983599275071,0.611022873902584,NaN,-0.58102356183945,-0.571954187629305,0.882443353653653,-0.882443353653314,1.52593998100524,0.533681750204563,-0.748436720001169,-0.633492989615616,0.462440669819738,-1.13399414794166,0.128136995962902,1.2310796199234,-1.20328347920687,NaN,NaN,-0.398988528984518,-0.312459389994564,-0.583363248512371,0.364214352495533,-0.259193744331765,-0.0943352742072619,-0.621144541498277,-0.621144541498859,1.11925213127858,-1.11925213127797,0.589539632720324
383.5904,0.956669535293227,-0.9871817935065,0.388497869147363,0.550033286638739,-0.861243517448201,-0.861243517446686,-0.0981981265809204,-0.896747406624683,-0.300952665732202,0.223313233980085,NaN,0.0639669562631542,0.739316948674163,-1.57171157723663,-0.122233419705765,1.19710588245399,-1.33468169718583,0.219219062924028,-1.78445755570284,-0.338112568201441,-1.78445755570246,1.15800233149343,-0.848748673647494,0.62560913113811,NaN,-0.595464585480458,-0.596205988317936,0.88662232504551,-0.886622325045164,1.50860019860631,0.550595550324396,-0.766615259160967,-0.635518348853158,0.451427179994195,-1.14617367799954,0.114456688224839,1.20329338607275,-1.2129401332334,NaN,NaN,-0.424525207140687,-0.326058373892885,-0.586328028632944,0.379845403861207,-0.241762547712279,-0.11177738967971,-0.643118866838543,-0.64311886683913,1.12029672482218,-1.12029672482157,0.570166217462059
383.6928,0.960025127162778,-0.997257433886707,0.387011679363574,0.530892089187143,-0.882122569738921,-0.882122569737337,-0.0741317074924464,-0.89328438818509,-0.279908466499191,0.240437852883056,NaN,0.0751912485396484,0.739927505669692,-1.57328419977961,-0.122483280428559,1.18527970124776,-1.335949493866,0.20478111786533,-1.76673010523266,-0.346424262570776,-1.76673010523229,1.17236666401212,-0.84802593606733,0.63966453364887,NaN,-0.609607783307509,-0.619915280545834,0.890499833747909,-0.890499833747559,1.49074859992074,0.567207715887726,-0.784419319399224,-0.637343765620665,0.440561779687727,-1.1576285722705,0.10111245230007,1.17400069567507,-1.22287845056363,NaN,NaN,-0.44939564258669,-0.339699375840331,-0.58904042599411,0.395552479591029,-0.223901395356605,-0.129941891313945,-0.665658265426529,-0.665658265427119,1.12039552743515,-1.12039552743454,0.549517389708156
383.7952,0.962832355943327,-1.00683697184559,0.385272754286199,0.510735530028868,-0.902984380007715,-0.902984380006068,-0.0503381356714451,-0.889490369253742,-0.259012621323731,0.257897918523808,NaN,0.0866685653849588,0.73981144422828,-1.57403908002304,-0.123007185568563,1.17218215929039,-1.33573676962691,0.19016389297796,-1.74938626629875,-0.35466318152854,-1.74938626629839,1.18583657940477,-0.846836200590632,0.653131227320151,NaN,-0.623465846883913,-0.643071022901608,0.894106382057849,-0.894106382057494,1.47245182994578,0.583495353505629,-0.801820088979754,-0.638952795496638,0.42988770786716,-1.16835038386414,0.0881473187959222,1.14328711699108,-1.23309591261673,NaN,NaN,-0.473578349865817,-0.353347356952809,-0.591518513387863,0.411319252285227,-0.205655883265709,-0.148764516270256,-0.688669135076044,-0.688669135076637,1.11958632156727,-1.11958632156665,0.527694695840526
383.8976,0.965076497630444,-1.0159297940628,0.383264525448353,0.489636953503074,-0.923813603906044,-0.923813603904331,-0.0268668836126938,-0.885378868667225,-0.238309949660535,0.275644186379362,NaN,0.0983621098258811,0.739023287151634,-1.5739686441169,-0.123747194417038,1.15789982464525,-1.33408298396854,0.175431688978843,-1.73246208100466,-0.362816111201467,-1.73246208100431,1.19836526056751,-0.845203346720901,0.665951358959648,NaN,-0.637052851430574,-0.665662888318,0.897473800129405,-0.897473800129047,1.45377357324642,0.599437452002583,-0.818791311808908,-0.64033095472324,0.419446662232347,-1.17833372908439,0.0756020353164872,1.111241328871,-1.24358760605804,NaN,NaN,-0.497055823599201,-0.366967060934963,-0.593780437299963,0.427129241835245,-0.187071910550456,-0.16817733462341,-0.712055555484527,-0.712055555485123,1.11790901532676,-1.11790901532614,0.504803897513369
384,0.966742973990577,-1.02454744761206,0.380969617687648,0.467672752952114,-0.944595008413868,-0.944595008412092,-0.0037657591678896,-0.880963975455814,-0.217844012687453,0.29362446995852,NaN,0.110232744690605,0.737622372282852,-1.57306734469402,-0.124641710847105,1.14252298243046,-1.33103161086175,0.160649597449634,-1.71599028368425,-0.370870242686356,-1.71599028368391,1.20990799375442,-0.843154125272182,0.678067467739197,NaN,-0.650383979788562,-0.687681102261448,0.900634924920096,-0.900634924919734,1.43477431843472,0.615014947386353,-0.835309411077498,-0.64146590329023,0.409278532408408,-1.18757614828116,0.0635148528186541,1.07795480224742,-1.25434610375043,NaN,NaN,-0.519814396836801,-0.380523068697612,-0.595844246499761,0.442965768206618,-0.16819552191091,-0.188109149552895,-0.735719896334893,-0.735719896335492,1.1154054606778,-1.11540546067719,0.480954375417726
384.1024,0.967817503251433,-1.03270344996483,0.378370059178202,0.44492193120488,-0.965313416553541,-0.965313416551699,0.0189192423504426,-0.876260337321726,-0.197656986360252,0.311783849346536,NaN,0.122239184181395,0.735672303486954,-1.57133173709937,-0.125626066730553,1.12614504594592,-1.3266297433534,0.14588317125123,-1.7000001807669,-0.378813120006115,-1.70000018076657,1.22042247565505,-0.840717941740843,0.689422898230181,NaN,-0.663475233697649,-0.709116286481422,0.903623272108944,-0.903623272108579,1.4155111784131,0.630210769183093,-0.851353588099954,-0.642347610233892,0.399421146441112,-1.1960779465045,0.0519213299804586,1.04352148709754,-1.26536135076611,NaN,NaN,-0.541844062948404,-0.393979840190414,-0.597727727437928,0.458811895929245,-0.149072770205928,-0.208485918402853,-0.759563416293358,-0.759563416293962,1.11211928837156,-1.11211928837094,0.45625852080055
384.2048,0.968286269574788,-1.0404130937448,0.375447509700921,0.421465652212933,-0.985953659828224,-0.985953659826317,0.0411440758334163,-0.871283134536113,-0.177789539502065,0.330064917005245,NaN,0.134338215092596,0.733240386502789,-1.56876054516904,-0.126633114625725,1.10886195284668,-1.32092769288793,0.131198082529741,-1.68451754076094,-0.386632581138462,-1.68451754076062,1.22986910918093,-0.837926624122713,0.699962211411681,NaN,-0.676343141739576,-0.729959311765969,0.906472706555241,-0.906472706554873,1.39603775209436,0.645009882287297,-0.866905911799896,-0.642968503631971,0.389910024934913,-1.20384201920167,0.0408541488271148,1.00803748213666,-1.27662056041658,NaN,NaN,-0.563138268173744,-0.407301750337664,-0.599448242924464,0.474650373839577,-0.129749589726596,-0.229231191139443,-0.783486842913054,-0.78348684291366,1.10809575048589,-1.10809575048527,0.430831103006193
384.3072,0.968136102988976,-1.04769324621124,0.372183500081939,0.397386776894962,-1.00650053631536,-1.00650053631339,0.0628667664687662,-0.866048036563961,-0.158280722432494,0.348408054107142,NaN,0.146484942397673,0.730397057867258,-1.56535471956356,-0.127593823268441,1.09077154660366,-1.31397859573665,0.116659758064642,-1.66956450154382,-0.394316702398562,-1.6695645015435,1.23821127039574,-0.834814178803777,0.709631574928319,NaN,-0.689004471351743,-0.750201158503005,0.90921711676329,-0.909217116762922,1.3764040175117,0.659399326315174,-0.881951399590881,-0.643323601009594,0.380778142698523,-1.21087366633018,0.0303429405725576,0.971600676766443,-1.28810812783801,NaN,NaN,-0.583693682188273,-0.420453131174664,-0.601022571501215,0.490463577227953,-0.110271667095905,-0.250266560724396,-0.807390930055304,-0.807390930055913,1.10338156215154,-1.10338156215092,0.40478861375367
384.4096,0.967354663724037,-1.05456214121365,0.368559678619387,0.372769385203838,-1.02693877146418,-1.02693877146215,0.0840475087338036,-0.8605711465325,-0.139167870344713,0.366751726992916,NaN,0.158633051108607,0.72721530580476,-1.56111749059903,-0.128437878012799,1.0719729531827,-1.30583803477906,0.10233299617873,-1.65515949856282,-0.401853752155721,-1.65515949856251,1.24541554201168,-0.831416533705722,0.718379128705634,NaN,-0.7014759494264,-0.769832782666765,0.911890097233273,-0.911890097232905,1.35665625230015,0.673368241257135,-0.896478072320271,-0.643410601581993,0.372055703017544,-1.21718039687749,0.020414125960088,0.934310368624373,-1.29980556945713,NaN,NaN,-0.603509957723099,-0.433398334125642,-0.602466746980591,0.506233458300298,-0.0906843010712656,-0.271512121220294,-0.831176988507788,-0.8311769885084,1.09802474057163,-1.098024740571,0.378248597307534
384.512,0.965930628523834,-1.06103916145547,0.36455806336675,0.347698295713569,-1.04725297885318,-1.0472529788511,0.104648745168552,-0.854868942513128,-0.120486522877711,0.385032795610014,NaN,0.170735078421002,0.723770078363332,-1.5560544145567,-0.129094290328051,1.05256596960945,-1.29656367898447,0.0882815820476237,-1.64131721307659,-0.409232160550967,-1.64131721307628,1.2514519201575,-0.827771265592257,0.726155334026772,NaN,-0.713773994029222,-0.788844987213217,0.914524640721294,-0.914524640720924,1.33683698350917,0.686907867584515,-0.910476964812815,-0.643229920240369,0.363769931866116,-1.22277172383194,0.0110907769794435,0.896266869211673,-1.31169149353922,NaN,NaN,-0.622589491735736,-0.446101821590558,-0.60379590315675,0.521941510664005,-0.0710322499582939,-0.292886931880316,-0.85474738477258,-0.854747384773194,1.09207444134854,-1.09207444134791,0.351328979584581
384.6144,0.963853874858186,-1.06714461138316,0.360161296668389,0.322258596762998,-1.06742761972945,-1.06742761972731,0.124635228285423,-0.848958224082563,-0.102270359129432,0.403186827107847,NaN,0.182742690769817,0.720137672317933,-1.55017340974706,-0.129492020730137,1.03265047825263,-1.28621493790134,0.0745679193229671,-1.62804853411582,-0.416440514295997,-1.62804853411551,1.25629400331029,-0.823917309605689,0.732913315601077,NaN,-0.725914457879721,-0.80722830410332,0.917152841461247,-0.917152841460875,1.31698497398171,0.700011517046462,-0.923942084645753,-0.642784652006354,0.355944898108791,-1.22765894772716,0.00239250617090996,0.857571114573511,-1.32374160319233,NaN,NaN,-0.640937188183746,-0.458528286113919,-0.605024132870643,0.53756875425723,-0.0513595697805259,-0.314309483998811,-0.878006009307357,-0.878006009307974,1.08558078970428,-1.08558078970365,0.324147412632596
384.7168,0.961115656232131,-1.07289948502249,0.355352894298815,0.296535201157199,-1.08744696340925,-1.08744696340705,0.143974070838604,-0.842856069758054,-0.0845511450902187,0.421148408703516,NaN,0.194606960107584,0.716395096113981,-1.5434847773662,-0.129560619099017,1.01232589226806,-1.27485262577368,0.0612526887872992,-1.61536053260532,-0.423467580858782,-1.61536053260501,1.25991916961087,-0.819894652205751,0.738609201879865,NaN,-0.737912383000813,-0.824972896646018,0.919805609681958,-0.919805609681588,1.29713525627397,0.712674514914164,-0.936870320953049,-0.642080470250527,0.348601363561202,-1.23185492718241,-0.00566461241063384,0.818324299014937,-1.33592873192092,NaN,NaN,-0.65856021361059,-0.470642786857459,-0.60616436699849,0.553095742347824,-0.0317094481981947,-0.335698161917757,-0.900858723726962,-0.900858723727582,1.07859470656886,-1.07859470656823,0.296820652042795
384.8192,0.957708764574726,-1.07832523703848,0.350117482222615,0.270612434853786,-1.1072950546693,-1.10729505466705,0.162634792623581,-0.836579804635105,-0.0673586864749425,0.43885146012072,NaN,0.206278637765378,0.712619407738958,-1.53600120234251,-0.129230878901729,0.991690631035818,-1.26253863224012,0.0483945353062889,-1.60325645174584,-0.43030235688286,-1.60325645174554,1.26230874672173,-0.815744012568088,0.743202464742035,NaN,-0.749781766691219,-0.84206849139758,0.922512394748689,-0.922512394748319,1.27731922467698,0.724894114867099,-0.949261310871976,-0.641125479436136,0.341756663587432,-1.23537383823385,-0.0130680904199352,0.778627545100406,-1.34822291097539,NaN,NaN,-0.675467745853793,-0.482410894811285,-0.607228272908094,0.568502585357455,-0.0121240407219681,-0.356971684949159,-0.923213798289715,-0.923213798290338,1.0711677340976,-1.07116773409697,0.269463979111685
384.9216,0.953627681708495,-1.08344356635718,0.344441018654413,0.24457366497139,-1.12695569634881,-1.1269556963465,0.18058937236948,-0.830146967907036,-0.0507207772516638,0.456229556551166,NaN,0.217708432845494,0.708887044869324,-1.52773773134139,-0.128435486657044,0.970841620969606,-1.24933560289755,0.0360497750707839,-1.59173571035477,-0.436934135371385,-1.59173571035446,1.26344817387097,-0.811506521133331,0.746656253348051,NaN,-0.76153534161758,-0.858504343925092,0.925300913531503,-0.925300913531131,1.2575647862907,0.736669391861183,-0.961117276797898,-0.639930047220528,0.335424613351645,-1.23823092820939,-0.0198090467942627,0.738581609237481,-1.36059146577293,NaN,NaN,-0.691670722272429,-0.493798846614911,-0.608226170231252,0.583768986059389,0.00735568614507959,-0.378049520058657,-0.944982343747966,-0.94498234374859,1.06335186055848,-1.06335186055785,0.242190667432007
385.024,0.948868724027279,-1.08827621806065,0.338311002469669,0.218500960603948,-1.14641245244941,-1.14641245244705,0.197812305100964,-0.823575267524953,-0.0346631404456087,0.473216275250243,NaN,0.228847305233846,0.705273175911181,-1.51871173027311,-0.127109639656748,0.949873817111294,-1.23530663699148,0.0242721117799819,-1.58079391704287,-0.443352590148643,-1.58079391704256,1.26332714664924,-0.807223404847583,0.74893770785941,NaN,-0.773184377336495,-0.874269236806092,0.928196888937467,-0.928196888937094,1.23789655576306,0.748001124800958,-0.972442849184971,-0.638506623948051,0.329615433114416,-1.24044227174772,-0.0258822119640673,0.698286605589106,-1.37299913998908,NaN,NaN,-0.707181583642307,-0.504773711490218,-0.609166963568192,0.598874287159614,0.0266901067078527,-0.39885226627743,-0.966078729815606,-0.966078729816234,1.05519933355597,-1.05519933355534,0.215111483472647
385.1264,0.943430180631207,-1.09284480372768,0.331716668103469,0.192474770604091,-1.16564867062087,-1.16564867061845,0.214280653845722,-0.816882519439765,-0.0192093699319992,0.489745566364238,NaN,0.239646774849428,0.701851093947354,-1.50894282912016,-0.125191614446745,0.928879743443458,-1.22051500638459,0.0131123559048639,-1.5704229163209,-0.449547869198808,-1.57042291632059,1.26193972855476,-0.80293568572073,0.75001823410593,NaN,-0.784738514204212,-0.889351504681466,0.931223813036425,-0.931223813036051,1.21833606876235,0.758891681089456,-0.983244885181397,-0.636869542224318,0.324335691856181,-1.24202453604155,-0.0312859172977936,0.657841725971753,-1.38540825243457,NaN,NaN,-0.722014006555298,-0.51530357400084,-0.610058095531184,0.613797538606742,0.0458410884078639,-0.419302019528189,-0.986420976200508,-0.986420976201139,1.04676244769337,-1.04676244769274,0.18833420974096
385.2288,0.937312441078105,-1.09717063694772,0.324649165080186,0.166573604084104,-1.18464751828214,-1.18464751827967,0.229974083093992,-0.810086578203164,-0.00438088543966628,0.50575213643415,NaN,0.250059239293662,0.698691659662298,-1.49845286123303,-0.122623283949867,0.907949050941168,-1.20502389285953,0.00261814842600571,-1.56061089590391,-0.455510682462884,-1.56061089590359,1.25928441658207,-0.798683894601638,0.749873726064751,NaN,-0.796205638381775,-0.903739081373456,0.934402746587074,-0.934402746586702,1.1989019938918,0.769344907572959,-0.993532287136674,-0.635034794449545,0.319588273548073,-1.2429947594743,-0.0360220668410957,0.617344941706666,-1.39777889435152,NaN,NaN,-0.736182632599637,-0.525357732698756,-0.610905527394844,0.628517593192016,0.0647721469258481,-0.439322724793847,-1.00593110551567,-1.0059311055163,1.03809330192049,-1.03809330191987,0.161963184057548
385.3312,0.930518109884991,-1.10127457994594,0.317101721485649,0.140873707874108,-1.20339202574294,-1.20339202574042,0.24487487046532,-0.803205265169475,0.00980309473808845,0.521171833482171,NaN,0.260038291792092,0.695862789698174,-1.48726579827847,-0.119350587374069,0.887168093572878,-1.1888961377491,-0.00716630561671379,-1.55134255911852,-0.46123237886685,-1.55134255911819,1.25536415938175,-0.794507797717075,0.748484736124115,NaN,-0.80759179858016,-0.917419565558874,0.937752156767973,-0.937752156767601,1.1796103336889,0.77936602363151,-1.00331581934595,-0.63301979735331,0.315372369699519,-1.2433701435828,-0.040096087912642,0.57689268464653,-1.41006916752141,NaN,NaN,-0.74970281395584,-0.534906912909616,-0.61171375343535,0.643013233795519,0.083448600755715,-0.45884051882007,-1.02453545409902,-1.02453545409965,1.02924353449234,-1.02924353449172,0.136098853008374
385.4336,0.923052107294503,-1.10517689794504,0.309069792422878,0.115448743736364,-1.2218651309033,-1.22186513090074,0.258967900713509,-0.796256298097594,0.0233255658669077,0.535942026961156,NaN,0.269539034141884,0.693428983972566,-1.47540767835075,-0.115323957944057,0.866619527298833,-1.17219400053432,-0.0162004852061259,-1.54259934406557,-0.466705017009636,-1.54259934406524,1.25018633658962,-0.790446131305804,0.745836603915492,NaN,-0.81890115694623,-0.930380302264682,0.941287791007398,-0.941287791007025,1.16047461447747,0.788961509526931,-1.01260791817958,-0.630843151017473,0.311683500354001,-1.24316785570938,-0.0435168577954403,0.53657951367947,-1.42223545618516,NaN,NaN,-0.762590389913276,-0.543923488259333,-0.612485847080595,0.657263325804024,0.101837718870372,-0.477784064588361,-1.04216494173402,-1.04216494173466,1.02026405218137,-1.02026405218074,0.110837341877372
385.536,0.914921754239514,-1.10889711960832,0.300551192406513,0.0903694750479288,-1.24004972247123,-1.24004972246861,0.27224064707775,-0.789257227200309,0.0361717367025573,0.550001974907596,NaN,0.278518378090476,0.691450882786068,-1.46290652558527,-0.110498716611758,0.846381941290472,-1.15497892533972,-0.0244477717314818,-1.53435967230602,-0.471921433547328,-1.53435967230568,1.24376271046768,-0.786536340842625,0.741919556264241,NaN,-0.830135963865109,-0.942608479347811,0.94502258749775,-0.945022587497373,1.1415060728322,0.798138987552656,-1.0214224930881,-0.628524392514978,0.308513565320311,-1.24240483930778,-0.0462966040163579,0.496497780993173,-1.43423272537924,NaN,NaN,-0.774861500900759,-0.55238170160809,-0.613223529561858,0.671246981133307,0.119908855064715,-0.496084875033812,-1.05875530279195,-1.05875530279259,1.01120477096438,-1.01120477096376,0.0862700499938473
385.6384,0.906136836253438,-1.11245390425851,0.291546206928746,0.0657034779074714,-1.2579286814884,-1.25792868148573,0.284683143349485,-0.78222538376123,0.048329018566682,0.563293168514796,NaN,0.286935326461587,0.689984842521561,-1.44979226069363,-0.104835442487464,0.826529529359437,-1.13731131368078,-0.0318756272514092,-1.52659921436853,-0.476875312284351,-1.52659921436818,1.23610935833595,-0.782814324772493,0.736728786361632,NaN,-0.841296550114779,-0.954091241274314,0.948966624604578,-0.9489666246042,1.12271385368912,0.806907097406836,-1.02977472000486,-0.62608374431723,0.305850926412462,-1.24109762841058,-0.0484507765381694,0.456737318289296,-1.44601483941157,NaN,NaN,-0.786532443041039,-0.560257875732239,-0.613927253345172,0.684943723086757,0.137633564315181,-0.513677618688561,-1.07424728034,-1.07424728034065,1.00211437740477,-1.00211437740415,0.0624832877531648
385.7408,0.896709641193022,-1.11586491882789,0.28205767755719,0.0415148939063231,-1.27548492309848,-1.27548492309577,0.296287950494925,-0.775177844254972,0.0597870060748214,0.575759646774063,NaN,0.29475122684978,0.689082520280128,-1.43609660082204,-0.0983003286580961,0.807131805996904,-1.11925030245888,-0.0384557268109417,-1.51929116035761,-0.481561256636127,-1.51929116035727,1.22724659146441,-0.779314185899976,0.730264515786112,NaN,-0.852381333934465,-0.964815824021083,0.953127108431003,-0.953127108430623,1.10410523815718,0.815275367142255,-1.03768083041205,-0.623541863530827,0.303680519973969,-1.23926216258137,-0.0499978915492598,0.417385164571382,-1.45753489367009,NaN,NaN,-0.797619559180026,-0.567530605429612,-0.614596299330433,0.69833364905774,0.154985698393586,-0.530500397159711,-1.0885867873649,-1.08858678736554,0.993040112278802,-0.993040112278183,0.0395579731722531
385.8432,0.886654970078807,-1.11914672927225,0.272091057934678,0.0178642376383994,-1.29270144219361,-1.29270144219084,0.307050123929234,-0.768131404930012,0.0705374558617298,0.587348281700207,NaN,0.301929996734646,0.688790466843752,-1.42185294611193,-0.0908655225736252,0.788253369594187,-1.10085355120168,-0.0441640453027023,-1.51240649203955,-0.485974863007627,-1.5124064920392,1.21719886344096,-0.77606799601713,0.722532039115944,NaN,-0.86338684241949,-0.974769713283138,0.957508392491813,-0.95750839249143,1.08568591322569,0.823254084210601,-1.04515790376518,-0.620919601756274,0.301983996399358,-1.23691360251871,-0.0509593499934559,0.378525349385537,-1.46874555385733,NaN,NaN,-0.808139151730619,-0.574180923230925,-0.615228886959891,0.711397589931994,0.171941480289627,-0.546494985590979,-1.10172504357906,-1.10172504357971,0.984027578063935,-0.984027578063317,0.0175693967156868
385.9456,0.875990126485978,-1.12231471132714,0.261654443200836,-0.00519174213301854,-1.30956136747705,-1.30956136747423,0.31696718700795,-0.761102553189032,0.0805742713056053,0.598009045338314,NaN,0.308438328213375,0.689149745644385,-1.40709625158485,-0.082509432798144,0.769953713117925,-1.08217704832834,-0.0489809068672015,-1.50591425672413,-0.490112791008045,-1.50591425672378,1.20599466594201,-0.773105581482131,0.713541744847913,NaN,-0.874307749555709,-0.983940822794465,0.962112020384183,-0.962112020383795,1.06746027777922,0.830854178906577,-1.05222367912954,-0.61823778560198,0.300739879451956,-1.23406615358388,-0.0513592395970446,0.340238725327324,-1.47959939842643,NaN,NaN,-0.818107401278765,-0.580192434083803,-0.615822291023797,0.724117262328737,0.188479560225656,-0.561607035346932,-1.11361869171486,-1.11361869171551,0.975120572177,-0.975120572176384,-0.00341295300464104
386.048,0.864734892281611,-1.12538298228054,0.250758578745566,-0.0276001668229709,-1.32604802592449,-1.32604802592162,0.326039110405346,-0.754107420603284,0.0898934966691822,0.607695274300809,NaN,0.314245885912149,0.690195608972872,-1.39186288547843,-0.0732169718977857,0.752287076591619,-1.06327494588934,-0.0528910112376327,-1.49978183072515,-0.493972834319654,-1.49978183072479,1.19366640302474,-0.770454337827786,0.703309099661549,NaN,-0.88513693554986,-0.992317681763803,0.966936783507695,-0.966936783507303,1.0494317581245,0.838087134182707,-1.05889640354855,-0.615517027684984,0.299923736681223,-1.23073290703607,-0.0512241312406486,0.302602823080807,-1.49004925984055,NaN,NaN,-0.827540286793421,-0.585551420450906,-0.616372959862372,0.736475411819367,0.204581057589454,-0.575786248420309,-1.12422988798565,-1.1242298879863,0.96636094132023,-0.966360941319615,-0.0233255222466186
386.1504,0.852911493942917,-1.12836435063301,0.239416853244579,-0.0493121241533725,-1.34214501428367,-1.34214501428075,0.334268290618614,-0.747161710871043,0.0984933166129843,0.616363939449092,NaN,0.319325505993407,0.691957255356556,-1.37619047678699,-0.0629797133318229,0.735302331607762,-1.04419942527674,-0.0558834501932674,-1.49397515440163,-0.497553999055343,-1.49397515440127,1.18025023241605,-0.768139078308552,0.691854582329755,NaN,-0.89586556938286,-0.999889616120303,0.971978790068398,-0.971978790068001,1.03160309912506,0.844964924611706,-1.06519472202033,-0.612777574614005,0.299508356145218,-1.22692570403329,-0.0505828755651338,0.265691699322552,-1.50004856038656,NaN,NaN,-0.836453512917013,-0.590246922173158,-0.616876634870731,0.748455949113747,0.220229591613338,-0.58898653417167,-1.13352636057759,-1.13352636057824,0.957788447370386,-0.957788447369775,-0.0421108047909097
386.2528,0.840544559323567,-1.13127027846861,0.227645278093961,-0.0702827731074027,-1.35783627117518,-1.35783627117222,0.341659519795598,-0.740280607754554,0.106374053305009,0.623975915249333,NaN,0.323653392999418,0.694457672093179,-1.36011775561189,-0.0517959603645996,0.719042892826006,-1.02500058968443,-0.0579517162372247,-1.48845893841771,-0.500856586733381,-1.48845893841734,1.16578586754727,-0.766181916009025,0.679203561546444,NaN,-0.906483212314973,-1.00664691173676,0.977231547303007,-0.977231547302606,1.01397660863072,0.851499972299774,-1.07113759543291,-0.610039188731913,0.299463930111984,-1.22265502207472,-0.0494663990888327,0.229575762001757,-1.50955164079689,NaN,NaN,-0.844862444384099,-0.594270794025435,-0.617328470717212,0.760044079365666,0.235411301768582,-0.601166151323174,-1.14148143412205,-1.1414814341227,0.949440638792611,-0.949440638792,-0.0597174477273922
386.3552,0.827661063522634,-1.13411085266034,0.21546245376923,-0.0904714601717336,-1.37310614425123,-1.37310614424822,0.348219942216188,-0.733478674899591,0.113538154306225,0.630496236034495,NaN,0.327209304627848,0.697713552945866,-1.34368439058136,-0.0396707391768363,0.703546660109503,-1.00572637759382,-0.0590936945116632,-1.48319686107781,-0.503882271236055,-1.48319686107743,1.1503163427771,-0.76460217507211,0.665386122477389,NaN,-0.916977939885741,-1.01258095514514,0.982686061676421,-0.982686061676012,0.996554350550939,0.85770510396637,-1.07674422628393,-0.607321051272499,0.299758248689842,-1.21792988192782,-0.0479074965258197,0.194321573569688,-1.51851408165091,NaN,NaN,-0.852782040503513,-0.597617741948794,-0.61772315356985,0.771226421605973,0.250114857304944,-0.612287833766428,-1.14807401833063,-1.14807401833128,0.941352726071867,-0.941352726071256,-0.0761003527742644
386.4576,0.814290262868934,-1.13689476272303,0.20288952321121,-0.109841841516301,-1.38793944882651,-1.38793944882345,0.353958996395751,-0.726769759624812,0.119990167420438,0.635894325975785,NaN,0.329976714309223,0.701735276842975,-1.32693082682879,-0.0266157320456167,0.688845998163866,-0.986422493546059,-0.059311627019893,-1.47815177933384,-0.506634162045451,-1.47815177933345,1.13388775046932,-0.763416325604771,0.650436853315583,NaN,-0.927336481321834,-1.01768435213955,0.988330957038789,-0.988330957038375,0.979338293468065,0.863593502059663,-1.08203398118507,-0.604641675211135,0.300356906488973,-1.21275777355717,-0.0459406159800226,0.159991641858873,-1.52689301471536,NaN,NaN,-0.860226791979968,-0.600285336321972,-0.618055016832918,0.781991114342489,0.264331451190745,-0.622318901996823,-1.1532885598628,-1.15328855986345,0.933557459456839,-0.933557459456228,-0.091220765630322
386.56,0.800463616051547,-1.13962928408351,0.189950111944348,-0.128362004166117,-1.40232151610204,-1.40232151609892,0.358888344639594,-0.720166910214001,0.125736701720552,0.640144192410381,NaN,0.331942943884601,0.706526933175534,-1.30989812564894,-0.0126491654251291,0.674967759173094,-0.967132353904339,-0.0586120409980568,-1.47328596368204,-0.509116851150857,-1.47328596368164,1.1165489613894,-0.762637938432148,0.634394604878353,NaN,-0.937544374506337,-1.02195102637413,0.994152605947377,-0.994152605946957,0.962330425871673,0.869178650753745,-1.08702631021091,-0.602018825143194,0.301223525858632,-1.20714459982568,-0.0436016333422154,0.126644212404274,-1.53464741724786,NaN,NaN,-0.867210676927785,-0.602273997093954,-0.618318155864052,0.792327900834247,0.278054767717605,-0.631231364186912,-1.1571149614684,-1.15711496146905,0.926085008536497,-0.926085008535886,-0.105046340584186
386.6624,0.78621469128243,-1.14232026695956,0.17667025389717,-0.14600457494743,-1.41623823143653,-1.41623823143336,0.363021793163489,-0.713682315179491,0.130786375302251,0.643224575751681,NaN,0.333099260958542,0.71208637948488,-1.29262780465942,0.002204333679526,0.661933353096235,-0.947897043913712,-0.0570056330315848,-1.46856135220388,-0.511336442305913,-1.46856135220347,1.09835133989235,-0.762277658096948,0.617302235045885,NaN,-0.94758613304949,-1.02537630079288,1.0001352744022,-1.00013527440178,0.945532850922978,0.874474279139988,-1.09174066725106,-0.599469449918115,0.302320000786259,-1.20109463631021,-0.0409276115901763,0.0943330800113043,-1.5417383832739,NaN,NaN,-0.873747150957681,-0.603586945267112,-0.618506542943287,0.802228186513003,0.291280911884173,-0.639002005009234,-1.15954847532068,-1.15954847532133,0.918962850228619,-0.918962850228008,-0.117551165767578
386.7648,0.771579059662992,-1.14497213345796,0.163078301946677,-0.162746798879992,-1.42967606567841,-1.42967606567521,0.366375207281701,-0.707327271059342,0.135149751944087,0.645119054007249,NaN,0.333440938588343,0.718405319628035,-1.27516167522821,0.0179139030400685,0.649758869300466,-0.928755279601451,-0.0545070992809993,-1.46393980703813,-0.513300560670781,-1.46393980703771,1.07934846368943,-0.762343193498948,0.599206347681276,NaN,-0.95744542033982,-1.02795696448703,1.00626128647719,-1.00626128647676,0.928947874633003,0.879494303107779,-1.09619643518667,-0.597009635421515,0.303606764971795,-1.1946105058718,-0.0379565413129741,0.0631074406565148,-1.54812937005161,NaN,NaN,-0.879849170592079,-0.604230118238963,-0.618614143709004,0.811685065515897,0.304008294856082,-0.645612452268011,-1.16058957735972,-1.16058957736037,0.912215679090666,-0.912215679090056,-0.128715734729198
386.8672,0.756594178302195,-1.14758788808252,0.149204823968027,-0.17857056989279,-1.4426221048304,-1.44262210482714,0.368966430421261,-0.701112177216881,0.138839274398947,0.645816108404961,NaN,0.332967281434363,0.725469401028032,-1.25754167223487,0.0344426335334289,0.638455251027872,-0.909743369829498,-0.0511349061443105,-1.45938334484766,-0.515018339371406,-1.45938334484724,1.05959585648594,-0.762839326438797,0.580157033764749,NaN,-0.967105223882038,-1.0296913257883,1.01251121212331,-1.01251121212288,0.912578096419529,0.884252767960673,-1.10041285881409,-0.594654580107472,0.305043083474543,-1.18769317021725,-0.0347270636338146,0.0330117991318774,-1.55378641920039,NaN,NaN,-0.88552923860155,-0.604212050442087,-0.618635034160181,0.820693317827858,0.316237478706233,-0.651049210482705,-1.1602438295029,-1.16024382950355,0.905865353429797,-0.905865353429187,-0.138526855714653
386.9696,0.741299268991936,-1.15016914767433,0.135082486733784,-0.193462410477825,-1.45506408490315,-1.45506408489986,0.370815217893775,-0.695046545030572,0.141869206565542,0.645309165446863,NaN,0.331681629819591,0.733258348874003,-1.23980967258353,0.0517478000520593,0.628028521039106,-0.890895181741526,-0.0469110059812295,-1.45485431261801,-0.516500378822636,-1.45485431261758,1.0391507383288,-0.763767941449989,0.560207617447212,NaN,-0.976548024837559,-1.03057924858308,1.01886407504582,-1.01886407504538,0.896426496677684,0.888763796459333,-1.10440898856306,-0.592418587344722,0.306587359731732,-1.18034194711491,-0.0312781856079703,0.00408592976283493,-1.55867835227919,NaN,NaN,-0.890799462630666,-0.603543727262518,-0.618563511014722,0.829249378704664,0.327970992037001,-0.655303655396108,-1.15852173187368,-1.15852173187433,0.899930881051745,-0.899930881051136,-0.146977502787605
387.072,0.725735196344256,-1.15271619343415,0.120745929842403,-0.207413412837563,-1.46699043647615,-1.46699043647282,0.371943188482824,-0.689139004946079,0.144255591134463,0.64359663000771,NaN,0.329591353639009,0.741746167231364,-1.22200730379679,0.0697811638574717,0.618480051722066,-0.872242118855401,-0.0418605133373081,-1.45031550543671,-0.517758676897196,-1.45031550543627,1.01807178985028,-0.765128083210463,0.539414399878579,NaN,-0.985755962676435,-1.03062216303435,1.02529757480694,-1.02529757480651,0.880496499954962,0.893041547058526,-1.10820363618142,-0.590315062274456,0.308197446062708,-1.17255456459469,-0.0276490023677356,-0.0236351314396645,-1.56277694242734,NaN,NaN,-0.895671625176287,-0.602238425472855,-0.618394182907437,0.837351280395123,0.339213132702631,-0.658371989276716,-1.15543855649666,-1.1554385564973,0.894428437584069,-0.894428437583461,-0.154066626444144
387.1744,0.709944345872781,-1.15522804106853,0.106231631791655,-0.220419160826794,-1.4783903362024,-1.47839033619903,0.372373784947769,-0.683397300207706,0.14601621796442,0.640681912833316,NaN,0.326707840218998,0.750901427941922,-1.20417574798,0.0884893641248581,0.609806869045038,-0.853813118500137,-0.0360113593555967,-1.44573025336242,-0.518806531195428,-1.44573025336197,0.996418918694169,-0.766916045708995,0.5178363873429,NaN,-0.994710998027267,-1.0298230384975,1.03178831720653,-1.03178831720609,0.864791988115205,0.897100182408437,-1.11181533945594,-0.588356503395788,0.309830950142442,-1.16432725797415,-0.0238784346807785,-0.0501210903785464,-1.56605706245343,NaN,NaN,-0.900157260816544,-0.600311549001179,-0.618122033229922,0.844998567088051,0.349969770790862,-0.660255163649683,-1.15101414923002,-1.15101414923067,0.889371407259925,-0.889371407259318,-0.159798946618701
387.2768,0.693970500404439,-1.1577025207566,0.0915777704009681,-0.23247964842578,-1.48925375695822,-1.4892537569548,0.37213223227351,-0.677828262564851,0.147170594959051,0.636573445716718,NaN,0.32304647196039,0.760687647785657,-1.18635554589796,0.107814396573503,0.602001980306042,-0.835634668197664,-0.0293939353891587,-1.44106250955301,-0.519658418123829,-1.44106250955255,0.974253017507076,-0.769125491750081,0.495534994402618,NaN,-1.00339507496001,-1.02818631063101,1.03831205019418,-1.03831205019374,0.849317248484313,0.900953848340632,-1.11526233628413,-0.586554489159982,0.311445534668139,-1.15565490770746,-0.0200049839942802,-0.0753464131682649,-1.56849680611647,NaN,NaN,-0.904267729759382,-0.597780458602935,-0.61774245614469,0.852192189133317,0.360248158111663,-0.660958779016239,-1.14527269548513,-1.14527269548577,0.884770441311884,-0.884770441311278,-0.164184746099607
387.3792,0.677858710692482,-1.16013635983169,0.0768240771317214,-0.243599202363325,-1.49957150979031,-1.49957150978686,0.371245489244938,-0.672437768973199,0.147739917972179,0.631284674821228,NaN,0.318626585847795,0.771063739134505,-1.16858640286588,0.127694163677032,0.595054717885841,-0.817730837157266,-0.0220407313647019,-1.43627695784985,-0.520329857899325,-1.43627695784938,0.951635709858353,-0.771747597566721,0.472573721522583,NaN,-1.01179027908914,-1.02571776463433,1.04484390662635,-1.04484390662591,0.834076858049086,0.904616670335853,-1.11856255829337,-0.584919669127971,0.312999207130933,-1.14653121252548,-0.0160665063740154,-0.0992903651411581,-1.57007758026146,NaN,NaN,-0.908014278520306,-0.59466428895831,-0.617251275301638,0.858934386769159,0.370056745787542,-0.660492964651035,-1.13824245929773,-1.13824245929838,0.880633536432217,-0.880633536431612,-0.16723967326656
387.4816,0.661655153641012,-1.1625252650914,0.0620116810294918,-0.253786408059485,-1.50933527544981,-1.50933527544632,0.36974219357162,-0.66723068326332,0.147747038962763,0.624834022348566,NaN,0.313471405658085,0.781984511647902,-1.150906996873,0.148063074060034,0.588951093276232,-0.800123321213279,-0.0139859739518101,-1.43133914480126,-0.520837275662969,-1.43133914480077,0.92862908609632,-0.774771215993963,0.449017812745109,NaN,-1.01987898538177,-1.0224243858656,1.05135865225759,-1.05135865225715,0.819075517878598,0.908102773652529,-1.12173365348498,-0.583461769672312,0.314450596275213,-1.13694889162453,-0.0121000068651464,-0.121937064957431,-1.57078417002967,NaN,NaN,-0.911408089156006,-0.590983750121514,-0.616644754433215,0.865228571274903,0.379405008847927,-0.658872233438656,-1.12995551458902,-1.12995551458967,0.876966137194221,-0.876966137193618,-0.168984554027923
387.584,0.645406972388229,-1.16486400420651,0.0471829376230353,-0.263054031258071,-1.51853762538958,-1.51853762538605,0.367652599929399,-0.66221079383147,0.147216429173925,0.617244806107342,NaN,0.30760793741448,0.79340119803954,-1.13335479118535,0.168852663233169,0.583674157973031,-0.78283150177616,-0.00526526887525155,-1.42621562820561,-0.521197864301744,-1.42621562820511,0.905295434292067,-0.778183050710882,0.424933902503598,NaN,-1.02764399270441,-1.01831419444104,1.05783092850465,-1.05783092850422,0.804317859973879,0.911426321510558,-1.12479303238892,-0.582189615214428,0.315759214892801,-1.12689990808476,-0.00814145248634086,-0.143275539542741,-1.57060478079802,NaN,NaN,-0.914460324178184,-0.586760916698416,-0.615919604683094,0.871079206005094,0.388303274888246,-0.656115307913696,-1.12044748825171,-1.12044748825235,0.873771258633735,-0.873771258633133,-0.16944520376138
387.6864,0.629162095381495,-1.16714648573852,0.0323812405523873,-0.271418924040357,-1.52717203129758,-1.52717203129401,0.365008508240475,-0.657380762666088,0.14617413135624,0.608545107176293,NaN,0.301066819855857,0.805261973111678,-1.1159658555835,0.189992202998783,0.579204367546555,-0.765872516938144,0.00408475004212531,-1.42087412384523,-0.521429448909851,-1.42087412384471,0.88169697313028,-0.78196783362014,0.400389662530931,NaN,-1.03506864572631,-1.01339608142482,1.06423547524389,-1.06423547524345,0.789808252638273,0.914601555509209,-1.12775791921851,-0.581111158195542,0.316885711703219,-1.11637570301706,-0.00422559841682628,-0.163299759601277,-1.56953105858904,NaN,NaN,-0.917182167470236,-0.582019010050375,-0.615072990234403,0.87649168722215,0.396762554654816,-0.652244920089138,-1.10975732665736,-1.10975732665801,0.871049617933721,-0.871049617933121,-0.168652223056869
387.7888,0.61296903379709,-1.16936583719701,0.017650815620733,-0.278901902339559,-1.53523286205714,-1.53523286205354,0.361843180211704,-0.652742098332958,0.144647696296903,0.598767580050662,NaN,0.293882125574546,0.817512434661283,-1.09877469914391,0.211409266950919,0.575519941685154,-0.749261338671838,0.0140267621131637,-1.41528363244434,-0.521550349525849,-1.41528363244379,0.857895594283612,-0.78610849903241,0.375453459568253,NaN,-1.0421369422777,-1.00767966112206,1.07054732246005,-1.07054732245962,0.775550630948811,0.917642821370293,-1.13064538892632,-0.5802335127406,0.317792114763763,-1.10536742875245,-0.000385821904320807,-0.18200863249296,-1.56755808919398,NaN,NaN,-0.919584854872993,-0.576782176688004,-0.614102531847563,0.881472225604337,0.404794376252994,-0.647287588826025,-1.09792708693858,-1.09792708693922,0.86879976811842,-0.868799768117822,-0.166640760985327
387.8912,0.596876658722856,-1.17151448277211,0.00303649777189908,-0.285527583462225,-1.54271536999283,-1.54271536998919,0.358191245682691,-0.648295155532153,0.142666104320431,0.587949208852612,NaN,0.286091115959343,0.830096026601927,-1.08181411499827,0.233030232426312,0.572597209478931,-0.733010850638945,0.0245230838262148,-1.40941453198523,-0.521579237803167,-1.40941453198467,0.83395262087919,-0.790586352483068,0.35019403137006,NaN,-1.04883362030579,-1.00117514871473,1.07674194523894,-1.07674194523851,0.761548373463338,0.920564570576489,-1.13347238007636,-0.579562991051002,0.318442064000923,-1.09386617312962,0.00334603599165633,-0.199405935313313,-1.56468437555863,NaN,NaN,-0.921679691585101,-0.571075267509433,-0.613006307819114,0.88602773237231,0.412410628975759,-0.641273375525503,-1.08500174882494,-1.08500174882558,0.867018235054373,-0.867018235053777,-0.163450238781462
387.9936,0.580933961223018,-1.17358422555663,-0.0114165084272318,-0.291324181388011,-1.54961567238371,-1.54961567238003,0.354088601558038,-0.644039152625073,0.140259676185665,0.576131022848759,NaN,0.277733960568074,0.842954408931454,-1.06511503831331,0.254780722804334,0.570410927417405,-0.71713192820428,0.0355359601840821,-1.40323862460263,-0.521534982980361,-1.40323862460206,0.809928583862346,-0.795381236847934,0.324680181229003,NaN,-1.05514422222696,-0.993893268467072,1.08279538277445,-1.08279538277402,0.747804232276175,0.923381339982121,-1.13625568428462,-0.579105137951142,0.318801024137232,-1.0818631746868,0.0069398126521702,-0.215500190395521,-1.56091179433154,NaN,NaN,-0.923478057619212,-0.56492362761581,-0.611782854914263,0.890165717677472,0.419623423849114,-0.634235620003909,-1.07102903697701,-1.07102903697765,0.865699659251124,-0.865699659250529,-0.159124041744822
388.096,0.565189798087558,-1.17556633851839,-0.025662884251099,-0.296323271179335,-1.55593073390917,-1.55593073390547,0.349572300651927,-0.639972196388505,0.137459973754454,0.563357784959818,NaN,0.268853432181764,0.856027795826781,-1.04870642252695,0.276586008437734,0.568934559462287,-0.701633529610965,0.0470278037176359,-1.39672914328502,-0.52143648136112,-1.39672914328444,0.78588301036721,-0.800471699808091,0.298980483156484,NaN,-1.06105514373335,-0.985845195784409,1.0886843308308,-1.08868433083037,0.734320307551694,0.926107718181056,-1.13901191790096,-0.578864752364107,0.318836469378418,-1.06935003316607,0.0103671408153123,-0.230304505331735,-1.55624553736652,NaN,NaN,-0.924991404232608,-0.558352907361678,-0.610431175232404,0.893894209144335,0.426444973922333,-0.626210664724352,-1.05605923555216,-1.05605923555281,0.864836938490998,-0.864836938490403,-0.153709197769086
388.1984,0.549692624249945,-1.17745166277336,-0.0396574667652595,-0.300559539026209,-1.56165834966166,-1.56165834965792,0.344680421640047,-0.636091309537041,0.134299684128058,0.549677658213723,NaN,0.259494583014517,0.869255278193216,-1.03261514018023,0.298371378897994,0.568140513179072,-0.686522805292491,0.0589613684536223,-1.38986073965483,-0.521302465180415,-1.38986073965424,0.76187421390719,-0.80583516371747,0.273162987448373,NaN,-1.06655367883986,-0.977042533936835,1.09438622420268,-1.09438622420225,0.721098050980742,0.928758305418052,-1.14175748000268,-0.578845886029356,0.318518038690091,-1.05631891690963,0.0136015386252497,-0.243836402466942,-1.55069404673638,NaN,NaN,-0.926231248399358,-0.551388900128626,-0.608950754604904,0.897221694090496,0.43288749185297,-0.617237580219912,-1.04014497811516,-1.04014497811581,0.86442136675115,-0.864421366750555,-0.147256059640871
388.3008,0.534490211403899,-1.17923070701449,-0.053355531013667,-0.304070528449382,-1.56679712355327,-1.5667971235495,0.339451913677296,-0.632392460390683,0.130812481996355,0.535141849164363,NaN,0.249704403425164,0.882575134347209,-1.01686591042657,0.320062489039119,0.568000328645976,-0.671805221487084,0.0712998583851412,-1.38260947115444,-0.521151295744761,-1.38260947115384,0.737959078941744,-0.811448096172743,0.247294920513336,NaN,-1.07162806974651,-0.967497322145089,1.09987932397526,-1.09987932397484,0.708138285887988,0.931347668125531,-1.14450849768135,-0.579051819000082,0.317817665781251,-1.04276276363628,0.0166184776456169,-0.256117651323,-1.54426894817437,NaN,NaN,-0.927209170214639,-0.544057406729033,-0.607341593020709,0.900157084000082,0.438963102207911,-0.60735790076587,-1.0233410127579,-1.02334101275854,0.864442769332227,-0.864442769331631,-0.139817999272358
388.4032,0.51962935256803,-1.18089374316969,-0.0667130825346203,-0.306896385082105,-1.57134643803487,-1.57134643803107,0.3339264177484,-0.628870593283909,0.12703287227701,0.519804229441007,NaN,0.239531465403517,0.895925127336636,-1.00148124892353,0.341585679731585,0.5684848197511,-0.657484687646809,0.084006978927315,-1.37495279367811,-0.521000759002516,-1.37495279367749,0.714192838953671,-0.817286179333378,0.221442379233242,NaN,-1.07626756354914,-0.957222068353878,1.10514281366487,-1.10514281366445,0.695441237502992,0.933890285504106,-1.1472807579863,-0.579485018577464,0.316709686862665,-1.02867546939813,0.0193954331383699,-0.267174105385296,-1.53698498218961,NaN,NaN,-0.927936807091068,-0.536384123575874,-0.605604240824073,0.902709696208374,0.444683769713469,-0.596615369554965,-1.0057039608885,-1.00570396088915,0.864889635913423,-0.864889635912826,-0.131451113243545
388.5056,0.505155555155449,-1.18243089608435,-0.0796871570805393,-0.309079598327147,-1.5753064135338,-1.57530641352996,0.328144072458881,-0.625519659218694,0.122996019635083,0.503720939991975,NaN,0.229025555161481,0.909242784715119,-0.986481432714561,0.362868273144018,0.569564175322817,-0.643563680072347,0.09704694619657,-1.36686956083027,-0.520867887983135,-1.36686956082964,0.690628853929659,-0.823324475078966,0.195670027085573,NaN,-1.08046247169513,-0.946229799769087,1.11015689711716,-1.11015689711674,0.683006571847526,0.936400485471404,-1.15008962622011,-0.580147089735395,0.315170928249543,-1.01405206108198,0.021911919815198,-0.277035536556518,-1.52885992751844,NaN,NaN,-0.928425832666964,-0.52839454683739,-0.6037398331435,0.904889245583929,0.450061243395971,-0.585055688386829,-0.987292090221602,-0.987292090222251,0.865749252566127,-0.865749252565528,-0.12221393349712
388.608,0.491112729626351,-1.18383222474693,-0.0922361204517864,-0.310664736484809,-1.57867785621597,-1.57867785621211,0.322145312675178,-0.62233265046052,0.118737571039678,0.486949981976062,NaN,0.218237298805629,0.922465651063272,-0.971884474480825,0.383838836035608,0.571208035837011,-0.630043358693319,0.110384474516397,-1.3583400309406,-0.520768824178021,-1.35834003093995,0.667318399035891,-0.829537580911862,0.170040806083087,NaN,-1.08420422421087,-0.934534126319566,1.11490288837023,-1.11490288836982,0.670833445934536,0.938892368367787,-1.15294995127262,-0.581038724721228,0.313180778696587,-0.9988888491127,0.0241495185736249,-0.285735454401181,-1.51991450841834,NaN,NaN,-0.928687912270077,-0.520113876121749,-0.601750121441766,0.906705840343051,0.455107010069246,-0.572726271345173,-0.96816510780133,-0.96816510780198,0.867007834765473,-0.867007834764872,-0.112167134725142
388.7104,0.477542884216878,-1.18508779293194,-0.104319958602839,-0.311698169416917,-1.58146219414231,-1.58146219413842,0.315970669491741,-0.619301644900578,0.114293477054457,0.469550797158875,NaN,0.207217783984584,0.93553150412265,-0.957706103917848,0.404427403257592,0.573385562821733,-0.616923674963557,0.123984763216898,-1.34934587997285,-0.520718706372635,-1.3493458799722,0.644310478639976,-0.835899772381428,0.144615680342571,NaN,-1.08748541093726,-0.922149314195506,1.11936328800254,-1.11936328800214,0.658920574421542,0.941379718136618,-1.15587596014191,-0.582159659786273,0.310721252034262,-0.983183560217389,0.0260918995031043,-0.293310895018839,-1.51017227739947,NaN,NaN,-0.928734636008151,-0.511566900642405,-0.599637507418092,0.908169981399763,0.459832249589251,-0.559676004178723,-0.948383965683998,-0.94838396568465,0.868650662187651,-0.868650662187046,-0.101373229885744
388.8128,0.464485836725831,-1.18618773113982,-0.115900549489246,-0.312227771968405,-1.58366140675192,-1.583661406748,0.309660580166502,-0.61641786079314,0.109699818966823,0.451583844478735,NaN,0.19601818282322,0.948378539637263,-0.943959755476162,0.424565666906941,0.576065513295556,-0.60420347042756,0.137813497042733,-1.33987021460344,-0.520731565160194,-1.33987021460278,0.621651674954524,-0.842385132730957,0.119453419705021,NaN,-1.09029980634692,-0.909090367296418,1.12352184414193,-1.12352184414153,0.647266314961917,0.943875904149279,-1.15888114725972,-0.583508646625395,0.307777039022466,-0.96693545452761,0.027724838979729,-0.299802171946954,-1.49965946922842,NaN,NaN,-0.928577440054935,-0.502777864959167,-0.597405083430612,0.909292569261225,0.464247791939025,-0.545955007875286,-0.928010669160668,-0.928010669161321,0.870662209924048,-0.87066220992344,-0.0898962493880842
388.9152,0.451978951928619,-1.18712229467289,-0.126941911450661,-0.312302608136678,-1.58527795573592,-1.58527795573198,0.3032552126903,-0.613671713439098,0.104992647725947,0.433110185996477,NaN,0.184689386746282,0.960945547818415,-0.930656561842041,0.444187154096845,0.579216325192442,-0.59188057063133,0.151836862926947,-1.32989758140352,-0.520820212614505,-1.32989758140284,0.599386029954735,-0.848967674870105,0.0946104192715352,NaN,-1.09264238000344,-0.895373112886379,1.12736359889926,-1.12736359889887,0.635868763876162,0.946393781153367,-1.1619781681289,-0.585083444209815,0.304335540458932,-0.950145433351525,0.0290362216298546,-0.305252598678983,-1.48840482998337,NaN,NaN,-0.928227528030728,-0.493770326672996,-0.595056675409875,0.910084920009639,0.468364083453556,-0.53161440503116,-0.907108078926481,-0.907108078927136,0.873026267023183,-0.873026267022573,-0.0778014111261003
389.0176,0.440056909417494,-1.18788191986904,-0.13741042491868,-0.311972606867494,-1.5863147218964,-1.58631472189242,0.296794302476115,-0.61105286200759,0.100207835456889,0.41419109726236,NaN,0.173281666085608,0.973172107113795,-0.91780535277222,0.463227418909785,0.582806212906747,-0.579951883036889,0.166021574799176,-1.31941397851162,-0.520996133541768,-1.31941397851093,0.577554950834675,-0.855621460459167,0.070140542924979,NaN,-1.09450929677304,-0.881014284691894,1.1308749246629,-1.13087492466251,0.624725843530318,0.948945597826372,-1.1651787492915,-0.586880834719621,0.300386875502147,-0.932816140111166,0.0300160207947683,-0.309708206089323,-1.47643943137394,NaN,NaN,-0.927695797734338,-0.484567020976021,-0.592596876394008,0.910558783478849,0.472191168163839,-0.516706093095798,-0.885739702407882,-0.885739702408539,0.87572603666609,-0.875726036665476,-0.0651548011970922
389.12,0.428751503561991,-1.1884572750606,-0.147275024529803,-0.311288245207189,-1.58677494603687,-1.58677494603288,0.290316995287064,-0.608550239215787,0.0953809363885533,0.394887712004226,NaN,0.161844363919098,0.984998805726382,-0.905412658742104,0.481624259139974,0.586803264831009,-0.568413504084571,0.180334892877839,-1.30840688823748,-0.521269394033879,-1.30840688823678,0.556197129012098,-0.862320716608614,0.046094981061636,NaN,-1.09589790892363,-0.866031596003796,1.13404355551245,-1.13404355551207,0.61383536488372,0.951542925262307,-1.16849362698688,-0.588896665534868,0.295923865566302,-0.914952049160475,0.0306562592665132,-0.313217476959041,-1.46379647809667,NaN,NaN,-0.92699277309264,-0.475189738814986,-0.590031060466931,0.91072635299332,0.475738683014715,-0.501282532968301,-0.86396947600936,-0.86396947601002,0.878744217761046,-0.87874421776043,-0.0520230864872552
389.2224,0.418091475193691,-1.18883930092949,-0.156507359684652,-0.310300251979233,-1.58666216925331,-1.58666216924929,0.283861692830404,-0.60615206284912,0.0905470544447457,0.375260703676429,NaN,0.150425627534052,0.996367484458703,-0.893482718565751,0.499317951938044,0.591175530686383,-0.557260832284109,0.194744626310753,-1.29686534574567,-0.521648584566391,-1.29686534574495,0.535348467571022,-0.86903994689087,0.0225221195240497,NaN,-1.09680673987409,-0.850443797629514,1.13685861520268,-1.13685861520231,0.603195059723242,0.954196612561837,-1.17193252122299,-0.591125914939655,0.290941996712905,-0.896559533375673,0.0309509555209419,-0.315831108764526,-1.4505111087571,NaN,NaN,-0.926128539496195,-0.465659216353938,-0.587365376179843,0.910600262061742,0.479015861877288,-0.485396560757805,-0.841861545614532,-0.841861545615195,0.882063070837008,-0.882063070836388,-0.0384732696572526
389.3248,0.408102373437544,-1.18901923749244,-0.165081923703809,-0.309059340069156,-1.58598017006797,-1.58598017006393,0.277465901142044,-0.603845833240711,0.0857407165990321,0.355370000518569,NaN,0.139072175274077,1.00722148787478,-0.882017490777258,0.516251495628999,0.595891091786688,-0.546488681544575,0.209219116331011,-1.28478003902752,-0.522140807295004,-1.2847800390268,0.515042017228783,-0.875754032727724,-0.000532577979995619,NaN,-1.0972354581261,-0.834270717166154,1.13931064061048,-1.13931064061012,0.592802585308541,0.956916768093887,-1.17550414100564,-0.593562772519591,0.285439363778727,-0.87764690545555,0.0308960598734556,-0.317601804688595,-1.43662018933117,NaN,NaN,-0.925112680378459,-0.455995030826147,-0.584606724594476,0.910193570636396,0.482031545260641,-0.469101225230505,-0.819480055970656,-0.819480055971322,0.885664473568379,-0.885664473567754,-0.0245724844746632
389.4272,0.398806446070288,-1.1889886382662,-0.172976153194771,-0.307615968891752,-1.58473289870641,-1.58473289870235,0.271166083918254,-0.60161832641523,0.0809957514386289,0.335274526599235,NaN,0.127829091965836,1.01750591019603,-0.87101666937134,0.532370843966932,0.600918119127727,-0.536091393301644,0.223727206678817,-1.27214342499021,-0.522751700955552,-1.27214342498948,0.495307925367359,-0.882438322221219,-0.0230266680174376,NaN,-1.09718483978797,-0.817533277639399,1.14139160031368,-1.14139160031334,0.582655508690249,0.959712758396145,-1.17921620820787,-0.596200720636803,0.279416601614232,-0.858224434384553,0.0304893852268918,-0.318584083785657,-1.42216210201618,NaN,NaN,-0.923954212726028,-0.446215500382661,-0.581762727110353,0.909519744602425,0.484794194029384,-0.452449646472599,-0.796888961096585,-0.796888961097254,0.889529973544944,-0.889529973544316,-0.0103878210412204
389.5296,0.39022255716447,-1.18873937306566,-0.180170499311994,-0.306020130402106,-1.58292440960786,-1.58292440960378,0.264997522706181,-0.599455596691007,0.0763451711803626,0.315031959488981,NaN,0.1167396440767,1.02716782003979,-0.860477703954002,0.547625117108383,0.60622492877437,-0.52606294623346,0.238238213017831,-1.25894985703093,-0.523485487359419,-1.25894985703018,0.476173404655576,-0.889068703607478,-0.0449207983481058,NaN,-1.09665671851644,-0.800253497464869,1.14309490574525,-1.14309490574491,0.572751283829514,0.962593214588224,-1.18307548526854,-0.599032602974851,0.272876810650359,-0.838304339966414,0.029730538423518,-0.318834093371398,-1.40717653387787,NaN,NaN,-0.922661519502042,-0.436337585451224,-0.578841688227496,0.908592630344953,0.487311902976681,-0.435494887329408,-0.774151865669921,-0.774151865670592,0.89364084462247,-0.893640844621837,0.00401383463548377
389.632,0.38236613129087,-1.18826362003969,-0.18664847178915,-0.30432114394979,-1.58055879266786,-1.58055879266376,0.258994185222025,-0.597343000608077,0.0718210553117044,0.294698497382197,NaN,0.105845107889114,1.03615644573277,-0.85039582257609,0.561966772204048,0.611780037794179,-0.516397055247724,0.252721902078948,-1.24519572374902,-0.524345030254632,-1.24519572374826,0.457662726023034,-0.895621660226122,-0.0661787453581648,NaN,-1.09565392056692,-0.78245447704317,1.14441540624493,-1.1444154062446,0.563087239847477,0.965566037226006,-1.18708779443107,-0.602050670796379,0.265825482135831,-0.817900764898625,0.028620857378175,-0.318409401268843,-1.39170426676209,NaN,NaN,-0.921242280156115,-0.426376786618107,-0.575852558436605,0.907426425111122,0.489592408511055,-0.418289829281564,-0.751331900432822,-0.751331900433495,0.897978148999591,-0.897978148998953,0.0185659646589666
389.7344,0.375249124930588,-1.18755384897912,-0.192396656066014,-0.302567441954517,-1.57764010536515,-1.57764010536104,0.253188606168119,-0.595265243744426,0.0674544391451508,0.274328636577335,NaN,0.0951846106367391,1.04442331200404,-0.84076405369995,0.575351726454238,0.617552217064231,-0.507087248561324,0.267148485873242,-1.23087958542345,-0.525331907111402,-1.23087958542269,0.439797237787373,-0.902074306610735,-0.0867674160758844,NaN,-1.09418018144184,-0.764160376967072,1.14534935748872,-1.1453493574884,0.553660596538056,0.968638395809407,-1.19125802485004,-0.605246607757896,0.258270421642255,-0.797029723747562,0.0271633528445747,-0.317368749016986,-1.3757869669994,NaN,NaN,-0.919703405180021,-0.416347037809907,-0.572804898263975,0.906035643438244,0.491643089497041,-0.400887044264939,-0.728491626486367,-0.728491626487042,0.902522804106272,-0.902522804105629,0.0332026005490336
389.8368,0.368880027547248,-1.18660280209932,-0.197404704097598,-0.300806336150276,-1.57417231196978,-1.57417231196566,0.247611789367106,-0.593206437879075,0.0632752177438395,0.253974972025614,NaN,0.0847949936381759,1.05192234267667,-0.831573243432544,0.587739449159051,0.623510535852391,-0.498126920860844,0.281488626921501,-1.21600229149163,-0.526446496694006,-1.21600229149087,0.422595409694185,-0.9084044111203,-0.10665681898132,NaN,-1.09224004361219,-0.745396390072852,1.14589435993524,-1.14589435993493,0.544468509929928,0.97181672519449,-1.19559013295631,-0.608611543231363,0.250221661222603,-0.775709034450897,0.025362644229964,-0.31577176538752,-1.35946697426403,NaN,NaN,-0.918050980711112,-0.406260602470502,-0.569708838669882,0.904435080902779,0.493470969168351,-0.383338654267446,-0.705692959234621,-0.705692959235297,0.907255652393183,-0.907255652392534,0.0478585217716831
389.9392,0.363263894918064,-1.18540347923296,-0.201665299622781,-0.299083771862231,-1.57015923626295,-1.57015923625882,0.242293136058159,-0.591150150525402,0.0593120736656997,0.233688038445128,NaN,0.0747107108334967,1.0586099621621,-0.822812066773944,0.599093055831578,0.629624395650341,-0.489509374636172,0.295713441382587,-1.20056707498587,-0.527688083774515,-1.20056707498511,0.40607289543498,-0.914590413506474,-0.12582001442208,NaN,-1.08983874079906,-0.726188706145664,1.14604927629405,-1.14604927629375,0.535508131869347,0.975106720521308,-1.2000871400351,-0.61213606156597,0.241691350217351,-0.753958242016243,0.0232248774083307,-0.313678663020139,-1.34278709220413,NaN,NaN,-0.916290221869483,-0.396127982074745,-0.566575029810749,0.902639776127013,0.495082729724938,-0.365696177674689,-0.682997103618284,-0.682997103618962,0.912157532919788,-0.912157532919134,0.0624694553662151
390.0416,0.358402415004889,-1.18394912873413,-0.205174098213785,-0.297444092814254,-1.56560452864432,-1.56560452864017,0.237260393381837,-0.589079436678684,0.0555924259873252,0.213516201371577,NaN,0.0649637711298571,1.06444522199375,-0.814467035653022,0.609379428775823,0.635863554891105,-0.481227866836301,0.309794487363777,-1.18457962456144,-0.529054979404118,-1.18457962456068,0.390242602445244,-0.920611442350175,-0.144233058037389,NaN,-1.0869820779182,-0.706564465493469,1.14581414437192,-1.14581414437162,0.526776657108677,0.978513327155963,-1.20475112159559,-0.615810201468728,0.232693624327925,-0.731798540367933,0.0207576225594348,-0.311149950874227,-1.32579038536291,NaN,NaN,-0.91442542885287,-0.385957839855761,-0.563414571720984,0.900664969196281,0.496484745437847,-0.348010373174467,-0.660464494401961,-0.660464494402641,0.917209355137209,-0.917209355136548,0.0769722545250105
390.144,0.354294003088413,-1.18223323982738,-0.207929643055997,-0.29592984069662,-1.56051164412202,-1.56051164411786,0.232539612837634,-0.586976853155383,0.0521423919407122,0.193505595473768,NaN,0.0555837237793586,1.06938995763359,-0.80652250865917,0.618569366635763,0.642198148940928,-0.47327566895176,0.323703736491259,-1.1680481273485,-0.530544650375029,-1.16804812734774,0.375114758872386,-0.926447331852656,-0.161874946510563,NaN,-1.08367631518006,-0.686551698092825,1.14519009640318,-1.14519009640289,0.518271337018515,0.982040721241537,-1.20958317942381,-0.619623430729958,0.223244460811664,-0.709252693460846,0.0179697591303901,-0.308246187062154,-1.3085199866368,NaN,NaN,-0.912459949727497,-0.375756940540493,-0.560238928504894,0.898526056032855,0.497683131586762,-0.330331097365029,-0.638154737444945,-0.638154737445626,0.922392174222623,-0.922392174221957,0.0913050408245902
390.2464,0.350933919205211,-1.18024953228584,-0.209933260605642,-0.294581603731695,-1.55488382836835,-1.55488382836418,0.228155112454506,-0.584824462156222,0.0489867542925641,0.173700099485588,NaN,0.0465976782804949,1.07340896517665,-0.798960707816341,0.626637749772308,0.648598709149541,-0.465646136030341,0.337413536831438,-1.15098327486973,-0.532153846898246,-1.15098327486898,0.360696972894681,-0.932078635242997,-0.178727568697456,NaN,-1.07992806292619,-0.666179248063793,1.14417928591178,-1.14417928591151,0.509989454625972,0.985692281867488,-1.21458339504424,-0.623564588727341,0.213361527410576,-0.686344956441838,0.0148713548803636,-0.305027780959326,-1.29101891926016,NaN,NaN,-0.910396166332696,-0.365530109773428,-0.557059834849895,0.89623854162984,0.498683801780853,-0.312707186471679,-0.616126551033974,-0.616126551034658,0.927687263247862,-0.927687263247189,0.105407307526031
390.3488,0.348314399241268,-1.17799194254355,-0.211188943094681,-0.293437914409103,-1.54872411086413,-1.54872411085996,0.224129440126267,-0.582603834792679,0.0461489297102804,0.15414133290096,NaN,0.0380303454238791,1.07647018203477,-0.791761748049628,0.633563702687261,0.655036183986548,-0.458332776506474,0.350896577478272,-1.13339823410993,-0.533878714532805,-1.13339823410918,0.346994284526461,-0.937486632739513,-0.194775660848383,NaN,-1.07574419202968,-0.645476685149096,1.14278482018734,-1.14278482018707,0.501928270227764,0.989470562707248,-1.21975077616659,-0.627621807876901,0.203064029911424,-0.663100998328247,0.0114735432242048,-0.301554839296107,-1.27332993637629,NaN,NaN,-0.908235513413643,-0.355280214022434,-0.55388920022691,0.893817989883518,0.499492523643854,-0.295186362561648,-0.594437706674609,-0.594437706675294,0.933076174246653,-0.933076174245975,0.119219992526274
390.4512,0.346424793498936,-1.17545460754913,-0.211703223705529,-0.292535185269172,-1.54203530470315,-1.54203530469897,0.220483338170206,-0.580296066261316,0.0436509353161613,0.134868660156409,NaN,0.0299040862360615,1.07854485684564,-0.784903683564364,0.639330736638337,0.661481967323117,-0.451329319208106,0.36412586361014,-1.11530859372098,-0.535714876393655,-1.11530859372024,0.334009214265134,-0.942653333387779,-0.210006761405248,NaN,-1.07113176165886,-0.624474203476355,1.1410106977574,-1.14101069775714,0.494084954059521,0.993377271664824,-1.22508321243043,-0.631782438290441,0.192372563703989,-0.639547826121888,0.0077884039538374,-0.297887041611911,-1.2554953768019,NaN,NaN,-0.905978523453507,-0.345008153416978,-0.550739008837234,0.891279960122754,0.500114961902771,-0.277815156748228,-0.57314496451106,-0.573144964511747,0.938540782110728,-0.938540782110043,0.132685535328444
390.5536,0.345251711504315,-1.17263184816507,-0.211485046241772,-0.291907666247477,-1.53482001294506,-1.53482001294088,0.217235712284208,-0.57788181115967,0.0415133540252007,0.115919193352759,NaN,0.0222389604916348,1.07960769738108,-0.778362571596489,0.643926861112309,0.667907940813797,-0.444629776322664,0.377074710908486,-1.09673229240207,-0.537657476560932,-1.09673229240134,0.321741816126249,-0.947561470874247,-0.224411158257789,NaN,-1.06609796285363,-0.603202505277473,1.13886174962729,-1.13886174962705,0.486456522466993,0.997413258691046,-1.23057744609754,-0.636032993501755,0.181308976846883,-0.61571370781315,0.00382885510301683,-0.294083525611986,-1.23755703012007,NaN,NaN,-0.903624880955771,-0.334712855127997,-0.547621214797409,0.888639924838126,0.500556702058637,-0.260638838439098,-0.552303997067995,-0.552303997068684,0.944063311503546,-0.944063311502856,0.145747934220993
390.656,0.344779176248272,-1.1695181533212,-0.210545627099177,-0.291587406180311,-1.5270806416301,-1.52708064162591,0.214403609727036,-0.575341343577048,0.0397553015869882,0.0973277907802781,NaN,0.0150527723639968,1.07963698736851,-0.772112550829917,0.64734465665142,0.674286536211582,-0.438228497131334,0.389716770336151,-1.07768952649849,-0.539701183572507,-1.07768952649776,0.31018974368076,-0.952194493045615,-0.237981820121538,NaN,-1.06065007462925,-0.581692667654937,1.13634358324047,-1.13634358324023,0.479039790780473,1.00157850437484,-1.23622904942963,-0.640359115350174,0.169896251866778,-0.591628090118519,-0.000391436108904683,-0.290202760955418,-1.21955600250078,NaN,NaN,-0.901173471174042,-0.324391256178415,-0.544547639978937,0.885913176317058,0.500823255528613,-0.243701342691262,-0.531969300529403,-0.531969300530094,0.949626352093601,-0.949626352092905,0.158352820426798
390.7584,0.34498879360771,-1.16610816621211,-0.208898305204454,-0.291604204845498,-1.51881942051058,-1.5188194205064,0.212002212820744,-0.572654640893991,0.0383944007107208,0.079127055829713,NaN,0.00836111695642487,1.07861466902824,-0.766125930301376,0.649581308142109,0.680590819745384,-0.432120204446878,0.402026092528876,-1.05820262993413,-0.541840159818938,-1.05820262993341,0.299348336852533,-0.956536545457313,-0.250714304845696,NaN,-1.05479542887703,-0.559975995190475,1.13346252902194,-1.13346252902171,0.471831350853401,1.00587210439673,-1.24203239892763,-0.64474554263216,0.158158407136764,-0.567321507903582,-0.00485812163070122,-0.286302395140394,-1.20153257645537,NaN,NaN,-0.898622412393018,-0.314038270508991,-0.541529884811283,0.883114735709193,0.500920051323258,-0.227045194260356,-0.512194098063492,-0.512194098064185,0.955212869047316,-0.955212869046613,0.170447561472025
390.8608,0.345859942718206,-1.16239667557199,-0.206558376319462,-0.291985553226739,-1.51003843501866,-1.51003843501447,0.210044854868601,-0.569801480754782,0.0374467707946608,0.0613473500313908,NaN,0.00217743839604756,1.07652640464357,-0.760373284071299,0.650638614275086,0.686794595900421,-0.426300012278466,0.413977230048923,-1.03829592799451,-0.544068006841682,-1.0382959279938,0.28921073315955,-0.960572452380933,-0.262606643069353,NaN,-1.04854138222883,-0.538083865185199,1.13022558711733,-1.13022558711711,0.464827570234043,1.01029225099111,-1.24798064342137,-0.649176069834313,0.146120408972543,-0.542825487061124,-0.00955622905955041,-0.282439073226798,-1.18352606104494,NaN,NaN,-0.895969066278162,-0.303646744294157,-0.538579254872037,0.880259269362514,0.500852417191399,-0.210711431126318,-0.493030235885301,-0.493030235885995,0.960806215703357,-0.960806215702649,0.181981391722501
390.9632,0.347369990906127,-1.15837861540572,-0.203542910097262,-0.292756573726407,-1.50073967360403,-1.50073967359985,0.208543060868756,-0.566761535287994,0.0369270391386668,0.0440168369199121,NaN,-0.00348688734719443,1.07336164696639,-0.75482354873348,0.650523004189938,0.69287252419373,-0.42076343384949,0.425545362512261,-1.01799557454899,-0.546377696302419,-1.01799557454829,0.279767999073243,-0.964287701014889,-0.273659204550902,NaN,-1.04189529803147,-0.516047569376496,1.12664037011798,-1.12664037011776,0.458024595447288,1.01483621473528,-1.25406566818844,-0.653633491826617,0.133808083673841,-0.518172447468352,-0.0144702181943555,-0.278668255219881,-1.16557463269859,NaN,NaN,-0.893210026771095,-0.293207409243632,-0.535706696017483,0.877361005139241,0.500625549688332,-0.19473953226207,-0.474528062392524,-0.474528062393218,0.966390153563491,-0.966390153562777,0.192905551250325
391.0656,0.349494533858547,-1.15404907307354,-0.199870549268806,-0.293939977791642,-1.49092509063644,-1.49092509063227,0.207506606644519,-0.563514451210073,0.0368483710550039,0.0271615648492305,NaN,-0.0086224377216219,1.06911374657004,-0.749444124635281,0.64924558858842,0.698800240966245,-0.415506390558119,0.436706426583048,-0.997329378618715,-0.548761492928566,-0.99732937861803,0.271009270445838,-0.967668433276468,-0.283874560121654,NaN,-1.03486454474715,-0.493898148910696,1.12271503951328,-1.12271503951307,0.451418335642737,1.01950033066039,-1.26027806084069,-0.658099539699116,0.121248027192352,-0.493395612484016,-0.0195840415991661,-0.275044062691711,-1.14771516875988,NaN,NaN,-0.890341091448366,-0.28270884004784,-0.532922730772226,0.874433640937267,0.500244472010312,-0.179167356307663,-0.456736275994963,-0.456736275995658,0.97194888053624,-0.97194888053552,0.203173408407186
391.168,0.352207658300593,-1.14940330175051,-0.195561291568723,-0.295556052576494,-1.48059668039808,-1.48059668039391,0.206943587164473,-0.560039911710125,0.0372225121324589,0.0108055856643677,NaN,-0.0132215984795471,1.0637801071441,-0.744200983414823,0.646822254758809,0.704554478978891,-0.410525225212361,0.447437239857517,-0.976326617666135,-0.551210878256192,-0.976326617665465,0.262921890477873,-0.970701447137999,-0.293257351317187,NaN,-1.02745651425432,-0.471666216445642,1.11845823562339,-1.11845823562319,0.445004410493935,1.02427999438794,-1.26660708913451,-0.662554821540973,0.108467516095666,-0.468528926864114,-0.024881206228906,-0.271619175485254,-1.12998307533199,NaN,NaN,-0.887357219084465,-0.272137415955918,-0.530237398062812,0.87149024659938,0.499713978506495,-0.164031096136728,-0.439701733374035,-0.439701733374731,0.977467062600628,-0.977467062599902,0.212740549932237
391.2704,0.355482220096721,-1.1444367329489,-0.190636258568168,-0.297622677614708,-1.46975655659726,-1.46975655659309,0.20686048899532,-0.556317679748588,0.0380598384985578,-0.00502889972805609,NaN,-0.0172783954458097,1.05736238476221,-0.739058783315175,0.64327380080095,0.710113181339381,-0.405816718608194,0.457715615503963,-0.955017834822626,-0.553716492152135,-0.955017834821974,0.255491537305295,-0.973374208974421,-0.301814176034724,NaN,-1.01967865931792,-0.449381761024199,1.11387900365546,-1.11387900365526,0.438778059687319,1.02916967561764,-1.27304070460891,-0.666978788683513,0.095494421189285,-0.44360698077297,-0.030344834203886,-0.268444782051899,-1.11241211040519,NaN,NaN,-0.88425247856841,-0.261477286922313,-0.527660204252212,0.868543165363476,0.499038563945855,-0.149365246653942,-0.423469219769931,-0.423469219770628,0.98292985929272,-0.982929859291989,0.2215648370965
391.3728,0.359290127928504,-1.1391449864516,-0.185117458648737,-0.300155364998825,-1.45840703285694,-1.45840703285278,0.207262265198031,-0.552327626806875,0.0393694126780653,-0.0203213811744927,NaN,-0.0207883140121586,1.0498667183921,-0.733980992981464,0.638626096099231,0.715455611215751,-0.401378109011999,0.467520469676398,-0.933434629457983,-0.556268106030521,-0.933434629457348,0.248702338416752,-0.975674877181867,-0.309553493012632,NaN,-1.01153854944372,-0.427073934718102,1.10898672348895,-1.10898672348876,0.432734021818156,1.03416295424185,-1.27956558191408,-0.671349741698007,0.0823571238314649,-0.418664935816805,-0.0359577215957202,-0.265570573490399,-1.09503420506929,NaN,NaN,-0.881019998575369,-0.250710348205826,-0.525200091133861,0.865603920010896,0.498222337234714,-0.135202578119872,-0.408081188513069,-0.408081188513767,0.988322934847112,-0.988322934846375,0.229606437950515
391.4752,0.363602624492054,-1.13352387601908,-0.179027550265546,-0.303167314207774,-1.44655070041403,-1.44655070040987,0.208152410778744,-0.548049758154688,0.0411590407657142,-0.0350528789180714,NaN,-0.0237481186588697,1.04130396999199,-0.728930024959125,0.632910246000766,0.720562460083722,-0.397207112348792,0.476831926672426,-0.911609459643318,-0.558854627618931,-0.911609459642703,0.242536975244703,-0.977592332715533,-0.316485539519566,NaN,-1.00304394531042,-0.404770825731897,1.10379104975442,-1.10379104975424,0.426866396823008,1.03925257595742,-1.28616718863116,-0.675644869792121,0.0690844387995819,-0.393738448517845,-0.0417023903462291,-0.263044763608625,-1.07787928749426,NaN,NaN,-0.877651928404165,-0.239816227303251,-0.522865422971398,0.862683128990048,0.497268924065772,-0.121574112104545,-0.393577476823607,-0.393577476824306,0.993632453632025,-0.993632453631283,0.236827851015742
391.5776,0.368390561136653,-1.1275694104934,-0.172389608806489,-0.306669470487943,-1.43419050092572,-1.43419050092157,0.209533036461168,-0.543464249085741,0.0434353255171894,-0.0492057956354428,NaN,-0.0261556826746776,1.03168994690738,-0.723867380307829,0.62616273299035,0.725415954746047,-0.393301936965792,0.485631427309806,-0.889575462436983,-0.561464130936838,-0.889575462436393,0.236976785173083,-0.979116208767964,-0.322622251017844,NaN,-0.994202889930801,-0.382499226895734,1.09830186201321,-1.09830186201304,0.421168509462246,1.04443051486456,-1.29282986705456,-0.679840305549778,0.0557055503016377,-0.368863587442924,-0.0475611260799443,-0.26091411303602,-1.060975112551,NaN,NaN,-0.874139419471849,-0.228772286339959,-0.520663993090607,0.859790438778686,0.49618136636503,-0.108509101938597,-0.379995003814023,-0.379995003814723,0.998845062058744,-0.998845062057998,0.243193938305098
391.68,0.373624664838381,-1.12127779204662,-0.165226898741385,-0.310670571082641,-1.42132979506254,-1.4213297950584,0.211404940995117,-0.538551502639583,0.0462037129754148,-0.0627637879350909,NaN,-0.0280098340756427,1.02104558305324,-0.718753804902999,0.618425510834265,0.729999964223129,-0.389661286851786,0.493901846959896,-0.867366276325743,-0.564083906032369,-0.867366276325183,0.232001868611826,-0.980236914141727,-0.327977172483498,NaN,-0.985023811517552,-0.360284406238676,1.0925292244205,-1.09252922442034,0.415632791245316,1.04968802826368,-1.29953690913675,-0.683911183778588,0.0422499657112037,-0.344076743223264,-0.0535159972895665,-0.259223933335914,-1.0443470965115,NaN,NaN,-0.870472637599258,-0.217553643663025,-0.518603048168282,0.856934476077696,0.494962025825117,-0.0960350154597129,-0.367367460781787,-0.367367460782487,1.00394785887278,-1.00394785887203,0.248671986853766
391.7824,0.379275798954595,-1.11464541498346,-0.15756265130011,-0.315177162904464,-1.40797242930319,-1.40797242929905,0.213767687450114,-0.533292230078325,0.0494685368965833,-0.075711656004895,NaN,-0.029310217831199,1.00939706626026,-0.713549455935316,0.609746040038793,0.734300113003913,-0.386284351933795,0.501627631739891,-0.845015847152698,-0.566700520901298,-0.84501584715217,0.22759120846145,-0.980945650203275,-0.332565354360073,NaN,-0.975515631127809,-0.338149883511945,1.0864833576314,-1.08648335763123,0.410250693635469,1.05501569586337,-1.3062706155658,-0.687831701381611,0.0287474847234211,-0.31941453422544,-0.0595488588122341,-0.258018051256813,-1.02801815539883,NaN,NaN,-0.866640812281402,-0.206133218591591,-0.516689324295495,0.854122817620773,0.493612496172839,-0.0841775134439797,-0.355725010782715,-0.355725010783417,1.0089283586847,-1.00892835868395,0.253231811630993
391.8848,0.385315220054973,-1.10766886929598,-0.149419847535293,-0.320193583908109,-1.39412280302416,-1.39412280302004,0.216619692033911,-0.52766754430172,0.0532330705360545,-0.0880352403646015,NaN,-0.030057166975143,0.996775913604459,-0.708214074818849,0.600177268474141,0.738303905783656,-0.383170788089964,0.508794956415193,-0.822558212694444,-0.569299889692754,-0.822558212693947,0.223722806655695,-0.981234425706636,-0.3364032310906,NaN,-0.965687868026391,-0.316117218783449,1.0801746212867,-1.08017462128654,0.405012636319848,1.06040344846276,-1.31301234533681,-0.691575181853285,0.0152281721728472,-0.294913711731682,-0.0656413517225407,-0.257338728150746,-1.01200854741265,NaN,NaN,-0.862632319606071,-0.194481803997735,-0.514929084612196,0.851361969439511,0.492133526268408,-0.0729604192253718,-0.34509401376828,-0.345094013768982,1.01377445812771,-1.01377445812696,0.256845894819385
391.9872,0.391714829005774,-1.10034495222603,-0.140821009723133,-0.325721915619572,-1.37978593547854,-1.37978593547443,0.219958327910272,-0.521659050608665,0.0574995916706721,-0.0997213121560716,NaN,-0.030251572415251,0.983219007912679,-0.702707162728541,0.589777572239234,0.742000856622011,-0.380320690608729,0.515391892860816,-0.800027273210802,-0.571867350021995,-0.800027273210336,0.220373833621074,-0.981096075413685,-0.339508489498366,NaN,-0.955550737121072,-0.294205820510923,1.07361349913149,-1.07361349913133,0.399907982660899,1.06584060072778,-1.31974257474018,-0.695114156608498,0.00172232003283932,-0.270611066627071,-0.0717749138273664,-0.25722654887347,-0.996335723594475,NaN,NaN,-0.858434791647804,-0.182568170626608,-0.513328146423791,0.848657344867662,0.490524955096958,-0.0624056797005851,-0.335496783167769,-0.335496783168472,1.01847441303853,-1.01847441303777,0.259489537491248
392.0896,0.398447408471226,-1.09267068751308,-0.131788007629082,-0.331761928196149,-1.36496752863931,-1.36496752863521,0.223780035005322,-0.515248923943126,0.0622694559411958,-0.110757452458932,NaN,-0.0298947475149163,0.968768607718188,-0.696988157568449,0.57861066953609,0.74538260722268,-0.377734566676912,0.521408567056655,-0.777456560559165,-0.574387756282059,-0.777456560558733,0.217520777143976,-0.980524286055578,-0.341899941838161,NaN,-0.945115235016611,-0.272432777132403,1.06681058062016,-1.06681058062,0.394925025983982,1.07131590120733,-1.32644098232374,-0.698420472628512,-0.0117396073981804,-0.246543336841175,-0.0779308062065894,-0.257720304681723,-0.981014195524955,NaN,NaN,-0.854035248868335,-0.170359202395945,-0.51189188808344,0.84601323411797,0.4887856614722,-0.0525333231091833,-0.326951371128312,-0.326951371129015,1.02301682824749,-1.02301682824673,0.261140995793302
392.192,0.405486837422919,-1.08464334885065,-0.122341886144302,-0.338311043534633,-1.34967402069092,-1.34967402068684,0.228080422180312,-0.508419972267026,0.0675431671682134,-0.121131927586235,NaN,-0.0289882923830723,0.953472332384653,-0.691016613819757,0.566745508464825,0.748443025057935,-0.375413315833426,0.526837286547425,-0.754879018678687,-0.576845590182516,-0.754879018678284,0.215139577675965,-0.979513628687037,-0.343597415312794,NaN,-0.934393214519079,-0.250812714322711,1.05977653820238,-1.05977653820223,0.390050971162082,1.07681760332823,-1.33308656201932,-0.701465420916689,-0.0251270413274762,-0.222747113343245,-0.0840901516260563,-0.258856890501795,-0.966055432153827,NaN,NaN,-0.849420251149742,-0.157820061133964,-0.510625230030615,0.843432764278335,0.486913534140448,-0.0433614233670146,-0.319471380171542,-0.319471380172246,1.02739065481405,-1.02739065481329,0.261781586375807
392.2944,0.412808275105151,-1.07626048469075,-0.112502719484604,-0.345364333320838,-1.33391262755818,-1.33391262755411,0.232854352346698,-0.501155694418086,0.0733204346945495,-0.13083357279223,NaN,-0.0275339676297545,0.937383114540309,-0.684752388006717,0.554256119495713,0.751178281042354,-0.373358227119934,0.53167263061933,-0.732326803627471,-0.579225082703103,-0.732326803627093,0.213205745626287,-0.978059593916408,-0.344621660316962,NaN,-0.923397450954178,-0.229357682014917,1.05252210291316,-1.05252210291301,0.385271905309343,1.08233355194943,-1.33965775404443,-0.704219870245504,-0.038409382652324,-0.199258742521016,-0.0902339779559738,-0.260671224283007,-0.951467798315948,NaN,NaN,-0.844576057344001,-0.144914387058,-0.509532587318218,0.840917851658144,0.484905468363355,-0.0349060781152203,-0.313065803557573,-0.313065803558278,1.03158518788956,-1.0315851878888,0.261395761846928
392.3968,0.42038830753197,-1.06751994400165,-0.102289497671764,-0.352914554363471,-1.31769137291266,-1.31769137290861,0.238096007061837,-0.49344034352913,0.0796002121492928,-0.139851697038085,NaN,-0.0255335883674906,0.920559107035863,-0.678155831835819,0.541221418878869,0.753586905943375,-0.371570994730956,0.535911500745086,-0.709831103985755,-0.581510340583995,-0.70983110398541,0.211694462187403,-0.976158627015163,-0.344994274262893,NaN,-0.912141703392368,-0.208077075728592,1.04505804206224,-1.04505804206209,0.380572763105144,1.08785127671065,-1.34613258049617,-0.706654393214397,-0.0515560772373536,-0.17611422323284,-0.096343261174411,-0.263196182822102,-0.937256543078114,NaN,NaN,-0.839488784537357,-0.131604546159097,-0.508617794978391,0.838469150129741,0.482757392191769,-0.0271813973827032,-0.307738899278503,-0.307738899279207,1.0355900617508,-1.03559006175004,0.25997116644184
392.4992,0.428205049966982,-1.0584199033993,-0.0917200510491182,-0.360952212330536,-1.30101910752601,-1.30101910752198,0.243798931631082,-0.48525900385271,0.0863807165830406,-0.148176018925795,NaN,-0.0229889478431834,0.903063529483261,-0.671187992380617,0.527724948577782,0.755669820261425,-0.370053744427055,0.539553131915316,-0.687421979090781,-0.583685473937473,-0.687421979090466,0.210580666293051,-0.973808161485398,-0.344737637722042,NaN,-0.900640768616872,-0.186977593753759,1.03739514083063,-1.03739514083047,0.375937301119516,1.0933580859286,-1.35248877818851,-0.708739381475507,-0.0645366885179145,-0.153349097288954,-0.10239896406916,-0.266462538884601,-0.923423837293314,NaN,NaN,-0.834144566388156,-0.117851927311425,-0.507884015035214,0.836086002860039,0.480464321096446,-0.0201994918913602,-0.303490103861367,-0.303490103862072,1.039395243649,-1.03939524364824,0.257498685350559
392.6016,0.436238202555159,-1.04895889549656,-0.0808110151721449,-0.369465639229994,-1.28390551771045,-1.28390551770644,0.24995606472112,-0.476597683818137,0.093659430646845,-0.155796639041269,NaN,-0.019901775838488,0.884964440916174,-0.663810816168966,0.513854541141876,0.757430334471046,-0.368809058771878,0.542599071481907,-0.665128216325206,-0.585734725377759,-0.665128216324922,0.209839131332549,-0.971006650831897,-0.343874859297312,NaN,-0.888910520413028,-0.16606322912282,1.0295441861407,-1.02954418614055,0.371348099100458,1.09884115759549,-1.35870392671727,-0.710445155212138,-0.077320964991337,-0.130998332743981,-0.1083820681732,-0.270498880494028,-0.90996885255074,NaN,NaN,-0.828529716724871,-0.103617278665987,-0.507333641070153,0.833766408157156,0.478020434969132,-0.0139704517198057,-0.300313991987498,-0.300313991988202,1.04299103209408,-1.04299103209332,0.253972501649907
392.704,0.444469063135591,-1.03913583908389,-0.0695778329113094,-0.37844106866235,-1.26636112350482,-1.26636112350083,0.256559758818425,-0.467443422111616,0.101433093913323,-0.16270404548149,NaN,-0.0162737293013782,0.866334436261068,-0.65598735339193,0.499701909286202,0.758874122877785,-0.367839993195174,0.545053135981738,-0.642977208504322,-0.5876426024208,-0.642977208504069,0.20944453726646,-0.96775360004224,-0.342429724702169,NaN,-0.87696792731792,-0.145335294694482,1.02151595027284,-1.02151595027269,0.366786602245961,1.10428762547093,-1.36475557120706,-0.711742071884009,-0.0898789036397701,-0.109096201339681,-0.114273600280286,-0.275331498282367,-0.896887871861414,NaN,NaN,-0.822630910017726,-0.0888610697653125,-0.506968215524245,0.83150700749186,0.475419168815498,-0.00850231298987656,-0.298200282252526,-0.298200282253229,1.04636806520565,-1.04636806520488,0.249390170507762
392.8064,0.452880506804564,-1.02895007389371,-0.0580347868127619,-0.387862698847708,-1.2483972707307,-1.24839727072673,0.263601798161308,-0.457784396337935,0.109697691448153,-0.168889140142751,NaN,-0.0121064048415898,0.847250285026312,-0.647681959729628,0.485362179711213,0.760009176929149,-0.367150082936704,0.546921352490348,-0.620994844315634,-0.589394011203414,-0.620994844315404,0.209371542347749,-0.964049600777895,-0.340426648291015,NaN,-0.864831049590143,-0.124792478830448,1.01332117477874,-1.01332117477859,0.362233205477178,1.10968466089801,-1.37062134044179,-0.712600634393133,-0.102180815165281,-0.0876761556325787,-0.12005466058257,-0.280984242834355,-0.884174425187578,NaN,NaN,-0.816435394316103,-0.0735438748889964,-0.506788364046578,0.829303095076194,0.472653310724105,-0.00380101595199267,-0.2971338795501,-0.297133879550801,1.04951733842452,-1.04951733842376,0.243752708599457
392.9088,0.461456941461271,-1.01840140263854,-0.0461950550225214,-0.397712746035462,-1.23002612213707,-1.23002612213313,0.271073414883702,-0.447610022510653,0.118448443115548,-0.174343272706733,NaN,-0.00740136188715249,0.827792544255418,-0.638860496089174,0.470933402643912,0.760845742727249,-0.366743347785269,0.548211883998569,-0.599205405290634,-0.590974383365669,-0.599205405290424,0.209594851848974,-0.959896374776878,-0.337890632029403,NaN,-0.852519024893833,-0.104430926718016,1.00497055982393,-1.00497055982378,0.357667364759156,1.11501955095587,-1.37627906025302,-0.71299159618896,-0.114197396947171,-0.066770713979094,-0.125706460215243,-0.28747837156377,-0.871819448517994,NaN,NaN,-0.809931245364364,-0.0576267820224998,-0.506793738764415,0.827148641598987,0.469715107554193,0.000129638786582876,-0.297094939724034,-0.297094939724734,1.05243022156976,-1.05243022156899,0.237064684488712
393.0112,0.470184244071409,-1.00749014012208,-0.0340707866596023,-0.407971501217954,-1.21126064913012,-1.21126064912621,0.278965296726975,-0.436911040023508,0.127679789344432,-0.179058277846133,NaN,-0.00216015170615687,0.808045171375135,-0.629490528139548,0.456516061385292,0.761396245224037,-0.366624302237414,0.548934935141002,-0.577631474791247,-0.592369787608553,-0.577631474791051,0.210089275294838,-0.955296827043714,-0.334847240864191,NaN,-0.840052052824893,-0.084244339960473,0.996474764214467,-0.996474764214304,0.353067712990991,1.12027976931564,-1.38170685700607,-0.712886058789547,-0.125899813727345,-0.0464113582983336,-0.131210369548196,-0.294832409964423,-0.859811468669708,NaN,NaN,-0.803107651751918,-0.0410718300486736,-0.506982958750437,0.825036324630343,0.466596383323198,0.00328802842964582,-0.298058945271127,-0.298058945271825,1.05509846339055,-1.05509846338978,0.229334292035903
393.1136,0.479049679596227,-0.99621716708771,-0.021673193975375,-0.418617405054885,-1.19211462155115,-1.19211462154725,0.287267581067219,-0.425679581640543,0.137385369059233,-0.183026517378784,NaN,0.00361564741466787,0.788095146240408,-0.619541525225043,0.442212591275382,0.761675198785379,-0.366797973101365,0.549102636201888,-0.556293870073351,-0.593567025727549,-0.556293870073175,0.210829765593708,-0.950255106061898,-0.33132259922507,NaN,-0.827451380195708,-0.0642240873523093,0.987844414817688,-0.987844414817518,0.348412162255901,1.12545303615587,-1.38688324496145,-0.712255553769471,-0.137259781587008,-0.0266284435908601,-0.136547972767323,-0.30306204476013,-0.848136813174333,NaN,NaN,-0.79595520923908,-0.0238424672366421,-0.507353541469613,0.822957561387689,0.463288672477415,0.00567473559749459,-0.299996785408627,-0.299996785409325,1.05751418164083,-1.05751418164006,0.22057339248714
393.216,0.488041804417541,-0.984583985913443,-0.00901265849658676,-0.429627151025075,-1.17260259216678,-1.17260259216292,0.295969837371664,-0.413909229187754,0.147557991382993,-0.186240929018784,NaN,0.00992438792150262,0.768032099652139,-0.608985055006022,0.428126907366089,0.761699104655824,-0.367269921559959,0.548728908534966,-0.535211602881029,-0.594553721459794,-0.53521160288086,0.211791440941904,-0.944776664946264,-0.327343404423741,NaN,-0.81473928190531,-0.0443593231113944,0.979090119431859,-0.979090119431683,0.343677984494402,1.13052736823676,-1.3917871963867,-0.711072101832967,-0.148249651011739,-0.00745111510641625,-0.141701123671518,-0.312180055231694,-0.836779838891503,NaN,NaN,-0.788466210204467,-0.0059040161363164,-0.507901827216077,0.820902542950345,0.459783364202634,0.00729256269129752,-0.302874837393422,-0.302874837394119,1.05966984572994,-1.05966984572917,0.210797517869141
393.3184,0.497150355520341,-0.972592774782477,0.00390115137330987,-0.440975817706419,-1.15273987362093,-1.15273987361709,0.305061043248998,-0.401595059214124,0.158189604407882,-0.188695084044293,NaN,0.0167643017266647,0.747947938231389,-0.597794970532431,0.414363932599571,0.761486340856975,-0.368046265621918,0.547829321104936,-0.514401865469952,-0.595318408855269,-0.514401865469791,0.212949596777771,-0.938868316618271,-0.322936946164903,NaN,-0.801939032908762,-0.0246371129519041,0.970222480919586,-0.970222480919407,0.338841873785788,1.13549111971261,-1.3963981948229,-0.70930824833009,-0.158842485689303,0.0110927710266072,-0.146651998387999,-0.322196277694657,-0.825723171080254,NaN,NaN,-0.780634927853431,0.0127758706641686,-0.508622902371582,0.818860270434188,0.456071850926194,0.00814653027927298,-0.306655052066214,-0.30665505206691,1.06155825578609,-1.06155825578532,0.200025837873875
393.4208,0.506366124617008,-0.960246437703208,0.0170591517316803,-0.452637020936816,-1.13254250695144,-1.13254250694763,0.314529557231602,-0.388733688200626,0.169271261332752,-0.190383259626387,NaN,0.0241334349210583,0.727936448812124,-0.585947589143016,0.401029110196186,0.761057051316467,-0.369133698712718,0.546420949437532,-0.493880033257083,-0.595850617659682,-0.493880033256925,0.214279717173417,-0.932538278079148,-0.318131120491756,NaN,-0.789074870248373,-0.00504257190906634,0.961252114419389,-0.961252114419202,0.333880003622766,1.14033301027487,-1.40069626964879,-0.706937080688477,-0.169012133743189,0.028976727173869,-0.151383140960018,-0.333117587731501,-0.814947948496975,NaN,NaN,-0.772457897976379,0.0322267734885048,-0.509510523558004,0.816818590478767,0.452145674726899,0.00824385950840222,-0.311295051988592,-0.311295051989288,1.063172516242,-1.06317251624124,0.188281101075369
393.5232,0.515680814824618,-0.947548650544181,0.0304527014301293,-0.464583069725807,-1.11202722232071,-1.11202722231693,0.324363090195677,-0.375323328000014,0.180793082964275,-0.191300532222788,NaN,0.0320295626761639,0.708092861391393,-0.573421863256527,0.388227879519675,0.760433036464688,-0.370539500272394,0.544522243014906,-0.473659675501772,-0.596140949464705,-0.473659675501614,0.215757493782214,-0.925796202013628,-0.312954429462196,NaN,-0.776171943166089,0.0144409799126574,0.95218966561633,-0.95218966561614,0.328768099781045,1.14504213925436,-1.40466201222877,-0.703932233331403,-0.178733289792353,0.0461757157859886,-0.155877499689428,-0.344947878206917,-0.804434074716638,NaN,NaN,-0.763934193322367,0.0524750904717466,-0.510557040890131,0.814764224169596,0.447996665977137,0.00759394631608792,-0.316748249323525,-0.31674824932422,1.06450600690156,-1.0645060069008,0.175589565306908
393.6256,0.525086879957327,-0.934503905889914,0.0440734460476917,-0.476785109220776,-1.09121139456931,-1.09121139456555,0.334548679958327,-0.361363857074272,0.192744219034897,-0.191442892044564,NaN,0.0404500838491454,0.688513354774536,-0.560199541184165,0.376065100771997,0.759637645256076,-0.372271536452828,0.542152902687167,-0.453752566575998,-0.596181141708314,-0.453752566575839,0.217358859080044,-0.918653196224027,-0.307435960431959,NaN,-0.763256245736604,0.0338318377253733,0.943045821925676,-0.943045821925481,0.323481548891009,1.14960798841925,-1.40827657764972,-0.700267883874191,-0.187981550539939,0.062666232900761,-0.160118456863872,-0.357688012308408,-0.794160474821031,NaN,NaN,-0.755065675025604,0.0735436451463074,-0.511753321064037,0.812682785850669,0.443617068442847,0.00620833957449677,-0.322963986298501,-0.322963986299197,1.06555236260366,-1.0655523626029,0.161980930490046
393.728,0.534577352595614,-0.921117560288741,0.0579131512868012,-0.489213241926365,-1.07011299820887,-1.07011299820515,0.345072676463899,-0.346856903644054,0.205112815506118,-0.190807367944334,NaN,0.0493919040501877,0.669294507569501,-0.546265314921653,0.364644432787537,0.758695670979338,-0.374338253255798,0.539333768783347,-0.434168688524157,-0.595964117582578,-0.434168688523995,0.219060038988377,-0.911121833167943,-0.301605341381226,NaN,-0.750354527757986,0.0531497058929588,0.933831308549069,-0.93383130854887,0.317995550524937,1.15402041603367,-1.41152167596938,-0.695918744705679,-0.196733471406104,0.078426389859001,-0.16408985995224,-0.371335744020355,-0.784105351321261,NaN,NaN,-0.745857203082176,0.0954513164167788,-0.513088673184714,0.810558792283599,0.438999647705596,0.00410072958154758,-0.329887697582632,-0.329887697583328,1.06630547009897,-1.06630547009821,0.14748827845775
