time,S1-D1,S1-D8,S1-D9,S1-D15,S2-D1,S2-D2,S2-D3,S2-D9,S3-D1,S3-D2,S3-D16,S4-D2,S4-D3,S4-D5,S5-D3,S5-D4,S5-D5,S6-D2,S6-D5,S6-D17,S7-D6,S7-D7,S8-D6,S8-D7,S8-D18,S9-D3,S9-D4,S9-D9,S9-D11,S9-D19,S10-D8,S10-D9,S10-D10,S10-D11,S11-D8,S11-D10,S11-D20,S12-D10,S12-D11,S12-D12,S13-D4,S13-D11,S13-D12,S14-D10,S14-D12,S14-D21,S15-D13,S15-D14,S16-D13,S16-D14,S16-D22
1404.928,-0.813028189679344,0.135372247040639,-0.777936717311841,1.08013810093181,0.602211473363779,0.602211473363102,0.145317748087805,-2.02904530468494,-1.05727066349756,-1.4109707645219,0.0977198130836433,-1.41097076452229,-0.383487051244386,-0.261883480982744,NaN,-1.61064718631645,NaN,-0.347998305183373,-0.388131140845834,-1.10245402758512,-0.388131140845101,NaN,-0.119743952720019,NaN,-0.236391475852903,0.23262783365058,NaN,-0.313566365137062,0.3135663651374,-0.998708842182383,0.420708824083108,-0.173603463701811,0.216174700514307,0.930018525810163,1.17361578952872,1.22190893786596,0.427548702666428,2.01851639529545,2.01851639529127,-0.0166472001603674,-0.0481257038601543,-0.0312856179948829,-0.433044874795597,-0.886264267046203,-0.767546201328973,0.00122080290337142,-0.106451475033082,NaN,NaN,NaN,NaN
1405.0304,-0.801281389755659,0.123962474691837,-0.771986637393357,1.09368988884538,0.583388569476448,0.583388569475787,0.150554150018763,-2.0277194013983,-1.05165646932745,-1.41182939987163,0.0997959143795715,-1.41182939987204,-0.385444304924763,-0.271064155551716,NaN,-1.59606777624807,NaN,-0.331743459408105,-0.428592340271705,-1.08015873139384,-0.428592340270919,NaN,-0.11997357208748,NaN,-0.213642378416264,0.264464460825621,NaN,-0.320685720004537,0.320685720004879,-0.964415865364584,0.430351082870123,-0.177111040319198,0.221429981668272,0.921266154484137,1.18643768209047,1.22051767453795,0.430099207353762,1.98454805838505,1.98454805838088,-0.0249045505139709,-0.026319570451277,-0.0282719134100909,-0.423548906215267,-0.853282535049179,-0.745238720259204,0.0114058978927915,-0.084803199659576,NaN,NaN,NaN,NaN
1405.1328,-0.788846028247523,0.112699881200988,-0.765231215773704,1.10676050532975,0.56421487837898,0.564214878378333,0.15632253239927,-2.02675804665202,-1.0457650763835,-1.41210852955146,0.10139951566376,-1.41210852955188,-0.389584295760958,-0.277498928430529,NaN,-1.58024634318898,NaN,-0.315348922639786,-0.470423278791196,-1.05689910946343,-0.47042327879035,NaN,-0.119323863930224,NaN,-0.190244124466978,0.293109912238189,NaN,-0.326718686782257,0.326718686782601,-0.931045796422464,0.439733552895556,-0.179659069480864,0.227095744419526,0.912288255195363,1.19796044152584,1.21840042379847,0.432812314186041,1.94948662780669,1.94948662780253,-0.0329570303274501,-0.00467436835708392,-0.0251787713274416,-0.413248427137646,-0.81964485469985,-0.721905716504608,0.0217358354554777,-0.0635090507514259,NaN,NaN,NaN,NaN
1405.2352,-0.775747994345469,0.101606081027027,-0.75768554226664,1.11933570073786,0.544742450958225,0.544742450957593,0.162605309001104,-2.02615796010939,-1.03961079864361,-1.41181157945774,0.102467525957157,-1.41181157945817,-0.395850689670718,-0.281214054032854,NaN,-1.56320838827479,NaN,-0.298779873659438,-0.513519237475913,-1.03281251349844,-0.513519237475013,NaN,-0.117824598601497,NaN,-0.166248498957065,0.318481242592001,NaN,-0.331659649620493,0.331659649620837,-0.898622107300487,0.448836700136776,-0.181312648132368,0.233115262162767,0.903079432013875,1.20817373047559,1.21554860196061,0.435703785081648,1.91345722918598,1.91345722918183,-0.0407729626942842,0.0167826663963724,-0.0219948638212873,-0.402188162931185,-0.785461065145128,-0.697633862686381,0.0322081081634932,-0.0426099091387392,NaN,NaN,NaN,NaN
1405.3376,-0.762014431808144,0.0907024697785706,-0.749366146437792,1.13140252208005,0.525024015770636,0.525024015770014,0.169382126419718,-2.02591151420187,-1.03320795274979,-1.41094498033691,0.102939249803651,-1.41094498033736,-0.40417788383154,-0.28224672313776,NaN,-1.54498314231088,NaN,-0.282004578192437,-0.557771260989047,-1.00803982265892,-0.557771260988089,NaN,-0.115507122560929,NaN,-0.141708865701655,0.34050555944569,NaN,-0.335506878944539,0.335506878944886,-0.867160777058102,0.457644373221796,-0.182139928918442,0.239432487085193,0.893635473860479,1.21707173825009,1.21195646595289,0.438788871013622,1.87658777949601,1.87658777949187,-0.0483208836958543,0.0380253469057097,-0.0187085877858504,-0.390413090463647,-0.750841976314588,-0.672510461555304,0.0428202259527191,-0.0221448335674669,NaN,NaN,NaN,NaN
1405.44,-0.747673618353985,0.0800100947259466,-0.740290943417769,1.14294939456108,0.505112763611047,0.505112763610434,0.176630115745331,-2.02600710708624,-1.02657084460194,-1.40951819582393,0.102756626983236,-1.40951819582439,-0.414491462232877,-0.280644797564247,NaN,-1.52560355577264,NaN,-0.2649946274011,-0.603066717844259,-0.98272448167317,-0.60306671784324,NaN,-0.112404174942838,NaN,-0.116680008948908,0.359120497642173,NaN,-0.338262328754914,0.338262328755264,-0.836670615360237,0.466143698928614,-0.182211619207469,0.245992288673984,0.883953374403183,1.2246532007587,1.20762113726708,0.442082189752265,1.8390083239177,1.83900832391358,-0.0555696746479058,0.0590285594629398,-0.015308148593347,-0.377968310066544,-0.715898853008182,-0.646623116428611,0.0535696061346328,-0.00215101060013987,NaN,NaN,NaN,NaN
1405.5424,-0.732754840192142,0.0695495080162297,-0.73047918428965,1.15396619240963,0.485062112100484,0.485062112099879,0.184324163383152,-2.0264295673514,-1.0197137569117,-1.40754375505368,0.101864478303371,-1.40754375505414,-0.426708707285105,-0.276466500366864,NaN,-1.50510629228782,NaN,-0.247725159104792,-0.649289891522531,-0.957011482520901,-0.649289891521458,NaN,-0.108549714005126,NaN,-0.0912179708300158,0.374274704095596,NaN,-0.339931430244697,0.339931430245047,-0.807153644623006,0.474324915221295,-0.181600431631059,0.252740674621419,0.874031336377036,1.23092139331963,1.20254260227997,0.445597599578501,1.80085033533979,1.80085033533569,-0.0624886939217413,0.0797682773883572,-0.0117816476061369,-0.36489893132896,-0.680742889363164,-0.62005941080815,0.0644534562090037,0.017336285103936,NaN,NaN,NaN,NaN
1405.6448,-0.71728826298317,0.0593406022717757,-0.719951412584608,1.16444429259727,0.464925449411973,0.46492544941137,0.192437195619798,-2.02716057873211,-1.01265093581038,-1.40503728733965,0.100210760507671,-1.40503728734011,-0.440739179678146,-0.269780042548107,NaN,-1.48353171595623,NaN,-0.230175061925482,-0.696322597848319,-0.931046296908045,-0.696322597847194,NaN,-0.10397875303569,NaN,-0.0653798858905654,0.385928327974116,NaN,-0.340522883924919,0.340522883925267,-0.778605529691547,0.482181134644923,-0.180380485327577,0.259624989066758,0.863868755861828,1.23588409373842,1.19672368436228,0.449348070049501,1.76224598397212,1.76224598396803,-0.0690479056021817,0.100221566935692,-0.00811717067063347,-0.35124997669377,-0.645484674174652,-0.592906601126636,0.0754686502195596,0.0362837219108608,NaN,NaN,NaN,NaN
1405.7472,-0.701304797074875,0.0494024313376871,-0.708729423076041,1.17437660591639,0.444755860412549,0.444755860411946,0.200940475288159,-2.02817911506559,-1.0053965722991,-1.4020175491605,0.0977468301393667,-1.40201754916097,-0.45648537476387,-0.260663171135432,NaN,-1.46092386245714,NaN,-0.212327161795267,-0.744044821732963,-0.904973781828504,-0.74404482173179,NaN,-0.0987272051636539,NaN,-0.0392238088293527,0.394053496535124,NaN,-0.34004845408484,0.340048454085192,-0.751016033150244,0.489708045761452,-0.178626673740532,0.2665940840292,0.853466179829551,1.23955351554403,1.19016998251517,0.453345551479143,1.72332738576543,1.72332738576136,-0.0752180050142802,0.120366587403815,-0.00430287674962714,-0.337066308421549,-0.610233650470674,-0.565251329256615,0.0866116015856309,0.0546599367803511,NaN,NaN,NaN,NaN
1405.8496,-0.68483595502709,0.0397530192246691,-0.696836219082069,1.18375758129056,0.424605840981348,0.424605840980746,0.209803914361438,-2.02946188376252,-0.997964773988664,-1.39850643395085,0.0944277154717965,-1.39850643395132,-0.473843458900601,-0.249202631784372,NaN,-1.43733039013646,NaN,-0.194168387970742,-0.792335369291646,-0.878937084595896,-0.792335369290427,NaN,-0.0928317381557737,NaN,-0.0128085307754392,0.398634751185936,NaN,-0.33852277314662,0.338522773146975,-0.724369476126158,0.496903568490947,-0.176414017207532,0.273598464723441,0.842825233513488,1.24194621254913,1.18288977434089,0.457600846628999,1.68422583697195,1.68422583696791,-0.0809705416599701,0.140182586730533,-0.000327086557872915,-0.322392580807885,-0.575097576587082,-0.537179359493251,0.0978781347000761,0.0724355577074798,NaN,NaN,NaN,NaN
1405.952,-0.667913703542414,0.0304091607340833,-0.684295968548306,1.19258318090646,0.404527006424004,0.404527006423399,0.218996400936443,-2.03098377347842,-0.99036952601799,-1.39452895841668,0.0902123951546651,-1.39452895841716,-0.492704066539795,-0.235493564397015,NaN,-1.41280251027077,NaN,-0.17568991509562,-0.841072528888828,-0.853076568036393,-0.841072528887567,NaN,-0.0863296403018357,NaN,0.0138066144012482,0.399669421046019,NaN,-0.335963165427261,0.335963165427619,-0.698645193094702,0.503767481394228,-0.173817012908861,0.2805904147536,0.831948521579926,1.24308295627735,1.17489388710367,0.46212348902837,1.64507104448048,1.64507104447646,-0.0862780391025668,0.159649893358,0.0038216294458499,-0.307273213156125,-0.540181996610021,-0.508775338940337,0.109263357986253,0.0895832245309118,NaN,NaN,NaN,NaN
1406.0544,-0.650570315244602,0.0213862208406419,-0.671133960665819,1.20085082588582,0.384569799656497,0.384569799655887,0.228486127368193,-2.03271829086921,-0.982624644499487,-1.39011321614029,0.0850640787174015,-1.39011321614077,-0.512953113119007,-0.219638874540495,NaN,-1.38739488976844,NaN,-0.156887274009714,-0.890134721318898,-0.827528770194182,-0.890134721317601,NaN,-0.0792586936412806,NaN,0.0405619447816489,0.397167918123522,NaN,-0.332389489572743,0.332389489573103,-0.673817975645809,0.510301039594916,-0.170908995887482,0.287524106966405,0.820839513036042,1.24298858730914,1.16619554506863,0.466921630811333,1.60599036762696,1.60599036762296,-0.0911141119329964,0.178749905141656,0.00815436392878096,-0.291752374504084,-0.505589726961961,-0.480122575531086,0.120761545199628,0.106077609652388,NaN,NaN,NaN,NaN
1406.1568,-0.632838224445439,0.0126979450531985,-0.657376560534447,1.20855931387229,0.364783204861405,0.36478320486079,0.238240901114929,-2.03463796927108,-0.974743729444572,-1.38529028341187,0.0789504779043257,-1.38529028341236,-0.534472577849095,-0.201748623995299,NaN,-1.36116551120282,NaN,-0.137760416538656,-0.939401113000163,-0.802425415083358,-0.939401112998833,NaN,-0.0716570446500214,NaN,0.0673976166794073,0.391153948295881,NaN,-0.327823986030669,0.327823986031033,-0.649858503492233,0.516506599386063,-0.167761529934116,0.294355700439585,0.809502419809535,1.24169183853932,1.15681020001234,0.472001940462659,1.56710808829306,1.56710808828908,-0.0954535828410874,0.197465075690428,0.0126817844378382,-0.275873970941605,-0.471420366567187,-0.451302828029477,0.132366035389452,0.121895439643869,NaN,NaN,NaN,NaN
1406.2592,-0.614749886669503,0.00435629384780922,-0.643051154302797,1.21570870955708,0.345214472844051,0.345214472843437,0.248228423075686,-2.03671474108046,-0.966740126393021,-1.3800940651142,0.0718440532331307,-1.38009406511469,-0.557141231690187,-0.181939464736566,NaN,-1.33417547587745,NaN,-0.118313719543404,-0.988752179088212,-0.777892499674966,-0.988752179086851,NaN,-0.0635630624498898,NaN,0.0942537998333139,0.38166463737362,NaN,-0.322291117867942,0.322291117868306,-0.62673376131955,0.522387259834847,-0.164443846957911,0.301043419737259,0.797942074055165,1.23922512535796,1.14675534673255,0.477369510038736,1.52854472033469,1.52854472033073,-0.0992726039994938,0.215778897235369,0.0174140406981675,-0.259681631023455,-0.437769838080421,-0.422396106788505,0.144069159496509,0.13701551589302,NaN,NaN,NaN,NaN
1406.3616,-0.596337639652367,-0.00362869214256128,-0.628186078646178,1.222300208572,0.325908865450086,0.325908865449468,0.258416523341863,-2.03892027153306,-0.958626904702248,-1.37456107862808,0.0637222225139671,-1.37456107862858,-0.58083530340265,-0.160334122842505,NaN,-1.30648874856143,NaN,-0.098555922717473,-1.03807021763563,-0.754049482527545,-1.03807021763424,NaN,-0.0550151818292362,NaN,0.12107084707444,0.36875056939362,NaN,-0.315817405192432,0.3158174051928,-0.604407440344185,0.527946525767974,-0.161022344492114,0.307547613680215,0.786163805331683,1.2356243009703,1.13605032369248,0.483027772768407,1.49041636629115,1.49041636628722,-0.102548783557034,0.233675877936858,0.022360666045827,-0.243218692154045,-0.404729966290214,-0.393480490454541,0.155862193442901,0.151418729165215,NaN,NaN,NaN,NaN
1406.464,-0.577633566208777,-0.0112489985168002,-0.612810536305371,1.22833597827647,0.306909425228849,0.306909425228227,0.268773348934193,-2.04122624915924,-0.950416854736273,-1.36873018163397,0.0545675274717126,-1.36873018163448,-0.605429082195926,-0.137060931863909,NaN,-1.27817185902138,NaN,-0.0785000016996452,-1.08723981253016,-0.731008584541262,-1.08723981252874,NaN,-0.046051736239611,NaN,0.147789467876615,0.352475737511009,NaN,-0.308431261162503,0.308431261162874,-0.5828403276091,0.533187991881831,-0.157560138382754,0.31383079531609,0.774173319347781,1.23092838294354,1.12471610270198,0.48897843327651,1.45283413222945,1.45283413222555,-0.105261313425106,0.251141512094396,0.0275304750674577,-0.226528195671941,-0.372388099364262,-0.364631968212657,0.167735330291708,0.16508806276345,NaN,NaN,NaN,NaN
1406.5664,-0.55866936206707,-0.0184987214256705,-0.596954504491884,1.23381898387408,0.288256771603174,0.288256771602548,0.279267504195115,-2.04360462755574,-0.942122500188409,-1.36264225324703,0.0443677632260569,-1.36264225324755,-0.630795461616515,-0.112253409168858,NaN,-1.2492935819287,NaN,-0.0581629806815363,-1.13614823319569,-0.708874195437027,-1.13614823319424,NaN,-0.0367107906591107,NaN,0.174350911853758,0.332917416406838,NaN,-0.300162838856234,0.30016283885661,-0.561990687613594,0.538115046427858,-0.154116662788935,0.319857666908748,0.761976581086677,1.22517926208298,1.11277507452754,0.495221412098802,1.41590361226555,1.41590361226167,-0.10739109323139,0.268162243952821,0.032931461349537,-0.209652897038809,-0.340826776567061,-0.335924315093538,0.179677663808385,0.178008582559038,NaN,NaN,NaN,NaN
1406.6688,-0.539476210173578,-0.0253741342129751,-0.580648640194905,1.23875280754777,0.269988921162609,0.269988921161983,0.289868151347919,-2.0460278202892,-0.933756119667072,-1.35633983902197,0.0331160762627305,-1.3563398390225,-0.656806436576109,-0.0860498592247755,NaN,-1.21992460816806,NaN,-0.0375656933934363,-1.18468576243968,-0.68774237612361,-1.18468576243822,NaN,-0.0270299856567236,NaN,0.200697161863027,0.310165964479462,NaN,-0.291043896073303,0.291043896073684,-0.541814634987018,0.542730593065216,-0.150747312692158,0.325595131917628,0.749579702993514,1.21842140381628,1.10025083527521,0.501754804977993,1.37972444919145,1.3797244491876,-0.108920846323435,0.28472542752585,0.0385706992281023,-0.192635293388028,-0.310123440732689,-0.307429001779381,0.191677180580883,0.190167415760689,NaN,NaN,NaN,NaN
1406.7712,-0.52008465977459,-0.0318737367505598,-0.563924180821422,1.24314146045749,0.252141130627104,0.252141130626473,0.30054508141147,-2.04846885733216,-0.925329773068809,-1.3498667691431,0.0208110302985758,-1.34986676914363,-0.683333562656183,-0.0585929864161476,NaN,-1.19013720893158,NaN,-0.0167325069244788,-1.23274595863044,-0.667700455563709,-1.23274595862895,NaN,-0.0170463991852637,NaN,0.226771132542486,0.28432455312132,NaN,-0.28110768109032,0.281107681090702,-0.522266492030625,0.547036786799477,-0.147503126403548,0.331012292397798,0.736988836050981,1.21070154707589,1.08716797396515,0.508574858064909,1.34438996971979,1.34438996971596,-0.109835224494054,0.300819284816413,0.0444542528554735,-0.175517668031038,-0.280350189188307,-0.279215135980333,0.203720762412785,0.201553721000893,NaN,NaN,NaN,NaN
1406.8736,-0.500524506437928,-0.0379982836349802,-0.54681283399544,1.24698918110171,0.234745762119662,0.234745762119033,0.311268762338247,-2.05090151138836,-0.916855331303543,-1.34326775532703,0.0074566316990663,-1.34326775532757,-0.71024837876361,-0.0300295080886596,NaN,-1.16000488931744,NaN,0.00430897768978862,-1.28022587034052,-0.648826726313267,-1.28022587033902,NaN,-0.00679642145277781,NaN,0.25251686886584,0.255508813208758,NaN,-0.270388840757935,0.270388840758319,-0.503299125761801,0.551034778382915,-0.144430506803849,0.336080428256873,0.724210060596587,1.20206839982962,1.07355185848512,0.515675960929163,1.30998688415285,1.30998688414905,-0.110120899836772,0.316432863706805,0.0505870942248832,-0.158342148577247,-0.251573554900006,-0.251349428894584,0.215794204264507,0.212158651716474,NaN,NaN,NaN,NaN
1406.976,-0.480824667462396,-0.0437507855767925,-0.529346647515011,1.25030021695228,0.21783216864669,0.217832168646052,0.322010368482767,-2.05330040167159,-0.908344510021076,-1.3365879670364,-0.006937697425898,-1.33658796703695,-0.737422791881841,-0.000509764667999254,NaN,-1.12960202657612,NaN,0.0255282425996791,-1.32702622138497,-0.63119023801051,-1.32702622138345,NaN,0.00368437014710632,NaN,0.27787974004295,0.223846396148713,NaN,-0.258923355505105,0.258923355505488,-0.484864259027239,0.55472446594048,-0.141570981759405,0.340772957125432,0.711249274599766,1.19257232951603,1.05942841740632,0.523050656850428,1.27659503657853,1.27659503657476,-0.109766645484767,0.331555995706565,0.0569730289906149,-0.141150771499727,-0.223854311000764,-0.223896177212547,0.227882253704904,0.221975314768827,NaN,NaN,NaN,NaN
1407.0784,-0.461013047950332,-0.0491364814726272,-0.511557853101687,1.25307859513018,0.201426596688881,0.201426596688243,0.332741796085667,-2.05564108399357,-0.899808908212215,-1.32987258699208,-0.0223572080637245,-1.32987258699264,-0.764729423073957,0.0298126736554778,NaN,-1.09900348825749,NaN,0.046892190601661,-1.3730515745034,-0.61485068134962,-1.37305157450186,NaN,0.0143613447761094,NaN,0.302806627412648,0.189476458237253,NaN,-0.246748504453652,0.246748504454038,-0.466912747759395,0.558104258511121,-0.138961003932932,0.345065378345993,0.698112079884799,1.18226505142237,1.04482391932677,0.530689667309672,1.24428719793298,1.24428719792923,-0.108763408153698,0.346179253613417,0.0636146280429491,-0.123985545667533,-0.197247298715699,-0.196917253602582,0.239968673036587,0.230998726145388,NaN,NaN,NaN,NaN
1407.1808,-0.441116398214962,-0.0541627840242038,-0.493478686250288,1.25532789004674,0.185552104221022,0.185552104220383,0.343435665380614,-2.05790013409412,-0.891260055195041,-1.32316635391654,-0.0387819780166118,-1.3231663539171,-0.792041913615536,0.0607814017744816,NaN,-1.06828422846984,NaN,0.0683655016950596,-1.41821047497195,-0.599858354072539,-1.4182104749704,NaN,0.0252009557377551,NaN,0.327246107129477,0.152549071020589,NaN,-0.233902849422347,0.233902849422735,-0.449394818581775,0.561170859458767,-0.136631790983145,0.348935206628149,0.684803670236466,1.1711993203203,1.02976475506189,0.538581930495471,1.21312890446898,1.21312890446527,-0.107104371419172,0.360293909766269,0.0705131658687782,-0.106888511266497,-0.171801285256222,-0.170472104952999,0.252036320119044,0.239225764241473,NaN,NaN,NaN,NaN
1407.2832,-0.421160169567475,-0.0588392044292055,-0.475141192667498,1.25705099122474,0.170228493509599,0.170228493508957,0.354065300552109,-2.06005522417948,-0.882709474066817,-1.31651310957112,-0.0561871251376976,-1.31651310957168,-0.819235191218817,0.0922375711323629,NaN,-1.0375188622154,NaN,0.0899109972903634,-1.46241557532531,-0.586254200476723,-1.46241557532375,NaN,0.0361708693752791,NaN,0.351148626605139,0.113224543451629,NaN,-0.220426213742763,0.220426213743154,-0.432260268880776,0.56391907820735,-0.134609210737481,0.352361899014783,0.671328727382902,1.15942862598502,1.0142772276192,0.546714658515609,1.18317834903211,1.18317834902843,-0.104785003445938,0.373891896324816,0.0776685707184461,-0.0899017932547536,-0.147558855045442,-0.144617758922627,0.264067244635538,0.246655119728841,NaN,NaN,NaN,NaN
1407.3856,-0.40116837849409,-0.0631772602511662,-0.456577034108165,1.2582498753968,0.155472258654859,0.155472258654207,0.364604676916825,-2.06208518531331,-0.874168767116298,-1.30995536598355,-0.0745430693330985,-1.30995536598413,-0.846185696903125,0.124020268011731,NaN,-1.00678121942633,NaN,0.111490001866566,-1.50558374109782,-0.574069913478116,-1.50558374109626,NaN,0.0472400772947403,NaN,0.37446667214179,0.07167264538952,NaN,-0.206359638635499,0.206359638635893,-0.415458637547038,0.566341676671249,-0.132913717395179,0.355326776245368,0.657691331398431,1.14700689025105,0.998387354062893,0.555073417007968,1.15448632964455,1.15448632964089,-0.101803082908081,0.38696577025306,0.0850793920878735,-0.0730676460420615,-0.124556329230469,-0.119408833631604,0.276042800678453,0.253287241525952,NaN,NaN,NaN,NaN
1407.488,-0.38116348823935,-0.067190368246371,-0.437817304071194,1.2589253954322,0.141296549813561,0.141296549812904,0.375028335777516,-2.06397004520737,-0.86564971664381,-1.30353389841047,-0.0938158296071844,-1.30353389841106,-0.872771574305159,0.155966871470671,NaN,-0.976143885578819,NaN,0.133062702183959,-1.54763613314392,-0.563328088957092,-1.54763613314236,NaN,0.0583789904314328,NaN,0.397154927206695,0.0280717494835714,NaN,-0.191745316541123,0.191745316541515,-0.39893935534594,0.568429256965911,-0.131560344894459,0.35781293971935,0.64389489147607,1.13398817001706,0.982120685774007,0.563642224907406,1.12709625345851,1.12709625345488,-0.0981587020038401,0.399508686243886,0.0927427876038567,-0.056428481103664,-0.102823706966733,-0.0948975400244128,0.287943777675983,0.259124279657551,NaN,NaN,NaN,NaN
1407.5904,-0.361166313253832,-0.0708937238818446,-0.418892360056438,1.25907710249813,0.127711157205819,0.127711157205163,0.385311280800831,-2.06569103191251,-0.857164382819712,-1.29728735969576,-0.113967339003891,-1.29728735969636,-0.898872828558266,0.187913402398972,NaN,-0.945677741152816,NaN,0.154588508697249,-1.58849826101704,-0.554042429221593,-1.58849826101548,NaN,0.069559516565019,NaN,0.419170423195383,-0.0173920721400386,NaN,-0.176626508014654,0.17662650801505,-0.382651881703964,0.570170202817612,-0.130558766715139,0.359805187794459,0.629942101093302,1.12042638019355,0.965502156168994,0.572403669077946,1.10104418942255,1.10104418941895,-0.0938542498063627,0.411514379253701,0.100654527699906,-0.0400268671834375,-0.0823846275997858,-0.0711336667741471,0.299750549166366,0.264170025691327,NaN,NaN,NaN,NaN
1407.6928,-0.341195947300597,-0.0743041701724773,-0.399831674687053,1.25870311211347,0.114722516448275,0.114722516447617,0.39542887475211,-2.06723053562036,-0.848725176615619,-1.29125190707815,-0.134955761601845,-1.29125190707876,-0.924371465342391,0.219694892280259,NaN,-0.915451513575984,NaN,0.176026424224451,-1.62810000429787,-0.546218000837412,-1.6281000042963,NaN,0.080755127704214,NaN,0.440472685789847,-0.0645259687937896,NaN,-0.161047447156035,0.161047447156436,-0.366545829783115,0.571550690386274,-0.129913432594702,0.361289936945496,0.615834919195367,1.10637505219006,0.948555963748135,0.581339031373969,1.0763589616075,1.07635896160393,-0.0888943796158492,0.422977156513099,0.108809015438729,-0.023905495275645,-0.063256357933063,-0.0481645420390794,0.311443237633292,0.268429851482377,NaN,NaN,NaN,NaN
1407.7952,-0.321269712147469,-0.0774400583012007,-0.380663703849414,1.25780001720129,0.102333734835719,0.102333734835058,0.405356750990104,-2.06857201969559,-0.840344889293329,-1.28546083325788,-0.156735805239954,-1.28546083325851,-0.949151620051071,0.251145800510004,NaN,-0.885531351946496,NaN,0.197335427155525,-1.66637560119937,-0.53985155599595,-1.66637560119779,NaN,0.0919409247610562,NaN,0.461023881599882,-0.113131248171472,NaN,-0.14505324049294,0.145053240493342,-0.350571076133295,0.572554778758659,-0.129623786203873,0.362255153173234,0.601574578298627,1.09188713644371,0.931305494777915,0.590428430108998,1.05306227475799,1.05306227475443,-0.0832859632086471,0.433891898357012,0.117199319169531,-0.00810710477612468,-0.0454498102364626,-0.0260349709464376,0.323001894844622,0.27191064757098,NaN,NaN,NaN,NaN
1407.8976,-0.301403123134011,-0.080321101806977,-0.361415768952525,1.25636284806499,0.0905446375277541,0.0905446375270895,0.415070744374576,-2.06969986886204,-0.832036667063106,-1.27994419796822,-0.17925903349857,-1.27994419796886,-0.973099692196293,0.282100506895338,NaN,-0.85598042755015,NaN,0.218474876840064,-1.70326360743298,-0.534931924843155,-1.7032636074314,NaN,0.103093697029058,NaN,0.480788969554834,-0.163004347879962,NaN,-0.128689765443924,0.128689765444331,-0.334677850788878,0.573164583296029,-0.129684559111572,0.36269029911852,0.587161622765442,1.07701484816763,0.913773287793684,0.599650979721562,1.03116886241846,1.03116886241492,-0.0770380351219658,0.444254067401106,0.125817215610756,0.00732563108738526,-0.028969594353635,-0.00478714837414069,0.33440669751558,0.274620761987,NaN,NaN,NaN,NaN
1408,-0.281609870025375,-0.0829682253847189,-0.342113952223879,1.25438507838245,0.079351831973071,0.0793518319724019,0.424546838797938,-2.07059916946194,-0.82381393050326,-1.27472846079172,-0.202474181490859,-1.27472846079237,-0.996104507867136,0.312393904019942,NaN,-0.826858558038856,NaN,0.239404945163305,-1.73870683187893,-0.531440478591335,-1.73870683187734,NaN,0.114191965015759,NaN,0.499735858131212,-0.213937854522453,NaN,-0.112003571406396,0.112003571406806,-0.318816810272037,0.573360530365771,-0.130086130448616,0.362586302497739,0.572595981636433,1.06180955035646,0.895981040815548,0.60898496968929,1.01068664866048,1.01068664865695,-0.0701617306737276,0.454059725464961,0.134653240501606,0.0223502610702678,-0.0138141020087078,0.0155394542328753,0.345638155818782,0.276569939293369,NaN,NaN,NaN,NaN
1408.1024,-0.261901811714877,-0.0854034095470444,-0.322783004231099,1.25185867241982,0.0687487878578247,0.0687487878571557,0.433761130470569,-2.07125544389944,-0.815690252528593,-1.26983612060387,-0.226327471120801,-1.26983612060454,-1.01805752519239,0.341862088220846,NaN,-0.798221857880556,NaN,0.260087068954618,-1.77265225579139,-0.529351651296369,-1.77265225578981,NaN,0.125215997268985,NaN,0.51783556594513,-0.265721552363604,NaN,-0.0950417821019332,0.0950417821023454,-0.302939105667129,0.573121679856427,-0.130814933451721,0.361935547299449,0.557877072892836,1.04632166705114,0.877949655876336,0.61840805505069,0.991616919176966,0.991616919173459,-0.0626702226863491,0.463305554285662,0.143696741706976,0.0369247445686948,2.43816586569206e-05,0.0349082220797941,0.356677326819039,0.277769259189194,NaN,NaN,NaN,NaN
1408.2048,-0.242288980535193,-0.087649534739516,-0.303446261186864,1.24877416176501,0.0587259294199391,0.0587259294192715,0.442689812362882,-2.0716543882283,-0.807679218667698,-1.2652853744807,-0.250762912318897,-1.26528537448139,-1.03885307534599,0.370343104760122,NaN,-0.770122427207387,NaN,0.28048440224725,-1.80505094262094,-0.528633500370415,-1.80505094261937,NaN,0.136147797497232,NaN,0.535062379910456,-0.318143459079129,NaN,-0.0778519950042327,0.0778519950046423,-0.286996462880238,0.572426083408111,-0.131853880662285,0.360731880832941,0.543003924498056,1.03060061793595,0.859699305662004,0.627897441888854,0.973954503711843,0.973954503708353,-0.0545786630540326,0.47198887008973,0.152935926408967,0.0510076517974185,0.0125595418383256,0.0532855311340989,0.367506018576612,0.278231072849535,NaN,NaN,NaN,NaN
1408.3072,-0.222779591961413,-0.0897302305171308,-0.284125570747201,1.24512073845017,0.0492707381643436,0.0492707381636672,0.451309183854644,-2.07178165617831,-0.799794291331326,-1.26108981443029,-0.275722578974309,-1.261089814431,-1.05838861573936,0.397677686712455,NaN,-0.74260809315285,NaN,0.300562238471074,-1.83585794723016,-0.529248290098597,-1.8358579472286,NaN,0.146971061367747,NaN,0.55139400230904,-0.370990813733066,NaN,-0.0604821684198997,0.0604821684203072,-0.270941287514072,0.571251143545445,-0.133182783733977,0.358970624918934,0.527975296098721,1.01469476371958,0.841249505233281,0.637430052057218,0.957687976752712,0.95768797674924,-0.0459041329171929,0.480107621177075,0.162357895325658,0.0645583524729667,0.0238108721348984,0.0706408610011631,0.378106970732881,0.277968934399365,NaN,NaN,NaN,NaN
1408.4096,-0.203380059652414,-0.0916697343848775,-0.264841228822344,1.24088635773813,0.0403678659806335,0.040367865979952,0.459595680999398,-2.07162270182725,-0.792048689480527,-1.25725817710817,-0.301146857496698,-1.2572581771089,-1.07656497323941,0.423709950469536,NaN,-0.715722212873551,NaN,0.320288380067461,-1.86503223097263,-0.5311530931922,-1.86503223097109,NaN,0.157671104377006,NaN,0.56681167955875,-0.424051007094394,NaN,-0.0429804826709414,0.0429804826713455,-0.254726797392472,0.569573955887372,-0.134778760227503,0.356648582232653,0.512789793262184,0.998651356012767,0.822619179834647,0.646982661318621,0.942799884135421,0.942799884131968,-0.0366656003140283,0.487660364239157,0.171948663019861,0.0775371811746019,0.0338034847414065,0.08694687447445,0.388464005501396,0.276997525521603,NaN,NaN,NaN,NaN
1408.512,-0.184095018438679,-0.0934927628024483,-0.245611931537545,1.23605784875314,0.0319992586112791,0.0319992586105858,0.467525917308325,-2.07116267015176,-0.784455286695211,-1.25379415323362,-0.326974668648046,-1.25379415323437,-1.09328656471986,0.448288039150483,NaN,-0.689503543022512,NaN,0.339633444774407,-1.89253658335316,-0.534300411442583,-1.89253658335163,NaN,0.168234763653889,NaN,0.581300310504206,-0.47711246086108,NaN,-0.025395169735176,0.0253951697355801,-0.238307179098374,0.567371631838323,-0.136616628831859,0.353764034863559,0.497445971471307,0.982516492804247,0.803826727091097,0.656532013507677,0.929266997783852,0.929266997780417,-0.0268838815472347,0.494646221894185,0.181693167962798,0.0899055781887804,0.0425678889740425,0.102179461124813,0.398562150388812,0.275332571699733,NaN,NaN,NaN,NaN
1408.6144,-0.164927357943506,-0.0952243949843764,-0.226454745518372,1.23062103186134,0.0241442883020264,0.0241442883013227,0.475076724936819,-2.07038631868785,-0.777026527138533,-1.25069625707796,-0.353143660396366,-1.25069625707873,-1.10846158904857,0.471264713850155,NaN,-0.663986175766594,NaN,0.358571103236647,-1.91833754728045,-0.538638818432663,-1.91833754727894,NaN,0.178650278054838,NaN,0.594848536705937,-0.529965465238676,NaN,-0.00777432216289807,0.00777432216329974,-0.221637762578241,0.564621604396224,-0.13866929549327,0.35031673555645,0.481942428170198,0.966335083584053,0.784890073977663,0.666054916274614,0.917060594982296,0.917060594978877,-0.0165816031530689,0.501064826341227,0.191575276540518,0.101626208109368,0.0501397342202375,0.116317745480632,0.408387736574755,0.272990748634685,NaN,NaN,NaN,NaN
1408.7168,-0.145878270204792,-0.0968899665447831,-0.207385098384974,1.22456084447578,0.0167798971250074,0.0167798971242918,0.482225189059841,-2.06927795600148,-0.76977435768222,-1.24795775192744,-0.379590371427827,-1.24795775192824,-1.12200218944057,0.49249789308471,NaN,-0.639199535562726,NaN,0.377078248272683,-1.9424053446696,-0.544113631413744,-1.94240534466811,NaN,0.188907150887596,NaN,0.607448821254948,-0.582402979774736,NaN,0.00983430131509925,-0.00983430131469618,-0.204675207316555,0.561301919502141,-0.14090813458893,0.346307890878162,0.466277882029396,0.950150827488704,0.76582672934283,0.675528324011925,0.906146758314887,0.906146758311483,-0.00578316389882601,0.506916253997753,0.201577783382058,0.112663057985171,0.0565595169790125,0.129344061362216,0.417928479296895,0.269989579088667,NaN,NaN,NaN,NaN
1408.8192,-0.126947314325232,-0.0985149669152208,-0.188416789237348,1.21786148049343,0.00988075684379286,0.00988075684306367,0.488948675261198,-2.06782139228032,-0.762710173600792,-1.24556662411793,-0.406250371024705,-1.24556662411874,-1.13382459324322,0.511851150241577,NaN,-0.615168429438533,NaN,0.395135105336389,-1.96471380055998,-0.550667621416795,-1.96471380055851,NaN,0.198995995640942,NaN,0.619097525773916,-0.634221398700608,NaN,0.02738346750069,-0.0273834675002879,-0.187377692125161,0.557391510390114,-0.143303365215093,0.341740134290291,0.45045123900953,0.934006208314944,0.746653833286839,0.684929412416428,0.896486694321692,0.896486694318302,0.00548530101953531,0.512200955201693,0.211682408130945,0.1229815164367,0.0618722546783943,0.141243894799701,0.427173548599757,0.266347323782584,NaN,NaN,NaN,NaN
1408.9216,-0.108132497751376,-0.10012493737327,-0.169562016942708,1.21050654639588,0.00341944953361471,0.00341944953287566,0.495224856121161,-2.06599990879716,-0.755844776087699,-1.24350560256495,-0.433058381921044,-1.24350560256579,-1.14384924478651,0.529194189198244,NaN,-0.591913150262826,NaN,0.412725295973297,-1.98524026594007,-0.558241765438317,-1.98524026593862,NaN,0.208908362510267,NaN,0.629794995113879,-0.685221286508677,NaN,0.0448266673102851,-0.044826667309885,-0.169705100128742,0.552870449802207,-0.145824415508832,0.336617489656022,0.434461644998624,0.917942508698024,0.727388204192071,0.694235647813571,0.888037068020924,0.888037068017553,0.0171959512056485,0.516919681295987,0.221869787923379,0.132548435613753,0.0661271273589257,0.152005797743491,0.436113635090044,0.262082870906344,NaN,NaN,NaN,NaN
1409.024,-0.0894303707534251,-0.10174537337695,-0.15083142469284,1.20247923027556,-0.00263333368712649,-0.00263333368788283,0.5010317408805,-2.0637962562252,-0.749188343872435,-1.24175223107581,-0.459948387210287,-1.24175223107667,-1.15200094727832,0.544403311993868,NaN,-0.569449639374544,NaN,0.429835857106539,-2.003965541214,-0.566776034249631,-2.00396554121255,NaN,0.21863654583832,NaN,0.639545653794838,-0.735208094725231,NaN,0.0621183318471921,-0.0621183318467943,-0.151619195581475,0.547720179700653,-0.148440268701329,0.330945328917007,0.418308525692575,0.901999839801953,0.708046382380394,0.703424853126677,0.880750348219996,0.880750348216643,0.0293192679214056,0.521073408917149,0.232119465645151,0.141332177516548,0.0693770859299256,0.161621273483667,0.444741007440432,0.257215625930795,NaN,NaN,NaN,NaN
1409.1264,-0.0708361303570884,-0.103401637051414,-0.132234160166651,1.19376247558559,-0.00830858353936183,-0.00830858354013537,0.506347705867996,-2.06119268559632,-0.742750423300773,-1.2402790006766,-0.486853722260332,-1.24027900067747,-1.15820902004236,0.557361876572965,NaN,-0.547789707185811,NaN,0.446457212597096,-2.02087379943436,-0.576210188365442,-2.02087379943293,NaN,0.228173373496895,NaN,0.648358107044547,-0.783992863329636,NaN,0.0792140618130699,-0.0792140618126754,-0.133083797216731,0.541923720092898,-0.151119785798828,0.324730328453368,0.40199161633668,0.886217181256378,0.688644670207874,0.712475270309638,0.874575158712309,0.874575158708971,0.0418240800866126,0.524663260645881,0.24240987610577,0.149302647886815,0.0716784260861972,0.170084636439925,0.453049554249491,0.251765402024233,NaN,NaN,NaN,NaN
1409.2288,-0.0523437307035505,-0.105118880809234,-0.113777948671797,1.18433915259548,-0.013638762607498,-0.0136387626082845,0.511151522516042,-2.05817100707066,-0.736539936973208,-1.23905353468485,-0.513707163387445,-1.23905353468573,-1.1624074672822,0.567960737865912,NaN,-0.526941291169965,NaN,0.462583100043676,-2.03595250036014,-0.586484526894428,-2.03595250035873,NaN,0.237511975711511,NaN,0.656245228775181,-0.831392896827454,NaN,0.0960708510590203,-0.0960708510586271,-0.114064956489478,0.535465851699541,-0.153831994861382,0.317980426432158,0.385510986522598,0.870632432631945,0.669199173192464,0.721365617038209,0.869456633076466,0.869456633073143,0.0546775952584078,0.527690423907487,0.252718335020422,0.156431326189956,0.07309032932136,0.177392854956166,0.461034805881359,0.2457523142396,NaN,NaN,NaN,NaN
1409.3312,-0.0339459983664494,-0.106921977544658,-0.095469175169483,1.17419222469994,-0.0186576030389767,-0.0186576030397794,0.515422381957268,-2.05471266719583,-0.730565206397957,-1.23803880926834,-0.540441031862259,-1.23803880926924,-1.16453515360837,0.576098672806736,NaN,-0.50690872425946,NaN,0.478210464154102,-2.04919228417222,-0.59754053171582,-2.04919228417083,NaN,0.246645528492104,NaN,0.663224218293706,-0.877232401811566,NaN,0.112647282972195,-0.112647282971808,-0.094531147064816,0.528333260995894,-0.15654633776471,0.310704778047523,0.368867065286347,0.855282480437618,0.649725847950219,0.730075135306445,0.865336772452186,0.865336772448876,0.0678454403260118,0.530156072727453,0.263021036013657,0.162691300782683,0.0736743775252373,0.183545388317528,0.468693937495642,0.239196682651614,NaN,NaN,NaN,NaN
1409.4336,-0.0156347536820977,-0.10883545193131,-0.0773129732306125,1.16330490962273,-0.0233999155793947,-0.0233999155802067,0.519139914033922,-2.0507988341978,-0.724833984519747,-1.23719339769377,-0.566987322594916,-1.23719339769468,-1.16453598654473,0.581682793901874,NaN,-0.487693001972068,NaN,0.493339326354477,-2.06058684445314,-0.609321385597513,-2.06058684445176,NaN,0.255566970654267,NaN,0.669316615042826,-0.921343077398537,NaN,0.128903687718255,-0.128903687717869,-0.074453468143787,0.520514640957727,-0.159232877809496,0.302913701322048,0.352060668489882,0.840203275663655,0.63024055637763,0.73858363089501,0.862154803999058,0.862154803995762,0.0812917121007534,0.532061296200388,0.273293057337245,0.16805731046489,0.0734940552664082,0.188544024823082,0.476025756940036,0.232118947379854,NaN,NaN,NaN,NaN
1409.536,0.00259905956304678,-0.110883409844115,-0.0593133217174903,1.15166083613955,-0.0279014077177405,-0.0279014077185623,0.52228419581982,-2.04641048046191,-0.71935349628343,-1.23647173617555,-0.593277851735556,-1.23647173617648,-1.16235910608709,0.584628949485629,NaN,-0.469292053361065,NaN,0.507972634281994,-2.07013279183895,-0.621772382989741,-2.07013279183758,NaN,0.264268700849182,NaN,0.674548267374535,-0.963564651612679,NaN,0.144802259622601,-0.144802259622216,-0.0538058605692134,0.512000753330474,-0.161862483912519,0.294618607950237,0.335093026913756,0.825429907568976,0.610759118797616,0.746871503819511,0.859847535009359,0.859847535006074,0.094979034281485,0.533407035020753,0.283508376362679,0.172505786536528,0.0726142575914832,0.192392722565942,0.483030680245,0.224539595498209,NaN,NaN,NaN,NaN
1409.6384,0.0207652350111717,-0.11308946453782,-0.0414731495562307,1.13924419718041,-0.0321985055550866,-0.0321985055559208,0.52483574613849,-2.04152845489824,-0.714130486189593,-1.23582441154654,-0.619244411940668,-1.23582441154748,-1.1579590748969,0.584862101123782,NaN,-0.451701021047153,NaN,0.522116093379131,-2.07782951836162,-0.634841264887108,-2.07782951836027,NaN,0.272742265834049,NaN,0.678949256345523,-1.00374535816486,NaN,0.160307140048428,-0.160307140048046,-0.032565331008435,0.502784466882414,-0.164407010502988,0.28583191821802,0.317965811306229,0.81099666220752,0.591297358269977,0.754919770442721,0.85834969769009,0.85834969768682,0.108868616883074,0.534194026223154,0.293639889144444,0.176014889767646,0.0711008153056058,0.19509745247235,0.489710697006458,0.216479099307295,NaN,NaN,NaN,NaN
1409.7408,0.0388741568450787,-0.115476657342479,-0.0237944455963927,1.126039901231,-0.036328172323683,-0.0363281723245275,0.526775508061848,-2.03613354520372,-0.70917127101697,-1.23519846658845,-0.6448189298495,-1.2351984665894,-1.15129605937461,0.582316669392393,NaN,-0.434912542232708,NaN,0.535777985984753,-2.08367906242485,-0.648478498569097,-2.08367906242353,NaN,0.280978053428979,NaN,0.682553782139502,-1.04174235575657,NaN,0.175384472500886,-0.175384472500503,-0.0107121764472406,0.492860786536458,-0.166839489687324,0.2765669610035,0.300681151030919,0.796937063312667,0.57187113244084,0.762710078610579,0.857594281451564,0.857594281448307,0.122920315437672,0.534422756676639,0.303659433374387,0.178564540848465,0.0690200389156172,0.196666042722857,0.496069329761311,0.207957866201382,NaN,NaN,NaN,NaN
1409.8432,0.0569366490509745,-0.118067369419106,-0.00627836751020943,1.11203372545551,-0.040327715933074,-0.0403277159339301,0.528084825879379,-2.03020653476819,-0.704481794506091,-1.23453771409743,-0.66993362801899,-1.23453771409839,-1.14233599385031,0.576936842407645,NaN,-0.418917010844578,NaN,0.548968986559817,-2.08768596923985,-0.662637507546898,-2.08768596923854,NaN,0.288965005886893,NaN,0.685400026531735,-1.07742210131539,NaN,0.190002440425388,-0.190002440425008,0.0117698008251364,0.482226883547857,-0.169134345211219,0.266837860679478,0.283241645979109,0.783283897030938,0.552496353302364,0.770224718033755,0.857512849672778,0.857512849669538,0.137092688664333,0.534093426877973,0.313537814432506,0.180136445594563,0.0664382774220378,0.197108024218977,0.502111592960387,0.198996201284227,NaN,NaN,NaN,NaN
1409.9456,0.0749638245053199,-0.120883222273075,0.0110746554138069,1.09721247448784,-0.0442345812424804,-0.0442345812433518,0.528745423219573,-2.02372825969686,-0.700067681047167,-1.23378305241384,-0.69452119588179,-1.23378305241481,-1.13105072341529,0.568676840665524,NaN,-0.40370280475931,NaN,0.561701979566573,-2.08985714482717,-0.67727484958189,-2.08985714482588,NaN,0.296690368971251,NaN,0.687530003622857,-1.11066068857613,NaN,0.204131302832874,-0.204131302832499,0.0348930978909837,0.470882130687721,-0.171267627610826,0.256659414383473,0.265650373563336,0.770069221255508,0.533188996596502,0.777446628342849,0.858035837648369,0.858035837645147,0.151343055263834,0.533205927084098,0.323244835825935,0.180714116036947,0.0634214909234667,0.196434477744145,0.507843954778253,0.18961428427098,NaN,NaN,NaN,NaN
1410.048,0.0929669348297327,-0.123944968996547,0.0282648254710916,1.08156414607514,-0.048086128871021,-0.0480861288719092,0.528739385349,-2.01667967029746,-0.695934288131787,-1.23287278551463,-0.7185149710581,-1.23287278551561,-1.11741812771353,0.557501134859913,NaN,-0.389256479103827,NaN,0.573991877852812,-2.09020170880911,-0.692350342320483,-2.09020170880784,NaN,0.304139487670756,NaN,0.688989401211694,-1.1413441533372,NaN,0.21774343567377,-0.2177434356734,0.0586663413640163,0.458828141836469,-0.173217265694237,0.246046962293057,0.247910892623861,0.757324358964288,0.513965102038231,0.784359406186771,0.859092830687762,0.859092830684558,0.165627552955198,0.531759826464095,0.332749336493763,0.180282887489114,0.0600348379180811,0.194657883263622,0.513274298952102,0.179832160227082,NaN,NaN,NaN,NaN
1410.1504,0.110957220042037,-0.127272383120353,0.0452928808647708,1.06507809958743,-0.0519194070620808,-0.0519194070629842,0.528049144527806,-2.00904189830721,-0.69208675935263,-1.23174296070911,-0.741849126676128,-1.23174296071011,-1.10142223545112,0.543384621649117,NaN,-0.375562938558208,NaN,0.585855432301356,-2.08873085637238,-0.707827136863106,-2.08873085637112,NaN,0.311295655939805,NaN,0.689827404112936,-1.16936873875364,NaN,0.23081337346839,-0.230813373468024,0.0830941410606866,0.446068811804627,-0.174963331250154,0.235016249636221,0.230027245932178,0.745079872887728,0.494840764538083,0.790947310985219,0.860612824422048,0.860612824418865,0.179901204241453,0.529754373528796,0.342019237441191,0.178829931597118,0.056342275481874,0.191791970633217,0.518411879316438,0.169669740483628,NaN,NaN,NaN,NaN
1410.2528,0.128945758441161,-0.130884153268769,0.062159997028079,1.0477452205236,-0.0557709242660406,-0.0557709242669505,0.526657466153196,-2.00079632784517,-0.688530078862959,-1.23032773536282,-0.764458857570115,-1.23032773536383,-1.0830533374076,0.526312763842211,NaN,-0.362605600117363,NaN,0.597311024312528,-2.08545773661546,-0.723671734159053,-2.08545773661421,NaN,0.318140026714182,NaN,0.690096487651313,-1.19464111641263,NaN,0.243317849051454,-0.243317849051089,0.108176961662511,0.432610347385122,-0.176488311305598,0.223583277069207,0.212003962204823,0.733365519283042,0.475832116194089,0.797195267703676,0.862524471003446,0.862524471000287,0.194117992823209,0.527188505353224,0.351021599463156,0.176344265924105,0.0524061687125739,0.187851570778209,0.523267260858957,0.159146809515774,NaN,NaN,NaN,NaN
1410.3552,0.146943319513804,-0.134797788333107,0.0788676852340592,1.02955807556986,-0.0596764279372087,-0.0596764279381274,0.524547433573777,-1.99192466583125,-0.685269126750444,-1.22855977364352,-0.786280562442229,-1.22855977364454,-1.06230809857745,0.506281697835669,NaN,-0.350366550952393,NaN,0.608378437421767,-2.08039734532156,-0.73985393583083,-2.08039734532032,NaN,0.324651583934176,NaN,0.689852174312158,-1.21707856522675,NaN,0.255235843038179,-0.255235843037814,0.133911008725573,0.41846127708803,-0.177777376161589,0.211764137181125,0.193846056959983,0.722210183039531,0.456955299475146,0.80308886490084,0.864756316056574,0.864756316053442,0.208230953050616,0.524060864400066,0.359722693162712,0.17281676080691,0.0482869078896651,0.18285246741325,0.527852245643265,0.148283035719124,NaN,NaN,NaN,NaN
1410.4576,0.164960222767824,-0.139029533230329,0.095417691505724,1.01051105615458,-0.0636706913211447,-0.0636706913220662,0.521702427796705,-1.98240900328869,-0.682308733773971,-1.22637066488753,-0.807252024593732,-1.22637066488856,-1.03918966774384,0.483298312369123,NaN,-0.338826700158907,NaN,0.619078611360771,-2.07356642490947,-0.75634672546376,-2.07356642490824,NaN,0.330807170489718,NaN,0.689152753142321,-1.23660911205041,NaN,0.266548652114693,-0.266548652114324,0.160288128340374,0.403632429585559,-0.178818631657403,0.199574836745996,0.175559031073324,0.711641798788277,0.438226432683695,0.808614347279663,0.867237030693974,0.867237030690862,0.222192272843937,0.520369823284696,0.368088081706216,0.16824014341391,0.0440425358448986,0.176811250244628,0.532179785826701,0.137097986080885,NaN,NaN,NaN,NaN
1410.56,0.183006203935271,-0.143594293183785,0.111811898496005,0.990600512010071,-0.0677873069846285,-0.0677873069855552,0.518106098377319,-1.97223185522342,-0.679653731663316,-1.22369134996114,-0.827312592217746,-1.22369134996218,-1.01370778093373,0.457380301954972,NaN,-0.327965920785573,NaN,0.629433392148655,-2.06498336527122,-0.773126082120491,-2.06498336527001,NaN,0.336581565631866,NaN,0.688058967278625,-1.25317163580436,NaN,0.277239969516935,-0.277239969516566,0.187295726262377,0.388136879658778,-0.179603351882045,0.187031106196242,0.157148865809902,0.701687261523565,0.419661568229853,0.813758603755109,0.869895637936076,0.869895637932989,0.235953407927091,0.516113519301258,0.376082715530722,0.162608997653849,0.0397283925148294,0.169745171196896,0.536263888725618,0.125611146503907,NaN,NaN,NaN,NaN
1410.6624,0.20109028794714,-0.148505563832069,0.128052231217,0.969824880307364,-0.0720584850851241,-0.0720584850860533,0.513742327035025,-1.9613761723994,-0.677308993633004,-1.220452539658,-0.846403354219018,-1.22045253965905,-0.985878852396112,0.428556192451365,NaN,-0.317763179683285,NaN,0.63946529696661,-2.05466810242886,-0.790170730191215,-2.05466810242766,NaN,0.341947613249058,NaN,0.686633679473349,-1.26671593355882,NaN,0.287295961687003,-0.287295961686635,0.214916719882974,0.37198986939333,-0.180126196865623,0.174148199445922,0.138622012585849,0.692372329736377,0.401276643626617,0.818509153569235,0.872661727140527,0.872661727137462,0.249465203025072,0.511289902305534,0.383671037390007,0.155919759585046,0.0353967858910674,0.161672007057924,0.540119520823912,0.113841951673316,NaN,NaN,NaN,NaN
1410.7648,0.219220665428361,-0.15377536341287,0.144140565304501,0.948184819412473,-0.0765148560087426,-0.0765148560096729,0.508595190427881,-1.94982532959986,-0.67527946186554,-1.21658511070025,-0.864467307352303,-1.21658511070131,-0.95572604887828,0.396865334982931,NaN,-0.308196653325509,NaN,0.649197306226852,-2.04264201617153,-0.807461830703673,-2.04264201617034,NaN,0.346876405948982,NaN,0.684941527553701,-1.27720274545948,NaN,0.29670532568578,-0.296705325685406,0.243129534093489,0.35520871801251,-0.180385424373915,0.160940688646427,0.119985376453936,0.683721524007114,0.383087425670348,0.822854133255978,0.875465648781569,0.875465648778527,0.262678015404809,0.505896800287819,0.390817096233193,0.148170711653838,0.0310966967600373,0.152609934676616,0.543762517482966,0.101809829263149,NaN,NaN,NaN,NaN
1410.8672,0.237404567978735,-0.159414164107383,0.160078634477408,0.925683355593126,-0.0811852786950858,-0.0811852786960159,0.502648927853893,-1.93756310086855,-0.673570162799511,-1.21202047302996,-0.881449515204194,-1.21202047303103,-0.923279342212159,0.362357861786841,NaN,-0.299243828881037,NaN,0.658652683455591,-2.02892783299427,-0.824982621806194,-2.0289278329931,NaN,0.351337523381186,NaN,0.683048579481656,-1.28460373809691,NaN,0.305459317481697,-0.305459317481319,0.271908143112155,0.337812733908229,-0.180383102753678,0.147422259979771,0.101246293768326,0.675758023351866,0.365109449133072,0.826782286268794,0.878238685585549,0.878238685582533,0.275541838438288,0.499932004937031,0.397484669209826,0.139361980376166,0.0268735203957563,0.142577424352801,0.54720950101269,0.089534261321249,NaN,NaN,NaN,NaN
1410.9696,0.255648138357301,-0.165430823692992,0.175867932473284,0.902326044817096,-0.0860966557193709,-0.0860966557203031,0.495887917832175,-1.92457363522922,-0.672186214498372,-1.20669091381789,-0.897297264725585,-1.20669091381898,-0.888575525291793,0.32509458639548,NaN,-0.290881594393758,NaN,0.667854813693269,-2.01354954259367,-0.842718021932976,-2.01354954259251,NaN,0.355299310738645,NaN,0.681021989741743,-1.28890144768331,NaN,0.313551746263507,-0.313551746263126,0.301222155368858,0.319823131736858,-0.180125318725967,0.133605516612421,0.0824125050951005,0.668503562335663,0.347357952074189,0.830282954941608,0.880913203574765,0.88091320357178,0.288006426771471,0.49339337514938,0.403637392089744,0.12949553816156,0.022768844095751,0.131593151631554,0.550477802629768,0.0770348617430167,NaN,NaN,NaN,NaN
1411.072,0.27395629357379,-0.171832522016549,0.191509604839053,0.878121144751213,-0.0912737553516845,-0.0912737553526211,0.488296668551902,-1.91084145027541,-0.671132831706346,-1.20052992838456,-0.911960226769333,-1.20052992838566,-0.85165817148088,0.285146826273511,NaN,-0.283086324654154,NaN,0.676827047503525,-1.9965323285455,-0.860654214210709,-1.99653232854434,NaN,0.358729172494254,NaN,0.67892964994207,-1.29008918026015,NaN,0.320978930750992,-0.320978930750607,0.331036935367083,0.301262942890258,-0.179622359740446,0.11950179273566,0.0634921247850297,0.661978332380159,0.329847810327138,0.833346071914251,0.883422793798876,0.88342279379592,0.300021426849843,0.486278952611598,0.40923889836592,0.118575204617667,0.0188202580403131,0.11967592207729,0.553585379225403,0.0643314653544335,NaN,NaN,NaN,NaN
1411.1744,0.292332580963306,-0.178624707060225,0.20700432798679,0.853079789161822,-0.0967390411188242,-0.0967390411197665,0.47985982683695,-1.89635145775947,-0.670415332595939,-1.19347254262376,-0.925390620944645,-1.19347254262486,-0.812577526543371,0.242596135032421,NaN,-0.275833965324679,NaN,0.685592543246067,-1.97790250274862,-0.878778229855836,-1.97790250274746,NaN,0.361593855899677,NaN,0.676839824749716,-1.2881708625891,NaN,0.327739614686949,-0.327739614686558,0.361313752885345,0.282156905954395,-0.178888852610923,0.105120979954027,0.0444936077979751,0.656200887087789,0.312593471545058,0.835962146885289,0.885702415366232,0.885702415363308,0.311536514072016,0.478587082415972,0.414252965081124,0.106606639918476,0.0150611990998725,0.106844601866135,0.556550717586901,0.0514442231698096,NaN,NaN,NaN,NaN
1411.2768,0.310779029386735,-0.185811054757375,0.222352175437976,0.827216157744374,-0.10251251113353,-0.10251251113448,0.470562206092677,-1.88108902248415,-0.670039147541604,-1.18545562460015,-0.937543376457884,-1.18545562460127,-0.771390333876634,0.197533938276948,NaN,-0.2691001101401,NaN,0.694174111091885,-1.95768743553902,-0.897077543621733,-1.95768743553788,NaN,0.363859712100807,NaN,0.674820768813641,-1.28316084040339,NaN,0.333834844929554,-0.333834844929154,0.392009951502003,0.262531333452175,-0.177943853053169,0.0904713665764766,0.0254257120696166,0.651188045729794,0.295608884994481,0.838122245055437,0.887688542849868,0.887688542846971,0.322501532759487,0.47031653273056,0.418643660260746,0.0935973247317393,0.0115208284345359,0.0931180493353582,0.559392723286646,0.0383936996844071,NaN,NaN,NaN,NaN
1411.3792,0.329295998932974,-0.193393445896125,0.23755247293362,0.800547636339535,-0.108611551514908,-0.108611551515863,0.460388830174596,-1.86504004190041,-0.670009825348943,-1.17641817979913,-0.948376276900957,-1.17641817980026,-0.728159598304808,0.150061069350616,NaN,-0.262860063554676,NaN,0.702594069785507,-1.93591548730175,-0.915539689817458,-1.93591548730061,NaN,0.365492942439563,NaN,0.672940324554739,-1.27508362486214,NaN,0.339267821975735,-0.339267821975334,0.423079133739784,0.242413958414815,-0.176810886138553,0.0755594925562235,0.00629745474572051,0.646954787349194,0.278907422594616,0.839817955166023,0.889319313646777,0.88931931364391,0.332866632652164,0.461466610098011,0.42237548611769,0.0795565277465042,0.00822394198109319,0.0785150481079407,0.562130594427607,0.0252009700374265,NaN,NaN,NaN,NaN
1411.4816,0.347882032991143,-0.201371960652924,0.252603646168416,0.773094964520973,-0.115050808466783,-0.11505080846775,0.449324990565369,-1.84819102669434,-0.670333027775018,-1.16630162264553,-0.95785008243557,-1.16630162264667,-0.682954296879922,0.100287211294672,NaN,-0.257088889796721,NaN,0.71087412727271,-1.91261595387967,-0.934151901893486,-1.91261595387852,NaN,0.366459849869415,NaN,0.671265503742752,-1.26397358882725,NaN,0.344043734404317,-0.34404373440391,0.454471364051219,0.221833766286902,-0.175517936106998,0.0603900253511523,-0.0128819362653005,0.643514131434146,0.262501790619973,0.841041347373632,0.890534666267742,0.890534666264907,0.342582397702661,0.452037270659938,0.42541351516375,0.0644952676974605,0.00519091253904303,0.0630542477896452,0.564783681879744,0.0118877169384745,NaN,NaN,NaN,NaN
1411.584,0.366533717908649,-0.2097448876899,0.267503068341202,0.744882369705583,-0.121842082412418,-0.121842082413395,0.437356317739492,-1.83052916695681,-0.671014502480954,-1.15505001701445,-0.965928634096924,-1.1550500170156,-0.635849052717612,0.0483302674659182,NaN,-0.251761457199859,NaN,0.719035291782212,-1.88781903333713,-0.952900769372714,-1.88781903333598,NaN,0.36672711459862,NaN,0.669862059654032,-1.24987461792817,NaN,0.348169585686078,-0.348169585685669,0.486133395777856,0.200820817363527,-0.174097380464105,0.0449656639838934,-0.0321030720227945,0.640877004755156,0.246403934543136,0.841784923966397,0.891276455956283,0.89127645595348,0.351599966718849,0.442029230922058,0.427723520375885,0.0484262769461678,0.0024376656181722,0.0467541197854056,0.567371338458746,-0.00152367066062392,NaN,NaN,NaN,NaN
1411.6864,0.385245557395713,-0.218508743312406,0.282246917560276,0.715937689320725,-0.128994246527773,-0.128994246528763,0.424468870728217,-1.81204238233152,-0.672060029769358,-1.142610282395,-0.972578951466191,-1.14261028239616,-0.586923791182601,-0.00568431171526185,NaN,-0.246852479916341,NaN,0.727097813565829,-1.86155581686078,-0.971771900241256,-1.86155581685962,NaN,0.366262102792677,NaN,0.668794059484723,-1.23283972748104,NaN,0.351654016512751,-0.351654016512341,0.518008933905962,0.179406061118991,-0.172585854678017,0.0292870810915508,-0.051356451439491,0.639052095516403,0.230624939163218,0.842041567263566,0.891488532332767,0.891488532329997,0.359871147605332,0.43144408217057,0.429272102321868,0.0313639693341788,-2.43053008446518e-05,0.0296329330856148,0.569912758823393,-0.0150099943389724,NaN,NaN,NaN,NaN
1411.7888,0.404009868260323,-0.227658297079899,0.296830053034905,0.686292484385464,-0.136513189909539,-0.136513189910539,0.410649247172866,-1.79271936710077,-0.673475347428895,-1.1289323678303,-0.977771331950678,-1.12893236783148,-0.536263386137227,-0.0616242351265799,NaN,-0.242336546707846,NaN,0.735081150968254,-1.83385830480671,-0.99074958353582,-1.83385830480555,NaN,0.365033202711466,NaN,0.668123465474609,-1.21293065319856,NaN,0.354507124782522,-0.35450712478211,0.550038945010321,0.157621137219254,-0.171024029339963,0.0133529104921573,-0.070632510379246,0.638045698325715,0.215174924680492,0.841804487237619,0.891116772281274,0.89111677227854,0.367348527326239,0.420284410268409,0.430026815445966,0.0133244087239952,-0.00218787940781636,0.0117087485288368,0.572426809808639,-0.0285471364436469,NaN,NaN,NaN,NaN
1411.8912,0.422816700374041,-0.237186602191674,0.311245914037587,0.655982146926401,-0.144401782636567,-0.144401782637572,0.39588471121214,-1.77254964415393,-0.675266064325815,-1.11396939879946,-0.981479453388098,-1.11396939880064,-0.483957285488731,-0.119351124167782,NaN,-0.238188123863871,NaN,0.743003953070273,-1.80475944559636,-1.0098164571549,-1.8047594455952,NaN,0.363010173524211,NaN,0.667909727567745,-1.19021741146197,NaN,0.356740288382335,-0.356740288381925,0.582162019102051,0.135498155367863,-0.169456294166321,-0.00284022224521952,-0.0899216752769857,0.637861556977432,0.200062938320125,0.841067167795321,0.890109076353038,0.89010907635034,0.373985579772098,0.408553920158189,0.42995629478355,-0.00567473028942711,-0.00405020588025715,-0.00700057682179592,0.574931849746989,-0.042109943117137,NaN,NaN,NaN,NaN
1411.9936,0.441653779850674,-0.247085031022662,0.325486440358279,0.625046000018897,-0.15265985911499,-0.152659859116002,0.380163334878516,-1.75152363818881,-0.677437572814036,-1.09767780296518,-0.983680476774432,-1.09767780296637,-0.430099099791934,-0.178721331178204,NaN,-0.234381525882729,NaN,0.750884054367547,-1.77429319145943,-1.0289531892982,-1.77429319145828,NaN,0.360164494026806,NaN,0.668209384146347,-1.16477782130664,NaN,0.358365995402377,-0.358365995401966,0.614314780309347,0.113069451434466,-0.167930363430989,-0.019297637519802,-0.109214426235388,0.638500713413587,0.18529684118638,0.839823308823252,0.88841534581522,0.888415345812563,0.379736774015031,0.396257563549103,0.4290303842418,-0.0256142162857259,-0.00561256438402537,-0.0264773842356221,0.577445536751315,-0.0556721016546445,NaN,NaN,NaN,NaN
1412.096,0.460506470431549,-0.257343315939162,0.339542008921338,0.593527387782436,-0.161284217748763,-0.161284217749783,0.363474147111052,-1.72963277292469,-0.679994968211513,-1.08001742323382,-0.984355143155165,-1.08001742323503,-0.374786149674173,-0.239586821702902,NaN,-0.230890855705994,NaN,0.758738477487421,-1.74249456597137,-1.04813818248295,-1.74249456597023,NaN,0.356469702038466,NaN,0.669075666191601,-1.13669699200962,NaN,0.35939768636885,-0.35939768636844,0.646432333207307,0.0903673287277258,-0.166496831577749,-0.0360265191687494,-0.128501370305784,0.639961369483049,0.170883192599433,0.838066763064777,0.885987457260548,0.885987457257926,0.384557686366763,0.383401668494824,0.427220268334103,-0.0464733276037471,-0.00688019706032741,-0.046704208326901,0.579984630023957,-0.0692060172460625,NaN,NaN,NaN,NaN
1412.1984,0.479357743784743,-0.267949591784948,0.35340137882748,0.56147375485313,-0.170268635253671,-0.170268635254697,0.345807277755561,-1.7068695893399,-0.682942985251295,-1.06095162907329,-0.983487859548024,-1.06095162907451,-0.318118984493018,-0.301796095691339,NaN,-0.227689923270359,NaN,0.766583439222163,-1.7093997427787,-1.06734731291245,-1.70939974277756,NaN,0.351901713033017,NaN,0.670558105220205,-1.10606679323218,NaN,0.359849618437564,-0.359849618437153,0.678448719546305,0.0674238051826876,-0.165208715234148,-0.0530358186615682,-0.147773318966915,0.642238763942275,0.15682713761552,0.835791470895145,0.882779247513121,0.882779247510538,0.388405120730054,0.369994070347151,0.424498610331455,-0.0682299212375497,-0.00786211935505876,-0.0676637656989701,0.582564792925274,-0.0826826965849638,NaN,NaN,NaN,NaN
1412.3008,0.498188149434449,-0.278890433274841,0.36705163885683,0.528936715585993,-0.179603889808957,-0.179603889809991,0.327154082118535,-1.68322787631499,-0.686285959775133,-1.04044743231068,-0.981066773748244,-1.04044743231192,-0.260200895315528,-0.365195109186297,NaN,-0.224752157532127,NaN,0.774434357416347,-1.67504613748402,-1.08655372434667,-1.67504613748289,NaN,0.346439106169812,NaN,0.67270215134958,-1.0729853263118,NaN,0.359736763127647,-0.359736763127237,0.71029735695169,0.044270388595615,-0.164121014115727,-0.0703361495523197,-0.167021360339245,0.645325061204239,0.143132303625826,0.83299139847658,0.878746514149837,0.878746514147299,0.391237240039474,0.356044243524133,0.420839698578299,-0.0908604924256326,-0.00857091675085675,-0.0893389290936255,0.585200407717558,-0.0960716453902857,NaN,NaN,NaN,NaN
1412.4032,0.516975780807853,-0.290150881613833,0.380478156923928,0.495972111715685,-0.189277782891389,-0.189277782892427,0.307507240897853,-1.65870280434555,-0.690027814968142,-1.01847560382586,-0.97708384293023,-1.0184756038271,-0.201137447622124,-0.429628156634224,NaN,-0.222050529110832,NaN,0.782305857237556,-1.63947251429363,-1.10572769645992,-1.63947251429251,NaN,0.340063373011997,NaN,0.675548810916713,-1.03755641007571,NaN,0.359074742061204,-0.35907474206079,0.74191144233814,0.0209378882684119,-0.163290303559668,-0.0879396738207809,-0.186236917569832,0.649209245207285,0.129800709902415,0.829660484484312,0.873847028997124,0.873847028994629,0.393013707245208,0.341563432513341,0.416219599239684,-0.114340217559881,-0.00902253263096379,-0.111712682190706,0.587904409420967,-0.109340784680741,NaN,NaN,NaN,NaN
1412.5056,0.535696239184356,-0.301714458171259,0.393664534573263,0.462640057695248,-0.199275152152062,-0.199275152153106,0.286860838022411,-1.63329105155154,-0.694172063470228,-0.995010784100273,-0.971534901338478,-0.995010784101529,-0.141036054889494,-0.494938682858794,NaN,-0.219557494247196,NaN,0.79021177289774,-1.6027191078047,-1.12483659543735,-1.60271910780359,NaN,0.332759134191724,NaN,0.679134313248371,-0.999889092218874,NaN,0.357879796348583,-0.357879796348167,0.773224317374671,-0.00254374326385387,-0.162774349823823,-0.105859979362376,-0.205411786317102,0.653877014111999,0.116832693784441,0.825792599484453,0.868040559348236,0.868040559345785,0.393695832328042,0.3265647806916,0.410616312423227,-0.138642976189479,-0.00923604679257316,-0.134768050870018,0.590688143728654,-0.122456388200402,NaN,NaN,NaN,NaN
1412.608,0.554322597804589,-0.313563166318145,0.406592568265623,0.429004974738221,-0.209577875121028,-0.209577875122073,0.26521041957158,-1.60699091205671,-0.698721816607168,-0.970031587089273,-0.964419727762388,-0.97003158709054,-0.0800056030494714,-0.560970010890847,NaN,-0.217244963665686,NaN,0.798165140117249,-1.56482775907732,-1.1438448994583,-1.56482775907621,NaN,0.324514334468187,NaN,0.683489813373115,-0.96009719455253,NaN,0.356168780504014,-0.356168780503599,0.804169801280672,-0.0261455461281327,-0.162631733348099,-0.124111945168402,-0.224538145809163,0.659310674564443,0.1042268572775,0.821381521103952,0.861288893146555,0.861288893144146,0.393246723883168,0.311063456829657,0.404009930589433,-0.163741349740163,-0.00923343897618582,-0.15848800640924,0.593561251564713,-0.135383041014963,NaN,NaN,NaN,NaN
1412.7104,0.572825366473327,-0.325677484526338,0.419242216072305,0.395135612957522,-0.220164867180742,-0.220164867181787,0.24255303852951,-1.57980238756435,-0.70367979683551,-0.943520703562253,-0.955742106816663,-0.94352070356353,-0.0181561171073713,-0.627565993955444,NaN,-0.21508430058934,NaN,0.806178178507382,-1.52584206431399,-1.16271429084738,-1.52584206431287,NaN,0.315320422216578,NaN,0.688641131661176,-0.918298888818571,NaN,0.353959171340858,-0.353959171340441,0.834682498719365,-0.0498396690247944,-0.162921471305177,-0.142711590521586,-0.243608543814911,0.665489036685445,0.0919800342928834,0.816420926393483,0.853555864985451,0.853555864983087,0.391631445670247,0.295076779291709,0.396382799535163,-0.189606600222672,-0.00903933074685688,-0.182855341018094,0.596531579052521,-0.148083617300111,NaN,NaN,NaN,NaN
1412.8128,0.591172456976731,-0.338036353850689,0.431591568367223,0.361105055322892,-0.231012076315726,-0.231012076316775,0.21888729156795,-1.55172727305048,-0.709048354094536,-0.915465008054644,-0.945509873513243,-0.915465008055928,0.0444015523890257,-0.694571613249097,NaN,-0.213046354708387,NaN,0.814262266031416,-1.4858075344045,-1.18140381431508,-1.48580753440338,NaN,0.30517251040408,NaN,0.69460852555313,-0.874616287678561,NaN,0.351269083128769,-0.351269083128355,0.864698089007802,-0.0735994678378428,-0.163702633368846,-0.161675906416874,-0.262615864614531,0.672387314690921,0.0800872735220022,0.810904400105898,0.844807379049244,0.844807379046919,0.388817177812612,0.278624336604233,0.387719681188455,-0.216208638624677,-0.00868070078597661,-0.207852522873548,0.599605108212842,-0.160519275105864,NaN,NaN,NaN,NaN
1412.9152,0.609329152027201,-0.350617162044211,0.44361682410694,0.326990693127962,-0.242092478028004,-0.242092478029058,0.194213347932352,-1.52276924140314,-0.714829488831654,-0.885855667101851,-0.933734931536098,-0.885855667103143,0.10755603978733,-0.76183353536834,NaN,-0.211101536395726,NaN,0.822427904059571,-1.44477176225692,-1.19987010011006,-1.44477176225579,NaN,0.294069511948263,NaN,0.701406487011149,-0.829175038134495,NaN,0.348117279155837,-0.348117279155428,0.894153597971102,-0.0973995908326216,-0.165033942980237,-0.181022667302934,-0.281553291070282,0.679977039264335,0.0685418308863153,0.804825456083791,0.83501142620685,0.83501142620456,0.384773382152091,0.261728102566904,0.378007917124686,-0.243515991212893,-0.00818657203120967,-0.233461537799696,0.602785903429521,-0.172649467714571,NaN,NaN,NaN,NaN
1413.0176,0.627258081425075,-0.363395726377297,0.455292275413533,0.29287416508865,-0.253376077265473,-0.253376077266532,0.16853296196146,-1.49293391750774,-0.721024883944383,-0.854688244894065,-0.920433240931451,-0.854688244895366,0.171195773374247,-0.829200628559364,NaN,-0.209219930508826,NaN,0.830684667867152,-1.40278459094985,-1.21806764476615,-1.40278459094871,NaN,0.282014243682297,NaN,0.709043563136505,-0.782103917638405,NaN,0.344523170227771,-0.344523170227362,0.922987652569417,-0.121216045941434,-0.166973365244491,-0.200770220370146,-0.300414264648478,0.688225985124137,0.0573351700195176,0.79817757065974,0.82413809615028,0.824138096148026,0.379471974123369,0.244412546623131,0.367237594765197,-0.271495764396842,-0.00758767238687702,-0.259663718904254,0.606076072393217,-0.184431972882598,NaN,NaN,NaN,NaN
1413.12,0.644919207800205,-0.376346277000547,0.466590301912182,0.258841257570672,-0.264829926348889,-0.264829926349951,0.141849461367121,-1.46222892944988,-0.727635945670036,-0.821962806434638,-0.905624777221405,-0.821962806435947,0.235209277642934,-0.896524437021226,NaN,-0.207371445008613,NaN,0.839041141818804,-1.35989827517364,-1.23594913965691,-1.3598982751725,NaN,0.269013499131014,NaN,0.717522202210688,-0.733534443405023,NaN,0.340506798864085,-0.34050679886368,0.951140723190028,-0.145026234557638,-0.169577701088876,-0.220937252805534,-0.319192440196934,0.697098114318785,0.0464569734982766,0.790954229808016,0.812159586399842,0.812159586397627,0.3728875051774,0.2267047431583,0.35540172059318,-0.300113604145041,-0.00691607049164679,-0.28643956098353,0.609475745210024,-0.195822941076315,NaN,NaN,NaN,NaN
1413.2224,0.662269824767933,-0.38944144113338,0.47748137764184,0.224981765123392,-0.276418166779805,-0.276418166780872,0.114167712703781,-1.43066393423071,-0.734663850573517,-0.787684018907963,-0.889333467416116,-0.787684018909279,0.299485464381837,-0.963659621228788,NaN,-0.205525986352796,NaN,0.847504844906341,-1.31616763559108,-1.25346583791288,-1.31616763558994,NaN,0.255078099798967,NaN,0.726838628715271,-0.683600508334438,NaN,0.336088816634154,-0.336088816633756,0.978555359344988,-0.16880893834277,-0.172902212237825,-0.241542542197533,-0.337881632878855,0.706553534255058,0.0358951664261203,0.783148990792143,0.799050204346597,0.799050204344422,0.364997354735269,0.20863448117901,0.342496400256894,-0.329333647084415,-0.00620478495778316,-0.313768516343095,0.612983076904854,-0.206776962766625,NaN,NaN,NaN,NaN
1413.3248,0.679264572928006,-0.402652226199903,0.487934097290086,0.191389309123608,-0.288102096910207,-0.288102096911278,0.085494073553547,-1.39825062594777,-0.742109594506434,-0.751861245113031,-0.87158710596061,-0.751861245114354,0.36391391243621,-1.03046437416544,NaN,-0.203653651892256,NaN,0.856082152783798,-1.27165021201404,-1.27056795569713,-1.2716502120129,NaN,0.240222935007426,NaN,0.736982750437771,-0.632438048379911,NaN,0.331290458577213,-0.331290458576822,1.00517641988565,-0.192544259934292,-0.177000284723625,-0.262604695706532,-0.356475760935041,0.716548471843592,0.0256359500947269,0.774755554777993,0.78478635330811,0.784786353305973,0.355781922726993,0.190234370019828,0.328521017474385,-0.35911846522828,-0.00548736435316278,-0.341628772769626,0.616594276252327,-0.217247153925507,NaN,NaN,NaN,NaN
1413.4272,0.695855479279075,-0.415947999887689,0.497915228736092,0.158161112661646,-0.299840260339738,-0.299840260340814,0.0558363415663275,-1.36500274104875,-0.749974042751593,-0.714508618922186,-0.852417248374332,-0.714508618923517,0.428385145600855,-1.09680082419683,NaN,-0.201724930577262,NaN,0.864778218292583,-1.22640641873806,-1.28720511244868,-1.22640641873693,NaN,0.224466986931721,NaN,0.747938100831446,-0.580184729709696,NaN,0.32613351240081,-0.326133512400427,1.03095130008134,-0.216213528893549,-0.18192312204603,-0.284141881142621,-0.374968792919582,0.727035270821849,0.0156638419747075,0.765767845361878,0.769346497147875,0.769346497145769,0.345224812986877,0.171539934863028,0.313478402345875,-0.389429011167999,-0.00479743806602884,-0.36999702017056,0.6203036613802,-0.227185257827805,NaN,NaN,NaN,NaN
1413.5296,0.71199202220462,-0.429296468189144,0.507389793572427,0.125397731701588,-0.311588550431623,-0.311588550432702,0.0252037047187788,-1.33093607576132,-0.758257986191857,-0.675645101442242,-0.831859078981047,-0.67564510144358,0.492790925743807,-1.16253544041612,NaN,-0.199710906174043,NaN,0.873596887159026,-1.18049970037433,-1.30332681106195,-1.1804997003732,NaN,0.207833329543917,NaN,0.759681816707347,-0.526979637618465,NaN,0.320640285031859,-0.320640285031483,1.05583016324155,-0.239799183510679,-0.187719459580128,-0.306171552840421,-0.393354706089286,0.737962419495465,0.00596171989599277,0.756180090564138,0.752711106136054,0.752711106133983,0.333313005458649,0.152589699034618,0.297374986395824,-0.420224570027374,-0.00416824375600881,-0.398848214140464,0.624103740834207,-0.236541760667263,NaN,NaN,NaN,NaN
1413.632,0.727621220875864,-0.442663655520132,0.516321172102493,0.0932027442569364,-0.323300331934317,-0.323300331935397,-0.00639330675115828,-1.29606852330668,-0.766962207548769,-0.63529452723378,-0.809951254555147,-0.635294527235123,0.557024568245956,-1.22753945001346,NaN,-0.197583459589985,NaN,0.882540603838415,-1.13399668576732,-1.31888294328445,-1.13399668576617,NaN,0.190349098504191,NaN,0.772184645298505,-0.472962959188238,NaN,0.31483357224177,-0.314833572241401,1.07976618009128,-0.263284635471187,-0.194435298629195,-0.328710176751697,-0.411627454708306,0.749274609060938,-0.00348912854785953,0.745986908087067,0.734862590928087,0.734862590926046,0.320037021465812,0.133425252273136,0.280220947024887,-0.451462717536671,-0.00363214409268255,-0.428155340980815,0.627985316943349,-0.245266019455876,NaN,NaN,NaN,NaN
1413.7344,0.742687748050507,-0.456013891185741,0.524671229352196,0.0616824015107916,-0.334926580241225,-0.334926580242308,-0.0389428615512025,-1.26042012910559,-0.776087551852822,-0.593485645771566,-0.786735734237216,-0.593485645772914,0.620981263983278,-1.29168925365502,NaN,-0.195315466546355,NaN,0.891610311276101,-1.08696733681073,-1.33382429815231,-1.08696733680957,NaN,0.172045437785969,NaN,0.785410974252734,-0.418275663281089,NaN,0.308736626819182,-0.308736626818822,1.10271576498066,-0.286654124293241,-0.202113657292106,-0.351772958319033,-0.429780940261971,0.760912819062509,-0.0127089465914585,0.735183393203655,0.715785232878158,0.715785232876144,0.305391084328529,0.114091302543097,0.262030341998302,-0.483099278524082,-0.0032201510379634,-0.457889186163816,0.631937607143624,-0.253306402619603,NaN,NaN,NaN,NaN
1413.8368,0.75713406869374,-0.469309805572242,0.532400462752993,0.0309452461154233,-0.346416033277903,-0.346416033278987,-0.0724318495246474,-1.22401315792768,-0.785634986365455,-0.55025214778549,-0.762257609461944,-0.550252147786846,0.684558379957245,-1.35486680485799,NaN,-0.192880982292624,NaN,0.900805363735937,-1.03948508398844,-1.34810305833741,-1.03948508398727,NaN,0.152957425244763,NaN,0.799318886065061,-0.363059182504367,NaN,0.30237311269013,-0.302373112689777,1.12463878871411,-0.309892568803846,-0.210794330013385,-0.375373573589448,-0.447808975436876,0.772814429747307,-0.0217194326388252,0.723765207002171,0.695465121156611,0.695465121154628,0.289373271681747,0.0946357063703648,0.24282122935769,-0.515088284321067,-0.00296147461515956,-0.488018111668262,0.635948378732638,-0.260610444834982,NaN,NaN,NaN,NaN
1413.9392,0.770900609501629,-0.482512338471181,0.53946817548423,0.00110170218191213,-0.357715349510071,-0.357715349511153,-0.106845874759751,-1.18687216721662,-0.795605637272752,-0.505632660757976,-0.736564945013618,-0.505632660759337,0.747655716389831,-1.4169599199661,NaN,-0.190255401989408,NaN,0.910123473875348,-0.99162693758254,-1.36167327786335,-0.991626937581361,NaN,0.133123973658725,NaN,0.813860245687907,-0.307455095691851,NaN,0.29576703966358,-0.295767039663234,1.14549875314201,-0.332985421583311,-0.220513646704079,-0.399523902361018,-0.465705237606243,0.78491336287434,-0.0305436443742022,0.711728661543256,0.673890106094001,0.673890106092047,0.271985654312606,0.0751094721776457,0.22261576685523,-0.547381934602421,-0.00288310417354321,-0.518507850642873,0.640004092445491,-0.26712501737909,NaN,NaN,NaN,NaN
1414.0416,0.783925961998936,-0.495580759673454,0.545832678203304,-0.0277363583967136,-0.3687692698688,-0.368769269869879,-0.142169221016994,-1.14902408260177,-0.806000802099665,-0.459670714134161,-0.709708642764153,-0.459670714135526,0.810175709208239,-1.4778625030503,NaN,-0.187415594134112,NaN,0.91956069443819,-0.943473569859986,-1.37449133479581,-0.943473569858797,NaN,0.112587708414044,NaN,0.828980827392729,-0.251604807409063,NaN,0.288942686325942,-0.288942686325599,1.16526292804194,-0.355918531433245,-0.231304224237764,-0.42423376269907,-0.483463209257349,0.797140251777778,-0.0392058803056877,0.699070798911898,0.651049771157663,0.651049771155737,0.253234421342472,0.0555667329601975,0.201440289301953,-0.579930566845196,-0.00300942133579221,-0.549321322077928,0.644090050574593,-0.2727965144397,NaN,NaN,NaN,NaN
1414.144,0.796147116098908,-0.508472700333647,0.5514515167347,-0.0554560674084075,-0.379520786377734,-0.379520786378813,-0.178384800506768,-1.11049827281647,-0.816821946400595,-0.412414694212122,-0.681742342138098,-0.412414694213491,0.872023575961613,-1.53747469034193,NaN,-0.184340021053501,NaN,0.929111415208908,-0.895109371787736,-1.38651634811647,-0.895109371786536,NaN,0.0913948305061456,NaN,0.844620477666744,-0.195649226953654,NaN,0.2819245226754,-0.281924522675056,1.18390246168361,-0.3786780179513,-0.243194706105075,-0.449510647304298,-0.501076101887711,0.809422644033477,-0.047731534616225,0.68578946344482,0.626935420672782,0.626935420670886,0.233129997455934,0.0360646879232456,0.179325367704984,-0.612682627329673,-0.00336184200376539,-0.580418458680961,0.648190547199978,-0.277571054914875,NaN,NaN,NaN,NaN
1414.2464,0.807499717835718,-0.521144196080347,0.556281718568162,-0.0819440242235619,-0.38991132210664,-0.389911322107719,-0.215474095215799,-1.07132661998763,-0.828070690851019,-0.363917806704095,-0.652722364435254,-0.363917806705466,0.933107409663171,-1.59570292612819,NaN,-0.181008865019885,NaN,0.938768362748609,-0.846622485948224,-1.39771054669605,-0.846622485947017,NaN,0.0695949683686964,NaN,0.86071330653327,-0.139728453328439,NaN,0.274737139174741,-0.274737139174401,1.20139247341929,-0.401250159290065,-0.256209492299494,-0.475359463892972,-0.51853676117561,0.82168524431074,-0.0561469204004812,0.671883368500125,0.601540081794872,0.601540081793003,0.211687158422894,0.0166635154118324,0.156305855551853,-0.645584635687967,-0.00395848795189355,-0.611756040614784,0.652289019367275,-0.281394698271108,NaN,NaN,NaN,NaN
1414.3488,0.817918346522169,-0.53354974762319,0.560280049963512,-0.107086769085236,-0.399880926572327,-0.399880926573405,-0.253417091125258,-1.03154358026546,-0.839748786102475,-0.3142380481269,-0.622707694603173,-0.314238048128273,0.993338228376417,-1.65245997754342,NaN,-0.177404162961061,NaN,0.948522611130046,-0.798104809811542,-1.40803958047252,-0.79810480981033,NaN,0.0472410081266825,NaN,0.87718790364486,-0.0839814680040047,NaN,0.267405182866292,-0.267405182865956,1.21771212537995,-0.423621292915079,-0.270368468414655,-0.501782285176683,-0.535837556668081,0.833850205654744,-0.0644790603232018,0.657352158818432,0.574858522082117,0.574858522080278,0.188925146492294,-0.00257374106785388,0.132420924086973,-0.678581143844556,-0.00481389130501523,-0.643287537228504,0.656368196493751,-0.284213672975749,NaN,NaN,NaN,NaN
1414.4512,0.827336809745273,-0.545642406178812,0.563403277898427,-0.130771266795384,-0.40936848958085,-0.409368489581923,-0.292192202167913,-0.991186232771546,-0.851858071302537,-0.263438177107791,-0.591759987547304,-0.263438177109167,1.05262999053437,-1.70766489570674,NaN,-0.173509934976685,NaN,0.958363618425072,-0.749651961458226,-1.41747277026164,-0.749651961457004,NaN,0.0243888881491191,NaN,0.89396758007095,-0.0285458307625523,NaN,0.259953296223647,-0.259953296223318,1.23284466281952,-0.445777732300445,-0.285686745739926,-0.528778118247667,-0.552970264328751,0.845837473738888,-0.0727554492786199,0.642196468164828,0.546887285527749,0.546887285525938,0.164867782111982,-0.0215813154449271,0.107714083382063,-0.711614698929243,-0.00593873711697981,-0.67496296794494,0.660410244426166,-0.285974617827829,NaN,NaN,NaN,NaN
1414.5536,0.835688456515246,-0.557373888051587,0.565608434764407,-0.15288540696691,-0.418311975025024,-0.418311975026092,-0.331776185970095,-0.950294316412465,-0.864400417902837,-0.211585676112392,-0.559943588406543,-0.211585676113771,1.11089958785337,-1.76124293831963,NaN,-0.169312290595014,NaN,0.968279292369148,-0.701363202974097,-1.42598330618307,-0.701363202972862,NaN,0.00109735324039568,NaN,0.910970636493009,0.0264426273729618,NaN,0.252406052274992,-0.252406052274673,1.24677741342465,-0.467705702947325,-0.302174424280819,-0.556342703612306,-0.569925948622714,0.857565181146846,-0.081003795500403,0.626417971693093,0.517624750966022,0.517624750964237,0.13954356571392,-0.0402908950378374,0.0822331828546621,-0.744625819734754,-0.00733965182621848,-0.706728794494815,0.664396903744494,-0.286624838769334,NaN,NaN,NaN,NaN
1414.656,0.842906509486396,-0.568694717931803,0.56685308702009,-0.173318528182345,-0.426648676252077,-0.426648676253141,-0.372144059656496,-0.908910248288387,-0.877377662717678,-0.158752694781817,-0.527325559417365,-0.158752694783199,1.16806682773928,-1.81312547339094,NaN,-0.164799507306881,NaN,0.978256075724376,-0.653341320399423,-1.43354841683269,-0.653341320398182,NaN,-0.0225723278125535,NaN,0.928110655643431,0.0808501162823121,NaN,0.244787883084496,-0.244787883084193,1.25950174258626,-0.489391293924036,-0.319836390843215,-0.584468348665599,-0.586694843044246,0.868950080131272,-0.0892517441622292,0.610019432469594,0.487071211203431,0.487071211201669,0.112985761669282,-0.0586318344990002,0.0560303837772933,-0.777552988672232,-0.00901904496768557,-0.738527849326874,0.668309626735649,-0.286112583000075,NaN,NaN,NaN,NaN
1414.7584,0.848924418273154,-0.579554396725026,0.567095612268614,-0.191961969909803,-0.434315497353283,-0.434315497354347,-0.413269023657738,-0.867079111099549,-0.890791530168241,-0.105015965120608,-0.493975706083777,-0.105015965121992,1.22405441584369,-1.86324988218835,NaN,-0.159962082580347,NaN,0.988279041175219,-0.605692460911921,-1.44014952720375,-0.605692460910672,NaN,-0.0465566758463204,NaN,0.945296815677067,0.134545201749694,NaN,0.23712300066435,-0.237123000664066,1.27101297027421,-0.510820413350619,-0.33867216361289,-0.613143793904647,-0.603266223532288,0.879908000390349,-0.0975265848395273,0.593004740792858,0.455228958015351,0.455228958013616,0.0852324550458042,-0.0765314096786368,0.0291620963771605,-0.81033265444754,-0.0109750051154183,-0.770299296072789,0.672129720345686,-0.284387328265851,NaN,NaN,NaN,NaN
1414.8608,0.853676237477627,-0.589901590118528,0.566295490679168,-0.20870965300285,-0.441249266187628,-0.441249266188687,-0.455122396381289,-0.824848597674529,-0.90464353938039,-0.0504566777863803,-0.459966592538177,-0.0504566777877665,1.27878794848879,-1.91155947493439,NaN,-0.154792758854425,NaN,0.998331996354319,-0.558525925727187,-1.44577240561126,-0.558525925725927,NaN,-0.0707903396917016,NaN,0.962434225004635,0.187399120662907,NaN,0.229435304947537,-0.22943530494727,1.2813102594028,-0.531978736823396,-0.358675789584022,-0.642354107383568,-0.619628273769154,0.890354327305684,-0.105854943979143,0.575378944540461,0.422102353331879,0.422102353330169,0.0563265727834363,-0.0939151111096793,0.00168887572448022,-0.842899243039782,-0.0132012449459649,-0.801978617715488,0.675838500807948,-0.281400083007861,NaN,NaN,NaN,NaN
1414.9632,0.857097031890858,-0.599684340517301,0.564413611865063,-0.223458686482491,-0.447387082638011,-0.447387082639057,-0.49767355824902,-0.78226890706186,-0.918934891489956,0.00483969008557241,-0.425373529898923,0.00483969008418408,1.33219592323176,-1.95800342314,NaN,-0.149286518955666,NaN,1.00839761232857,-0.51195390858257,-1.45040728541941,-0.511953908581301,NaN,-0.0952064542076697,NaN,0.979424285034342,0.239286095645342,NaN,0.221748273736547,-0.221748273736295,1.29039648055145,-0.552851647471934,-0.37983578960667,-0.672080603055769,-0.635767947562551,0.900204507810676,-0.114262463393668,0.557148269922166,0.387697879329127,0.387697879327444,0.0263158651329382,-0.110706976615192,-0.0263247263237642,-0.875185182228639,-0.0156870921929991,-0.833497636113922,0.679417459556282,-0.277103694443122,NaN,NaN,NaN,NaN
1415.0656,0.859123307321303,-0.608850312938875,0.561412589669546,-0.236109993964618,-0.452666702187137,-0.45266670218817,-0.540889898956056,-0.739392597952768,-0.933666334867349,0.0607836022449203,-0.390274517094512,0.0607836022435298,1.38420977216378,-2.00253669872477,NaN,-0.143440553157344,NaN,1.01845759542523,-0.466091157336362,-1.45404894543108,-0.466091157335073,NaN,-0.119737021207992,NaN,0.996165087355876,0.290083648155545,NaN,0.214084839885837,-0.214084839885601,1.29827805006955,-0.573424177329358,-0.402135135286083,-0.70230078046488,-0.651670832683502,0.909374595126364,-0.122773463429263,0.538320134041879,0.352024175219823,0.352024175218168,-0.00474715245228977,-0.126829962778088,-0.0548103528846627,-0.907120947329453,-0.018417530290445,-0.864784571657962,0.682848434715623,-0.27145316287254,NaN,NaN,NaN,NaN
1415.168,0.859693463221474,-0.6173470861067,0.557257074549865,-0.246568953150471,-0.457026953062606,-0.45702695306362,-0.58473675894353,-0.696274416373752,-0.948838009890086,0.117281748706179,-0.354750121000498,0.117281748704785,1.43476391720192,-2.04512000348189,NaN,-0.137254204117181,NaN,1.02849291509279,-0.421054535042024,-1.45669673987763,-0.421054535040716,NaN,-0.144313320979878,NaN,1.0125518456052,0.339672908769935,NaN,0.206467268394899,-0.206467268394679,1.30496473810763,-0.593680961711505,-0.425551244902984,-0.732988286685195,-0.66732101590065,0.917781838854221,-0.131410587856326,0.51890315120732,0.315092071713207,0.31509207171158,-0.0368052948862671,-0.142206355119977,-0.0836960759798224,-0.938635131442543,-0.0213732958503989,-0.895764149067326,0.686113783090536,-0.26440596056129,NaN,NaN,NaN,NaN
1415.2704,0.85874826440913,-0.625122492793629,0.551914058453878,-0.254746047526566,-0.460408186188105,-0.460408186189105,-0.629177360602428,-0.652971112723416,-0.96444927797523,0.174237387664132,-0.318883296958439,0.174237387662734,1.48379584234854,-2.0857196775038,NaN,-0.130728894834217,NaN,1.03848408298643,-0.376962472797094,-1.45835457537552,-0.376962472795766,NaN,-0.168866353163547,NaN,1.02847735687436,0.387938927826342,NaN,0.198917040994464,-0.198917040994257,1.31046944653225,-0.613606210554004,-0.450055998348253,-0.764112903576616,-0.682700946887748,0.925345319166063,-0.140194429205852,0.498907133043634,0.276914628662332,0.276914628660734,-0.0697968388062691,-0.156758218011698,-0.112906671866193,-0.96965453831348,-0.0245310365836206,-0.926357748994076,0.689196552395673,-0.25592235421767,NaN,NaN,NaN,NaN
1415.3728,0.856231331845781,-0.632125007696714,0.545353173111766,-0.260557535496168,-0.46275276051166,-0.462752760512643,-0.674172730969859,-0.609541249789116,-0.980498537458726,0.231550741086486,-0.28275915597032,0.231550741085087,1.53124617807386,-2.12430758396035,NaN,-0.12386804019,NaN,1.04841146718437,-0.333934321282502,-1.45903083341055,-0.333934321281151,NaN,-0.193327298255377,NaN,1.04383248638401,0.434770994886501,NaN,0.191454744002714,-0.191454744002522,1.31480795667052,-0.633183693890347,-0.475615777571523,-0.79564056231281,-0.697791299044535,0.931986617342788,-0.149143136305559,0.478343080706233,0.237507176970479,0.237507176968908,-0.103655690118247,-0.170407887802622,-0.142363939467312,-1.0001042949942,-0.0278635273682343,-0.956483601845332,0.692080657023917,-0.245965731689762,NaN,NaN,NaN,NaN
1415.4752,0.85208965571946,-0.638304180473421,0.537546986478229,-0.263926143964317,-0.464005568265244,-0.464005568266211,-0.719681619121217,-0.566044994424197,-0.996983024982003,0.289119442731093,-0.246464682549497,0.28911944272969,1.57705879891444,-2.16086097660903,NaN,-0.11667694003719,NaN,1.05825562692083,-0.292089608808086,-1.45873823871614,-0.292089608806721,NaN,-0.217627994580065,NaN,1.05850667084006,0.480062974030939,NaN,0.184099948549465,-0.184099948549284,1.31799864837859,-0.652396740067924,-0.502191536282583,-0.827533386478365,-0.712570827201464,0.937630510099286,-0.158272009313345,0.457223167088676,0.196887363959822,0.19688736395828,-0.13831159158976,-0.183078515324459,-0.171987067127832,-1.02990798694897,-0.0313399401296462,-0.986057024571898,0.694751059866375,-0.234502935631468,NaN,NaN,NaN,NaN
1415.5776,0.846274136513774,-0.643611110515383,0.528471305207018,-0.26478178754336,-0.464114602299285,-0.464114602300238,-0.765660412091797,-0.522543888468529,-1.01389860333214,0.346839040081431,-0.210088408508406,0.346839040080023,1.62118094116015,-2.19536236227607,NaN,-0.109162647459149,NaN,1.06799766213826,-0.251547210825106,-1.45749367986358,-0.251547210823727,NaN,-0.241701429506148,NaN,1.07238843964507,0.523713658103558,NaN,0.176871077554793,-0.176871077554628,1.32006219728844,-0.671228250138411,-0.529738901432223,-0.859749768018132,-0.727016225574523,0.942205672440695,-0.167593091332459,0.435560705719432,0.15507519780608,0.155075197804562,-0.173690377986178,-0.194694664667218,-0.201693055785173,-1.05898782530101,-0.0349261658673931,-1.01499070891378,0.697193958339363,-0.221504607830342,NaN,NaN,NaN,NaN
1415.68,0.838740159008342,-0.647998955565966,0.518105492766921,-0.26306230385847,-0.463031561481556,-0.463031561482494,-0.812063055632196,-0.479100602373046,-1.03123954358956,0.404603556235138,-0.173720052239227,0.404603556233724,1.66356334621654,-2.22779936651449,NaN,-0.101333798131178,NaN,1.07761958224231,-0.212424439808269,-1.4553179927491,-0.212424439806872,NaN,-0.265482245212104,NaN,1.08536595788654,0.565627148811766,NaN,0.169785264028862,-0.169785264028717,1.32102125666652,-0.68966073378363,-0.558208313086514,-0.892244484426424,-0.741101991748474,0.945645375006689,-0.177114767059664,0.413370100567782,0.112093081348517,0.112093081347027,-0.209714287687468,-0.205182973004349,-0.2313972068101,-1.08726485680442,-0.0385851887401195,-1.04319507107038,0.699396968250104,-0.206945545864222,NaN,NaN,NaN,NaN
1415.7824,0.829448200834682,-0.651423463613128,0.506432810817896,-0.258714190684423,-0.460712484215008,-0.460712484215933,-0.858840988614742,-0.43577867607883,-1.0489983123977,0.462306120872562,-0.137450133728317,0.462306120871144,1.7041604328853,-2.25816460309987,NaN,-0.0932003849808702,NaN,1.08710470087463,-0.174836068455465,-1.4522357144971,-0.174836068454055,NaN,-0.288907262426963,NaN,1.09732759854636,0.605713278473415,NaN,0.162858206804115,-0.162858206803987,1.32090012350703,-0.707676371293295,-0.587545210388102,-0.924968865596221,-0.754800302540677,0.947888168254075,-0.186841376267393,0.390666770207813,0.0679658255722875,0.0679658255708235,-0.246302336662845,-0.214472872801825,-0.261013679209735,-1.11465922131902,-0.0422775100773581,-1.07057866644939,0.70134929778365,-0.190805070862677,NaN,NaN,NaN,NaN
1415.8848,0.818364474511388,-0.653843523234379,0.493440785416046,-0.251693336492053,-0.457118400546124,-0.457118400547035,-0.905943099846214,-0.392642242749031,-1.06716536985514,0.519839676121098,-0.101369569991115,0.519839676119676,1.74293050520704,-2.2864555445724,NaN,-0.0847734726986413,NaN,1.09643805635483,-0.138893287776594,-1.44827480625162,-0.138893287775173,NaN,-0.311916023140417,NaN,1.10816255151803,0.64388809227677,NaN,0.156104023789253,-0.156104023789146,1.31972438837264,-0.725257104553783,-0.617690264885793,-0.957871013445902,-0.768080906035674,0.948878555866048,-0.19677284445217,0.367467042282333,0.0227206439717544,0.0227206439703148,-0.283370752159455,-0.222497373379253,-0.290456113095209,-1.141090455264,-0.0459616199491391,-1.09704866709602,0.70304190613695,-0.173067404583488,NaN,NaN,NaN,NaN
1415.9872,0.805461602196049,-0.655221739311683,0.479121593376058,-0.241965745519273,-0.452216001103588,-0.452216001104486,-0.953315709049659,-0.349755721778116,-1.0857289716865,0.577097755801152,-0.0655692510691513,0.577097755799727,1.77983600407933,-2.31267438761775,NaN,-0.0760648626279039,NaN,1.10560685235063,-0.104702578116897,-1.44346633715599,-0.104702578115465,NaN,-0.334451342645732,NaN,1.11776147351612,0.68007440529126,NaN,0.149535101987726,-0.14953510198764,1.3175205790562,-0.742384758472439,-0.648579656837918,-0.990896072626012,-0.780911032310687,0.948567667068202,-0.206904328513748,0.343788017244653,-0.0236128540216418,-0.0236128540230519,-0.320833450426608,-0.229193893254038,-0.319638304861392,-1.16647783863096,-0.049594519905542,-1.12251140097635,0.704467643804218,-0.153722057720112,NaN,NaN,NaN,NaN
1416.0896,0.790719325668972,-0.655525048044994,0.463472463638444,-0.229508268090192,-0.445978328662785,-0.445978328663669,-1.00090256219749,-0.307183464181817,-1.10467495670381,0.633975331368345,-0.030139602095028,0.633975331366918,1.81484381040496,-2.33682790973422,NaN,-0.0670867264167904,NaN,1.11460091952248,-0.072364458188752,-1.43784412393742,-0.0723644581873139,NaN,-0.356459856522028,NaN,1.12601717740864,0.71420243917853,NaN,0.143161949670182,-0.14316194967012,1.31431581669539,-0.759041192484778,-0.68014539011222,-1.02398654923843,-0.793255325570146,0.946913934002189,-0.217225876978459,0.319647402375057,-0.0710026431136539,-0.0710026431150333,-0.358602529023032,-0.234505130095217,-0.348474907927511,-1.19074078859563,-0.0531323096762334,-1.14687296115741,0.705621372344333,-0.132764239863081,NaN,NaN,NaN,NaN
1416.192,0.774125258780115,-0.65472538167631,0.446496095408801,-0.214309359814787,-0.438385500366643,-0.438385500367514,-1.04864482469217,-0.264989330934245,-1.12398649290648,0.690369717506878,0.00482985617604996,0.690369717505449,1.84792561419138,-2.35892732782508,NaN,-0.0578512168344307,NaN,1.12341321227427,-0.0419720833861161,-1.43144432536917,-0.0419720833846775,NaN,-0.377892556803433,NaN,1.13282535314414,0.746210531914581,NaN,0.136993059238102,-0.136993059238061,1.31013749978962,-0.775208476836315,-0.712315641182553,-1.05708267057071,-0.80507580213136,0.943883765168304,-0.227722112035871,0.295063320704192,-0.119414213810089,-0.119414213811437,-0.39658873686845,-0.238379953136612,-0.37688212686744,-1.21379930855883,-0.0565308548729709,-1.17003990011957,0.706500064086556,-0.110195308789338,NaN,NaN,NaN,NaN
1416.2944,0.755675692712831,-0.652800384673702,0.428201102961577,-0.19636990201472,-0.429425466047752,-0.429425466048608,-1.09648105582454,-0.223236185162481,-1.14364375570856,0.746181532878675,0.0392509372432809,0.746181532877241,1.87905836844882,-2.37898817700207,NaN,-0.0483700462906477,NaN,1.13204036256007,-0.0136096789100381,-1.42430499278863,-0.013609678908599,NaN,-0.398705321045895,NaN,1.13808530840178,0.776045910405093,NaN,0.131034785891234,-0.131034785891213,1.30501302389694,-0.790869081999937,-0.745015135462475,-1.09012277248563,-0.816331840481739,0.939452192557842,-0.23837194771499,0.270054104462802,-0.168810442571696,-0.168810442573012,-0.434701891044743,-0.24077430347613,-0.404778377121054,-1.23557450167056,-0.0597465483270714,-1.19192002286453,0.707102886315095,-0.0860232731485727,NaN,NaN,NaN,NaN
1416.3968,0.735376455478602,-0.649734172308867,0.40860249366611,-0.175704099921106,-0.419094793565636,-0.419094793566475,-1.14434715283317,-0.18198529592884,-1.16362352617753,0.801315708509764,0.0730371991003694,0.801315708508327,1.90822483270348,-2.39703021958939,NaN,-0.0386540234886506,NaN,1.14048329818588,0.0126491827292569,-1.41646558229094,0.0126491827307023,NaN,-0.418859435957952,NaN,1.14170071857559,0.803665522409569,NaN,0.12529124288736,-0.12529124288736,1.29896954465546,-0.806006072756385,-0.778165541966638,-1.12304370213171,-0.8269802143959,0.933603472079038,-0.249148361402554,0.24463808502363,-0.219151390393419,-0.219151390394705,-0.472851228466531,-0.24165208655601,-0.432084895522135,-1.25598915325866,-0.0627371649517923,-1.21242328295338,0.707431273965448,-0.0602633444294946,NaN,NaN,NaN,NaN
1416.4992,0.713243785561542,-0.645518096161742,0.387722156994088,-0.15234041933259,-0.40739943091608,-0.407399430916904,-1.19217627389052,-0.141295688600207,-1.18389873844836,0.855682513860132,0.10610432287413,0.855682513858691,1.93541417620192,-2.41307738418408,NaN,-0.0287125691418974,NaN,1.14874788522138,0.0367433883035084,-1.40796644828639,0.0367433883049625,NaN,-0.438322101779077,NaN,1.14358037186469,0.829036904669212,NaN,0.119764211602976,-0.119764211602998,1.2920337967203,-0.820603308300058,-0.811685874532464,-1.15578122952335,-0.83697518748332,0.926331620449255,-0.260018240148269,0.218833392633866,-0.270394035997284,-0.27039403599854,-0.510945705064899,-0.24098602194159,-0.458726296422621,-1.27496837348114,-0.065462776790363,-1.23146275979291,0.707488990179823,-0.03293849730816,NaN,NaN,NaN,NaN
1416.6016,0.689305097727604,-0.640151428406144,0.365589285743988,-0.126322431050446,-0.394355329795596,-0.394355329796401,-1.23989879475125,-0.101223517705521,-1.2044380714286,0.909198525032526,0.138370453591498,0.90919852503108,1.96062256395363,-2.42715773022489,NaN,-0.0185532818143112,NaN,1.15684548532396,0.0586259921181696,-1.3988483561833,0.0586259921196272,NaN,-0.457066877037377,NaN,1.14363886919925,0.852138984487077,NaN,0.114453064489498,-0.11445306448954,1.2842319786563,-0.83464564573948,-0.845492886911918,-1.18827045784702,-0.846268690519362,0.917640851846023,-0.270942333945788,0.192657785893439,-0.32249199523376,-0.322491995234987,-0.54889427601274,-0.23875836589832,-0.484631062816219,-1.29244026280056,-0.0678866301122479,-1.24895564214976,0.707282169590373,-0.00407993985221022,NaN,NaN,NaN,NaN
1416.704,0.663599439203448,-0.633641825260855,0.342240595716089,-0.09770935080421,-0.379988766982181,-0.379988766982967,-1.28744239726208,-0.0618215558918226,-1.22520573044609,0.961787415803296,0.169756508329045,0.961787415801845,1.98385361353845,-2.43930343039882,NaN,-0.00818166792888153,NaN,1.16479327063015,0.0782655455967708,-1.3891520615767,0.0782655455982309,NaN,-0.475073999996424,NaN,1.1417972042733,0.872962619976531,NaN,0.109354705956153,-0.109354705956213,1.27558970177016,-0.848119127923124,-0.879501453352516,-1.2204462123247,-0.854810602747906,0.907545847444782,-0.281875360825322,0.166128540880016,-0.375395320200355,-0.375395320201548,-0.586606202602962,-0.234961372178156,-0.509731950078532,-1.30833653501851,-0.0699758239320787,-1.26482409128034,0.706819334993522,0.0262726545730496,NaN,NaN,NaN,NaN
1416.8064,0.636177439643279,-0.626005435763642,0.317720212315471,-0.0665760713004729,-0.364336225738172,-0.364336225738938,-1.33473238121028,-0.0231388673995227,-1.24616154349211,1.01338045638755,0.200186462252855,1.0133804563861,2.00511862049383,-2.44955075978267,NaN,0.00239885300945392,NaN,1.1726141598753,0.0956467872853991,-1.37891799667243,0.0956467872868655,NaN,-0.492330528343,NaN,1.1379831481412,0.891510687029163,NaN,0.104463545617529,-0.104463545617607,1.26613198979304,-0.861011134890324,-0.913624934186195,-1.25224339123907,-0.862549159528206,0.896071791087649,-0.292766309467615,0.139262430050826,-0.429050459406822,-0.429050459407985,-0.623991429283006,-0.229597367903787,-0.533966283108354,-1.32259304004021,-0.0717016374703119,-1.27899586738044,0.706111377102185,0.058071286601493,NaN,NaN,NaN,NaN
1416.9088,0.607100690403441,-0.617266613479533,0.292079180096291,-0.0330126236182948,-0.347443816104393,-0.347443816105142,-1.38169221759893,0.014779331534605,-1.26726139017781,1.06391667873848,0.229587620828365,1.06391667873702,2.02443651637319,-2.45794008139452,NaN,0.013186630353749,NaN,1.18033634189918,0.110770607168554,-1.3681860780546,0.110770607170017,NaN,-0.508830281296837,NaN,1.13213141661,0.907797660624058,NaN,0.0997715157348052,-0.0997715157348995,1.25588331259042,-0.87331050165107,-0.947775533073085,-1.28359728546423,-0.869431500768824,0.88325414730035,-0.303558960668587,0.112075803280865,-0.483400390068429,-0.483400390069564,-0.660961050362331,-0.222678419211633,-0.557276150377114,-1.33515017799074,-0.0730394610813583,-1.29140469305363,0.705171494211095,0.091260169746193,NaN,NaN,NaN,NaN
1417.0112,0.576440678412894,-0.607457323142695,0.265374675323944,0.0028767957419277,-0.329366361254342,-0.329366361255072,-1.42824426301616,0.0518916983489617,-1.28845784635241,1.1133427685823,0.257890882727914,1.11334276858084,2.04183360854748,-2.46451582077097,NaN,0.0241812234264667,NaN,1.18799248524501,0.123653436031616,-1.35699561002124,0.123653436033077,NaN,-0.52457362233369,NaN,1.12418367872942,0.921848826325173,NaN,0.095268131894044,-0.0952681318941546,1.24486763799676,-0.885007634966243,-0.981864654399291,-1.31444389731784,-0.875404349620122,0.869138216561219,-0.314192604666179,0.0845847571102793,-0.53838485558705,-0.538384855588154,-0.697427844826363,-0.214225690890217,-0.579608521941255,-1.3459532529102,-0.0739684316642398,-1.30199044021328,0.704015098739205,0.125776557411492,NaN,NaN,NaN,NaN
1417.1136,0.544277512043984,-0.596616417905679,0.237669072535864,0.0409749805019644,-0.310166358693902,-0.310166358694617,-1.47431049897051,0.0881607889251018,-1.30970085230718,1.16161280009424,0.285030994222073,1.16161280009277,2.05734319168452,-2.46932641677681,NaN,0.0353827417706439,NaN,1.19561880913489,0.134326345804122,-1.34538522907647,0.134326345805581,NaN,-0.539567145725362,NaN,1.11408851358229,0.933699354439058,NaN,0.0909405895285436,-0.0909405895286734,1.23310848923517,-0.896094673718437,-1.01580326516841,-1.34472029615913,-0.880414786075349,0.853778537709213,-0.324602897178949,0.0568053622858627,-0.593940611268947,-0.593940611270021,-0.73330682669039,-0.204268674167303,-0.600915324938762,-1.35495283707722,-0.0744709546903348,-1.31069928119555,0.702659701646698,0.161551668505473,NaN,NaN,NaN,NaN
1417.216,0.51069864751119,-0.584788943398161,0.209028996656058,0.0811528355059283,-0.289912993577536,-0.289912993578232,-1.51981317880805,0.123553178987267,-1.33093823889229,1.20868791260306,0.310946792855588,1.20868791260159,2.07100510150059,-2.47242422750401,NaN,0.0467912104221419,NaN,1.20325416977413,0.142834104893968,-1.33339284012011,0.14283410489542,NaN,-0.553823314615686,NaN,1.10180140997686,0.943393426062778,NaN,0.0867738902189658,-0.0867738902191127,1.22062900153608,-0.906565722389298,-1.04950226214372,-1.37436503415531,-0.884411077382981,0.837238198996074,-0.334722798414594,0.0287539213352419,-0.650001606280194,-0.650001606281238,-0.768515761051419,-0.192844430512768,-0.621153501351024,-1.36210519963255,-0.0745322656181341,-1.31748391656568,0.701124783403668,0.198511548933222,NaN,NaN,NaN,NaN
1417.3184,0.475797719316188,-0.572025547231554,0.179524425358583,0.123270362052925,-0.268681287094858,-0.268681287095534,-1.56467532724973,0.158039725659615,-1.35211603523258,1.25453597446445,0.335581439747709,1.25453597446298,2.0828652435026,-2.47386537617423,NaN,0.0584060225631523,NaN,1.21093923421658,0.149234296997538,-1.3210555264176,0.149234296998987,NaN,-0.567360069433038,NaN,1.08728485891332,0.950983498620785,NaN,0.0827509914481905,-0.0827509914483562,1.20745197901681,-0.916417161167827,-1.08287284793832,-1.40331862731494,-0.887343545075815,0.819588085459814,-0.344483567586898,0.000447238313618202,-0.706499071113598,-0.706499071114613,-0.80297562358678,-0.17999692533517,-0.640285062284133,-1.36737282186931,-0.0741400987687675,-1.32230392827501,0.699431656104986,0.236577789125151,NaN,NaN,NaN,NaN
1417.4208,0.439673489944184,-0.558382008221689,0.149227849659539,0.167177510919285,-0.246551384234023,-0.246551384234679,-1.60882109312777,0.19159594947297,-1.37317857014979,1.2991312291358,0.358882644594903,1.29913122913433,2.0929751047812,-2.47370953950934,NaN,0.0702254819206685,NaN,1.2187157371307,0.153596503218521,-1.30840944453256,0.153596503219956,NaN,-0.580200410702071,NaN,1.07050855497945,0.956529730010693,NaN,0.0788529725961281,-0.0788529725963083,1.19359996003627,-0.925648022705734,-1.11582692452204,-1.43152409943408,-0.88916546895812,0.800906065776984,-0.353815811869851,-0.0280971074777107,-0.763361508857694,-0.76336150885868,-0.836611007029934,-0.165776463540695,-0.658277146119572,-1.37072499719406,-0.0732844628430662,-1.32512625595134,0.697603316880106,0.275668091290968,NaN,NaN,NaN,NaN
1417.5232,0.402428894495158,-0.543918865408371,0.118213478351769,0.212714961595247,-0.223607948682846,-0.223607948683484,-1.65217598591558,0.224202474047962,-1.39406843240465,1.34245389614639,0.380802885780488,1.34245389614491,2.10139124501607,-2.47201969180085,NaN,0.0822464079363951,NaN,1.22662578375122,0.15600150539958,-1.2954897223101,0.156001505401001,NaN,-0.59237196162662,NaN,1.05144970424464,0.960099556151613,NaN,0.0750592112366289,-0.0750592112368301,1.17909530445217,-0.93426042818579,-1.14827751008481,-1.45892758704555,-0.889834035657565,0.78127612156811,-0.362650594457937,-0.056860486515026,-0.820514606058378,-0.820514606059334,-0.869350487323984,-0.150239203709625,-0.675102080075686,-1.37213849613318,-0.0719574872169193,-1.32592576327663,0.695664287536088,0.315696723286034,NaN,NaN,NaN,NaN
1417.6256,0.364170154647983,-0.528701107651116,0.0865564813451936,0.259714893204204,-0.199939623368031,-0.199939623368655,-1.69466704087362,0.255845461075036,-1.4147263677802,1.38448971107142,0.401299618297749,1.38448971106993,2.10817476064439,-2.46886181623963,NaN,0.0944637782836282,NaN,1.23471117535043,0.156540472851753,-1.28233036634338,0.15654047285316,NaN,-0.603906518822477,NaN,1.03009341670056,0.961767405551312,NaN,0.0713475636638513,-0.0713475636640739,1.16396031657825,-0.942260078739805,-1.18013917580922,-1.48547900009146,-0.889311327961013,0.760787434104868,-0.370920592454679,-0.0858229454578983,-0.87788108956432,-0.877881089565243,-0.901126957051388,-0.133446713460422,-0.690737435362045,-1.37159826228394,-0.0701532938837659,-1.32468584397892,0.693640432707083,0.356574910373154,NaN,NaN,NaN,NaN
1417.728,0.325005951984446,-0.512797879092061,0.0543322864570172,0.30800178456666,-0.175638518470896,-0.175638518471506,-1.73622295996443,0.286517011169032,-1.43509117382752,1.42522941312937,0.420335458367066,1.42522941312788,2.11339072254043,-2.46430459009693,NaN,0.106870397713576,NaN,1.24301275759771,0.15531411633209,-1.26896417432651,0.155314116333481,NaN,-0.61483959597385,NaN,1.00643314568006,0.961614522426412,NaN,0.0676945424152306,-0.0676945424154715,1.14821741398023,-0.949656793961028,-1.21132849255696,-1.51113272552377,-0.887565333701085,0.739533450218785,-0.378561278807688,-0.11496293950342,-0.935380554846135,-0.935380554847026,-0.931877925237391,-0.115465534505217,-0.70516606251063,-1.36909810120842,-0.0678678623160248,-1.32139901829185,0.691558753722273,0.398211203818127,NaN,NaN,NaN,NaN
1417.8304,0.285046662543839,-0.496282170488159,0.0216159484006957,0.35739324454654,-0.150799699923873,-0.150799699924475,-1.77677425737124,0.316215525634224,-1.45509962181627,1.46466820044734,0.437878341299105,1.46466820044584,2.11710759540041,-2.45841904828086,NaN,0.119456591306505,NaN,1.25156979833981,0.152431814739633,-1.2554226513928,0.152431814741004,NaN,-0.625209962147799,NaN,0.980471139740222,0.959728862830542,NaN,0.0640754851092677,-0.0640754851095295,1.13188934801446,-0.956465085633583,-1.24176447980107,-1.53584835970837,-0.884570946935552,0.71761094662334,-0.385512098908671,-0.144257075177228,-0.99292927556029,-0.992929275561148,-0.961545779216259,-0.09636674600607,-0.718376099217107,-1.36464133638892,-0.0650988794048968,-1.31606749225131,0.689447165513992,0.440511838127775,NaN,NaN,NaN,NaN
1417.9328,0.244403656120337,-0.479230490484064,-0.011518403021304,0.407700853576848,-0.125520670172318,-0.125520670172907,-1.81625340729565,0.344946020801155,-1.47468640863998,1.50280517208977,0.453901655550237,1.50280517208826,2.11939665160179,-2.45127823021261,NaN,0.132209922963876,NaN,1.26041939738392,0.148010733832238,-1.24173593801479,0.148010733833594,NaN,-0.63505917898858,NaN,0.952218883481359,0.956205023796473,NaN,0.060464711730617,-0.0604647117308994,1.11499947591375,-0.962704752570225,-1.27136905527527,-1.55959145769185,-0.880310933546343,0.695119105159626,-0.391717614835712,-0.1736798684518,-1.05043998871503,-1.05043998871586,-0.990078004976686,-0.0762255321650932,-0.730360950567659,-1.35824141691609,-0.0618455850284401,-1.30870366960652,0.68733427007181,0.483381069442238,NaN,NaN,NaN,NaN
1418.0352,0.203188662039953,-0.461722523713131,-0.044998037551019,0.45873100026787,-0.0999008533426494,-0.099900853343232,-1.85459497498518,0.372720373570337,-1.4937841336304,1.5396427770644,0.468384353208335,1.53964277706288,2.12033139605983,-2.44295681855544,NaN,0.145114946589242,NaN,1.26959593561992,0.142174956833013,-1.22793275477959,0.142174956834359,NaN,-0.64443114086759,NaN,0.921697502123183,0.951144154081807,NaN,0.0568356689877761,-0.0568356689880792,1.09757207422524,-0.968401468528551,-1.30006748181456,-1.58233427529646,-0.874776823217118,0.672158609444966,-0.397128583150284,-0.203203527018752,-1.10782165753355,-1.10782165753434,-1.01742736293769,-0.0551207613191178,-0.741119242447522,-1.3499224511085,-0.058108624012243,-1.29933059631136,0.685249137547671,0.526721488878023,NaN,NaN,NaN,NaN
1418.1376,0.16151320543519,-0.44384077841794,-0.078752019221665,0.510285712731276,-0.0740411063211655,-0.0740411063217408,-1.89173571998249,0.399557471996598,-1.51232330548028,1.57518629574074,0.48131102971762,1.57518629573921,2.11998702089775,-2.43353078261108,NaN,0.158153009995063,NaN,1.27913058203423,0.135054636546438,-1.21404036394257,0.135054636547773,NaN,-0.653371616222021,NaN,0.888938097324281,0.944653786000837,NaN,0.053161061732022,-0.0531610617323424,1.07963267496299,-0.973587309047965,-1.32778879326459,-1.60405645038674,-0.867969677485756,0.648830783413254,-0.401702918364873,-0.232797772804716,-1.16497924447172,-1.16497924447248,-1.04355201535615,-0.0331345739504591,-0.75065474439733,-1.33971962181391,-0.0538899069580442,-1.28798229677547,0.683221098442366,0.570434316085633,NaN,NaN,NaN,NaN
1418.24,0.119488123879905,-0.425670215959982,-0.11271150659241,0.562163497040956,-0.048043274433665,-0.0480432744342333,-1.92761468054199,0.425483247522575,-1.53023240127123,1.60944337898115,0.492671959902135,1.60944337897961,2.11843990658603,-2.42307703988337,NaN,0.171302137734246,NaN,1.28905087900346,0.126785166480083,-1.20008455231956,0.126785166481409,NaN,-0.661927786010422,NaN,0.853981986029478,0.936847530498627,NaN,0.0494129741905258,-0.0494129741908618,1.0612084022215,-0.978301138592551,-1.3544661674826,-1.62474554180158,-0.859900680820579,0.625236809539608,-0.405406484727064,-0.262429728362207,-1.22181355724041,-1.22181355724114,-1.06841559964395,-0.0103519686780345,-0.758976253438207,-1.32767943563785,-0.049192480847821,-1.27470395710806,0.681279542894746,0.614419684338615,NaN,NaN,NaN,NaN
1418.3424,0.077223173071742,-0.407297847013587,-0.146809940841932,0.61416020047845,-0.0220098020894753,-0.0220098020900408,-1.96217326461603,0.450530568926469,-1.54743801277041,1.6424236581751,0.502463079408773,1.64242365817355,2.11576718070435,-2.41167314773096,NaN,0.18453700814324,NaN,1.29938041303962,0.11750635495499,-1.18608964827206,0.117506354956306,NaN,-0.670147780713211,NaN,0.816880823929,0.927844579145588,NaN,0.0455629859851735,-0.0455629859855267,1.04232828231383,-0.98258877089559,-1.38003721594985,-1.64439733880317,-0.850591503954725,0.601477072278814,-0.408213657470658,-0.292063889432197,-1.27822124061436,-1.27822124061506,-1.09198724013801,0.0131396289918701,-0.766097427422582,-1.31385976676191,-0.044020410842498,-1.25955191874945,0.679453718925183,0.658576930324943,NaN,NaN,NaN,NaN
1418.4448,0.0348267156411438,-0.388812271688406,-0.180983115205375,0.666069918683945,0.00395660958133911,0.00395660958077492,-1.99535537228653,0.474738976585094,-1.56386511553359,1.67413842073393,0.510685908538461,1.67413842073238,2.11204633263993,-2.39939703277132,NaN,0.197829015643487,NaN,1.31013855854857,0.107361568091575,-1.17207858365417,0.107361568092879,NaN,-0.678080222396861,NaN,0.777696597429079,0.917768959268013,NaN,0.0415822862012083,-0.0415822862015803,1.02302349835224,-0.986502838686904,-1.4044441724959,-1.66301588027523,-0.840074398547143,0.577650654730617,-0.410107609767554,-0.321662188706035,-1.33409496968301,-1.33409496968368,-1.11424149318047,0.0372508351813323,-0.772036556152768,-1.29832966399733,-0.0383786619554438,-1.24259344828066,0.677772522638679,0.702804908882385,NaN,NaN,NaN,NaN
1418.5472,-0.00759452882973666,-0.370303135288031,-0.215169132936868,0.717685961929659,0.0297533305759888,0.0297533305754186,-2.02710755591513,0.498154236001058,-1.57943747896881,1.7046003313837,0.517347420315726,1.70460033138213,2.10735486305597,-2.38632675909281,NaN,0.211146386685455,NaN,1.32134026623045,0.0964967973451606,-1.1580729988159,0.096496797346445,NaN,-0.685773773605391,NaN,0.73650147129277,0.906748521627298,NaN,0.0374417858060814,-0.0374417858064717,1.0033275733213,-0.990102365493533,-1.42763397967491,-1.6806131770582,-0.828392013091737,0.553854976657187,-0.411080322554469,-0.351184131571785,-1.38932386274013,-1.38932386274077,-1.13515822841904,0.0618908343668721,-0.77681626382583,-1.28116890195895,-0.0322729505172579,-1.22390625318395,0.676264280941618,0.74700235928229,NaN,NaN,NaN,NaN
1418.6496,-0.0499356954819858,-0.351860484859567,-0.249308269540306,0.768801880617922,0.0552781527833776,0.0552781527828034,-2.05737920647961,0.520827710800559,-1.59407820659004,1.73382317537055,0.5224598561291,1.73382317536897,2.10176994188979,-2.37254033344874,NaN,0.224454314654276,NaN,1.33299586509503,0.0850596265376786,-1.14409337667246,0.0850596265389501,NaN,-0.693276685090076,NaN,0.693377496257867,0.894913707883053,NaN,0.0331122284352477,-0.0331122284356573,0.983276486351066,-0.993452092448819,-1.44955828956422,-1.69720868926456,-0.815596964487423,0.530185529269345,-0.411132362937806,-0.38058697232938,-1.44379408583585,-1.44379408583646,-1.1547224582746,0.086967970080379,-0.780463148906016,-1.26246728430595,-0.0257095394921315,-1.20357774057877,0.674956534841997,0.791068336826764,NaN,NaN,NaN,NaN
1418.752,-0.0920939583900145,-0.333574045615892,-0.283342761328523,0.819212528048842,0.0804296777362979,0.0804296777357164,-2.08612275036985,0.542815594216002,-1.60771036902803,1.76182160559865,0.526040494483507,1.76182160559705,2.09536806588368,-2.35811554317032,NaN,0.237715096994153,NaN,1.34511086422027,0.0731981189016201,-1.13015918924271,0.0731981189028768,NaN,-0.700636335555832,NaN,0.648416201181283,0.882396201357852,NaN,0.0285642987009238,-0.0285642987013497,0.962908734354623,-0.99662164269696,-1.47017340784737,-1.7128286411796,-0.801751228620373,0.506735662449528,-0.410272499328352,-0.409825906070023,-1.49738958175509,-1.49738958175568,-1.17292413094467,0.112390377524768,-0.783007381231858,-1.24232374084396,-0.0186949855573552,-1.1817040616323,0.673875830876655,0.834902692888558,NaN,NaN,NaN,NaN
1418.8544,-0.133968688183917,-0.315532461565896,-0.31721654603867,0.868715126071484,0.105107728089708,0.105107728089125,-2.11329384239169,0.564178059264584,-1.62025768128162,1.78861088623625,0.528111382332884,1.78861088623464,2.08822472172573,-2.34312981475321,NaN,0.250888275058293,NaN,1.35768576307204,0.0610596802577118,-1.11628904384252,0.0610596802589591,NaN,-0.707898770024529,NaN,0.601718098027351,0.869327564997547,NaN,0.023768726484356,-0.0237687264847966,0.942265345773135,-0.999684598095336,-1.48944020527248,-1.72750524718019,-0.786925410746057,0.483596400639324,-0.408517210751706,-0.438854265134518,-1.54999284669515,-1.54999284669571,-1.18975790021188,0.13806661917873,-0.78448228152456,-1.22084527673412,-0.0112358757633514,-1.1583890119811,0.673047523026119,0.878406566204114,NaN,NaN,NaN,NaN
1418.9568,-0.175461582136676,-0.297822541590922,-0.350874977582929,0.917110304928397,0.129213761825216,0.129213761824633,-2.13885154162201,0.584978371190441,-1.63164518629187,1.81420663337895,0.528699043234783,1.81420663337732,2.08041406012682,-2.32766007917518,NaN,0.263930780514149,NaN,1.37071588451121,0.0487899526574789,-1.10250082120201,0.0487899526587098,NaN,-0.715108252896113,NaN,0.553392119227615,0.855837931838786,NaN,0.0186963882125718,-0.0186963882130237,0.921389850151565,-1.00271753679479,-1.5073240071603,-1.74127589323962,-0.771197935731251,0.460856279040535,-0.405890125094267,-0.467623717164096,-1.60148570419457,-1.6014857041951,-1.20522288250326,0.163906291188467,-0.784923903741985,-1.19814582297354,-0.00333858759242482,-1.13374284830098,0.672495585761213,0.921482854316162,NaN,NaN,NaN,NaN
1419.0592,-0.216476765759281,-0.280528536285103,-0.384264528095716,0.964203099163389,0.152651279697479,0.152651279696897,-2.16275846147744,0.605281975466688,-1.64179992905464,1.83862456095359,0.52783417834855,1.83862456095195,2.07200858328351,-2.31178264103031,NaN,0.276797091270909,NaN,1.38419123809872,0.036531768926181,-1.08881180221639,0.0365317689273989,NaN,-0.722306848826466,NaN,0.503555004779364,0.842054785858082,NaN,0.0133184042447527,-0.0133184042452141,0.900328210512124,-1.00579905970847,-1.52379446386411,-1.75418229764031,-0.754654181456045,0.438601199231471,-0.402421404825298,-0.496084464442108,-1.65175006002994,-1.65175006003044,-1.21932240880925,0.189820584816607,-0.784370632035232,-1.17434502256914,0.0049909179338179,-1.10788105745905,0.672242441162544,0.964036650902534,NaN,NaN,NaN,NaN
1419.1616,-0.256920863142512,-0.263731465334497,-0.417332485442708,1.00980388108112,0.175326227685486,0.175326227684896,-2.18498089150253,0.62515556869749,-1.65065161465858,1.86188025016717,0.525551372856676,1.86188025016552,2.06307885148601,-2.29557305780956,NaN,0.289439402322603,NaN,1.39809642404795,0.0244241843599125,-1.07523877979219,0.0244241843611209,NaN,-0.729534037224756,NaN,0.452330663686289,0.828101863304891,NaN,0.00760622461252036,-0.0076062246129894,0.879128726214261,-1.0090088275203,-1.53882540300875,-1.76626966824908,-0.737385573058577,0.416914306929963,-0.398147092820143,-0.524185445289799,-1.70066863635267,-1.70066863635314,-1.23206377527891,0.215722795320085,-0.782862798098875,-1.14956698378479,0.0137472719685407,-1.08092310714968,0.672308804351675,1.00597564180666,NaN,NaN,NaN,NaN
1419.264,-0.296703033589144,-0.247508518055595,-0.450026656269403,1.05372920766937,0.197147393140912,0.197147393140324,-2.20548888897807,0.644666182174293,-1.65813323102244,1.88398896428289,0.521888812450873,1.88398896428123,2.0536932181879,-2.2791060332335,NaN,0.301807818246739,NaN,1.41241059552936,0.0126016005902299,-1.06179814883046,0.0126016005914178,NaN,-0.736826363804125,NaN,0.399849536753291,0.814098192728844,NaN,0.00153169623300794,-0.00153169623348321,0.85784190826943,-1.01242662872338,-1.55239466585201,-1.77758587377535,-0.719488656326311,0.395875891894976,-0.393108432554064,-0.551874538143057,-1.74812568078939,-1.74812568078983,-1.24345799496636,0.241528768386621,-0.78044232466786,-1.12393903517181,0.0229258371654889,-1.05299121292575,0.672713549426865,1.04721044898405,NaN,NaN,NaN,NaN
1419.3664,-0.335734976979643,-0.231932542832807,-0.482295085961254,1.09580256323228,0.218026786517063,0.218026786516472,-2.22425633882302,0.663880327675116,-1.66418160580335,1.9049655197188,0.516888005545624,1.90496551971713,2.04391760321807,-2.26245532378273,NaN,0.313850570913858,NaN,1.42710749192582,0.00119299137355913,-1.0485059694661,0.00119299137473222,NaN,-0.744217132524532,NaN,0.346247978134453,0.800157277813673,NaN,-0.00493288703140126,0.00493288703091901,0.836520325270917,-1.01613149171923,-1.5644839376311,-1.78818064543397,-0.701064169974118,0.375563303956353,-0.387351180597859,-0.579098768379827,-1.79400764110191,-1.79400764110232,-1.25351955565726,0.267157272328937,-0.77715240343078,-1.09759051470328,0.0325228003257315,-1.02420915633175,0.673473595966409,1.0876549095332,NaN,NaN,NaN,NaN
1419.4688,-0.373930916378275,-0.217071625419388,-0.514085804427725,1.1358549972913,0.237880003099823,0.237880003099227,-2.24126098584888,0.682863248562268,-1.66873787594188,1.92482420741822,0.510593505768156,1.92482420741654,2.03381531362471,-2.24569365949625,NaN,0.32551425981567,NaN,1.44215554234884,-0.0096787681320791,-1.03537800378187,-0.00967876813092095,NaN,-0.751736138289201,NaN,0.291667658836391,0.786386423362088,NaN,-0.0118147450856347,0.0118147450851478,0.815218421671427,-1.02020084356955,-1.57507858642514,-1.79810482030078,-0.682216133863298,0.356050876390035,-0.380924928426881,-0.605804517211812,-1.83820379295827,-1.83820379295864,-1.26226618870262,0.292530289849418,-0.773037213350624,-1.07065161580383,0.0425352150231638,-0.994701177030762,0.674603815984466,1.12722628249601,NaN,NaN,NaN,NaN
1419.5712,-0.411207569270732,-0.20298874795743,-0.54534660511399,1.1737256679482,0.256626564966548,0.256626564965944,-2.25648444579986,0.701678291833476,-1.67174786659203,1.94357874666803,0.503052634982189,1.94357874666633,2.02344691997832,-2.22889268298818,NaN,0.336744107789377,NaN,1.45751802983967,-0.0198974685695949,-1.02242972517067,-0.0198974685684516,NaN,-0.75940943743556,NaN,0.236254986379197,0.772886200908406,NaN,-0.0191405747575627,0.0191405747570763,0.793992315602913,-1.02470971679753,-1.58416751607407,-1.80740963098236,-0.663050963521004,0.337409849228557,-0.373882444756056,-0.631937729803782,-1.88060680666725,-1.8806068066676,-1.26971864713219,0.317573232499054,-0.768141676905123,-1.04325230341411,0.0529609993092458,-0.964590949281686,0.676116960785525,1.16584538409268,NaN,NaN,NaN,NaN
1419.6736,-0.447484118292979,-0.189741520294748,-0.576024863930506,1.20926230121133,0.2741902450627,0.274190245062095,-2.26991219824873,0.720386392262431,-1.67316238747626,1.9612422506132,0.494315205771998,1.96124225061149,2.01287018685592,-2.21212290326756,NaN,0.347484225766031,NaN,1.4731533032065,-0.0293540337030998,-1.00967629881366,-0.0293540337019665,NaN,-0.767259152176955,NaN,0.180160533851917,0.759750041752249,NaN,-0.0269365059957382,0.0269365059952481,0.772899585651414,-1.02973001200288,-1.59174302634638,-1.81614604328963,-0.643676617366301,0.319708288780983,-0.366279044971849,-0.65744411880334,-1.92111324156222,-1.92111324156254,-1.27590048438346,0.342215087236791,-0.76251124430981,-1.0155213079581,0.0637988965911385,-0.934000646930952,0.678023606133779,1.20343665722579,NaN,NaN,NaN,NaN
1419.776,-0.482682190602228,-0.17738197359523,-0.606067402111778,1.24232157795955,0.290499375292656,0.290499375292051,-2.28153356626919,0.739045656988366,-1.67293745804481,1.97782718743263,0.484433235114984,1.97782718743091,2.00214004213099,-2.1954536467518,NaN,0.357677884787394,NaN,1.48901502307901,-0.0379469030147835,-0.997132539967196,-0.0379469030136602,NaN,-0.775303307639122,NaN,0.123538474575278,0.747063943601982,NaN,-0.0352280447835372,0.035228044783047,0.751999053040559,-1.03532982508459,-1.5978006728544,-1.82436414396257,-0.624201782364979,0.303011001950545,-0.358171992718964,-0.68226936291419,-1.95962396415806,-1.95962396415835,-1.28083782518653,0.366388505541277,-0.756191695506972,-0.987585202133768,0.0750484073528284,-0.903050098468866,0.680332113971837,1.2399281825407,NaN,NaN,NaN,NaN
