time,S1-D1,S1-D8,S1-D9,S1-D15,S2-D1,S2-D2,S2-D3,S2-D9,S3-D1,S3-D2,S3-D16,S4-D2,S4-D3,S4-D5,S5-D3,S5-D4,S5-D5,S6-D2,S6-D5,S6-D17,S7-D6,S7-D7,S8-D6,S8-D7,S8-D18,S9-D3,S9-D4,S9-D9,S9-D11,S9-D19,S10-D8,S10-D9,S10-D10,S10-D11,S11-D8,S11-D10,S11-D20,S12-D10,S12-D11,S12-D12,S13-D4,S13-D11,S13-D12,S14-D10,S14-D12,S14-D21,S15-D13,S15-D14,S16-D13,S16-D14,S16-D22
1014.4768,2.24714114070918,0.0459557680395728,2.1931825508156,-0.873467019636039,-0.0665531662660928,-0.0665531662692492,0.939705310414455,0.471983883470026,1.06016175335428,-1.15610615948867,0.679366262230344,-1.15610615948782,-0.290898869255778,-1.50158477530602,-1.10100833997056,0.42072778902874,-0.537858931378599,0.0928714799290097,0.589726310554077,-1.38450798729358,0.589726310556156,-1.79763444029797,0.837087249004728,-1.62177951194001,-0.554414020353153,0.323480138372763,0.323480138373164,-1.83376310232806,1.83376310232932,-0.958407881158925,1.47710503202777,1.23922060523862,1.43557047799725,-0.197018281525615,0.1405579224402,-0.115849881350887,0.502514291997134,2.52865638793138,2.52865638792904,0.521226436105019,0.0967794127457169,0.996056131411881,0.650762063350195,-1.06943714780912,-0.055812286709271,1.3218401341608,1.18841992317951,1.18841992317804,-1.48101667428498,1.48101667428604,-0.110107395902887
1014.5792,2.29891581709364,0.062413730565027,2.25385777876425,-0.884197069833448,-0.0579627411386905,-0.0579627411418603,0.972207356587502,0.496282146523009,1.10080591881379,-1.18615309040391,0.685379179330517,-1.18615309040306,-0.295109282626629,-1.53550955215465,-1.12392189332225,0.396852093851535,-0.548586497865777,0.0516439333714864,0.612364308239547,-1.41408251166813,0.612364308241669,-1.7873470239361,0.839847080535304,-1.60245947222027,-0.529218033341721,0.310063112145872,0.310063112146284,-1.83946582085713,1.83946582085833,-0.96861306513331,1.49718783317913,1.26954992969052,1.46198970478531,-0.228666601434713,0.135963538417605,-0.143109577173919,0.543490486805054,2.53328653269374,2.53328653269141,0.567554023504228,0.0681365910088469,1.03261745615899,0.6849890051818,-1.04422821744398,-0.00861258643185738,1.29433027247651,1.16143360769724,1.16143360769577,-1.44548303010209,1.44548303010316,-0.135665264429549
1014.6816,2.34814397973996,0.0773438743622876,2.31107553500886,-0.895189018134769,-0.0509823569006695,-0.0509823569038526,1.00459530284109,0.518169286556575,1.14014767772112,-1.21368897905854,0.691819247755805,-1.21368897905767,-0.297378179351984,-1.5671523247216,-1.14391712732372,0.37492949758231,-0.559423348621038,0.0129287122986362,0.63370953003,-1.44112765753389,0.633709530032156,-1.77542054826542,0.841405197810699,-1.58224371286891,-0.504308455897372,0.296283218360187,0.296283218360612,-1.84402972879582,1.84402972879694,-0.977152700656619,1.51569002874756,1.29817168534761,1.48667746414854,-0.25677889511306,0.132913883820287,-0.166995256391698,0.583482688196509,2.53652973690184,2.53652973689952,0.613470525838353,0.0400564669784542,1.06928487830515,0.720181658063442,-1.01761609787527,0.0403447182975064,1.26561841252593,1.13475116269066,1.13475116268918,-1.40863802218119,1.40863802218225,-0.160957408955901
1014.784,2.39474623604133,0.0907074050922761,2.36473384810986,-0.906449504294187,-0.0456000774639717,-0.045600077467164,1.03684043371915,0.537608680622549,1.17814356410302,-1.23869460167833,0.69871067957707,-1.23869460167745,-0.297693972282885,-1.5964778396318,-1.16096424254578,0.354982316870853,-0.570309681234955,-0.0231922594601278,0.65371148680277,-1.46557573370671,0.653711486804961,-1.76190261540297,0.841766858229916,-1.56119766187052,-0.479779337913146,0.282129896860263,0.2821298968607,-1.84749673379223,1.84749673379331,-0.983999566960659,1.53254898020689,1.32502167726026,1.50956691795002,-0.281324859231323,0.131437468122615,-0.187473142777769,0.622431547543279,2.53841791118022,2.53841791117792,0.658907367478552,0.0125952120320125,1.10602349737724,0.756243231887036,-0.989632913952197,0.0909502562794055,1.23580678164448,1.10847083355261,1.10847083355113,-1.3705996042468,1.37059960424785,-0.18589915174697
1014.8864,2.43864956076784,0.102473237151217,2.41474195325872,-0.917977888511091,-0.0417941859773898,-0.0417941859805921,1.0689122228966,0.554574183632501,1.21475374708191,-1.2611621545031,0.706076654221606,-1.26116215450222,-0.296056155481796,-1.62346240250948,-1.1750492570478,0.337024973239743,-0.581188030848293,-0.0566496364836516,0.672326315469319,-1.48736881304904,0.672326315471531,-1.7468464916512,0.840942247557835,-1.5393888114262,-0.455723951471189,0.267593511840792,0.267593511841242,-1.8499072320279,1.84990723202894,-0.989131591369188,1.54770558180016,1.35004173358618,1.5305962276001,-0.302290668810321,0.131551849357337,-0.204526378092785,0.66028304961112,2.53898867402215,2.53898867401985,0.703796679613765,-0.0141926206854482,1.1427973224695,0.793066951940604,-0.960315569620331,0.143082472078367,1.20500138514454,1.0826868205112,1.08268682050972,-1.33148718542052,1.33148718542156,-0.210408532681302
1014.9888,2.47978764464974,0.112618000517219,2.46102063230515,-0.929766688515853,-0.0395335134948002,-0.0395335134980093,1.1007783232577,0.5690501367432,1.24994202634854,-1.28109552581133,0.713938963235022,-1.28109552581044,-0.292475325958059,-1.64809421983825,-1.18617422009482,0.321064013815678,-0.592003350625898,-0.0873866942284278,0.689516775704408,-1.50645920784877,0.689516775706634,-1.73031093512439,0.838946285661646,-1.5168867140138,-0.432234181460646,0.252664971086489,0.252664971086953,-1.85129993678011,1.85129993678115,-0.9925319220488,1.56110443562406,1.37317987756413,1.54970873705994,-0.319678390960174,0.133263831533819,-0.218154481367803,0.696988366270792,2.53828513409962,2.53828513409733,0.748071654446129,-0.0402541770480655,1.17956974461173,0.830536662872558,-0.929705837927025,0.196608129716668,1.17331128528909,1.05748864364517,1.05748864364369,-1.29142108729423,1.29142108729525,-0.234406322240092
1015.0912,2.51810123203767,0.121126031671917,2.50350253278043,-0.941801999637633,-0.038777799729841,-0.0387777997330505,1.13240456324545,0.581031323614538,1.28367580714661,-1.29851054841254,0.722317654085775,-1.29851054841163,-0.286973066670125,-1.67037359709296,-1.19435722840959,0.307098139429616,-0.602703117633269,-0.115359383802958,0.705252214061676,-1.52280991127353,0.705252214063922,-1.71235996210475,0.835798444451337,-1.49376286900956,-0.409399909865819,0.237335386432908,0.237335386433385,-1.8517117029126,1.85171170291359,-0.994188995120515,1.57269401007546,1.39439045417536,1.56685312362412,-0.333505457927473,0.136569599287284,-0.228372876511884,0.732503658258726,2.53635559246619,2.53635559246389,0.79166685016489,-0.0655383939806284,1.21630391213795,0.868527470778382,-0.897850432805041,0.251382862873371,1.14084786775886,1.03296047275294,1.03296047275146,-1.25052202030931,1.25052202031033,-0.257816019920979
1015.1936,2.55353845885488,0.127989360146051,2.54213248431936,-0.954063908721922,-0.0394780771202405,-0.0394780771234525,1.1637549512765,0.590522889725741,1.31592606391659,-1.31343522900962,0.731230671407969,-1.31343522900869,-0.279581702090477,-1.6903129928788,-1.19963225418793,0.295118252938998,-0.613237456517398,-0.140536375263294,0.719508491131113,-1.53639500330557,0.719508491133369,-1.69306255419492,0.831522583108234,-1.47009049625509,-0.387308411511423,0.221595782643872,0.221595782644363,-1.85117736500913,1.85117736501007,-0.994096593994888,1.58242677858451,1.41363421417535,1.58198351618756,-0.343804211123373,0.141454801133893,-0.235212494137915,0.766789822692043,2.53325316505838,2.53325316505607,0.834518453652277,-0.0899961181300126,1.25296299906017,0.906906423003809,-0.864801069170016,0.307251767190295,1.1077241095827,1.00918042520587,1.00918042520439,-1.20891056382185,1.20891056382286,-0.280563849838121
1015.296,2.58605520095262,0.133207697413221,2.57686782664204,-0.966526901037529,-0.0415770772362167,-0.0415770772394335,1.19479169147319,0.597540241414054,1.34666730376214,-1.32590994134509,0.740693485695568,-1.32590994134415,-0.270343944707803,-1.70793693689123,-1.20204880460724,0.285107534096991,-0.623559276073335,-0.162899076697863,0.732267878804299,-1.54720001357594,0.732267878806572,-1.67249230979446,0.826146791267186,-1.44594421434765,-0.366043758514357,0.205436854977981,0.205436854978486,-1.84972960177118,1.84972960177206,-0.992253889367704,1.59025933652759,1.43087835848846,1.59505958138606,-0.350621510050124,0.147894604875272,-0.238719435154016,0.799812200107446,2.52903533356136,2.52903533355905,0.876564511908946,-0.113580258217601,1.28951037477265,0.945533236192191,-0.830614504267578,0.364050048778299,1.07405386331362,0.986219863847821,0.98621986384634,-1.16670664375227,1.16670664375327,-0.302578769250867
1015.3984,2.6156154364172,0.136788428883765,2.60767875300657,-0.979160253906476,-0.0450096643650429,-0.0450096643682619,1.22547521910907,0.602108934073103,1.37587754181441,-1.33598755883286,0.750718707232043,-1.33598755883191,-0.259312457240954,-1.72328182472636,-1.20167144085801,0.277041535076241,-0.633624410000444,-0.18244162938849,0.743518940157981,-1.55522222242813,0.743518940160256,-1.65072705570798,0.819703232171494,-1.42139965831407,-0.345686225067249,0.188848770877914,0.188848770878433,-1.84739882778351,1.84739882778434,-0.98866544725186,1.59615250456149,1.44609654846758,1.60604658489713,-0.354018392375045,0.155853751852295,-0.238954676412577,0.831540270406068,2.52376344306341,2.52376344306109,0.917745143695317,-0.136245963840702,1.32590970416894,0.984261088076198,-0.795352546933096,0.421603751481153,1.03995116760087,0.964142734756282,0.964142734754799,-1.12402900927262,1.12402900927361,-0.323792506252386
1015.5008,2.64219161063793,0.138746602067505,2.63454865379553,-0.991928417737565,-0.0497033033950678,-0.0497033033982932,1.2557642673202,0.60426454751487,1.40353829763917,-1.34373350235627,0.761315694628058,-1.34373350235531,-0.246549354367246,-1.73639560372496,-1.1985791845813,0.270888284295055,-0.643391750501012,-0.199170885647632,0.753256401117641,-1.56047087869309,0.753256401119922,-1.62784844195438,0.812227985953755,-1.39653307156042,-0.326311692653438,0.171821011105833,0.171821011106365,-1.8442131067347,1.84421310673545,-0.983341202547308,1.60007143356876,1.4592688910697,1.6149154407737,-0.354069770411573,0.165286630566299,-0.235993799870229,0.861947368144689,2.5175021665586,2.51750216655627,0.958002743321964,-0.157950818351025,1.36212501514719,1.02293748076785,-0.759082021519264,0.479730578226883,1.00552959103621,0.943004966838002,0.943004966836517,-1.08099471064741,1.0809947106484,-0.344139633083099
1015.6032,2.66576497618681,0.13910489587389,2.65747442343302,-1.00479139487501,-0.0555785657909854,-0.0555785657942168,1.28561597324316,0.604052536900381,1.42963461406786,-1.34922568911598,0.772490173743845,-1.34922568911501,-0.232125662890025,-1.74733736281882,-1.19286483484958,0.266608390764062,-0.652823366492802,-0.213106372548934,0.761481016092243,-1.56296732072207,0.76148101609452,-1.60394153566417,0.803760893567697,-1.37142089556898,-0.307991069031825,0.15434225192958,0.154342251930125,-1.84019808116091,1.84019808116158,-0.976296410494292,1.60198572563381,1.47038191216618,1.62164276339873,-0.350864146787156,0.176137384781978,-0.229926726410857,0.891010430773093,2.51031894820791,2.51031894820559,0.997282184759569,-0.178655039980737,1.39812075513511,1.06140516891752,-0.721874677032838,0.538240806151482,0.970901615493062,0.922853937617819,0.922853937616335,-1.03771858140918,1.03771858141016,-0.363557669743528
1015.7056,2.68632586991105,0.137893550924156,2.67646668118575,-1.01770512557242,-0.0625496693298905,-0.0625496693331258,1.31498602367062,0.601528045043152,1.45415509145447,-1.35255437803304,0.784243886015243,-1.35255437803207,-0.21612075420071,-1.75617683751705,-1.18463421357098,0.264155150806619,-0.661884602519941,-0.224280235663625,0.768199425330348,-1.56274499946348,0.768199425332641,-1.57909442165598,0.794345399073086,-1.3461393719462,-0.290789741512134,0.136400296271887,0.136400296272446,-1.83537691507402,1.8353769150746,-0.967551594013091,1.60186958088472,1.47942853177328,1.6262109344526,-0.344503326194952,0.188340069026706,-0.220857431388822,0.918709772538001,2.50228342948627,2.50228342948394,1.0355310260798,-0.198321690621571,1.43386183748265,1.09950313983823,-0.683807039325777,0.59693828487625,0.936178059589855,0.903728010064773,0.903728010063292,-0.99431273353132,0.9943127335323,-0.381987210987822
1015.808,2.70387389538883,0.135150244766323,2.69154986458102,-1.03062187977624,-0.0705250408642944,-0.0705250408675362,1.34382883375902,0.596755668311984,1.47709192780656,-1.35382191208054,0.796574285878103,-1.35382191207956,-0.198621757507558,-1.76299383845464,-1.17400535117221,0.263474664264994,-0.670544157147187,-0.232737152248426,0.77342400107003,-1.55984940928757,0.773424001072326,-1.55339781577169,0.784028391009023,-1.32076416509264,-0.274767081733792,0.117982061527559,0.11798206152813,-1.82977024442302,1.82977024442353,-0.957132496640225,1.59970197429457,1.48640804893125,1.62860819106983,-0.335102099737922,0.20181886054984,-0.208903619858845,0.945028868493157,2.49346686107344,2.49346686107111,1.07269970788053,-0.216916889513053,1.46931367106749,1.13706763768807,-0.644960212668253,0.655621506724498,0.901467535204376,0.885656153179214,0.885656153177736,-0.950886077275494,0.950886077276471,-0.399372075820882
1015.9104,2.7184179980024,0.130919909620054,2.70276218160979,-1.04349064734551,-0.0794078907394051,-0.0794078907426531,1.3720977517447,0.589809178226652,1.49844095965224,-1.35314236065,0.809474302195768,-1.35314236064901,-0.179722958383674,-1.76787760903942,-1.16110761950976,0.264505966847791,-0.678774142546278,-0.238534206488679,0.777172679816108,-1.55433793072272,0.777172679818398,-1.52694469432184,0.772860048644149,-1.2953700028976,-0.259976011059249,0.0990736287308041,0.0990736287313885,-1.82339613175946,1.82339613175988,-0.945070039566138,1.59546686132714,1.49132613684324,1.62882873489335,-0.322787887338182,0.21648833255164,-0.194196348120215,0.96995413899176,2.48394150627273,2.48394150627042,1.10874173776994,-0.234410024601129,1.50444217012181,1.17393323064829,-0.605419641337361,0.71408474134939,0.866875930307593,0.868657658143293,0.868657658141822,-0.907543869743918,0.907543869744885,-0.41565948196518
1016.0128,2.72997643657204,0.1252545029078,2.71015543226766,-1.05625752316293,-0.0890967905682056,-0.089096790571457,1.3997452863851,0.580771204794027,1.51820170377653,-1.35064106512619,0.822932168869468,-1.35064106512519,-0.159525186253285,-1.77092611634694,-1.14608081738889,0.267181183478027,-0.686550130047228,-0.241740724469327,0.779468778981569,-1.54627958485921,0.779468778983848,-1.499829937116,0.760893699113665,-1.27003032362554,-0.246462629698067,0.0796603584133176,0.079660358413915,-1.81627002714369,1.81627002714404,-0.931400277998895,1.58915340732741,1.49419484580973,1.62687285799868,-0.30770033303867,0.232253792394523,-0.17687958617682,0.993474735689678,2.47378004382469,2.47378004382238,1.14361385327153,-0.250773950008054,1.53921374779248,1.20993391950095,-0.565274835791181,0.772119230482516,0.832505919011182,0.852741954897632,0.852741954896169,-0.864387284832327,0.864387284833285,-0.430800244219091
1016.1152,2.73857666008868,0.118212742912254,2.71379471577905,-1.06886609111765,-0.0994862497362624,-0.0994862497395237,1.42672335567553,0.569732883650043,1.53637739958459,-1.34645408806866,0.836931320585281,-1.34645408806765,-0.138135193835456,-1.77224527920244,-1.12907421345266,0.271425706514712,-0.693851187168881,-0.242438068509819,0.780340798804481,-1.53575469769652,0.780340798806745,-1.47214997769139,0.748185685964994,-1.24481691858416,-0.23426591159921,0.0597270803970978,0.0597270803977081,-1.80840474124254,1.80840474124276,-0.916164355795217,1.58075623312759,1.49503261135472,1.62274708027127,-0.289990851038508,0.249011687646414,-0.157109718446349,1.01558233531049,2.46305497690078,2.46305497689848,1.1772761551729,-0.265985155132258,1.57359530046379,1.24490427821197,-0.524619054411999,0.829514439656556,0.798456504459835,0.837908533191039,0.837908533189585,-0.8215129984185,0.821512998419445,-0.444748988842457
1016.2176,2.74425509718039,0.109859816259245,2.71375803526752,-1.08125781631881,-0.110467288946193,-0.110467288949463,1.45298355376363,0.556793462622401,1.55297504720382,-1.34072756429586,0.851450346502904,-1.34072756429484,-0.115665029406029,-1.77194813751714,-1.11024554948336,0.277158403466215,-0.70065991076194,-0.240719388735772,0.779822213220931,-1.5228544744074,0.779822213223182,-1.44400245152842,0.734795240977982,-1.21979956737609,-0.223417470213206,0.0392583619892249,0.039258361989848,-1.79981043413082,1.79981043413091,-0.899408460886365,1.57027566933472,1.49386426558829,1.61646429314946,-0.269822119751671,0.266650079199291,-0.135054980750304,1.036270943697,2.45183805238812,2.45183805238583,1.20969220339071,-0.280023893432076,1.60755418641642,1.27868061122338,-0.483548924510828,0.886059362779582,0.7648225974546,0.824146978602208,0.824146978600763,-0.779012796239572,0.779012796240505,-0.457464373152336
1016.32,2.74705686714399,0.100267057557277,2.71013580858975,-1.09337245555633,-0.121928011476185,-0.121928011479466,1.47847743253292,0.542059859227401,1.56800543399599,-1.33361695129744,0.866462996739848,-1.33361695129642,-0.0922314005845764,-1.7701539676381,-1.08976000576659,0.284291861115035,-0.706962459530234,-0.236689325495701,0.777951253217421,-1.50768048532061,0.777951253219654,-1.41548582941252,0.720784343658332,-1.19504566694322,-0.213941403112863,0.0182388519304864,0.018238851931121,-1.79049461735349,1.79049461735343,-0.881183783860361,1.55771801276459,1.49072104916363,1.60804390483602,-0.247367519317052,0.285049178354199,-0.110894830847771,1.05553670642707,2.44019969063781,2.44019969063553,1.24082906952516,-0.292874265987681,1.64105819604286,1.31110211440263,-0.442163992283623,0.941543873823878,0.731694628879066,0.811437137927085,0.811437137925648,-0.736973221881981,0.736973221882901,-0.468909303001863
1016.4224,2.7470354240523,0.0895115974508402,2.70303029394747,-1.10514849241406,-0.133754174955496,-0.133754174958791,1.50315679624579,0.525646160962912,1.58148314400847,-1.32528617518601,0.881938239453628,-1.32528617518499,-0.0679550278054033,-1.76698734961173,-1.06778913036639,0.292732673186494,-0.712748585117558,-0.230463652391795,0.774770682169152,-1.49034406414036,0.774770682171364,-1.3866990238219,0.706217552101073,-1.17061985764147,-0.205854223290146,-0.0033463091462152,-0.00334630914557034,-1.78046216282884,1.78046216282864,-0.861546480652656,1.54309577967746,1.48564061938867,1.59751198180632,-0.222810505091029,0.304081945464877,-0.0848192471913742,1.07337772103742,2.42820842163068,2.42820842162841,1.2706573451003,-0.304524261032803,1.67407551029833,1.34201203407475,-0.400566202784066,0.995760119813974,0.699158191380889,0.799749424359788,0.799749424358359,-0.695475280416326,0.695475280417237,-0.479051145487568
1016.5248,2.74425214696619,0.0776759751601108,2.69255494023043,-1.11652359890404,-0.145829767818166,-0.145829767821475,1.52697400861335,0.507673065213461,1.59342654822201,-1.31590666925437,0.897840369521032,-1.31590666925336,-0.0429599872906748,-1.7625771937613,-1.04450973639602,0.302381776298632,-0.718011656376015,-0.222168848906764,0.77032755811951,-1.47096561499986,0.770327558121707,-1.35774096445675,0.691161795348836,-1.14658365356714,-0.199164882408676,-0.0255110243207098,-0.0255110243200551,-1.76971531164188,1.76971531164155,-0.840557639291233,1.52642795276336,1.47866705064994,1.58490138299081,-0.196343909450013,0.323614746816096,-0.0570279507095122,1.08979384956096,2.41593032541065,2.4159303254084,1.29915111165694,-0.31496575444465,1.70657465061368,1.3712588249564,-0.358859318277936,1.0485039507234,0.667293705408364,0.789045264551059,0.789045264549642,-0.654594203194122,0.654594203195022,-0.487861934814642
1016.6272,2.73877589072798,0.0648477155284901,2.67883367603898,-1.12743512213454,-0.158037595420805,-0.158037595424119,1.54988231021383,0.488267260526904,1.60385777464797,-1.30565630794565,0.914129174101849,-1.30565630794464,-0.0173730469582439,-1.75705573730136,-1.02010277627201,0.313134839162688,-0.722748672978452,-0.211941592647134,0.764672978041156,-1.44967382465499,0.764672978043339,-1.32871014730914,0.675686122983412,-1.12299508949344,-0.193874885838195,-0.0482677374098475,-0.0482677374091836,-1.75825367897297,1.75825367897255,-0.818283244324126,1.5077402173885,1.46985082355925,1.57025188235963,-0.168169167869945,0.343508064106049,-0.0277295481198671,1.10478653401729,2.40342848317679,2.40342848317455,1.32628788420679,-0.324194478455011,1.73852442914675,1.39869730676467,-0.317148284308113,1.0995763803281,0.636176110754964,0.779277681604707,0.7792776816033,-0.614399267449997,0.614399267450893,-0.495318565522109
1016.7296,2.73068251538983,0.0511188738562508,2.66200015692228,-1.1378205915866,-0.170259882007811,-0.17025988201113,1.57183614009558,0.467560750187808,1.61280265332595,-1.29471824777682,0.93076016468954,-1.29471824777581,0.008676997838642,-1.75055752804303,-0.994752208439994,0.324882713212399,-0.726960270764546,-0.199928162367114,0.757861804014932,-1.42660478369807,0.757861804017097,-1.29970416193882,0.659861405977541,-1.09990839945646,-0.189978490973016,-0.0716269138387353,-0.0716269138380615,-1.74607426017028,1.74607426016978,-0.794794115602363,1.48706517276055,1.45924879160819,1.55361026638882,-0.138495467241874,0.363617251800469,0.00285940338296852,1.11835861737746,2.39076245141542,2.39076245141319,1.35204853814083,-0.332209966694442,1.76989390472579,1.42418980877903,-0.275538552882385,1.14878506229832,0.605874597272564,0.770392001618133,0.770392001616739,-0.574953659923033,0.57495365992392,-0.501402960679618
1016.832,2.7200544137976,0.0365855495892342,2.6421969903252,-1.14761823904331,-0.182378894052428,-0.182378894055754,1.59279144897815,0.445690116043469,1.62029062415492,-1.28327969614057,0.94768488602982,-1.28327969613956,0.035059981035986,-1.74321841824782,-0.968643876166455,0.33751195139174,-0.730650724782866,-0.186283747985617,0.749952376006166,-1.40190103173026,0.749952376008318,-1.27081919909865,0.64375997803877,-1.07737374456949,-0.187462974323611,-0.0955965378295623,-0.0955965378288801,-1.73317145428291,1.73317145428235,-0.770165779498485,1.46444249432418,1.44692410299961,1.53503038212792,-0.107538813815187,0.383793337607969,0.0345154106796519,1.13051416880476,2.37798777071912,2.37798777071691,1.37641722550661,-0.339015484435069,1.80065234188471,1.44760727829164,-0.234135380491706,1.19594574835344,0.576452395502348,0.762326661228659,0.762326661227275,-0.536314380487429,0.53631438048831,-0.506102195944926
1016.9344,2.7069800495666,0.02134736470597,2.61957494728373,-1.15676752019608,-0.194277585232614,-0.194277585235944,1.61270598740195,0.422795723059108,1.62635459318163,-1.27153063759776,0.964851306080504,-1.27153063759676,0.0616450099235487,-1.73517459148861,-0.941964415735388,0.350905392104247,-0.733827953241171,-0.171171674397579,0.741006216829252,-1.37571055118933,0.741006216831385,-1.24214954641291,0.627455209333596,-1.05543701257044,-0.186308954183923,-0.120181663458856,-0.120181663458166,-1.71953712540138,1.71953712540076,-0.744478229914042,1.4399190274925,1.43294605479394,1.51457311337436,-0.0755210186925356,0.403883857065376,0.0670091373416708,1.14125830943884,2.36515551565027,2.36515551564807,1.3993812885951,-0.344617954165556,1.83076917196726,1.46883032115515,-0.193043132209415,1.24088367981658,0.54796664126332,0.75501407760538,0.75501407760401,-0.498532187653984,0.498532187654856,-0.509408560083891
1017.0368,2.69155350464479,0.00550689926732382,2.5942921551303,-1.16520962860443,-0.205840257015292,-0.205840257018627,1.63153955425097,0.399020870343001,1.63103072741518,-1.25966255142243,0.9822042806235,-1.25966255142143,0.0883010955351024,-1.72656163874857,-0.914900204181587,0.364942795121527,-0.736503515266778,-0.154762550518784,0.731087729288841,-1.34818574285116,0.731087729290963,-1.21378709167641,0.611021018110755,-1.0341397115335,-0.186490763092598,-0.145384052799467,-0.145384052798771,-1.70516071413622,1.70516071413557,-0.717815562418795,1.41354880850857,1.41738986991025,1.49230627783054,-0.0426685939704985,0.423733719187842,0.100106578970224,1.15059703281765,2.35231188392041,2.35231188391822,1.42093118558472,-0.349027887257414,1.86021396564899,1.48775014489977,-0.152364628673772,1.28343486258324,0.520468312108098,0.748381532590963,0.748381532589603,-0.461651582657675,0.46165158265854,-0.511319543662455
1017.1392,2.67387402515655,-0.0108309246488115,2.56651325454413,-1.17288800016938,-0.216953227348363,-0.2169532273517,1.64925419438779,0.374510896406808,1.63435818215575,-1.2478671524383,0.999686077500542,-1.2478671524373,0.114897770265407,-1.71751369296436,-0.88763635108204,0.379501514979586,-0.738692581877256,-0.137233344928489,0.720263873071409,-1.31948241996151,0.720263873073511,-1.18582086007477,0.594531341150005,-1.01351896993246,-0.187976872116606,-0.171201924363207,-0.171201924362506,-1.690029400081,1.69002940008034,-0.690265502491987,1.38539302364342,1.4003364041994,1.46830445501697,-0.00921153769583573,0.443186124294565,0.133570345772619,1.15853700779161,2.33949781703762,2.33949781703544,1.44106044481948,-0.352259331050596,1.88895643124416,1.50426938739207,-0.112200571421342,1.32344718791188,0.49400221830145,0.742352026945156,0.742352026943811,-0.42571082044403,0.425710820444885,-0.511837764387156
1017.2416,2.65404554913972,-0.0275595190519402,2.5364084996245,-1.17974881016564,-0.227505502963889,-0.227505502967229,1.66581433480563,0.349412248688631,1.63637875653762,-1.23633518301511,1.01723694058273,-1.23633518301413,0.14130569130991,-1.70816262829275,-0.86035573916509,0.394457202826107,-0.74041385564736,-0.118766378806427,0.708603800918942,-1.28975885305604,0.708603800921032,-1.15833660752832,0.578059589715062,-0.993607641360192,-0.190730370328678,-0.197629824330707,-0.19762982433,-1.67412831060077,1.67412831060011,-0.661918870184646,1.35551992218341,1.38187179983638,1.4426487616401,0.024618020588846,0.462083571395215,0.167161087284798,1.16508534771737,2.3267486458418,2.32674864583964,1.45976565837601,-0.354329836909992,1.91696644865198,1.51830282795007,-0.0726490814727132,1.3607813746987,0.468607027831751,0.736845069412934,0.736845069411599,-0.390741934962132,0.390741934962986,-0.510970848974094
1017.344,2.63217620131428,-0.04457136830716,2.5041527852825,-1.18574145425386,-0.237389452888112,-0.237389452891461,1.68118685325166,0.323871535924492,1.63713648124729,-1.22525527721956,1.03479567070332,-1.22525527721859,0.167397224031729,-1.69863732990189,-0.83323812195326,0.409684529216184,-0.741689427793868,-0.099548236349667,0.696178445493959,-1.25917488466544,0.696178445496037,-1.13141648088046,0.561678113820833,-0.974434499885663,-0.194709492734132,-0.224658620365508,-0.224658620364797,-1.65744076856274,1.65744076856207,-0.632869014494536,1.32400469032512,1.36208709924917,1.41542658555406,0.0585873166243801,0.480268970642749,0.200639066551389,1.17024934150827,2.31409376154779,2.31409376154564,1.4770465149937,-0.355260448480527,1.94421414014231,1.52977798029235,-0.0338053749769775,1.39531171800827,0.444315318387563,0.731777376593755,0.731777376592427,-0.356770774216272,0.356770774217115,-0.508731294158453
1017.4464,2.60837774949087,-0.061758816366114,2.46992460545774,-1.19081898512989,-0.246501476922981,-0.246501476926341,1.69534108570402,0.298034593783823,1.63667715918482,-1.2148129048807,1.05230020092587,-1.21481290487975,0.193046996775783,-1.68906303657902,-0.806459286793103,0.425057913546192,-0.742544583775639,-0.079768621448389,0.683060076808489,-1.22789111651705,0.683060076810561,-1.10513874606965,0.545457694595424,-0.956024501480623,-0.199868171963791,-0.252275599455918,-0.252275599455205,-1.63994856526405,1.63994856526336,-0.603211225700833,1.29092928159378,1.34107782536275,1.38673127889662,0.0924645432155455,0.497586824496989,0.23376583361569,1.17403616930633,2.30155632115048,2.30155632114835,1.4929058600626,-0.355075700327281,1.97066997134718,1.53863555835147,0.00423843218878733,1.42692664054422,0.421153668342252,0.727063482006053,0.72706348200473,-0.323817052648084,0.323817052648918,-0.505136325785782
1017.5488,2.58276502920681,-0.0790148737929914,2.43390496771389,-1.19493846717057,-0.254742654752362,-0.254742654755726,1.70824879040965,0.272045597628941,1.63504789149438,-1.20518938649205,1.06968814971116,-1.20518938649111,0.218132421194093,-1.67956074986495,-0.780190284601179,0.440452238556157,-0.743007583752225,-0.0596192123813608,0.66932186962867,-1.19606815753248,0.669321869630748,-1.07957758231192,0.529467086050262,-0.938399080175923,-0.206156577806294,-0.280464632748458,-0.280464632747742,-1.62163223817691,1.62163223817617,-0.573042119255784,1.25638219536499,1.31894352876037,1.35666180614054,0.126020451417227,0.513884400563561,0.266305904026498,1.17645264655013,2.28915300326276,2.28915300326065,1.5073497622868,-0.353803609688578,1.99630487288933,1.54482979946318,0.0413934335403492,1.45552905898854,0.399142804634647,0.722616276313561,0.722616276312243,-0.291894434741789,0.291894434742618,-0.500207766480953
1017.6512,2.55545535013345,-0.0962340111414484,2.39627629927996,-1.19806122234499,-0.262019357464612,-0.262019357467981,1.7198840887421,0.246046245047899,1.63229661803968,-1.19656095837471,1.08689734540559,-1.19656095837379,0.242534179813492,-1.67024669522995,-0.754596716597703,0.455743529906309,-0.74310944310081,-0.0392925631917733,0.655037513277201,-1.16386591468145,0.655037513279277,-1.0548029358658,0.513772623360783,-0.921576446428196,-0.213521614793141,-0.309206365196018,-0.3092063651953,-1.60247133292715,1.60247133292639,-0.542458989093658,1.22045819960097,1.29578730470029,1.32532234645491,0.15902987705684,0.529012818244069,0.298028349048605,1.1775050374214,2.27689383460571,2.27689383460363,1.5203875662611,-0.351475642237436,2.02109037500897,1.54832863325637,0.0775740101064282,1.48103658842518,0.378297810591111,0.718347507193727,0.718347507192418,-0.261010659503067,0.26101065950389,-0.49397191397389
1017.7536,2.52656789734104,-0.113312913040629,2.35722137402355,-1.20015295996981,-0.268243807406477,-0.268243807409852,1.73022340072251,0.22017501264754,1.62847169022347,-1.1890978670231,1.10386632135912,-1.1890978670222,0.266136690928359,-1.66123181910499,-0.729838060391123,0.470809588175243,-0.742883727032969,-0.0189810808757114,0.640280876309242,-1.13144291113474,0.640280876311323,-1.03088041813277,0.498437900401132,-0.905571860853868,-0.221907365009905,-0.338478398582287,-0.338478398581569,-1.58244463459665,1.58244463459583,-0.511559139374188,1.18325799953987,1.27171528657817,1.29282185469343,0.191273137111101,0.542827995756041,0.32870823534076,1.17719895950668,2.26478210482725,2.26478210482519,1.53203191421914,-0.348126635170759,2.04499875080803,1.54911369588637,0.112697921474815,1.50338161155351,0.358628376559643,0.714168261252179,0.714168261250882,-0.231167709647238,0.231167709648066,-0.48645942715463
1017.856,2.49622313154967,-0.130151179592279,2.31692227315568,-1.20118379572726,-0.273334579331148,-0.273334579334534,1.73924538972007,0.194566476740836,1.62362148372372,-1.18296347951198,1.12053477901972,-1.18296347951109,0.288828563828604,-1.65262130982135,-0.706067017772443,0.485530566181199,-0.742366365030459,0.00112390715423079,0.625125727721577,-1.09895562284062,0.62512572772366,-1.00787122880988,0.48352350598427,-0.890397868019738,-0.23125547804749,-0.36825544987041,-0.368255449869691,-1.56153035935366,1.5615303593528,-0.48043921158952,1.14488785413355,1.24683612148674,1.25927358487648,0.222537267273797,0.555191425673078,0.35812788059829,1.1755393831979,2.25281437854286,2.2528143785408,1.54229872583285,-0.343794665925258,2.06800316607005,1.54718019682753,0.146686430672513,1.52251123223996,0.340139072902066,0.709989444579228,0.709989444577941,-0.202362028242806,0.202362028243642,-0.477705211207643
1017.9584,2.46454217937445,-0.146651974129892,2.27555937163751,-1.20112817047757,-0.277217041581479,-0.277217041584875,1.74693092569299,0.169350680928836,1.61779405088666,-1.17831340640878,1.13684401205772,-1.17831340640792,0.310503052466691,-1.64451413698064,-0.683428874354543,0.499789490533063,-0.741595488904609,0.0208329905539719,0.609645515141738,-1.06655782997991,0.609645515143831,-0.985832087615307,0.469086803282559,-0.876064485862153,-0.241505518199891,-0.398509473566901,-0.398509473566182,-1.53970630121629,1.53970630121543,-0.449194525729219,1.1054591379707,1.22126043080417,1.22479457644007,0.252617089305259,0.565970764329481,0.386077911195181,1.17253071840283,2.24098060330006,2.24098060329802,1.55120712914448,-0.338520860192009,2.09007783305664,1.54253664587157,0.179464458391036,1.53838711772345,0.322829639009862,0.705722275459477,0.705722275458201,-0.174584783332986,0.174584783333836,-0.467748288661273
1018.0608,2.43164620049618,-0.16272262521828,2.23331033252028,-1.19996468182866,-0.279823740231574,-0.279823740234986,1.75326306937908,0.144652536804484,1.61103680802353,-1.17529464199846,1.15273728667153,-1.17529464199761,0.331058507662395,-1.63700261057447,-0.662060871729776,0.51347273647142,-0.740611296161438,0.0399594291117948,0.593913198093313,-1.03439998240519,0.593913198095417,-0.964815162312511,0.45518173715707,-0.862579352367145,-0.252595281852776,-0.429209742358313,-0.429209742357596,-1.51694993393821,1.51694993393733,-0.417918446508306,1.06508784455747,1.19510025894314,1.18950510261626,0.281316108889006,0.575040240846865,0.412358124249685,1.16817697592501,2.22926430460532,2.2292643046033,1.55877933850314,-0.332349139428552,2.11119816118355,1.53520445045562,0.210960743362148,1.5509852245702,0.306695295391946,0.701278799955863,0.701278799954597,-0.147822174995641,0.147822174996503,-0.456631649160773
1018.1632,2.39765572792079,-0.178275191723621,2.19034909970932,-1.1976758414282,-0.281094730969267,-0.281094730972695,1.75822707309041,0.12059125172204,1.60339625077726,-1.17404473301544,1.16816018137988,-1.1740447330146,0.350398825097624,-1.63017196618113,-0.642091598048941,0.52647047371646,-0.739455935406475,0.0583198478917438,0.578001130283613,-1.00262858270063,0.578001130285735,-0.944867984841636,0.441858655754322,-0.849947835187557,-0.264461094460459,-0.460322890611743,-0.460322890611028,-1.49323847547888,1.49323847547796,-0.386701771251402,1.02389402827663,1.16846851415475,1.15352808148539,0.308447253547678,0.582280907958058,0.436778168958637,1.16248198950284,2.2176428561953,2.2176428561933,1.56504048237042,-0.325325920460368,2.13134089173849,1.52521739873089,0.2411079855514,1.56029540828316,0.291727088304212,0.69657243485801,0.696572434856758,-0.12205577502745,0.122055775028326,-0.444402082337539
1018.2656,2.3626899876761,-0.193226995392207,2.14684489233859,-1.19424776810123,-0.280977861964753,-0.280977861968206,1.76181039128348,0.0972797811383602,1.59491769032159,-1.17469098525845,1.18306089602478,-1.17469098525764,0.368433887750881,-1.62409998350355,-0.62364040230079,0.538677101317061,-0.738173408446723,0.0757349031378066,0.56198098331002,-0.971385594444754,0.561980983312162,-0.926033352360619,0.429164132525973,-0.838173117740537,-0.277038088484124,-0.49181293320678,-0.491812933206066,-1.46854892609215,1.46854892609128,-0.355632128528833,0.982001184205166,1.1414784027954,1.11698844997587,0.333833472027586,0.587580766615644,0.459158074834119,1.15544968567934,2.20608781463104,2.20608781462905,1.57001839323501,-0.317499791703335,2.15048420262888,1.5126210447844,0.269842967135815,1.56632092866056,0.277912271254132,0.69151853396245,0.69151853396121,-0.0972628894495125,0.0972628894503988,-0.431110000967208
1018.368,2.32686620830164,-0.207501118794912,2.10296121213568,-1.18966982791834,-0.279429005408877,-0.279429005412343,1.76400269911656,0.07482430533643,1.58564500872862,-1.17734970950131,1.19739054181529,-1.17734970950052,0.385079995600184,-1.61885664430486,-0.606816841713191,0.549991681288475,-0.73680948378534,0.0920299366299194,0.545923702015898,-0.94080787630529,0.545923702018058,-0.908349221985617,0.417140778115527,-0.82725628919269,-0.290260460855692,-0.523641267987642,-0.523641267986931,-1.44285809108111,1.44285809108023,-0.324793386441847,0.939535569790549,1.11424285758412,1.08001250325186,0.357308230553585,0.590834807099563,0.479328669296373,1.14708439090755,2.19456530686944,2.19456530686746,1.5737433768647,-0.308921190365959,2.16860777763013,1.4974720139824,0.297106664156598,1.5690778754718,0.265234720976046,0.686034967771008,0.686034967769781,-0.0734169350241882,0.0734169350250889,-0.41680925476274
1018.4704,2.29029893693677,-0.221026853947257,2.0588548896285,-1.1839342426728,-0.276412225307473,-0.276412225310955,1.76479592331919,0.0533237419426197,1.57562044299111,-1.18212551188242,1.2111034239718,-1.18212551188165,0.400260262021163,-1.61450383580955,-0.591720182832672,0.560318366439201,-0.73541161102685,0.107035621488241,0.529899475423917,-0.911026630325393,0.529899475426105,-0.891848626199252,0.405827047268858,-0.817196472504123,-0.30406171722389,-0.555766659304364,-0.555766659303656,-1.41614260604771,1.41614260604689,-0.29426508995413,0.896625483600276,1.08687396714651,1.0427272114758,0.378715937185215,0.591945013038394,0.497131924854956,1.13739116605036,2.18303645528124,2.18303645527927,1.57624797818306,-0.299642095971415,2.18569284728594,1.47983725356331,0.322844363510624,1.56859454673643,0.253675380655297,0.680042700564071,0.680042700562855,-0.0504878204646171,0.0504878204655328,-0.401556926308227
1018.5728,2.25309939180227,-0.233740071195565,2.01467521790431,-1.17703570102725,-0.27189985872518,-0.271899858728675,1.76418428608969,0.0328693227389817,1.56488441253922,-1.18911065379056,1.22415732463562,-1.18911065378982,0.413904951298214,-1.61109510633426,-0.578438981396358,0.5695668011638,-0.734028819294999,0.120588585820118,0.513977703792746,-0.882166854538791,0.513977703794953,-0.876559638133256,0.395257060711758,-0.807991008447254,-0.318374923896707,-0.588145196289969,-0.588145196289265,-1.38837899530043,1.38837899529968,-0.264121960721433,0.853400528414986,1.05948242443633,1.00525953774281,0.397912296349641,0.590820357905713,0.512421246980261,1.12637615501925,2.17145782403615,2.17145782403418,1.57756675645058,-0.289715747870945,2.20172221170208,1.4597932573698,0.347005789183195,1.56491080875173,0.243212720546845,0.673466340308606,0.673466340307403,-0.0284423206934412,0.0284423206943763,-0.385413094923896
1018.6752,2.21537488926949,-0.245583473422785,1.97056323370287,-1.16897100922562,-0.265872486076086,-0.26587248607959,1.76216435123554,0.0135442694034638,1.55347539805439,-1.19838452235793,1.23651378499631,-1.19838452235723,0.42595174144144,-1.60867547971118,-0.56705075787868,0.577652465160269,-0.732711584479735,0.132531987336664,0.498226948620081,-0.854346806979326,0.498226948622311,-0.86250539431322,0.385460456656848,-0.799635687648392,-0.33313299532059,-0.620730226389418,-0.62073022638872,-1.3595437982344,1.35954379823374,-0.234433489938416,0.809990889855869,1.0321770165855,0.967735785649136,0.414764569148359,0.58737679834803,0.525061684160736,1.11404692843888,2.15978187701247,2.1597818770105,1.57773607595288,-0.279196391375368,2.21668024902349,1.43742528943467,0.369545228611524,1.55807745513962,0.233823204099347,0.666234636067585,0.666234636066396,-0.0072444309813627,0.00724443098231634,-0.368440556293672
1018.7776,2.17722837818704,-0.256506712615339,1.92665119241292,-1.15973880712244,-0.258318775804627,-0.258318775808136,1.75873505481592,-0.00457640647766456,1.5414298686458,-1.21001325149078,1.24813837673541,-1.21001325149011,0.436345909578047,-1.60728133399966,-0.557621774126428,0.584496936236481,-0.731511657710511,0.142716013743372,0.482714863263341,-0.827677502709894,0.482714863265601,-0.849704163359047,0.376462271824017,-0.792125013301148,-0.348269038799524,-0.653472274902327,-0.653472274901635,-1.32961378823011,1.32961378822954,-0.2052636383615,0.76652665450166,1.00506417420597,0.930280998714508,0.429151715785066,0.581537258096377,0.53493003887727,1.10041280131466,2.14795744106784,2.14795744106588,1.57679391598583,-0.268139056623633,2.23055291010787,1.41282662589688,0.390421641115651,1.54815557182461,0.225481746335063,0.658280910715099,0.658280910713924,0.0131443079166209,-0.013144307915648,-0.350704494752598
1018.88,2.13875809865112,-0.266466365087052,1.8830622559535,-1.14933935727841,-0.249235203706553,-0.249235203710068,1.75389770609929,-0.0214259687248129,1.528782250123,-1.22404951857418,1.25900095070764,-1.22404951857354,0.44504044408414,-1.60694034802313,-0.550206909647273,0.590028064555116,-0.730481854002648,0.150998299608547,0.467508108494997,-0.802262267757796,0.467508108497275,-0.838169448152434,0.368282847884578,-0.785452480990207,-0.363716760915906,-0.686318967962098,-0.686318967961413,-1.29856629202438,1.29856629202391,-0.176670638326631,0.723137177029886,0.978247586536453,0.893018420102876,0.440964417618878,0.573231603617512,0.541914877828277,1.08548510904351,2.13593016734091,2.13593016733897,1.57477970249444,-0.256599372216587,2.24332770045893,1.38609782906151,0.409598732311006,1.53521591082961,0.218162153355393,0.649543433644507,0.649543433643346,0.03276451329895,-0.032764513297955,-0.33227211518809
1018.9824,2.10005736488424,-0.275425780882869,1.8399103829925,-1.13777439974301,-0.238625662500412,-0.238625662503935,1.74765595408128,-0.0369458917652415,1.5155649279183,-1.24053251925135,1.2690758566546,-1.24053251925074,0.451996089701715,-1.60767151630739,-0.544849632696055,0.594180067371812,-0.729675802845809,0.157244270256546,0.452672255553956,-0.778196366628479,0.452672255556257,-0.827910114044043,0.360937766033119,-0.779610860730777,-0.379410920563323,-0.719214978646915,-0.719214978646238,-1.26637960120746,1.26637960120711,-0.148706878988864,0.679950493547612,0.951827876711879,0.856069008174636,0.450104999709548,0.56239662715615,0.545916463396637,1.06927743452795,2.12364298523215,2.12364298523022,1.57173415837074,-0.244633411102629,2.25499364797931,1.35734605593284,0.427044992345445,1.519338273718,0.211837537881712,0.639965746922639,0.639965746921488,0.0516586848766222,-0.051658684875604,-0.313212251444674
1019.0848,2.06121445579314,-0.283354839188372,1.79730038472442,-1.12504705881517,-0.226500990617048,-0.226500990620575,1.74001572377479,-0.051085687759344,1.50180827736607,-1.25948809747056,1.27834213914485,-1.25948809746998,0.457181333698417,-1.6094852288561,-0.541582057427956,0.596893563722193,-0.729147661414123,0.161327438068718,0.438271671281297,-0.755566710510897,0.438271671283607,-0.818930535666508,0.354437817394242,-0.774592459666812,-0.395287801835046,-0.752102014470008,-0.752102014469341,-1.23303345329327,1.233033453293,-0.121418852855079,0.637092776838224,0.925902325654279,0.819550999664636,0.456487289630527,0.548976062122871,0.546846643463833,1.05180578326939,2.11103654957694,2.11103654957503,1.56769916453934,-0.232297561960836,2.26554125296537,1.3266843906605,0.442733707580008,1.50061090082713,0.206480709282935,0.629496957834779,0.629496957833641,0.0698709390219425,-0.069870939020902,-0.293594975720977
1019.1872,2.02231258591357,-0.290229648920158,1.75532809413235,-1.11116179026928,-0.212878455587676,-0.212878455591206,1.73098513167991,-0.0638026651433981,1.4875407099049,-1.28092899062421,1.28678372783946,-1.28092899062365,0.460572344270175,-1.61238340741122,-0.540425073037953,0.59811556834594,-0.728951789435091,0.163129677783074,0.424369374263129,-0.734451647919029,0.424369374265454,-0.811230750432626,0.348789012410455,-0.770389343109453,-0.411285680020577,-0.784918857952999,-0.784918857952343,-1.19850955269239,1.19850955269221,-0.094847148082749,0.594687838199599,0.900564635857428,0.783579518553932,0.460036450127156,0.532920651452501,0.544628736766767,1.03308870135854,2.09804968626534,2.09804968626344,1.56271762277695,-0.219648415719878,2.27496241984635,1.29423118713903,0.456642953025784,1.47912985805635,0.202064532658603,0.618092005168685,0.618092005167559,0.0874467416643174,-0.0874467416632516,-0.273491230045026
1019.2896,1.98342992938034,-0.296032227928736,1.71408060037618,-1.09612436325279,-0.197781222817402,-0.197781222820932,1.72057439021724,-0.0750616629665185,1.47278872166228,-1.30485514997914,1.2943896431506,-1.30485514997861,0.462152874280644,-1.61635968749338,-0.541388527886295,0.597799454856826,-0.729142384386079,0.162541495316006,0.411026852346003,-0.71492083851865,0.411026852348345,-0.804806605360238,0.343992623490354,-0.766993501199595,-0.427345261760368,-0.817601462031666,-0.817601462031021,-1.16279210699128,1.16279210699121,-0.0690264819646237,0.552856688124384,0.875904733195462,0.74826623632305,0.460688813314133,0.514188276402181,0.539197438748956,1.01314732980416,2.08461984281892,2.08461984281705,1.55683331322256,-0.206742655102753,2.28325037593086,1.26010941603267,0.468755563324675,1.45499841454574,0.198562245822056,0.60571189839483,0.605711898393715,0.104432631028251,-0.104432631027165,-0.252972487804068
1019.392,1.94463967776772,-0.30075018043158,1.67363651694745,-1.07994187512433,-0.181237827931209,-0.181237827934742,1.7087957085283,-0.0848347933901455,1.45757693478051,-1.33125411374877,1.30115422116017,-1.33125411374826,0.461914141222303,-1.62139963760986,-0.544471454642388,0.595904888743874,-0.729773074880734,0.159462292750612,0.39830383625612,-0.697035209911104,0.398303836258478,-0.799649889074055,0.340045251470742,-0.764396961356322,-0.443410090301327,-0.850083094390387,-0.850083094389753,-1.12586836574931,1.12586836574933,-0.0439857818233831,0.511717163198267,0.852008609305262,0.713719088892605,0.458391730305663,0.492744143259087,0.53049875842551,0.992005392185785,2.0706835472129,2.07068354721106,1.55009074580427,-0.193636938428692,2.29039958811781,1.2244460197101,0.479059074626664,1.42832640976409,0.195947722887303,0.592323918994903,0.592323918993798,0.12087592803221,-0.120875928031104,-0.232110443066269
1019.4944,1.90601012017251,-0.304376380531042,1.63406626722474,-1.06262279806824,-0.163281659819362,-0.163281659822898,1.69566319547387,-0.0931012087408062,1.44192812842876,-1.36010143007411,1.30707733625958,-1.36010143007363,0.45985469038031,-1.62748101059769,-0.549662327769499,0.592397730212832,-0.73089647184576,0.153800629852274,0.38625802812473,-0.680846996743935,0.386258028127099,-0.795748445203881,0.336938907900561,-0.762591851386137,-0.459426913463258,-0.882294522992425,-0.882294522991803,-1.08772915590367,1.08772915590377,-0.0197483248648329,0.471383612858843,0.82895820618067,0.680042047641728,0.453103440883064,0.468561021602305,0.51848998799222,0.969689117125273,2.05617687259938,2.05617687259757,1.54253501132632,-0.180387774570361,2.29640569138742,1.18737128031632,0.487545632012086,1.39922961155158,0.194195677156088,0.577901766706163,0.577901766705067,0.136824439920735,-0.136824439919613,-0.210976723147309
1019.5968,1.86760473907299,-0.306908664975129,1.59543237912535,-1.04417705380725,-0.143950457831393,-0.143950457834934,1.68119276957293,-0.099846897566358,1.42586326144524,-1.39136113624608,1.31216459014968,-1.39136113624561,0.455980246980083,-1.63457402396668,-0.556939346755803,0.587249913369712,-0.732563683569098,0.145474485491195,0.374944788378676,-0.666399864400074,0.37494478838106,-0.793086261871706,0.334661106490992,-0.76157041402811,-0.475346010623637,-0.914164238111775,-0.914164238111165,-1.04836940695954,1.04836940695972,0.00366805755255342,0.431966629389081,0.806831339057156,0.647334933478752,0.444792966637515,0.441619527984288,0.503139706028021,0.946227099617398,2.0410359025956,2.0410359025938,1.534211640134,-0.167051391225933,2.30126543913833,1.14901820403639,0.494211866970223,1.36782907072115,0.193281800338858,0.562425638136564,0.562425638135478,0.152326166820025,-0.152326166818892,-0.189642622782268
1019.6992,1.82948232119603,-0.30834953645403,1.55778978726219,-1.02461610883187,-0.123285825690437,-0.123285825693978,1.6654020763083,-0.105064501803383,1.40940149091873,-1.42498629867676,1.3164274449115,-1.42498629867631,0.450303562840351,-1.64264166657657,-0.566270738980433,0.580439311300014,-0.734823806953634,0.134411520975488,0.364416790080713,-0.653729121345679,0.364416790083108,-0.791643531635888,0.333194957111963,-0.761324973168833,-0.491121468136509,-0.945618709370033,-0.945618709369434,-1.00778865754976,1.00778865755001,0.0262507201349571,0.393572803059942,0.785701647341633,0.615693258909766,0.433440033394874,0.411908451596062,0.484427817930517,0.9216501099768,2.02519719176944,2.02519719176765,1.52516647753414,-0.153683606428774,2.3049766766858,1.10952192697421,0.499058761711965,1.3342504875657,0.193182842106825,0.545882237527194,0.545882237526118,0.167429022260406,-0.167429022259259,-0.168178862109675
1019.8016,1.79169708600625,-0.308705874584892,1.5211861469979,-1.00395308076876,-0.101332760968938,-0.101332760972485,1.64831040593868,-0.108753137542404,1.39256018942067,-1.4609196134931,1.31988328973664,-1.46091961349267,0.442844259580806,-1.65164002852938,-0.577615078728225,0.571949590922429,-0.737723410084873,0.120549337303629,0.354723655372776,-0.642862020217482,0.35472365537518,-0.79139668400163,0.33251925843547,-0.761847860121023,-0.506711389954885,-0.976582674667973,-0.976582674667387,-0.965991536637354,0.965991536637717,0.0479919060840106,0.356304489585992,0.765638562317877,0.585208085373687,0.419035026204913,0.379425117932943,0.462345634992035,0.895990867232116,2.0085982152733,2.00859821527152,1.51544558521051,-0.140339719004207,2.30753833126253,1.06901915325693,0.502091522895045,1.29862361398983,0.193876643952627,0.528264725384316,0.528264725383251,0.182180579292421,-0.182180579291261,-0.146655370282515
1019.904,1.75429883284129,-0.307988647944444,1.48566216575583,-0.982202848700027,-0.0781391952286565,-0.0781391952322046,1.62993860180495,-0.110918202946573,1.37535496029926,-1.49909406355411,1.32255543573357,-1.49909406355371,0.433628666415893,-1.66151865022012,-0.59092162166544,0.561770053703981,-0.741306021179912,0.10383570797801,0.345911590708602,-0.633818141535408,0.345911590711016,-0.792318401282828,0.332608592300468,-0.763131312285096,-0.522078035461254,-1.00697945332284,-1.00697945332226,-0.922988213263916,0.922988213264362,0.068888426010831,0.320259583726693,0.746707285635811,0.555965889431154,0.401578972130579,0.344175779789475,0.436895984835705,0.869283797366327,1.99117780258154,1.99117780257977,1.505095173151,-0.127074430076448,2.30895040909567,1.02764763632014,0.503319483426915,1.26108171289549,0.1953421457532,0.509572607171053,0.509572607169995,0.196627852250673,-0.196627852249506,-0.125141094173693
1020.0064,1.71733310472953,-0.306212621812298,1.45125195321379,-0.959382163876194,-0.053755541239438,-0.0537555412429901,1.61030895458903,-0.111571164696652,1.35779965135111,-1.53943362307344,1.3244730328406,-1.53943362307308,0.422689651012506,-1.67222088590403,-0.606130653383898,0.549895457487411,-0.745611637086143,0.0842287695602129,0.338023033830404,-0.626609849901524,0.338023033832835,-0.794377627496388,0.333433428692722,-0.765167347096974,-0.53718788333553,-1.03673127445803,-1.03673127445747,-0.878794805163825,0.87879480516438,0.0889413197277881,0.285531295405845,0.728968777407607,0.528048435237291,0.381083539794325,0.306176017861911,0.408093338568949,0.841564790634592,1.97287655671117,1.97287655670941,1.49416156240841,-0.113941800003278,2.30921399398329,0.985545708358555,0.502756043053787,1.22176108602699,0.197559377076045,0.48981156309537,0.489811563094317,0.210817119261895,-0.210817119260715,-0.103703832386164
1020.1088,1.68084136560921,-0.303396060499895,1.41798338796321,-0.935509759239512,-0.0282342479434548,-0.0282342479470089,1.58944508577552,-0.11072932067589,1.3399063708631,-1.58185399791218,1.32567090261108,-1.58185399791183,0.410066445643897,-1.68368427648327,-0.623173847127697,0.536325819232821,-0.750676261609131,0.0616971607432448,0.331096320306966,-0.621242809450939,0.331096320309414,-0.79753957393551,0.334960251208146,-0.76794760368829,-0.552011625108458,-1.06575961452308,-1.06575961452254,-0.833433732434416,0.833433732435093,0.108155502304361,0.252207925151357,0.712479752515071,0.501532650849308,0.357571042482647,0.265451129125284,0.375963936945577,0.812870963520331,1.95363726502304,1.95363726502128,1.4826911784872,-0.100995239695557,2.30833124848241,0.942851855598003,0.500418652598196,1.18080067109783,0.200509435872778,0.468993227322728,0.468993227321682,0.224793782653861,-0.224793782652671,-0.0824100945932993
1020.2112,1.6448611874296,-0.299560424673013,1.38587849697797,-0.910606456501405,-0.00162936547948632,-0.0016293654830393,1.56737182666214,-0.108415539200606,1.32168551144229,-1.626263390118,1.32618928437837,-1.62626339011768,0.395804472354122,-1.69584092592658,-0.641974624421145,0.521066200854131,-0.756531480875167,0.0362201065710711,0.325165375535627,-0.617716540373897,0.325165375538101,-0.801765724650147,0.337151710659286,-0.771463146985647,-0.566524096986192,-1.09398554003599,-1.09398554003545,-0.786934001451412,0.786934001452197,0.126539393180781,0.220372639307546,0.697292682424148,0.476490507229989,0.331074428781047,0.222036476696187,0.340545894103534,0.783240428746264,1.93340530332266,1.93340530332091,1.47073057217733,-0.0882875288987198,2.30630542281494,0.899704334861337,0.496328840898266,1.1383417034258,0.204174453540914,0.447134933685768,0.44713493368473,0.238602257081086,-0.238602257079885,-0.0613249822793195
1020.3136,1.60942644350407,-0.294730062625268,1.35495384508531,-0.884695269809357,0.0260038784838702,0.0260038784803197,1.54411510044316,-0.104657975062674,1.30314578810535,-1.67256327533954,1.32607349873238,-1.67256327533925,0.379955165991042,-1.70861787725803,-0.662448517219793,0.50412648111576,-0.763204082859671,0.00778744554844742,0.320259438554323,-0.616024990759814,0.320259438556821,-0.807013848609155,0.339966810809349,-0.775704239257503,-0.580704163424052,-1.12133005037885,-1.12133005037833,-0.739331405814155,0.73933140581506,0.144104526261083,0.190103249721353,0.683455801191635,0.452988901823892,0.301637240439208,0.175977770304055,0.301889252502023,0.752712079526962,1.91212902793893,1.9121290279372,1.45832645807398,-0.0758708452658398,2.30314087793102,0.856240829995352,0.490512275259155,1.09452743509371,0.208537547502935,0.42425944874113,0.424259448740098,0.252285873687403,-0.252285873686192,-0.0405120833611238
1020.416,1.57456750417595,-0.28893189408313,1.32522093158258,-0.857801505668815,0.0546094901496809,0.0546094901461401,1.51970181822749,-0.099489763694841,1.28429429950773,-1.72064917784074,1.32537353853334,-1.72064917784047,0.362575785354422,-1.72193748634492,-0.684503538670775,0.485521120244956,-0.770715731138552,-0.0236004002398916,0.316402825257647,-0.616157092465859,0.316402825260175,-0.81323802807781,0.34336112772131,-0.780660091634606,-0.594534566611906,-1.14771441265002,-1.14771441264951,-0.69066863549675,0.690668635497788,0.160865141449669,0.161472002642252,0.671013115490265,0.431089549188172,0.269313517490441,0.127331249614449,0.260055963939539,0.721325396016536,1.88976014894377,1.88976014894204,1.44552575738325,-0.0637967838551861,2.29884312901334,0.81259814927358,0.482998842505363,1.04950290472121,0.213582766849693,0.400394713539971,0.400394713538941,0.265886792072231,-0.26588679207101,-0.0200333717820394
1020.5184,1.54031142997762,-0.282195087192445,1.29668658893259,-0.829952858889282,0.084131106762996,0.0841311067594655,1.49415980162321,-0.0929486999526059,1.26513662016163,-1.77041142326014,1.32414360458845,-1.77041142325989,0.343729198987066,-1.73571779274045,-0.708040573243013,0.465268927165078,-0.77908270086224,-0.0579325057493482,0.313614739268639,-0.618097273045657,0.313614739271188,-0.820388715179698,0.347287064930869,-0.78631861087593,-0.60800174962868,-1.17306047970968,-1.17306047970919,-0.640995293930421,0.640995293931587,0.176837764076686,0.134545379926723,0.660004417338499,0.410848879682079,0.234167638563139,0.0761637579368164,0.215119782851877,0.689120282075803,1.86625408158321,1.86625408158148,1.43237563362445,-0.0521163520218903,2.29341891158188,0.768911965398537,0.473822743374422,1.00341475488234,0.219295039030886,0.37557361569399,0.375573615692965,0.279445913817059,-0.279445913815826,5.08969228434675e-05
1020.6208,1.50668215600354,-0.274550732717827,1.26935337483832,-0.801179503947762,0.114512375741269,0.114512375737748,1.46751773948487,-0.0850769145706033,1.24567692379981,-1.82173584791409,1.32244161041591,-1.82173584791385,0.323483639106259,-1.74987288595902,-0.73295379069869,0.443392836560002,-0.788315676507791,-0.0951875643209697,0.311909136017725,-0.621825906823028,0.311909136020295,-0.828412826423151,0.351694145908461,-0.792666154310779,-0.621095651822662,-1.19729098472928,-1.1972909847288,-0.590367831387589,0.590367831388886,0.192040784297542,0.109383916884741,0.650465297792838,0.392317947675801,0.196274094305015,0.0225527111831176,0.16716607174438,0.6561369401973,1.84157027890019,1.84157027889846,1.41892351342264,-0.040879933855723,2.28687626546323,0.725316596834954,0.463022600817096,0.956411096342626,0.225660123198786,0.349833808484251,0.349833808483229,0.293002789217614,-0.293002789216364,0.0196823025386883
1020.7232,1.47370066113127,-0.266031523805251,1.24321994606878,-0.771514180868141,0.145697308900739,0.14569730889722,1.4398051774117,-0.0759205635174527,1.22591812905446,-1.87450444624077,1.32032868250648,-1.87450444624055,0.301912430102862,-1.76431326350372,-0.759131076462249,0.419919697051298,-0.798419605975523,-0.135334043304925,0.311294640826167,-0.627319700122682,0.311294640828758,-0.837253872388069,0.356529338191369,-0.799687296162088,-0.633809471260653,-1.2203298095151,-1.22032980951464,-0.538849405550941,0.538849405552342,0.206494049846982,0.0860420432369275,0.642427160253665,0.37554235209678,0.155717196101909,-0.0334140274236306,0.116291523879026,0.622415790009094,1.81567255112067,1.81567255111892,1.40521708640063,-0.03013722392532,2.2792246270632,0.681944819499564,0.450641585952873,0.908641411263773,0.232664571219234,0.3232175795569,0.323217579555881,0.306595505942728,-0.306595505941466,0.0388043955818981
1020.8256,1.44138511933488,-0.256671451376751,1.21828140475149,-0.740992274317147,0.177630603874513,0.177630603870995,1.41105253397981,-0.0655295412857914,1.20586205666686,-1.92859594516437,1.3178686722815,-1.92859594516416,0.27909370521328,-1.77894617624241,-0.786454464569024,0.394880068469086,-0.809393606890952,-0.178330373049533,0.311774519074287,-0.634552014266589,0.311774519076901,-0.846852105545016,0.361737395678193,-0.807364597305767,-0.646139392870553,-1.24210222714234,-1.2421022271419,-0.486509677651747,0.486509677653245,0.220218481709695,0.0645679507296781,0.635917230361578,0.360562169689987,0.112590720296377,-0.0916383611380676,0.0626038052148725,0.587997430476032,1.7885293743403,1.78852937433853,1.39130427903618,-0.0199371313544531,2.2704749200302,0.638927688642661,0.436727564965671,0.860256478731448,0.240295693807486,0.295771758297251,0.295771758296233,0.320260548927752,-0.320260548926478,0.0573628503140546
1020.928,1.40975103603897,-0.246505519598056,1.19452961704348,-0.709651884837534,0.210257929216889,0.210257929213374,1.38129113930982,-0.0539572231070675,1.18550959187893,-1.98388630497685,1.31512767700764,-1.98388630497665,0.255110121441613,-1.79367595932766,-0.814800563792813,0.368308026576535,-0.821230921352256,-0.224125168168106,0.313346694786777,-0.643493133879947,0.313346694789409,-0.857144667068029,0.367261204554241,-0.815678368671422,-0.658084288050265,-1.26253512042315,-1.26253512042273,-0.433424549923321,0.433424549924889,0.233235715233059,0.0450034830119135,0.630958557798533,0.347411896208816,0.0669974874684106,-0.152012259856869,0.00622111592051293,0.552922639485598,1.76011418715171,1.76011418714993,1.37723319892014,-0.0103276536358954,2.26063963925086,0.596394351631803,0.421333265035317,0.811408303577309,0.248541527035516,0.267547647570359,0.267547647569342,0.334032627218132,-0.334032627216848,0.0753056269168715
1021.0304,1.37881137612013,-0.235569477554071,1.17195351308666,-0.677533892989659,0.243526175204999,0.243526175201485,1.35055329271399,-0.0412602372666864,1.16486084856282,-2.04024915825855,1.31217355435343,-2.04024915825836,0.230048575560273,-1.80840435192408,-0.844040976471508,0.340240976742956,-0.833918912438349,-0.272657473260573,0.316003810856765,-0.654110489858624,0.316003810859415,-0.868065720777119,0.373042121230087,-0.824606425682591,-0.669645398352643,-1.28155717995976,-1.28155717995934,-0.379675847526136,0.379675847527785,0.245567763911955,0.0273840372056043,0.627570006863905,0.336120388202389,0.0190488821244257,-0.214418141591846,-0.052728322570734,0.517232398340367,1.73040567130578,1.73040567130398,1.36305205042254,-0.00135572093826829,2.24973292878772,0.554471838965271,0.404516444958969,0.762250027934938,0.257390795017499,0.23860096469404,0.238600964693027,0.347944474316437,-0.347944474315151,0.0925831316565081
1021.1328,1.3485766904372,-0.223899561932929,1.15053937829527,-0.64468201908157,0.277383672648894,0.277383672645386,1.31887233446525,-0.0274982650744947,1.14391533195592,-2.09755620692692,1.30907541705696,-2.09755620692674,0.203999919782151,-1.82303081429492,-0.874042716094164,0.310719482538631,-0.84743909386174,-0.323857017604857,0.319733322363568,-0.666368849378203,0.319733322366229,-0.879546569391833,0.379020292950026,-0.834123838828825,-0.680826019178338,-1.29909909239239,-1.29909909239199,-0.325350944393631,0.325350944395335,0.25723670528108,0.0117384660039955,0.62576623482113,0.326710798828508,-0.0311356744021343,-0.278729323989069,-0.114106840941484,0.480967924538011,1.69938800853728,1.69938800853545,1.3488090316191,0.00693297795845649,2.23777065449561,0.513284826750384,0.386340044318925,0.712935803176299,0.266832867943605,0.208991772725524,0.208991772724518,0.362026638721794,-0.362026638720506,0.109148361755382
1021.2352,1.31905524581905,-0.211532251048917,1.13027114050222,-0.611142880727881,0.311780378744224,0.311780378740722,1.28628272728027,-0.0127338611268419,1.12267209980447,-2.15567759755169,1.30590310307569,-2.15567759755151,0.177058674098246,-1.83745285263694,-0.904668632091668,0.279787117241265,-0.861767186366887,-0.377644462572509,0.324517616611257,-0.680230486136067,0.324517616613935,-0.891515754392018,0.385134956217477,-0.844202688793956,-0.691631196349983,-1.31509373506659,-1.31509373506621,-0.270542331756309,0.270542331758087,0.26826439638509,-0.00191102721809853,0.625557656690793,0.319200502938016,-0.0834292846613785,-0.344810531681746,-0.177767940541523,0.444170698086187,1.66705110264412,1.66705110264228,1.33455222906965,0.0144941670694448,2.22477046938085,0.472955369643014,0.366872285392102,0.663620605417227,0.276857719069327,0.178784381362935,0.178784381361935,0.376307286891955,-0.376307286890672,0.124957019480239
1021.3376,1.29025315943953,-0.198504035133154,1.11113065061208,-0.576966048218301,0.346668028182052,0.346668028178555,1.25282014585495,0.00296771572802031,1.10112992523799,-2.21448228531833,1.30272662577879,-2.21448228531816,0.149322732083686,-1.85156635709307,-0.935777847593631,0.247490342590162,-0.87687320007608,-0.433931635283892,0.330334158346908,-0.695655338240048,0.330334158349595,-0.903899145559109,0.391324714101262,-0.854811833965562,-0.702067440519649,-1.32947638955004,-1.32947638954968,-0.215347134505044,0.21534713450683,0.278672229876364,-0.0135489997287788,0.626950394784872,0.313601010857554,-0.137698164273473,-0.412518448921889,-0.243556949563896,0.406882476609214,1.63339075920742,1.63339075920556,1.32032952311154,0.0212851344130265,2.2107518681457,0.433602608802886,0.346186713488141,0.614459989998626,0.287455889492423,0.148047199917984,0.148047199916992,0.390812040327481,-0.390812040326205,0.139967587552057
1021.44,1.26217453299223,-0.184851208528369,1.09309794863278,-0.542204096582612,0.382000250345588,0.382000250342098,1.21852157167483,0.0195386670723942,1.07928746210366,-2.27383838260842,1.29961561779699,-2.27383838260826,0.120893058525544,-1.86526594984852,-0.967226209747716,0.213878410953091,-0.892721546471488,-0.492621756838416,0.337155662749526,-0.712601153371071,0.337155662752207,-0.916620028252805,0.39752779655591,-0.865916697084065,-0.712142457888467,-1.34218497550218,-1.34218497550184,-0.159866588162565,0.159866588164345,0.288480935052934,-0.0231668751923332,0.629946214216538,0.309917878014741,-0.193802261217511,-0.481702312858802,-0.311311716697072,0.36914530657783,1.59840882314745,1.59840882314558,1.30618850536768,0.0272648566953288,2.19573622490064,0.395342463167097,0.324362175229477,0.565609792329459,0.298618470299255,0.11685253458315,0.116852534582167,0.405563860378038,-0.405563860376768,0.154141372701776
1021.5424,1.23482157845986,-0.170609688867974,1.07615150384166,-0.506912654708617,0.417732655053604,0.417732655050121,1.18342538594363,0.0369088167791012,1.05714340724151,-2.33361347808312,1.29663878780889,-2.33361347808298,0.0918733802035675,-1.87844533590617,-0.998866747257975,0.17900328137233,-0.909271183205755,-0.553609680630778,0.344950298489271,-0.731023618859337,0.344950298491944,-0.929599198587229,0.403682310571087,-0.877479077432951,-0.72186489534495,-1.35316029846041,-1.35316029846008,-0.104205488908898,0.104205488910709,0.297710418701412,-0.0307630253813798,0.634542449824043,0.308150623207964,-0.251595904116721,-0.552204544877422,-0.380863340528143,0.331001541172574,1.56211327907414,1.56211327907227,1.29217640322619,0.0323940984652638,2.17974680676961,0.358287312035104,0.301482744496731,0.517225788475419,0.310337102274785,0.0852763363207383,0.0852763363197662,0.420582981446825,-0.42058298144556,0.167442529611067
1021.6448,1.20819472866438,-0.155814867969106,1.06026841941208,-0.471150454441324,0.453822887838771,0.45382288783529,1.14757145180674,0.0550057688460867,1.0346966513562,-2.39367491228929,1.29386340766824,-2.39367491228915,0.062369874158128,-1.89099765090593,-1.03055012831792,0.142919542712493,-0.926475791564936,-0.616782149648113,0.353681918531372,-0.750876477559469,0.353681918534032,-0.942755076609836,0.409726489505376,-0.889456991501527,-0.731244103012046,-1.36234630534893,-1.36234630534862,-0.0484716223310131,0.0484716223327525,0.306379637042768,-0.0363428136011098,0.640731930788305,0.30829266646303,-0.310928471405845,-0.62386141736974,-0.452036927246849,0.292493866578707,1.52451831610278,1.52451831610092,1.27834000589186,0.036635489558243,2.16280875979677,0.322545671029037,0.277637607701408,0.469463324581687,0.322603981034207,0.0533979127668505,0.0533979127658874,0.435886882598562,-0.435886882597305,0.179838072601315
1021.7472,1.18229273067975,-0.140501498292325,1.04542459711641,-0.434979384974134,0.490230653932751,0.490230653929269,1.11100117883867,0.0737550564496991,1.01194640994255,-2.45389000373174,1.29135484034062,-2.45389000373162,0.0324908580846903,-1.90281580319208,-1.06212511348549,0.105684343840442,-0.944283984533031,-0.682018071053541,0.363310311656481,-0.772111631555668,0.363310311659126,-0.956003841192742,0.415598948891602,-0.901804538074626,-0.740289924414918,-1.36969034564606,-1.36969034564576,0.0072248290209613,-0.00722482901923514,0.314506489665687,-0.0399185932161227,0.648502907750358,0.310331292521972,-0.371645071195879,-0.696503756434968,-0.52465236850641,0.253665326377074,1.48564435020316,1.48564435020129,1.26472558916525,0.0399535867806511,2.14494907076147,0.288221857056829,0.252920912075012,0.422476913352661,0.335411850574614,0.0212996126166103,0.0212996126156569,0.451490283519862,-0.451490283518616,0.191297880043596
1021.8496,1.15711272452779,-0.124703617219356,1.03159486295216,-0.398464559142252,0.526917709948134,0.526917709944655,1.07375756457419,0.0930802718677342,0.988892324522522,-2.51412622788775,1.28917611268422,-2.51412622788764,0.00234648441943704,-1.91379280842844,-1.09343900122756,0.0673573336667347,-0.962639543699305,-0.749188802745354,0.373791466077256,-0.794679232781586,0.373791466079892,-0.969259584918538,0.42123895191313,-0.914471780881746,-0.749012530595365,-1.3751434390217,-1.37514343902142,0.0627719021257586,-0.0627719021240808,0.322107725474178,-0.0415096575650239,0.65783898682645,0.314247644230371,-0.433587224309026,-0.769957686869492,-0.598525135330457,0.214559326558389,1.44551799077085,1.44551799076899,1.25137883864085,0.042314927580742,2.12619651519981,0.255415638102436,0.227431567983086,0.376419788189055,0.348753970174291,-0.0109335166230978,-0.0109335166240413,0.467405152183765,-0.467405152182533,0.201794699059852
1021.952,1.13265031163109,-0.108454510040195,1.01875305741029,-0.361674396644738,0.563847822834572,0.563847822831095,1.03588520865421,0.112903165198624,0.965534524285891,-2.57425135498624,1.28738753456789,-2.57425135498614,-0.0279515625932136,-1.9238221164476,-1.12433806654361,0.0280006132168318,-0.98148168461385,-0.818158448653111,0.385077838887426,-0.818527757988984,0.385077838890038,-0.982434489654141,0.42658668584605,-0.927404648138988,-0.757422314744387,-1.37866055144462,-1.37866055144436,0.118056499790562,-0.118056499788885,0.329198852947774,-0.0411421386502537,0.668719074206188,0.320016749126748,-0.496593544963714,-0.844045430412766,-0.673467087057445,0.175219602576226,1.40417193833286,1.404171938331,1.23834477239362,0.0436880819747155,2.10658160214641,0.224221870167014,0.201272987112705,0.331443405961616,0.362624042118086,-0.0432140960644599,-0.0432140960653897,0.483640713360373,-0.483640713359157,0.211304159454188
1022.0544,1.10889961866747,-0.0917867111741038,1.00687209613181,-0.324680724010918,0.600986696424046,0.600986696420574,0.997430297887244,0.133143706651877,0.941873644037924,-2.63413354968111,1.28604636662004,-2.63413354968103,-0.0582903664668689,-1.93279793306851,-1.15466799391403,-0.0123212987612564,-1.00074535174998,-0.88878416176903,0.397118629342211,-0.843604067194107,0.397118629344805,-0.995439026927531,0.431583548457638,-0.940544856586111,-0.765529854676303,-1.38020088097787,-1.38020088097762,0.172965071496391,-0.172965071494731,0.335794054017661,-0.0388488563649567,0.681117332744968,0.327607579001043,-0.560500414026639,-0.918586165149776,-0.749287293694166,0.135690135226818,1.36164480858218,1.36164480858033,1.22566766366271,0.0440437033204441,2.08613651726357,0.194730130912907,0.174552741907138,0.287696898261299,0.377016090217811,-0.0754527965112162,-0.0754527965121315,0.500203447288675,-0.50020344728747,0.219804801824321
1022.1568,1.085853364368,-0.0747320401791407,0.995924010481728,-0.287558883675653,0.638301866372441,0.638301866368973,0.958440568036047,0.153720119872347,0.91791080727447,-2.69364143144336,1.28520653878185,-2.69364143144328,-0.0885560735169352,-1.94061554233121,-1.18427430673194,-0.0535414866648788,-1.02036154297782,-0.960916454847307,0.409860055033214,-0.869853445248423,0.409860055035792,-1.00818218495383,0.436172438683095,-0.95382987037755,-0.773345933424741,-1.37972815088135,-1.37972815088112,0.227384320583759,-0.227384320582125,0.341906108289194,-0.0346691254671539,0.695003150185274,0.336983138324043,-0.625142641212783,-0.993396936610585,-0.825792865717155,0.0960150172651909,1.31798089171488,1.31798089171305,1.21339096057936,0.0433545751446576,2.06489505558088,0.167024364194945,0.147382149146675,0.245326486040895,0.391924286901448,-0.10755871243712,-0.107558712438021,0.517097070433919,-0.517097070432727,0.227278115524613
1022.2592,1.06350293753467,-0.0573216655813004,0.985879980596583,-0.25038783869242,0.675762564012684,0.675762564009222,0.918965256274713,0.17454890269754,0.893647594801834,-2.7526440937011,1.28491842010555,-2.75264409370104,-0.118634185496171,-1.94717163455961,-1.21300279807112,-0.09559064897029,-1.04025765851916,-1.03439951917996,0.423245626669453,-0.897219623843036,0.423245626672029,-1.02057171914884,0.440298040824405,-0.967192904318534,-0.780881593651938,-1.37721090325964,-1.37721090325942,0.281201910121174,-0.281201910119559,0.34754633735676,-0.0286485285120381,0.710341118816691,0.348100576997011,-0.690354115226624,-1.06829358784261,-0.902789780084386,0.056238291536719,1.27322986408656,1.27322986408474,1.20155719531633,0.0415956551362995,2.04289253280593,0.141182550900678,0.119875796625062,0.204474883586955,0.407342740694794,-0.139439714001403,-0.139439714002292,0.534322497748807,-0.534322497747635,0.23370857383696
1022.3616,1.04183849108956,-0.0395861886422068,0.976710370728522,-0.213250260160322,0.713339549693669,0.713339549690209,0.879055058747132,0.195544848775082,0.869086018263267,-2.8110110833253,1.28522864065612,-2.81101108332525,-0.148409857234157,-1.95236464307435,-1.24069997055992,-0.138397104722405,-1.06035786668686,-1.1090715520706,0.437216414559597,-0.925644780508228,0.437216414562168,-1.03251441751298,0.443907087600814,-0.980562977843271,-0.788148201227617,-1.37262278434559,-1.37262278434539,0.334307132804763,-0.334307132803135,0.352724576057495,-0.0208386581513634,0.727091028129912,0.360911326368561,-0.755968442090508,-1.14309166807701,-0.980083689803877,0.0164037874410333,1.22744646462845,1.22744646462664,1.19020787485233,0.0387441227461509,2.02016567129707,0.117276417620536,0.0921510336165087,0.165280715224581,0.423265266333828,-0.171002782809536,-0.171002782810411,0.551877795431906,-0.551877795430754,0.239083652800222
1022.464,1.02084905200222,-0.0215557409460781,0.968384770769427,-0.176232590716193,0.751004917849419,0.751004917845962,0.838762099756608,0.216621074098866,0.844228506327164,-2.86861234620073,1.2861799656713,-2.86861234620069,-0.17776820946879,-1.9560950894791,-1.26721349377742,-0.181886799565495,-1.08058348131636,-1.18476509388715,0.451711301341463,-0.955069514112613,0.451711301344011,-1.04391636781647,0.446948586917701,-0.993865019974256,-0.795157505695668,-1.36594281317899,-1.3659428131788,0.386591521615343,-0.386591521613736,0.357449170795229,-0.0112968265002432,0.745207874196621,0.375361261676628,-0.821819570956348,-1.21760729245457,-1.05748070772061,-0.023445028415699,1.18069014003265,1.18069014003086,1.17938335232896,0.0347794345690046,1.99675246483636,0.09537118779578,0.0643274385806489,0.127877957334259,0.439685157432074,-0.202154352149372,-0.202154352150236,0.569758139092314,-0.569758139091187,0.243393824426185
1022.5664,1.00052264414572,-0.00326009089433016,0.960872044351336,-0.139425082649769,0.788731878349591,0.788731878346133,0.798139909654926,0.237689049828649,0.819077901644211,-2.92531814698047,1.28781121312629,-2.92531814698044,-0.206594666282057,-1.95826593538291,-1.29239268576401,-0.225983315042803,-1.1008533474137,-1.26130737664104,0.466667219458776,-0.985432801122455,0.466667219461307,-1.05468321587863,0.449374003549558,-1.00702002067979,-0.801921697019815,-1.35715562719099,-1.35715562719082,0.437949393798611,-0.437949393797045,0.361726997065921,-8.57376920842676e-05,0.764641891454759,0.391390895927114,-0.887742405627595,-1.29165794076746,-1.13478815924259,-0.0632651840989913,1.13302466022356,1.13302466022179,1.16912268697526,0.0296833812657635,1.97269202666604,0.0755253764979083,0.0365262689851028,0.0923954097520165,0.456594972545435,-0.232800668597167,-0.232800668598017,0.587955791307955,-0.587955791306854,0.246632517189388
1022.6688,0.980846418135354,0.0152712470904987,0.954140381883151,-0.102921808804799,0.826494519970919,0.826494519967462,0.757243402647125,0.258658648723945,0.793637464519068,-2.98099897400251,1.29015719269422,-2.98099897400249,-0.234775324772588,-1.95878293693415,-1.3160890229098,-0.270607887700762,-1.12108422868503,-1.33852068729674,0.482019375755764,-1.01667194222781,0.482019375758276,-1.06472041324328,0.451137398942104,-1.01994522178524,-0.808453460956674,-1.34625169965978,-1.34625169965962,0.48827833073807,-0.488278330736576,0.365563482191628,0.0127268777724399,0.785338613221901,0.408935609202087,-0.953573400975347,-1.365063189787,-1.21181530161234,-0.10301431623214,1.08451770838611,1.08451770838436,1.15946350443538,0.0234401321138318,1.94802442092807,0.0577906291132751,0.008869891368608,0.058956195651097,0.47398634217236,-0.262848182311569,-0.262848182312405,0.606460110087245,-0.606460110086166,0.248796034326311
1022.7712,0.961806778374593,0.034008909503744,0.948157354945781,-0.0668206408125989,0.864267562615526,0.864267562612071,0.716128844468366,0.279438219096224,0.767910881413793,-3.03552544416643,1.29324864015485,-3.03552544416641,-0.262197363189162,-1.95755499810625,-1.33815668106547,-0.315679446785941,-1.14119118904111,-1.41622275065244,0.497701467547001,-1.0487225118393,0.497701467549484,-1.07393345995525,0.452195542716995,-1.03255433805635,-0.814766032202566,-1.33322752461436,-1.33322752461422,0.537479601201391,-0.537479601199973,0.368962619988087,0.0270686642849169,0.807238965377006,0.427925914261773,-1.01915114547598,-1.43764537746916,-1.2883740101805,-0.142650762447078,1.03524045341899,1.03524045341726,1.15044186629618,0.0160362569868498,1.92279047780655,0.0422116021720642,-0.0185188112404851,0.0276772864992494,0.491849806486917,-0.292203970424947,-0.292203970425775,0.625257601684434,-0.625257601683387,0.249883421046615
1022.8736,0.943389496005457,0.0529235973503755,0.94288996808955,-0.0312231869150529,0.902026107764781,0.902026107761327,0.674853801224526,0.299934702416226,0.741902278685643,-3.08876822398604,1.29711213323083,-3.08876822398602,-0.288749489573829,-1.95449451834899,-1.35845310706612,-0.361114678386606,-1.16108796478656,-1.49422713940713,0.513645895046157,-1.08151832090279,0.513645895048619,-1.08222814941041,0.452508010003666,-1.04475780028147,-0.820873239435822,-1.31808576215771,-1.31808576215758,0.585458534975512,-0.585458534974167,0.371926970530883,0.0428630716005046,0.830279395238873,0.448287756009095,-1.08431692976454,-1.50923020191603,-1.3642794325116,-0.182133627322703,0.985267114871071,0.985267114869347,1.1420921533449,0.00746072350522985,1.89703159670512,0.0288258842165117,-0.0455170537085035,-0.00133094933888188,0.510174693095492,-0.32077619466657,-0.320776194667388,0.644332032456576,-0.644332032455558,0.249896283137718
1022.976,0.925579796513866,0.0719860153948752,0.938304703138282,0.00376531805334814,0.939745401167131,0.939745401163676,0.633477061950873,0.32005380720555,0.71561624132118,-3.14059797978174,1.30176999309867,-3.14059797978172,-0.314322422958837,-1.94951772725233,-1.37683960985343,-0.406828118585625,-1.18068733227895,-1.57234371901193,0.529783974968679,-1.11499139988581,0.529783974971118,-1.08951081968672,0.452037269717083,-1.05646302025208,-0.826789532656978,-1.30083533114314,-1.30083533114302,0.632124848068923,-0.632124848067645,0.374457642100587,0.0600298053309059,0.854392037043154,0.469942840549606,-1.14891529423437,-1.57964725775812,-1.43935060548915,-0.221422818687365,0.934674531487594,0.934674531485897,1.13444696410287,-0.00229512870128217,1.87078954272175,0.0176639556607675,-0.0720027806819361,-0.0279651726764552,0.528949040145614,-0.348474588100182,-0.348474588100994,0.663664606458858,-0.663664606457879,0.248838575160248
1023.0784,0.908362411785732,0.0911668414900982,0.9343675490903,0.0380361759869769,0.977400622928052,0.977400622924597,0.592058528690069,0.339700243119071,0.689057833173694,-3.19088536288547,1.30724018474605,-3.19088536288544,-0.338809389647614,-1.94254499532988,-1.39318195045488,-0.452732270670023,-1.19990148032674,-1.65037912877017,0.546046157396003,-1.14907200595775,0.546046157398424,-1.09568861437406,0.450748761846994,-1.06757468480463,-0.832529984958407,-1.28149143384264,-1.28149143384253,0.677392916426495,-0.677392916425275,0.37655425229436,0.0784852873348613,0.879504914997724,0.492808988857094,-1.21279454294434,-1.64873050853831,-1.51341102458498,-0.260479056273872,0.883541743889508,0.883541743887827,1.12753702396635,-0.0132376282220035,1.8441062404253,0.00874918400334416,-0.0978553095907677,-0.0521294736960852,0.548159565988248,-0.375210966503024,-0.375210966503828,0.683234203735598,-0.683234203734648,0.246716382377212
1023.1808,0.891721590576879,0.110436726242471,0.93104401197541,0.0714774448188328,1.0149667158356,1.01496671583214,0.550659070074259,0.358778010081538,0.66223261261834,-3.23950102923592,1.31353622648964,-3.23950102923589,-0.362106617421071,-1.93350111117124,-1.40735091099091,-0.498737738650098,-1.21864239293869,-1.72813729373583,0.562362242659535,-1.18368865545444,0.562362242661934,-1.10066975715365,0.448610964227029,-1.0779950847677,-0.838110268297749,-1.26007550377894,-1.26007550377884,0.721181998303766,-0.721181998302586,0.378214866413938,0.0981431176374165,0.905542183267381,0.516800510173343,-1.27580721396584,-1.71631869490758,-1.58628915718876,-0.299263859813225,0.831949597758765,0.831949597757101,1.12139109058906,-0.0253708050672493,1.81702357122819,0.00209784628942228,-0.122955977153377,-0.0737357490713983,0.567791682329153,-0.400899767830883,-0.400899767831683,0.703017671627442,-0.703017671626529,0.243537713960062
1023.2832,0.875641067140551,0.129766321413848,0.928299103367306,0.103974214455247,1.05241825648364,1.05241825648018,0.509340337519811,0.377190730979271,0.635146637108768,-3.28631569083016,1.3206671141221,-3.28631569083013,-0.384113817229966,-1.92231552031424,-1.41922283138076,-0.544753373209521,-1.23682224055921,-1.80541996060544,0.578661591903236,-1.21876818179061,0.578661591905609,-1.10436384571979,0.445595454959852,-1.08762447911104,-0.843546609728453,-1.23661507865441,-1.23661507865432,0.763416412743843,-0.763416412742711,0.379435913653173,0.118914533615489,0.932424400044153,0.541828591374327,-1.33781050421288,-1.7822556854998,-1.65781890058901,-0.337739526045437,0.779980368927093,0.779980368925445,1.11603583757722,-0.0386963881248702,1.78958318481136,-0.00228083035475681,-0.147188781594804,-0.0927040597208674,0.58782954234108,-0.425458624344327,-0.42545862434512,0.722990163015956,-0.72299016301508,0.239312313084908
1023.3856,0.860103993196384,0.149126333370377,0.926097310110573,0.135408939983065,1.08972936870166,1.0897293686982,0.468164548287267,0.39484201058419,0.607806451730226,-3.33120019825067,1.32863726442323,-3.33120019825063,-0.40473464517036,-1.90892252647273,-1.42868010812945,-0.590686429398963,-1.25435377503978,-1.88202725254563,0.594873325816702,-1.25423581990503,0.594873325819054,-1.1066821710841,0.441676978328855,-1.09636149307374,-0.848855735979621,-1.21114360999735,-1.21114360999727,0.804025686736271,-0.80402568673523,0.380212085095964,0.140708866114767,0.96006882932532,0.567801698856146,-1.39866665101026,-1.84639078158426,-1.72783998997639,-0.375869104925429,0.727717409485427,0.72771740948379,1.11149570878442,-0.0532137507491639,1.76182633435742,-0.00438461636837351,-0.170441013255546,-0.108962970475176,0.608256108661454,-0.448808959296714,-0.448808959297498,0.743125505656433,-0.743125505655594,0.23405147823807
1023.488,0.845092844265607,0.168487595645278,0.924402551965707,0.165661833454854,1.12687367514972,1.12687367514625,0.427194245498727,0.411635800232341,0.58021906039664,-3.37402565685156,1.33744648399708,-3.37402565685152,-0.423877137994265,-1.89326146072731,-1.43561165280243,-0.636442733695798,-1.27115072579822,-1.95775823756072,0.61092650882112,-1.29001531640659,0.610926508823446,-1.10753806590156,0.436833518902423,-1.10410354955119,-0.854054812002221,-1.18370022774662,-1.18370022774655,0.842944684373982,-0.842944684372987,0.380536225060591,0.163433992475049,0.988389759485811,0.594625987341506,-1.45824327197456,-1.9085789855586,-1.79619836095649,-0.413616385011045,0.675244811307645,0.67524481130603,1.10779275231147,-0.0689198128816633,1.73379373891227,-0.0042182181095616,-0.192603868236202,-0.122449870700895,0.629053221930643,-0.470876586255253,-0.470876586256029,0.763396571329637,-0.763396571328838,0.227767885068624
1023.5904,0.830589314996413,0.187821156919964,0.923178138813168,0.1946113150097,1.16382428126572,1.16382428126225,0.386492046256145,0.427476754080851,0.552391882404164,-3.4146635838362,1.34708996802232,-3.41466358383616,-0.441454119642767,-1.875276827474,-1.43991331313504,-0.681926856739906,-1.28712819640463,-2.0324115048104,0.626750320853523,-1.32602905994925,0.626750320855823,-1.10684727907081,0.431046383206311,-1.11074733039088,-0.859161376436929,-1.15432947877868,-1.15432947877862,0.880113727524366,-0.880113727523411,0.380399235005933,0.186996783241549,1.01729882624121,0.622205707509096,-1.51641366458173,-1.96868124194652,-1.86274647044974,-0.450945893977725,0.622647077404282,0.622647077402697,1.10494645215685,-0.0858089233525323,1.7055254695211,-0.00179320749770766,-0.213573044186509,-0.133111275870258,0.65020165370753,-0.49159228811975,-0.491592288120518,0.783775613661467,-0.783775613660703,0.220475403221774
1023.6928,0.816574215734307,0.207098386601261,0.922386740646891,0.222134524002844,1.20055378748735,1.20055378748388,0.346120384802835,0.442270576966763,0.524332700446403,-3.45298611680977,1.35755832857907,-3.45298611680973,-0.457383581638937,-1.8549184338075,-1.44148826295443,-0.727042290981188,-1.30220306091568,-2.10578574726567,0.642274224086346,-1.36219822379208,0.642274224088614,-1.1045283686992,0.424300284572842,-1.11618926140303,-0.86419327284761,-1.12308105269459,-1.12308105269453,0.915478709168066,-0.915478709167136,0.379790009332096,0.211303536550571,1.04670533021111,0.650443604173354,-1.57305706874029,-2.02656465735402,-1.92734358073844,-0.487822911255959,0.570008788392002,0.570008788390449,1.1029735709762,-0.103872743117053,1.67706085241063,0.00287205799243192,-0.233249318769716,-0.140903109536494,0.671681138908446,-0.510892361331858,-0.510892361332614,0.80423456049892,-0.804234560498188,0.212188911756882
1023.7952,0.803027376480552,0.226291101872472,0.921990378824263,0.248107892387019,1.23703432941932,1.23703432941585,0.3061412536054,0.455924374325984,0.496049607831537,-3.48886628207473,1.36883764739528,-3.4888662820747,-0.471589039240225,-1.8321415027744,-1.44024736274067,-0.771691635347413,-1.31629435962585,-2.1776803532295,0.657428132847878,-1.39844291379554,0.657428132850121,-1.10050310415971,0.416583424699874,-1.12032601557777,-0.869168569053055,-1.09000949974587,-1.09000949974582,0.948991191136086,-0.948991191135189,0.378695414788966,0.236260393780998,1.07651654216524,0.679241297997227,-1.62805889523845,-2.08210269843336,-1.98985600869609,-0.524213481184644,0.517414257958303,0.517414257956788,1.10188800730101,-0.123100139800871,1.64843838027661,0.00975252770273368,-0.251539103086608,-0.145790958449842,0.693470395770178,-0.528719118957981,-0.528719118958723,0.82474526151645,-0.824745261515752,0.202924121107937
1023.8976,0.789927559567776,0.24537171555729,0.921950439416372,0.272407781810472,1.27323764754187,1.2732376475384,0.266615942715714,0.468347013830828,0.467550960033017,-3.52217832485065,1.3809095465986,-3.52217832485064,-0.483999860391312,-1.80690676681584,-1.43610948626312,-0.815776788200413,-1.32932369394844,-2.24789600816459,0.672142591719116,-1.43468231876439,0.672142591721341,-1.09469686649557,0.407887562081199,-1.12305503124453,-0.874105453969614,-1.05517393971853,-1.05517393971848,0.980608474373198,-0.980608474372325,0.377100316541728,0.261773730930285,1.10663799125811,0.708499645329356,-1.68131091895848,-2.13517535907788,-2.05015733650315,-0.560084414978125,0.464947180561827,0.464947180560331,1.10170066626609,-0.143477100322203,1.61969562066241,0.0188165641610139,-0.268354951367404,-0.147750287799696,0.715547146789952,-0.545021352728633,-0.545021352729363,0.845279696221636,-0.845279696220972,0.19269740811991
1024,0.77725238107278,0.26431340002534,0.922227705534991,0.294911180207689,1.30913518697698,1.30913518697351,0.227604775809387,0.479449501204954,0.43884533039233,-3.55279810063941,1.39375127228025,-3.55279810063941,-0.494551563562898,-1.77918053926928,-1.42900180882254,-0.859199147660762,-1.341215618629,-2.31623530403362,0.686348962532622,-1.47083486334272,0.686348962534828,-1.08703903624647,0.398208056236938,-1.12427504327242,-0.879022106920628,-1.01863775984667,-1.01863775984663,1.01029363392387,-1.01029363392301,0.374987649672321,0.287750521006877,1.13697373522281,0.738119073084887,-1.73271143344411,-2.18566928826687,-2.10812857833475,-0.595403277806743,0.412690274457006,0.412690274455532,1.10241934578088,-0.164986669433905,1.59086911368188,0.0300260607479123,-0.283616007347727,-0.146766607028472,0.737888150056402,-0.559754760242402,-0.559754760243122,0.865810150303644,-0.865810150303016,0.181525667351981
1024.1024,0.764978242391874,0.283090262597626,0.922782407016456,0.315496447167168,1.34469822562313,1.34469822561967,0.189166841215167,0.489145367686408,0.409941467233234,-3.58060352757129,1.40733578588649,-3.58060352757131,-0.503186083389065,-1.74893476601981,-1.41886005739214,-0.901859816893563,-1.35189802846052,-2.38250335047029,0.699979617341162,-1.50681836381157,0.69997961734335,-1.07746336480211,0.387543884079458,-1.1238866262596,-0.883936543603516,-0.980468302779932,-0.98046830277989,1.03801551775789,-1.03801551775702,0.372338534096995,0.314098663055547,1.16742661519858,0.767999887661678,-1.78216536520349,-2.23347787714012,-2.16365830124951,-0.630138365015732,0.360724917201484,0.360724917200025,1.10404864115036,-0.187608916245029,1.56199426117719,0.0433365653202583,-0.297248378307094,-0.142835585608814,0.760469242622784,-0.572882347064381,-0.572882347065089,0.886309370644413,-0.886309370643812,0.169426179955495
1024.2048,0.753080276038529,0.30167752981836,0.923574289635129,0.334044094351282,1.37989802701585,1.3798980270124,0.151359717244379,0.497351067002522,0.380848250715744,-3.60547509858276,1.42163185682867,-3.6054750985828,-0.509852004820087,-1.71614706190387,-1.40562872588777,-0.943659810855825,-1.36130253785913,-2.44650838167842,0.712968132158528,-1.54255018402857,0.712968132160691,-1.06590833687535,0.37589763677105,-1.121792750151,-0.888866449136972,-0.940736549123528,-0.940736549123486,1.06374871447376,-1.06374871447288,0.369132430298441,0.340727274321561,1.19789849906075,0.798042557976931,-1.8295843494414,-2.27850131164075,-2.21664270367816,-0.664258675440644,0.309130770125365,0.309130770123907,1.10658986752168,-0.211320920943377,1.53310521713548,0.0586974083176851,-0.309185444135338,-0.135963124681223,0.783265391004139,-0.584374811815594,-0.584374811816289,0.906750704915062,-0.906750704914489,0.156416501510316
1024.3072,0.741532312296118,0.320051738898398,0.9245627091145,0.350437587788383,1.41470601261668,1.41470601261322,0.114239191364352,0.503986382718703,0.351574649459505,-3.62729644956744,1.43660414864277,-3.62729644956751,-0.514504767175303,-1.68080073695584,-1.38926125963021,-0.984500261016096,-1.36936485274619,-2.50806235391734,0.725249474854137,-1.57794738482661,0.72524947485626,-1.05231753885267,0.363275511696349,-1.11789935129311,-0.893829010494671,-0.899516801927473,-0.899516801927433,1.08747349859128,-1.08747349859038,0.365347333266908,0.367546944212356,1.22829051671363,0.828147973668404,-1.87488677102735,-2.32064660096262,-2.26698565787306,-0.697733891439715,0.257985391041348,0.257985391039892,1.11004099655285,-0.236096770261482,1.50423478939843,0.0760518414995301,-0.319368123543971,-0.12616539247451,0.806250740109423,-0.594210917753032,-0.594210917753708,0.927108224505664,-0.927108224505116,0.142514370158941
1024.4096,0.730306873360767,0.338190934309476,0.925706754990812,0.364564161729892,1.44909394674998,1.44909394674654,0.0778589743336938,0.508974847257709,0.322129678564222,-3.6459549789403,1.45221329337895,-3.6459549789404,-0.517106840535548,-1.64288481789518,-1.36972021411499,-1.02428261573921,-1.37602513390436,-2.5669815297678,0.736760180047171,-1.61292685917767,0.736760180049278,-1.03664004720347,0.349687312219256,-1.11211592365421,-0.898840759185445,-0.856886382310023,-0.856886382309982,1.10917576362806,-1.10917576362718,0.360960003948102,0.394469950255626,1.25850328960732,0.858217679725431,-1.9179977744959,-2.35982759097969,-2.31459872233459,-0.730534374699896,0.207363835120885,0.207363835119428,1.11439660161192,-0.26190755077065,1.47541435849413,0.0953371943121601,-0.32774512017722,-0.113468831034242,0.829398651555817,-0.602377848585757,-0.602377848586414,0.947356827114845,-0.947356827114324,0.127737635577929
1024.512,0.71937519723667,0.356074866865337,0.926965404752121,0.376315638371701,1.48303412798788,1.48303412798444,0.0422704149360363,0.512244172110347,0.292522363735736,-3.66134251371557,1.46841595432084,-3.66134251371569,-0.517627876279597,-1.60239406944589,-1.34697739221614,-1.06290883509282,-1.38122835138004,-2.62308704714563,0.747438508043678,-1.64740545030665,0.747438508045759,-1.01883084411847,0.335146461205342,-1.10435613316617,-0.903917430182789,-0.812925344741546,-0.812925344741505,1.12884695286423,-1.12884695286341,0.355946239426592,0.421410436165615,1.28843715308265,0.888154086895946,-1.9588492456816,-2.39596496862494,-2.35940112823537,-0.762631183017034,0.157338244908708,0.157338244907253,1.11964780344378,-0.288721330238735,1.44667381389684,0.116485046391164,-0.334273154384717,-0.0979101391900627,0.852681724036072,-0.608871536768342,-0.608871536768975,0.967472315635997,-0.9674723156355,0.112104208800643
1024.6144,0.708707287037841,0.373685193053193,0.928297702596403,0.385589252780115,1.51649958572812,1.51649958572469,0.00752222467326139,0.513726688849453,0.262761719540799,-3.67335601312656,1.48516488140686,-3.67335601312671,-0.51604483030577,-1.55932901567211,-1.32101395871761,-1.10028158001855,-1.38492463096544,-2.67620547388761,0.757224594290467,-1.68130005746166,0.757224594292524,-0.998851257123278,0.319670025580296,-1.0945384538665,-0.90907383540274,-0.767716215305193,-0.76771621530515,1.14648399363506,-1.14648399363428,0.350281181160722,0.448284552526934,1.31799236524515,0.917860654921014,-1.99737976633196,-2.42898626037119,-2.40131974194083,-0.793996105678317,0.10797743497279,0.107977434971335,1.12578221043425,-0.31650312292114,1.41804150378091,0.139421407715132,-0.338917168002911,-0.0795362318271503,0.87607179138636,-0.613696943054664,-0.61369694305527,0.987431449705114,-0.98743144970465,0.0956320346868351
1024.7168,0.698271975835368,0.391005672505181,0.929662951927209,0.392288484108364,1.54946428588735,1.54946428588394,-0.0263397799054594,0.513359799067002,0.232856747590814,-3.68189829570661,1.50240896522476,-3.68189829570678,-0.512342055731914,-1.51369595611322,-1.29182052652393,-1.13630439742022,-1.38706959436272,-2.72616935137882,0.766060601527034,-1.71452773664397,0.766060601529059,-0.976669410581696,0.303278742736695,-1.08258681967093,-0.914323743874706,-0.721343748416091,-0.721343748416043,1.16208923376495,-1.16208923376424,0.343939654238426,0.475010563462741,1.34706929575415,0.947242047037295,-2.03353454141402,-2.4588258249417,-2.44028900343485,-0.82460170742697,0.0593464824549693,0.0593464824535172,1.13278385348193,-0.345214842233422,1.3895441934747,0.164066897064405,-0.341650483847159,-0.0584041728518305,0.899539898608706,-0.61686826700033,-0.616868267000908,1.00721196662702,-1.00721196662659,0.0783390935621446
1024.8192,0.688036995137583,0.408022359004004,0.931020907086859,0.396323890074407,1.58190334800708,1.58190334800368,-0.0592729147857663,0.511086424949347,0.20281645267657,-3.68687877346521,1.52009329922286,-3.6868787734654,-0.506511364164142,-1.46550697123018,-1.25939721065332,-1.17088190347613,-1.38762469233894,-2.77281772969931,0.773890880752893,-1.74700579891188,0.77389088075488,-0.952260673513145,0.285997038668658,-1.06843128153752,-0.919679760872628,-0.673894693873001,-0.673894693872945,1.17567037459221,-1.17567037459158,0.336896525959556,0.501508927288025,1.37556859439979,0.976204260022017,-2.06726529713345,-2.4854248371626,-2.47625083805298,-0.854421369887466,0.011506337469225,0.0115063374677863,1.1406331167804,-0.374815245175622,1.36120702866802,0.19033690946172,-0.342454906275403,-0.0345810820869963,0.923056259023664,-0.618409077662934,-0.618409077663486,1.02679256833808,-1.02679256833768,0.0602434407645418
1024.9216,0.677969037429183,0.424723777723284,0.932331950303802,0.39761393545395,1.61379326930043,1.61379326929704,-0.0912378463059311,0.506855446485158,0.172649869585528,-3.68821417615145,1.53815926798725,-3.68821417615165,-0.498552057840038,-1.41477991649445,-1.2237536515452,-1.20391996785533,-1.38655752501372,-2.8159966927613,0.780662135699084,-1.77865190269498,0.780662135701051,-0.925608090278995,0.267853029779201,-1.05200866027771,-0.925153203683593,-0.625457569149457,-0.625457569149395,1.18724039671779,-1.18724039671726,0.329127074026483,0.527702363102541,1.40339134642539,1.0046547398261,-2.09853014832816,-2.50873126006169,-2.5091545395105,-0.883429325485374,-0.0354865352942356,-0.0354865352956666,1.14930666403569,-0.405259868815466,1.33305350215996,0.218141764632847,-0.341320759509614,-0.00814402142815395,0.946590194962093,-0.618352361080349,-0.618352361080875,1.0461528694346,-1.04615286943422,0.0413632886792095
1025.024,0.668033807271735,0.441101082151521,0.933557244247193,0.396085802503401,1.64511214646224,1.64511214645886,-0.122198789438296,0.500622110330502,0.142366092934424,-3.6858292512435,1.55654468071298,-3.68582925124371,-0.48847093734171,-1.36153840909114,-1.18490901385426,-1.23532590266682,-1.38384213959393,-2.8555598701064,0.786323581186433,-1.80938413529366,0.786323581188372,-0.896702785455149,0.248878502098068,-1.03326319013182,-0.930753977459363,-0.576122436988555,-0.576122436988485,1.19681747849988,-1.19681747849947,0.320607359248394,0.553515915044851,1.4304392224743,1.03250249318695,-2.1272934383633,-2.52869980749202,-2.53895662749978,-0.911600685939185,-0.0815804779516279,-0.0815804779530491,1.15877736236922,-0.436500958487417,1.3051054283427,0.247386834100185,-0.338246874051842,0.0208201311681151,0.97011006555417,-0.616740485100032,-0.616740485100533,1.06527330347015,-1.0652733034698,0.0217171301824008
1025.1264,0.658196058665132,0.457148187338022,0.934658855760171,0.391676171902709,1.67583988547944,1.67583988547608,-0.152123687176375,0.492348398192775,0.111974303401058,-3.67965743418076,1.57518395373214,-3.67965743418099,-0.476282293099173,-1.30581181420792,-1.14289197154736,-1.26500865979626,-1.37945929740046,-2.89136893313329,0.790827088818069,-1.83912108126162,0.790827088819977,-0.865544337326315,0.229108862807878,-1.01214715142739,-0.936490457155,-0.525980692138186,-0.525980692138104,1.20442490955578,-1.20442490955543,0.311314599894227,0.578877019336249,1.45661462705328,1.05965819999494,-2.15352556018186,-2.54529190369858,-2.56562068895391,-0.938911470517214,-0.126728923107198,-0.126728923108614,1.16901421003961,-0.468487390608209,1.27738293150569,0.277972651197817,-0.333240541324166,0.0522148114437947,0.993583190902429,-0.613625086830944,-0.613625086831418,1.08413499350021,-1.08413499349987,0.00132389888369024
1025.2288,0.648419619480521,0.47286187843952,0.93559985087913,0.38433196466499,1.70595839110327,1.70595839109992,-0.180984371704637,0.482003347620501,0.0814837862143563,-3.66964149277891,1.59400832791593,-3.66964149277915,-0.462007892210699,-1.24763524011874,-1.0977406941456,-1.29287903775644,-1.37339670659522,-2.92329407412874,0.794127317519019,-1.86778187794633,0.794127317520874,-0.832141115136616,0.208583059140179,-0.988621491484637,-0.942369380359739,-0.475124862767604,-0.475124862767511,1.21009100151117,-1.2100910015109,0.301227545996913,0.603715570847968,1.48182084669435,1.08603432524708,-2.17720276985847,-2.55847564491155,-2.58911721384477,-0.965338639386591,-0.170890643464846,-0.170890643466257,1.17998227372143,-0.501164596026119,1.24990444918223,0.309795012049517,-0.326317455820743,0.0859338979196009,1.01697578627534,-0.609066891561774,-0.609066891562225,1.10271960072795,-1.10271960072762,-0.0197968419723911
1025.3312,0.638667406573003,0.488241893803902,0.936344364109222,0.374011038300123,1.73545173000335,1.73545173000002,-0.20875670560782,0.469563324610064,0.050903943139004,-3.65573415129121,1.61294610482196,-3.65573415129147,-0.44567697063565,-1.18704955054626,-1.04950284731732,-1.31884989695318,-1.3656492202162,-2.95121446629364,0.796181831202252,-1.89528626167952,0.796181831204056,-0.796510574938611,0.187343459044142,-0.962656433364531,-0.948395751957548,-0.423648431163688,-0.423648431163582,1.21384899680202,-1.21384899680182,0.290326854130787,0.627963983399503,1.50596219992582,1.11154522852647,-2.19830700304896,-2.56822576499513,-2.60942343463251,-0.990860135909435,-0.214029973357809,-0.214029973359202,1.19164263962717,-0.534474491852377,1.22268674652786,0.342745076586459,-0.317501653903546,0.121861843077664,1.04025291868284,-0.603135471514296,-0.603135471514725,1.12100916640931,-1.121009166409,-0.0416246940948015
1025.4336,0.628901434855872,0.503290981140623,0.936857644159161,0.360682833750061,1.76430626478856,1.76430626478524,-0.235420698635319,0.45501225574235,0.0202443057368466,-3.63789869317069,1.63192289614627,-3.63789869317097,-0.427326234610201,-1.12410139807914,-0.998235613180508,-1.34283638167961,-1.3562190002137,-2.97501870311593,0.796951210851378,-1.92155461186816,0.796951210853128,-0.758679507621284,0.165435688889434,-0.934232068993729,-0.95457275611511,-0.371645674594169,-0.371645674594049,1.21573697240993,-1.2157369724098,0.278595464268146,0.651557241590799,1.52894419289889,1.13610727178504,-2.21682569996291,-2.57452360430168,-2.62652317368256,-1.0154549369271,-0.256117005434931,-0.256117005436298,1.20395238264239,-0.56835543106059,1.195744935662,0.376709479830458,-0.306825446277722,0.159873817937128,1.06337849357005,-0.59590894808977,-0.595908948090176,1.13898596008452,-1.13898596008424,-0.0641382164616383
1025.536,0.619082819465887,0.518014924523676,0.937106073812894,0.34432897078136,1.79251075914879,1.79251075914549,-0.260960595977843,0.438341832043967,-0.0104854404658985,-3.61610953442298,1.65086189030351,-3.61610953442326,-0.40699986964693,-1.0588432779323,-0.944005728546328,-1.36475614818753,-1.34511564730986,-2.99460521606563,0.796399169793074,-1.94650800183493,0.796399169794776,-0.718684231944003,0.142908426872548,-0.903338927523217,-0.960901666114702,-0.319211522164105,-0.319211522163971,1.21579772923271,-1.21579772923267,0.266018977695819,0.674432945799049,1.55067368432019,1.15963892818251,-2.2327516368553,-2.57735707688569,-2.64040669547442,-1.03910310399326,-0.297127760756383,-0.297127760757727,1.21686455839911,-0.602742179840018,1.16909249417436,0.411570464597326,-0.294329332737397,0.199835887370724,1.08631527635589,-0.587473636069873,-0.587473636070262,1.15663234562691,-1.15663234562665,-0.0873147279506783
1025.6384,0.609171766244863,0.532422539353838,0.937057157449454,0.32494378803808,1.82005645573049,1.82005645572721,-0.285364937451347,0.419551690497373,-0.04127541742047,-3.59035275802895,1.66968414110167,-3.59035275802925,-0.384749555286823,-0.991333600791214,-0.886889538862253,-1.38452960000361,-1.33235629469778,-3.00988267044213,0.794492678206074,-1.97006826322838,0.794492678207744,-0.676570726832567,0.119813154786746,-0.869978506645404,-0.967381741543268,-0.266441419558927,-0.266441419558776,1.2140786545437,-1.21407865454374,0.252586030782256,0.696531352386237,1.57105906171316,1.18206089412737,-2.24608275743378,-2.57672062986664,-2.65107055624241,-1.06178582863681,-0.337044330192304,-0.337044330193623,1.23032822478779,-0.637565932157538,1.14274128034135,0.447206044845448,-0.280061884701071,0.24160523361471,1.10902495424258,-0.577923629735472,-0.57792362973584,1.17393067615012,-1.17393067614988,-0.111130127498037
1025.7408,0.599127547057181,0.546525633278591,0.936679471542654,0.302534821210791,1.84693712745008,1.84693712744681,-0.30862659010726,0.398649568880534,-0.0721155059712679,-3.56062660389075,1.68830887583626,-3.56062660389106,-0.360634487918198,-0.921636785042929,-0.826973069950005,-1.40208013054589,-1.31796566548778,-3.02077033936706,0.791202098363374,-1.99215806547255,0.791202098365019,-0.632394700225244,0.0962038745015647,-0.834163754305982,-0.974010106717251,-0.213431191954843,-0.213431191954677,1.21063154801175,-1.2106315480119,0.238288657054413,0.717795408925457,1.5900104312986,1.20329620558772,-2.25682199980875,-2.5726151931844,-2.65851744692496,-1.08348547224629,-0.375854988179224,-0.37585498818051,1.24428849889089,-0.672754368034185,1.11670154585757,0.483490206525488,-0.264079585360741,0.285030440581889,1.13146824308773,-0.56736033702051,-0.56736033702086,1.19086322616184,-1.19086322616163,-0.135558732336811
1025.8432,0.588908462541288,0.560338933092312,0.935942580656293,0.27712320969519,1.87314910074956,1.87314910074631,-0.330742758181986,0.375651426585513,-0.102995294345248,-3.52694191127973,1.70665381037355,-3.52694191128005,-0.334721416803962,-0.84982336924356,-0.764352122294057,-1.41733436947152,-1.30197609975927,-3.02719845626435,0.786501329093505,-2.01270100626269,0.786501329095127,-0.586221596966528,0.0721367995837206,-0.795919490739959,-0.980781610613699,-0.160276896009848,-0.160276896009662,1.2055124081972,-1.20551240819743,0.223122629836648,0.738170782846096,1.60743982718458,1.22327036071759,-2.26497711912053,-2.56504812445991,-2.66275603103209,-1.10418560822387,-0.413554281034755,-0.413554281035999,1.25868665203272,-0.708231758573686,1.09098194629544,0.520293154022572,-0.246446626734385,0.329951846905039,1.15360503693416,-0.555891965300793,-0.555891965301124,1.2074121599586,-1.20741215995841,-0.160573130906951
1025.9456,0.578471800625851,0.573879978506433,0.934816927539134,0.248744020189144,1.8986912468524,1.89869124684917,-0.351714974448121,0.350581526857786,-0.133904029553593,-3.48932250844041,1.72463545783507,-3.48932250844074,-0.307084696948314,-0.775970145924627,-0.699132391526625,-1.43022242940355,-1.28442755939108,-3.02910854847634,0.780367958309328,-2.0316217070064,0.780367958310936,-0.538126554470457,0.0476700354534476,-0.755282766291743,-0.987688672260318,-0.107074655147908,-0.107074655147702,1.19878118203335,-1.19878118203372,0.207087779920702,0.757605883493474,1.62326144755526,1.2419114527325,-2.27056050870234,-2.55403315743859,-2.6638007824599,-1.1238710749067,-0.450143093152139,-0.450143093153343,1.27346024302177,-0.743919117741013,1.0655895494217,0.557481612626987,-0.227234668087651,0.376201974622798,1.17539458928274,-0.543632950334028,-0.54363295033434,1.22355952356304,-1.22355952356288,-0.186144047927115
1026.048,0.567773801258993,0.587168983919818,0.933273708121077,0.21744647680311,1.92356493553973,1.92356493553652,-0.371549074938207,0.323472478020093,-0.164830574650353,-3.4478055421788,1.74216942571113,-3.44780554217915,-0.277806360522052,-0.700160319177631,-0.631429617933107,-1.44067815367046,-1.26536761517472,-3.02645375678814,0.772783423557798,-2.04884590667713,0.772783423559381,-0.488194317222059,0.0228632615532953,-0.71230315393875,-0.994721115050377,-0.0539204763317867,-0.0539204763315602,1.19050148146033,-1.19050148146083,0.190188287588381,0.776051880149721,1.63739192308949,1.25915031709358,-2.27358902519261,-2.53959036277078,-2.66167183045139,-1.14252804371083,-0.485628699263315,-0.485628699264485,1.28854328732719,-0.779734395172991,1.04052984561879,0.594919197562763,-0.206522557720451,0.423606042026713,1.19679571481188,-0.530703314738533,-0.53070331473883,1.23928724486422,-1.23928724486408,-0.212240222971646
1026.1504,0.556769636892658,0.600228670845826,0.931284742344845,0.183294092127274,1.9477739469493,1.9477739469461,-0.390255154209613,0.294365232468292,-0.195763369967332,-3.40244174206073,1.75917070285899,-3.40244174206108,-0.246976209426125,-0.622483688427056,-0.561369768499399,-1.4486393668979,-1.24485141767197,-3.01919914459038,0.76373318062244,-2.06430054650294,0.763733180624007,-0.436519118211765,-0.00222257322936539,-0.667042973886967,-1.0018659891933,-0.000910046692308154,-0.000910046692060525,1.1807402679565,-1.18074026795712,0.172432952720059,0.793462718662041,1.64975061909206,1.27492069519451,-2.27408382491514,-2.52174612791723,-2.65639481983006,-1.16014410113769,-0.520024813546335,-0.520024813547463,1.3038664574111,-0.815592699023903,1.01580676786273,0.632466859304132,-0.184396015061442,0.471982571558058,1.21776700716455,-0.517227948486061,-0.517227948486339,1.25457713527625,-1.25457713527613,-0.238828306638253
1026.2528,0.545413415548796,0.613084074724156,0.928822349859569,0.146364700739665,1.9713243400757,1.97132434007251,-0.407847494226385,0.263309044147583,-0.226690391894456,-3.35329561325312,1.77555393669735,-3.35329561325349,-0.214691931683978,-0.543036857158217,-0.489089253029295,-1.45404812763778,-1.22294165315525,-3.00732199675867,0.753206881783251,-2.07791383857121,0.753206881784789,-0.383204528266444,-0.0275255370822884,-0.619577445317026,-1.00910737356705,0.051861495541964,0.0518614955422322,1.1695675001094,-1.16956750011016,0.153835447582518,0.809795135330517,1.66025997002394,1.28915941314793,-2.27207021459095,-2.5005331588139,-2.64800078984215,-1.17670833726965,-0.553351639394663,-0.553351639395751,1.3193573093458,-0.85140654059168,0.991422724729188,0.66998341112152,-0.160947262028546,0.52114410505078,1.23826707365392,-0.503335805581751,-0.50333580558201,1.26941089448121,-1.26941089448112,-0.265872776977781
1026.3552,0.533658209463016,0.625762327841625,0.925859234595656,0.106750400799298,1.99422427876435,1.99422427876118,-0.424344460872329,0.230361384588309,-0.25759910391218,-3.30044554531348,1.79123369842371,-3.30044554531385,-0.181059240649892,-0.46192346065903,-0.414735170090494,-1.45685097978875,-1.19970848497406,-2.99081210421583,0.741198567930753,-2.08961531565335,0.741198567932287,-0.328363263639894,-0.0529829911231585,-0.569994760448821,-1.01642614110324,0.104299824643853,0.104299824644142,1.15705573682223,-1.15705573682314,0.134414553839554,0.825008661487039,1.66884584275705,1.30180657022733,-2.26757750870215,-2.47599049999306,-2.63652606429621,-1.19221143026261,-0.585635912847713,-0.585635912848764,1.33494053203456,-0.887086100136903,0.96737864116673,0.707326134312275,-0.136274583050667,0.570898034795404,1.25825478773826,-0.489159003033111,-0.489159003033354,1.28377011648865,-1.28377011648857,-0.29333587406162
1026.4576,0.521456108696387,0.638292416301549,0.922368376276938,0.0645574064481585,2.01648381491836,2.0164838149152,-0.439768366615383,0.195587811206518,-0.288476401715764,-3.24398381786377,1.80612473827173,-3.24398381786415,-0.146192031413717,-0.379254404021049,-0.338465573112085,-1.45699919916909,-1.17522947810849,-2.96967202736629,0.727706877722772,-2.09933586472313,0.727706877724298,-0.272116933059862,-0.0785318723783705,-0.518396075971917,-1.02379967386587,0.156311733496407,0.156311733496718,1.14327969155666,-1.1432796915577,0.11419438008745,0.839065612462784,1.67543792389551,1.31280573116143,-2.2606388791886,-2.44816356619721,-2.62201213911155,-1.20664571978273,-0.616910928811234,-0.616910928812248,1.35053821643681,-0.922539516982186,0.943673998435135,0.744351445562833,-0.110481795451434,0.621047547289098,1.2776895591176,-0.47483180573652,-0.474831805736741,1.29763628643837,-1.29763628643831,-0.321177546761112
1026.56,0.508758297348631,0.650704907007207,0.91832292393477,0.019905806340639,2.03811462639238,2.03811462638924,-0.454145299628447,0.159061773692025,-0.319308559768366,-3.18401648445058,1.82014224071442,-3.18401648445097,-0.110212546363073,-0.295148100377115,-0.260449744221555,-1.45444903218863,-1.14958950197823,-2.9439173300278,0.712735271398705,-2.10700774861999,0.71273527140022,-0.214595702282463,-0.104109003264625,-0.464895414216496,-1.03120152585891,0.207805485790644,0.207805485790978,1.12831573917257,-1.12831573917368,0.093204551922813,0.851931061354541,1.67997012687444,1.32210412030807,-2.251291188216,-2.41710417915286,-2.60450555771022,-1.22000526910065,-0.647216542099761,-0.647216542100748,1.36607014388182,-0.957673204728756,0.920306870528612,0.780915606276476,-0.083677629845813,0.671392661219195,1.29653162217137,-0.46048949388669,-0.46048949388689,1.3109907576908,-1.31099075769075,-0.349355405394965
1026.6624,0.495515150498049,0.663031642198344,0.913696087998274,-0.0270707821148816,2.05912970682916,2.05912970682603,-0.46750491704431,0.120864341583764,-0.350081185671582,-3.12066312030227,1.83320209603686,-3.12066312030266,-0.0732515397924858,-0.209730698875074,-0.180868461415657,-1.44916192529729,-1.12288060149506,-2.91357677336707,0.696292260042469,-2.11256461875289,0.696292260043973,-0.155937857752528,-0.129651442143948,-0.409619465443667,-1.03860104505344,0.258691211401969,0.258691211402325,1.11224138462808,-1.11224138462931,0.0714803648774504,0.863572805088665,1.68238101392146,1.32965281925872,-2.23957480469008,-2.38287060346915,-2.58405777288182,-1.23228591817984,-0.676599136704049,-0.676599136705009,1.38145409278926,-0.992392187266886,0.897273961990057,0.81687545233307,-0.0559750375666334,0.721731329272765,1.31474234279032,-0.446267128231775,-0.446267128231953,1.32381470696566,-1.32381470696563,-0.377824675999785
1026.7648,0.481676351427634,0.67530540250418,0.908461031171436,-0.0762256740273777,2.07954300686025,2.07954300685714,-0.479880198407177,0.0810838391798065,-0.380779185804573,-3.05405642523114,1.84522121062116,-3.05405642523154,-0.0354484276714941,-0.123136292263429,-0.0999142417383316,-1.44110474722621,-1.09520181811485,-2.87869245662836,0.678391625858495,-2.11594152103802,0.678391625859988,-0.0962892633177559,-0.155096880225737,-0.352707289059655,-1.04596297588268,0.308881333438196,0.308881333438576,1.0951347111937,-1.09513471119503,0.049062889965544,0.873961334786259,1.6826142264076,1.3354069710709,-2.22553341018901,-2.34552757251032,-2.560724996831,-1.24348532809763,-0.705111553424884,-0.705111553425817,1.39660616326012,-1.02660044913224,0.874570655227742,0.852089122876359,-0.0274904487824428,0.771860569394782,1.33228453786105,-0.432298240061853,-0.432298240062008,1.33608907004421,-1.3360890700442,-0.406538155598511
1026.8672,0.467191029484521,0.687559541653128,0.902590760499832,-0.127399701749787,2.09936902832752,2.09936902832442,-0.491307160047488,0.039815379284608,-0.411386747106739,-2.98434168259648,1.85611788072285,-2.98434168259688,0.00304859379362238,-0.0355070953600829,-0.0177915418802488,-1.4302500078322,-1.06665893891234,-2.83931989058555,0.659052616807137,-2.11707490008724,0.659052616808612,-0.0358027195448285,-0.180384079803178,-0.294309921614903,-1.05324706981776,0.35829100599794,0.358291005998346,1.0770738316638,-1.07707383166522,0.0259990218371866,0.883069824472785,1.68061891688364,1.33932599531324,-2.20921379945115,-2.30514629218268,-2.5345680397566,-1.25360301622361,-0.732812962533027,-0.732812962533926,1.41144112270613,-1.06020129951063,0.852191073540883,0.886416771974954,0.00165699355738631,0.821577595070457,1.34912279508097,-0.418713475822449,-0.418713475822579,1.34779445991168,-1.34779445991168,-0.435446170664316
1026.9696,0.452007919423658,0.699827596483159,0.896058023846123,-0.180421926119686,2.11862237461159,2.11862237460851,-0.501824540932069,-0.00283970611550501,-0.441887345217762,-2.91167608739959,1.86581225033371,-2.9116760874,0.0420824762427074,0.0530064124191431,0.0652831005249826,-1.41657607553524,-1.03736415885786,-2.79552799345547,0.638300100322766,-2.11590261152684,0.638300100324213,0.0253627595297525,-0.205453344587912,-0.234589901872922,-1.06040773431191,0.406838535926873,0.406838535927305,1.0581363652188,-1.05813636522029,0.002341463895273,0.890874150536098,1.67635017701291,1.34137381768817,-2.1906656792318,-2.26180441197773,-2.50565213667808,-1.26264038388194,-0.759768667730899,-0.759768667731768,1.42587277822524,-1.09309775703324,0.830128159316756,0.91972125527847,0.0313461983370358,0.8706809215739,1.36522378063765,-0.405639227637938,-0.405639227638039,1.35891107112496,-1.35891107112496,-0.464496541224759
1027.072,0.436075543245676,0.71214287707496,0.888835214923086,-0.235110470613787,2.13731726375914,2.13731726375607,-0.511473476909823,-0.0467745313882084,-0.472263790405724,-2.83622796197654,1.87422686655065,-2.83622796197696,0.0814873097522618,0.142245388799129,0.149081002846058,-1.40006739264593,-1.00743565320494,-2.74739900563904,0.616164665557492,-2.11236395728282,0.616164665558928,0.0870427405630845,-0.230247010103706,-0.173720714666354,-1.06739374711046,0.45444576510718,0.454445765107637,1.03839895344153,-1.03839895344308,-0.021851350095885,0.89735294957123,1.66976945589945,1.34151911555851,-2.16994146836773,-2.21558595687849,-2.47404676278787,-1.27060073870964,-0.786049827879486,-0.786049827880311,1.43981437898242,-1.12519296372389,0.808373761115825,0.951868786656905,0.0614548686607622,0.918971430749263,1.38055652838286,-0.393196285311503,-0.393196285311578,1.36941858133923,-1.36941858133924,-0.493634552787842
1027.1744,0.419342410952605,0.724538044464074,0.880894288353239,-0.291273463252484,2.15546701914445,2.1554670191414,-0.520297176123142,-0.0918774031674864,-0.502498314596506,-2.75817587351479,1.88128733533832,-2.75817587351521,0.121088395483767,0.232042591183376,0.233361376337166,-1.38071468688255,-0.976997061679876,-2.69502832249435,0.592682670107476,-2.10639976086145,0.592682670108877,0.149068222343303,-0.254709933245131,-0.111886146510357,-1.07414805218405,0.501038403662111,0.501038403662594,1.01793681528391,-1.01793681528553,-0.0465154042656368,0.902487717303211,1.66084496344596,1.33973557809164,-2.14709609821422,-2.1665812154137,-2.43982543514819,-1.27748930675853,-0.811733081780884,-0.811733081781667,1.45317904880345,-1.15639063196509,0.786918724592499,0.982729553357777,0.091860216807928,0.966253380508005,1.39509271168673,-0.381498548767514,-0.381498548767562,1.37929606452578,-1.37929606452579,-0.522802940186513
1027.2768,0.401757226183072,0.737044686314121,0.87220667808217,-0.348710057353283,2.17308356135801,2.17308356135498,-0.528340600157846,-0.138032624276278,-0.532572692365726,-2.67770766272794,1.88692306439901,-2.67770766272835,0.160702418433523,0.322222424942695,0.317871497223301,-1.35851517943712,-0.946176881975265,-2.63852424344401,0.567896231726919,-2.09795249585532,0.567896231728291,0.211266524057972,-0.278789953731884,-0.0492795478159642,-1.08060763989288,0.546546322483218,0.54654632248373,0.99682333214681,-0.996823332148459,-0.0715813409951161,0.906262948397998,1.64955205612273,1.33600217957697,-2.12218680756472,-2.11488657577848,-2.40306549335849,-1.28331321841962,-0.836900062569905,-0.836900062570642,1.46588024651688,-1.18659552232848,0.765752986185884,1.01217827158463,0.12243966714604,1.01233535176238,1.40880690461302,-0.370651837607337,-0.37065183760736,1.38852192631552,-1.38852192631554,-0.551941893149944
1027.3792,0.383269075643516,0.749692902751959,0.862743206888957,-0.407211496769648,2.19017692817873,2.19017692817571,-0.535650153855872,-0.185121328980586,-0.562468385157152,-2.59501939412791,1.89106806591234,-2.59501939412831,0.200137726984093,0.412601101272527,0.402347029183853,-1.33347279379698,-0.915107766106883,-2.5780076374187,0.541853164687999,-2.08696647188594,0.541853164689348,0.27346218855905,-0.302438305895677,0.0138969937500136,-1.0867035066616,0.590903824418722,0.590903824419264,0.975129655548776,-0.97512965555046,-0.0969748231988715,0.908666316155782,1.63587360827166,1.33030346697101,-2.09527292485952,-2.06060429701261,-2.36384784918889,-1.28808144868372,-0.861636795037673,-0.861636795038359,1.4778322486694,-1.21571394559423,0.744865670016842,1.04009466953543,0.153071572014848,1.05703113619197,1.42167683961762,-0.360752828408038,-0.360752828408034,1.3970738690081,-1.39707386900811,-0.580989100442624
1027.4816,0.363827585199681,0.762510912748091,0.85247397734034,-0.46656219828403,2.20675484343034,2.20675484342734,-0.542273389474833,-0.233022323336176,-0.592166700633225,-2.51031424041974,1.89366178871244,-2.51031424042012,0.239194714799415,0.502986918811968,0.486512501656342,-1.30559836889262,-0.883925717733051,-2.51361152774725,0.514606856834658,-2.07338807291307,0.514606856835976,0.335477883272981,-0.325609970316521,0.0774335563000468,-1.09236069067131,0.634049911981609,0.634049911982181,0.952924335838986,-0.952924335840673,-0.122617038284482,0.909688889546542,1.61980037522177,1.322629863505,-2.06641563192096,-2.00384220113437,-2.32225669599349,-1.29180470059209,-0.886032979473774,-0.886032979474403,1.48895064986063,-1.24365428254408,0.724245189089794,1.0663638983192,0.183635958278736,1.10016057612281,1.43368366362966,-0.351888142532916,-0.351888142532887,1.40492889337178,-1.40492889337179,-0.609879848660474
