time,S1-D1,S1-D8,S1-D9,S1-D15,S2-D1,S2-D2,S2-D3,S2-D9,S3-D1,S3-D2,S3-D16,S4-D2,S4-D3,S4-D5,S5-D3,S5-D4,S5-D5,S6-D2,S6-D5,S6-D17,S7-D6,S7-D7,S8-D6,S8-D7,S8-D18,S9-D3,S9-D4,S9-D9,S9-D11,S9-D19,S10-D8,S10-D9,S10-D10,S10-D11,S11-D8,S11-D10,S11-D20,S12-D10,S12-D11,S12-D12,S13-D4,S13-D11,S13-D12,S14-D10,S14-D12,S14-D21,S15-D13,S15-D14,S16-D13,S16-D14,S16-D22
1396.6336,0.72254877383027,-0.0156010758219913,0.497516751517474,-0.185643121653685,-1.38622126690104,-1.3862212669027,1.45668107985197,-0.203208819009564,1.10521997997378,0.15866466334662,-0.437801722718927,0.15866466334615,-1.89086122109474,-1.25472590003356,-1.98661855896863,0.211801618717676,0.0459976988236554,0.296151922671848,-0.240220392018854,0.0444871741245092,-0.240220392017775,0.590336645347662,-1.12420798324852,-0.279911510980501,-1.03038949568147,-0.145860767028314,-0.145860767028731,1.27286332030944,-1.27286332030984,-0.739337751491811,2.64636746515668,-0.214288484198129,2.48220184830587,1.55897732379438,0.112996123999716,1.23896295555453,-1.56416998282491,-0.554816583249771,-0.554816583251092,1.75106024203135,-0.431860291748777,1.66768298982845,2.02599158344542,-2.40513279095312,0.3007195725565,-0.140171856689057,-0.370008426777628,-0.370008426776221,-0.413673307763614,0.392667862232864,NaN
1396.736,0.686406381675253,0.0300928653051195,0.502579890540179,-0.170345565031195,-1.35432927428298,-1.35432927428459,1.36626881298712,-0.197141094787561,1.03329661097195,0.0998294130004319,-0.439426817850263,0.0998294129999609,-1.955149902823,-1.29268313824538,-2.05151620475676,0.17824321501807,0.0367157513774811,0.247508097028061,-0.236861604612419,0.0508102605838263,-0.23686160461134,0.580867368498128,-1.10701063733258,-0.27602586117202,-1.00782291059155,-0.168313018151488,-0.1683130181519,1.27213723869666,-1.27213723869704,-0.768030096523735,2.68368355074955,-0.208628429385156,2.52226291920102,1.62323773333036,0.170056909792571,1.31900488623674,-1.58063310945035,-0.573852011223341,-0.573852011224678,1.76809463158662,-0.42288448176588,1.69709289990376,2.03689478601894,-2.3921931971279,0.340801984382102,-0.118285579289479,-0.376803069083454,-0.376803069082091,-0.394727432030483,0.393443322410961,NaN
1396.8384,0.648113698402679,0.0756302631218362,0.506027083666843,-0.154605242837633,-1.32208338104198,-1.32208338104354,1.2745061429266,-0.190860761072684,0.960360966733008,0.0418156078014184,-0.439970071007038,0.0418156078009493,-2.01734585998697,-1.32861301286523,-2.11385570916454,0.143840151713051,0.0279955005456923,0.19832626026682,-0.233111577176479,0.0571840162854027,-0.233111577175405,0.570196955213282,-1.0891642114995,-0.272755595464925,-0.985449095443541,-0.189026200571272,-0.189026200571671,1.26920885120457,-1.26920885120494,-0.797550200148352,2.7193674253749,-0.201735467620742,2.56143456385186,1.68744143777784,0.227637973348131,1.39929167271644,-1.59519051858338,-0.593471932644802,-0.593471932646153,1.78323225812225,-0.414107808522083,1.7240289419471,2.04644914378814,-2.37762576518252,0.380723674307543,-0.0962738486538775,-0.38359310677886,-0.38359310677757,-0.376690997842946,0.394362694086985,NaN
1396.9408,0.607696769483257,0.120903869745337,0.507805124655866,-0.138554301666993,-1.28954547400018,-1.28954547400169,1.18151181927332,-0.184413540061566,0.886488331639156,-0.0153109718024144,-0.439379827652631,-0.0153109718028894,-2.07722886225669,-1.3623774353788,-2.17341021956737,0.108641173518129,0.019887352007875,0.148708933261337,-0.229015986482918,0.063541563613072,-0.229015986481844,0.558382036503089,-1.07069496080959,-0.270068555351456,-0.963329171365169,-0.207925998248413,-0.207925998248819,1.26406118327136,-1.26406118327172,-0.827821865541251,2.75328604361901,-0.193669232569084,2.59955095572523,1.75143410910943,0.285641551864632,1.47965279994573,-1.60780319795282,-0.613584583060621,-0.613584583061987,1.79645715291311,-0.405562270980227,1.74843994396806,2.05459448353681,-2.36143068550339,0.420369272597574,-0.0742511790397145,-0.390349386873033,-0.390349386871815,-0.359647310536753,0.395464703343633,NaN
1397.0432,0.565190032007305,0.165807510912474,0.507867422114721,-0.122324704058533,-1.25678123197491,-1.25678123197638,1.08741722007109,-0.1778422448988,0.811765944699205,-0.071488832355108,-0.437605808540946,-0.0714888323555938,-2.13457811689106,-1.39384166843463,-2.22995438842621,0.0727023317706485,0.0124411423754057,0.0987669929060241,-0.224624914556945,0.0698159786616434,-0.224624914555872,0.54548571430094,-1.05162894383608,-0.267926595853698,-0.941522194517574,-0.224945356181915,-0.22494535618233,1.25668264695576,-1.2566826469561,-0.858760270541523,2.78530637964965,-0.184493790884071,2.63644370394904,1.81505651230479,0.343963283012469,1.55991040107515,-1.6184372359611,-0.634091150122739,-0.63409115012411,1.80776109383623,-0.397280462985469,1.77028342833114,2.06126967336522,-2.34361037795876,0.45961826279916,-0.0523297916965131,-0.397038881980678,-0.397038881979511,-0.343673958854812,0.396787766663036,NaN
1397.1456,0.520636755859171,0.210236855286499,0.506174822615493,-0.106047782955954,-1.22385963446977,-1.22385963447118,0.992365722836273,-0.171186663285971,0.73629253689093,-0.1266610394856,-0.43459960697547,-0.126661039486094,-2.18917357028167,-1.42287498983861,-2.2832656283719,0.0360866052548086,0.0057058129883901,0.0486189314915915,-0.219992133384417,0.0759405239428093,-0.219992133383346,0.531577304280906,-1.03199195695828,-0.266285770281288,-0.920084990271579,-0.240024546344361,-0.240024546344775,1.24706702360648,-1.2470670236068,-0.890272813262548,2.81529583823055,-0.174277105488781,2.67194257103769,1.87814552201947,0.402492820518326,1.63988036502924,-1.62706394219863,-0.654886552034043,-0.654886552035414,1.81714339673384,-0.389295195407046,1.78952573969482,2.06641290149391,-2.32416940891863,0.498345638292784,-0.0306190088609104,-0.403624748295418,-0.403624748294315,-0.328842658286976,0.398369838302763,NaN
1397.248,0.474089389797889,0.254090166405441,0.502696355388527,-0.0898537782314944,-1.19085237737643,-1.19085237737779,0.896511904073353,-0.164483489864057,0.660177701432184,-0.180775484677429,-0.430315261308377,-0.180775484677927,-2.24079734082621,-1.44935142261072,-2.33312549340394,-0.00113658792392379,-0.000270977990422649,-0.00161006908949312,-0.215174320809789,0.0818488591938577,-0.215174320808716,0.516732034079993,-1.01180950217958,-0.265096579513037,-0.899071986570616,-0.25311123189313,-0.253111231893556,1.23521348798865,-1.23521348798894,-0.922260128374021,2.84312273890421,-0.163090512561324,2.70587625471183,1.94053530099176,0.46111456844027,1.71937363175954,-1.63365994601157,-0.675860362034417,-0.675860362035787,1.82461066512054,-0.38163909393276,1.80614214736226,2.06996202880589,-2.30311438000313,0.536422741888614,-0.0092246246555798,-0.410066453931819,-0.410066453930765,-0.315219164687015,0.400248237834424,NaN
1397.3504,0.425609817054371,0.297269045744115,0.497409907484842,-0.0738713533785894,-1.15783318451481,-1.15783318451612,0.800020558909913,-0.157766300794059,0.583541093382437,-0.233785143910464,-0.424709901267683,-0.233785143910958,-2.28923528134747,-1.4731505262949,-2.37932118228928,-0.038891988943514,-0.00544330761256619,-0.0517892522531297,-0.210230222525965,0.0874752258404968,-0.210230222524889,0.501030692400856,-0.991106783033838,-0.264304285956962,-0.878535042632902,-0.264160523675128,-0.264160523675574,1.22112667332039,-1.22112667332066,-0.954617271472648,2.86865688382995,-0.151008212023738,2.73807324426176,2.00205863050646,0.519708533978119,1.79819766778355,-1.63820726830913,-0.696897861721229,-0.696897861722596,1.83017650268997,-0.374344164905829,1.82011693500235,2.07185501303528,-2.28045379424655,0.573718276014785,0.0117517363135687,-0.416319968878021,-0.416319968877044,-0.302863256219648,0.402459462741009,NaN
1397.4528,0.375269520909174,0.339679172583546,0.49030283352985,-0.0582270885778507,-1.12487700883254,-1.1248770088338,0.70306554649397,-0.151065560937495,0.506511468132921,-0.285648314410591,-0.417744455487176,-0.285648314411081,-2.33427864258015,-1.49415822374828,-2.421647130371,-0.0770992089192626,-0.00976749460871556,-0.101783584277047,-0.205219787891918,0.0927546068264265,-0.205219787890833,0.484559212386051,-0.969908723727581,-0.263849303679894,-0.858523268832956,-0.27313501373095,-0.273135013731422,1.20481676520545,-1.20481676520569,-0.987235050363917,2.89177021836081,-0.138106757211519,2.76836276875111,2.06254835748353,0.578151288584904,1.87615808961206,-1.64069335725212,-0.71788118815211,-0.717881188153482,1.83386118068252,-0.367441337889832,1.83144345952946,2.07203039740571,-2.2561979096282,0.610099454945432,0.0322132557966908,-0.422338011387328,-0.422338011386404,-0.291828776407441,0.405038989716965,NaN
1397.5552,0.323149621031415,0.381231015135784,0.481372455460411,-0.0430449396380956,-1.09205913969679,-1.09205913969801,0.605828495384379,-0.144408655932808,0.429225591097414,-0.336328808915049,-0.409384388388486,-0.33632880891553,-2.37572576329888,-1.51226761191498,-2.45990661040539,-0.115673539316974,-0.0132026343124362,-0.151455197205717,-0.200203343682363,0.0976228708066095,-0.200203343681265,0.467408168111577,-0.948240016961902,-0.263667687748028,-0.83908283865525,-0.280004777079086,-0.280004777079565,1.18629961112141,-1.18629961112162,-1.02000142293935,2.91233759563292,-0.124464534437278,2.79657585357913,2.12183888942495,0.636317005128894,1.95306036533945,-1.64111107831993,-0.738690521604922,-0.738690521606293,1.83569125067742,-0.36096002819645,1.84012412455909,2.07042784484499,-2.23035858929634,0.645433249111854,0.0520685263586639,-0.428070347086294,-0.428070347085437,-0.282163723511633,0.408021069095441,NaN
1397.6576,0.269340682092919,0.421840436003377,0.470626331721612,-0.0284456484905022,-1.05945426646012,-1.05945426646129,0.508497436197958,-0.137819946024598,0.351827076002816,-0.385796082769497,-0.399600412353362,-0.385796082769967,-2.41338368032858,-1.5273796941873,-2.4939132350147,-0.154526832743181,-0.0157111288064775,-0.200664912847392,-0.195240890941444,0.102016914587499,-0.195240890940333,0.449672182783636,-0.926125212146689,-0.263691732528595,-0.820256803316546,-0.284747356354516,-0.284747356355004,1.16559684310724,-1.16559684310743,-1.05280282339308,2.93023765376355,-0.110161251792205,2.82254648259663,2.17976766368049,0.694078523594536,2.0287115126321,-1.63945866030434,-0.759205262470299,-0.759205262471655,1.83569910481995,-0.3549277903318,1.84617019984283,2.06698868960538,-2.20294915603551,0.679587656397589,0.0712320897456533,-0.433464134568436,-0.433464134567634,-0.273910363554771,0.411438515250564,NaN
1397.76,0.213942206618583,0.461429105053667,0.458082176075993,-0.0145461029858744,-1.0271355658248,-1.02713556582593,0.41126544209307,-0.131320836717747,0.274465221132432,-0.43402527018681,-0.388369114039509,-0.434025270187276,-2.44706958045578,-1.5394039983609,-2.52349228769045,-0.193568421101209,-0.0172591877464951,-0.249273786710315,-0.190391573237141,0.105874816324243,-0.190391573236015,0.431449284030383,-0.903588842647708,-0.263850646004509,-0.8020849227084,-0.287347756332877,-0.287347756333366,1.14273601780081,-1.14273601780097,-1.08552529901597,2.94535379281469,-0.0952774773558971,2.84611282971048,2.23617655133004,0.751308404635497,2.10292174065848,-1.63573961418081,-0.779305165173468,-0.779305165174809,1.83392249547188,-0.349370114884244,1.8496014484973,2.06165648149894,-2.17398425923136,0.712432940736919,0.0896248859212268,-0.438464307808531,-0.438464307807785,-0.267105344540542,0.415322493356097,NaN
1397.8624,0.157061831216841,0.499924693804578,0.443767422209345,-0.00145866886037165,-0.995173866776709,-0.995173866777809,0.314329337129619,-0.124929856281638,0.197293898399314,-0.480997114979381,-0.375673450928796,-0.480997114979843,-2.47661208487393,-1.54825908871062,-2.54848188080269,-0.232706047569873,-0.0178172875136285,-0.297144632714501,-0.185713296795135,0.109136005228511,-0.185713296793999,0.412840260716418,-0.880655568837103,-0.264071234143642,-0.784603519780261,-0.287798457850118,-0.287798457850616,1.11775076615179,-1.11775076615191,-1.11805543197981,2.95757520658831,-0.0798942493107417,2.867118502599,2.29091318772079,0.807879949001462,2.17550601780151,-1.62996264552443,-0.798871413672606,-0.798871413673928,1.83040402614282,-0.34431036562611,1.85044557947696,2.05437751062609,-2.14347976654583,0.743842796683953,0.107174608138628,-0.443013982239987,-0.443013982239309,-0.261779800456459,0.419702304224127,NaN
1397.9648,0.0988143433651507,0.537260898088898,0.42771854768741,0.0107094661194772,-0.963636919515387,-0.963636919516463,0.217888494113304,-0.118662733984557,0.120470516285004,-0.526697796584663,-0.361503103479239,-0.526697796585115,-2.5018523953489,-1.55387300009765,-2.56873397608729,-0.271846795472968,-0.0173605804982826,-0.344143501103047,-0.181262447610946,0.111741446023185,-0.181262447609797,0.393948059036776,-0.857350307387437,-0.264278539842497,-0.767845360073142,-0.28609943475848,-0.286099434758992,1.0906809284058,-1.09068092840588,-1.15028109223867,2.96679791004825,-0.0640927433376215,2.88541374873402,2.34383222358362,0.863668173789676,2.24628555556505,-1.62214157155662,-0.817787626788429,-0.817787626789742,1.82519062044105,-0.339769812486199,1.84873757774672,2.04510130935013,-2.11145269305546,0.773695414789794,0.123815968063096,-0.447054872466873,-0.447054872466279,-0.257959445472987,0.424605172834376,NaN
1398.0672,0.0393206442763054,0.573377361795718,0.409980294046015,0.021856897600029,-0.932588774840062,-0.932588774841117,0.122143712208825,-0.112532485218923,0.0441550454537141,-0.571118668881023,-0.345854693417153,-0.571118668881467,-2.52264532313418,-1.55618361010687,-2.58411529085645,-0.310897995067674,-0.0158692468968232,-0.390141080006717,-0.177093660296354,0.113633831400722,-0.177093660295192,0.374877225039016,-0.833698328681116,-0.264396416876586,-0.751839558820162,-0.282258148693277,-0.282258148693812,1.06157264575885,-1.06157264575889,-1.18209207372189,2.97292571426477,-0.0479539625721081,2.90085659655589,2.39479647861718,0.918550739859981,2.31508919187663,-1.61229524245198,-0.835940778170602,-0.835940778171901,1.81833297423982,-0.335767715346473,1.84451896346545,2.03378112770909,-2.0779211712249,0.801874435492732,0.13949087187783,-0.450527716523013,-0.450527716522485,-0.255664664578099,0.430056049972136,NaN
1398.1696,-0.0212932652283968,0.608219561211219,0.390604876780695,0.0318885362883137,-0.902089269356056,-0.902089269357097,0.0272961479692571,-0.106549519257257,-0.0314909228175714,-0.614255941470084,-0.328731891831759,-0.614255941470513,-2.53886020351045,-1.5551389474993,-2.59450809091376,-0.349768086622509,-0.0133287834130302,-0.435013989632527,-0.173259616539002,0.11475777566083,-0.173259616537831,0.355733382979888,-0.809725317782191,-0.264348045132496,-0.73661151910285,-0.276289500812354,-0.276289500812892,1.03047838574796,-1.03047838574796,-1.21338063826793,2.97587112093355,-0.0315584186115763,2.91331392263207,2.44367797175555,0.972408823265173,2.38175465037632,-1.6004474589819,-0.853222014750777,-0.853222014752063,1.80988500225345,-0.332321435890991,1.83783701639296,2.02037437589681,-2.0429044547599,0.828269789678202,0.154148504230713,-0.45337270595259,-0.453372705952121,-0.254910610155713,0.436077439574151,NaN
1398.272,-0.0828972504961531,0.641738683384181,0.369651225339905,0.0407160607110102,-0.872193605507622,-0.872193605508649,-0.0664537300822896,-0.100721785243423,-0.106305118096565,-0.656110335889202,-0.310145439801206,-0.656110335889626,-2.55038169161144,-1.55069742626906,-2.59981086120846,-0.388367420763022,-0.00973022478490088,-0.478645942523511,-0.169810865837982,0.115060006547506,-0.169810865836803,0.336622735897317,-0.785457401033979,-0.264056400914313,-0.722182902911404,-0.26821572645177,-0.268215726452329,0.997456886776966,-0.997456886776924,-1.24404196765096,2.97555612445292,-0.0149857879183005,2.92266244208572,2.49035880311493,1.02512792176264,2.44612965188243,-1.58662687518481,-0.869527364280337,-0.869527364281613,1.79990329827064,-0.329446575922691,1.82874399018721,2.0048430299467,-2.00642295039058,0.85277842735432,0.167745317023056,-0.455529919183295,-0.455529919182885,-0.25570731766646,0.442689264700844,NaN
1398.3744,-0.145357965394628,0.673891507831764,0.347184255871318,0.0482582973299598,-0.842952015802755,-0.842952015803795,-0.158907184043019,-0.0950549632753955,-0.180125552817271,-0.696686742094459,-0.290113094517731,-0.696686742094869,-2.55711043625857,-1.54282799565741,-2.59993884658014,-0.426608984505016,-0.0050702950082625,-0.520928753168176,-0.166795664251802,0.114489554070324,-0.166795664250615,0.317651575768809,-0.760921141465577,-0.263444696032864,-0.708571635573472,-0.258066227409454,-0.258066227410035,0.962573018448933,-0.962573018448849,-1.27397451875375,2.97191291589026,0.00168545332308972,2.92878961492651,2.53473187392599,1.07659858797801,2.50807286304005,-1.57086687751751,-0.884758332562096,-0.884758332563356,1.78844662753635,-0.327157147002138,1.81729633390918,1.98715400105719,-1.96849827900397,0.875304933174083,0.180244923466463,-0.456939755564633,-0.456939755564287,-0.258059853170489,0.449908779358735,NaN
1398.4768,-0.208539738403148,0.704640289652829,0.323274170396453,0.054441533382626,-0.814409506824829,-0.814409506825892,-0.249868251343878,-0.0895526981961436,-0.252791507762084,-0.735993889661796,-0.268659506498646,-0.735993889662192,-2.55896363446204,-1.53151020582673,-2.59482446422626,-0.464409048610931,0.000648512577604683,-0.561763190954701,-0.164259824287263,0.11299793206524,-0.164259824286061,0.298925792970204,-0.736143507047924,-0.262436797890149,-0.695791944349643,-0.245877346386611,-0.245877346387198,0.925897566154351,-0.925897566154216,-1.30308028725225,2.96488448276487,0.0183784025794634,2.93159445454162,2.57670144821826,1.12671708405743,2.56745468213993,-1.55320544006062,-0.898822395182025,-0.898822395183256,1.7755754600914,-0.325465767820521,1.8035539348892,1.96727946968246,-1.92915336907428,0.895762026571508,0.191617902838912,-0.457543373035064,-0.457543373034777,-0.261968497250415,0.457750524140093,NaN
1398.5792,-0.272305417125913,0.733952643012521,0.297995785460371,0.0591997615098348,-0.786605682899899,-0.786605682900967,-0.339144782170295,-0.0842168699159711,-0.324144530054832,-0.774044038772593,-0.245816034684265,-0.774044038772964,-2.55587547472098,-1.51673420017092,-2.58441759957734,-0.501687732505349,0.00741792339657892,-0.601059674454214,-0.162246569425732,0.110539306555278,-0.162246569424519,0.280550381661282,-0.711151818924546,-0.260957638759198,-0.68385443214849,-0.231692094849815,-0.231692094850419,0.887506954830923,-0.887506954830737,-1.33126499581546,2.95442509942434,0.0350181004910962,2.93098822615879,2.61618357202999,1.17538595676359,2.62415787343357,-1.53368496277631,-0.911633387801464,-0.911633387802677,1.76135154674302,-0.324383876488863,1.78757939778905,1.94519718468496,-1.88841258048923,0.914070949904679,0.201841526995114,-0.45728313467632,-0.457283134676082,-0.267428958103914,0.466226317042665,NaN
1398.6816,-0.336517157573734,0.761801426339316,0.271427900748555,0.0624748536777182,-0.759574645869579,-0.759574645870682,-0.426549452067393,-0.0790478930628753,-0.39402942546783,-0.810852689314312,-0.221620511263148,-0.810852689314669,-2.54779747767369,-1.49850065206839,-2.56868580139128,-0.538369480074651,0.0152239309892631,-0.638738804944716,-0.160796389711724,0.107070650241871,-0.160796389710497,0.262628946347987,-0.6859736899687,-0.258933617004739,-0.672766186362033,-0.215559847865812,-0.215559847866443,0.847482926740463,-0.84748292674023,-1.35843822506863,2.94050070552866,0.0515318894540952,2.92689502870201,2.65310636637655,1.22251453345132,2.67807806243588,-1.51235210174945,-0.923111802385046,-0.923111802386234,1.74583753784347,-0.323921943975195,1.76943737385027,1.92089072950752,-1.84630185341459,0.930161756312594,0.210899425031455,-0.456103062056328,-0.456103062056131,-0.274432596308849,0.475345267010695,NaN
1398.784,-0.401037142586852,0.788164632520468,0.243652720847497,0.064216666095183,-0.733344959828997,-0.733344959830123,-0.511900734345631,-0.074045038321928,-0.462295228399052,-0.846438303953635,-0.196116969199303,-0.846438303953976,-2.53469874318757,-1.47682066450687,-2.54761439259397,-0.574383443515747,0.024046899094337,-0.674731743094601,-0.159946894136428,0.102551889212629,-0.159946894135197,0.245263218121446,-0.660636964314123,-0.256292990268189,-0.662530921535746,-0.197536016280483,-0.197536016281132,0.805912183004014,-0.805912183003735,-1.38451350135973,2.92308917129354,0.0678497593285805,2.91925225758372,2.68741020345573,1.26801933936686,2.72912409961372,-1.48925759654433,-0.933185004425511,-0.933185004426679,1.72909664189384,-0.324089676489547,1.74919394896092,1.89434975755809,-1.80284887605986,0.943973510599908,0.218781204134163,-0.453949283973412,-0.453949283973238,-0.28296664076067,0.485113796427225,NaN
1398.8864,-0.465728213312835,0.813025291151877,0.214755346161933,0.0643830805833603,-0.707939666466213,-0.707939666467389,-0.595023825347156,-0.069206768812345,-0.528796140382787,-0.880822042445729,-0.169355341413921,-0.880822042446053,-2.51656611568672,-1.45171564585261,-2.52120651232508,-0.609663781872225,0.033861710318865,-0.708980442141321,-0.159732652139254,0.096946048006029,-0.159732652138014,0.228552585921678,-0.635169663941748,-0.252966260186127,-0.653149152989278,-0.177681699379127,-0.177681699379793,0.762885991619659,-0.76288599161934,-1.40940834825696,2.90218044866186,0.0839046823807925,2.90801094884317,2.71904777059011,1.3118244399516,2.77721829789155,-1.46445609350865,-0.941787390114549,-0.941787390115692,1.71119231618042,-0.324896195429226,1.72691609259173,1.86557019375694,-1.7580832627899,0.955454410029705,0.225482040051429,-0.45077046632855,-0.450770466328424,-0.293014385254631,0.495535664420213,NaN
1398.9888,-0.530454400991445,0.836371389486633,0.184823346380385,0.0629399889423941,-0.683376340294028,-0.683376340295253,-0.675751520215398,-0.0645310849704314,-0.593392431859353,-0.914027505971185,-0.141391135300895,-0.914027505971491,-2.49340427646753,-1.42321716634382,-2.48948309769224,-0.644149885449355,0.0446379590237225,-0.741437753164864,-0.160185015450366,0.0902193951365232,-0.160185015449117,0.212593644070862,-0.609599940872887,-0.248886546469252,-0.644618396206868,-0.156063316983938,-0.156063316984615,0.718499761939075,-0.71849976193872,-1.43304430403693,2.87777660868467,0.0996329370511454,2.89313600467093,2.7479840276556,1.35386171565389,2.82229655246123,-1.43800596021413,-0.948860499561659,-0.948860499562787,1.69218798126263,-0.326350187070395,1.70267116561065,1.8345543961029,-1.71203673302562,0.964561827476207,0.231002243999301,-0.446518211043745,-0.446518211043664,-0.304555369414917,0.506611991150067,NaN
1399.0912,-0.595081356258261,0.858195810595633,0.153946417457972,0.0598612273391102,-0.659667178470842,-0.659667178472132,-0.753925036261665,-0.0600158692754856,-0.655951300391316,-0.9460804912208,-0.112285083349652,-0.946080491221083,-2.46523576290556,-1.39136679317047,-2.45248280396499,-0.677786535442578,0.0563401870184724,-0.772067414971789,-0.161331915151541,0.0823415895359419,-0.161331915150288,0.197479757186553,-0.583956029680948,-0.243989945514845,-0.636933384819455,-0.132752222568185,-0.132752222568868,0.672852589409324,-0.672852589408932,-1.45534690914347,2.84989176720425,0.114974412580959,2.87460629773697,2.77419606812332,1.39407107472126,2.86430835356407,-1.40996908751933,-0.954353096705259,-0.954353096706375,1.67214675469609,-0.328460019836184,1.67652648361144,1.80131127693984,-1.66474328695515,0.971262282240546,0.235346810414272,-0.441147415130545,-0.441147415130516,-0.317565551414462,0.518341285084889,NaN
1399.1936,-0.659476686344999,0.878496277909877,0.122216107599189,0.0551284679568408,-0.636819122753272,-0.636819122754619,-0.829394779451046,-0.0556592201438223,-0.716347676187851,-0.97700875444527,-0.0821027706533093,-0.977008754445534,-2.43210090925895,-1.35621590191872,-2.41026185837262,-0.710524004973986,0.0689281582211883,-0.800843939408064,-0.16319763828683,0.0732858293874583,-0.163197638285573,0.183300648048103,-0.558266198385395,-0.238215867118293,-0.630086299633675,-0.107824303975717,-0.107824303976406,0.626046779637675,-0.626046779637252,-1.47624567203225,2.81855190476945,0.129872883369362,2.85241465367901,2.79767289687959,1.4324006033726,2.90321670184803,-1.38041067889311,-0.958221222625045,-0.958221222626146,1.65113120280322,-0.331233831604355,1.64854893186697,1.76585639057293,-1.61623938076448,0.97553134722135,0.23852495295117,-0.434616584394813,-0.434616584394831,-0.332017473770308,0.53071947195425,NaN
1399.296,-0.723510220688525,0.897275291227196,0.0897255878744347,0.0487310751786459,-0.614834011171726,-0.61483401117309,-0.902021046618712,-0.0514597642176926,-0.774464963333716,-1.00684178285614,-0.0509142405320441,-1.00684178285639,-2.39405770571633,-1.31782546687865,-2.3628938466418,-0.742318105379872,0.0823571669741942,-0.827752401335556,-0.16580259959646,0.0630290059910716,-0.165802599595199,0.170142018837977,-0.532558701465322,-0.231507342574505,-0.624067002106221,-0.0813595803490953,-0.0813595803498003,0.578187362232677,-0.578187362232223,-1.49567402332502,2.78379459270211,0.144276245717132,2.82656771921309,2.81841513754243,1.46880664916999,2.9389979335868,-1.34939902837264,-0.960428226741517,-0.960428226742606,1.62920311022507,-0.33467959017503,1.61880462846524,1.72821199317286,-1.56656410349183,0.977353500670571,0.240549640739442,-0.426888101441596,-0.426888101441648,-0.347880416671804,0.543739921225713,NaN
1399.3984,-0.787054228177411,0.914540041381031,0.0565694426047874,0.0406659333183605,-0.593708755860896,-0.593708755862278,-0.971674652968132,-0.0474169387208175,-0.830195703823274,-1.03561056604262,-0.0187935797379301,-1.03561056604286,-2.35118157783627,-1.2762658359429,-2.31046943695185,-0.773130183181917,0.0965783776260473,-0.852788141912433,-0.169163126876548,0.0515518637150359,-0.169163126875289,0.158085216023662,-0.50686174054786,-0.223811298915023,-0.618863266951399,-0.0534418016804719,-0.0534418016811837,0.529381602007301,-0.529381602006816,-1.51356926580432,2.74566864334364,0.158136714775092,2.79708573235601,2.8364346778438,1.50325383501751,2.97164146080522,-1.31700528861098,-0.960944777953993,-0.960944777955075,1.60642326476024,-0.338805124020367,1.58735863551765,1.68840707555149,-1.51575935059134,0.976721930953516,0.241437148974929,-0.417928454054342,-0.417928454054429,-0.365120532101771,0.557393466543286,NaN
1399.5008,-0.849983605224483,0.930302295507419,0.0228434606489283,0.030937250850358,-0.573435542662659,-0.573435542664052,-1.0382374739956,-0.0435312385624181,-0.883442152691668,-1.06334735875511,0.014181513428941,-1.06334735875535,-2.30356509080174,-1.23161649405359,-2.25309604652974,-0.802927078651779,0.111539197120224,-0.875956396885457,-0.173291269362912,0.0388391642114435,-0.173291269361651,0.147206944778917,-0.481203435742034,-0.215078796102105,-0.614461009745483,-0.024158053830099,-0.0241580538308173,0.47973851129063,-0.47973851129011,-1.52987252505613,2.70423370428302,0.171410982526303,2.7640022147503,2.85175425761898,1.53571500580022,3.00114943085151,-1.28330322927069,-0.959748855641432,-0.959748855642501,1.58285125259481,-0.343618113063904,1.55427472282729,1.64647736671904,-1.46386998432221,0.973638305004311,0.241206637126471,-0.407708432317375,-0.407708432317491,-0.383700957751985,0.571668421017723,NaN
1399.6032,-0.912176047894502,0.944578246852446,-0.0113555857463992,0.0195563437257872,-0.554002047872714,-0.554002047874091,-1.10160289193194,-0.0398044226720222,-0.934116753219131,-1.09008542809047,0.0479301730944756,-1.09008542809068,-2.25131757691796,-1.1839658143075,-2.19089744932011,-0.831681056356545,0.127183681672796,-0.897271861537566,-0.178194627730985,0.0248798557531665,-0.178194627729728,0.137579035108617,-0.455611806902515,-0.205265224707208,-0.610844505742886,0.00640162964842352,0.00640162964769429,0.429368366122465,-0.429368366121907,-1.54452870613882,2.65955981017254,0.184060338443073,2.72736360045262,2.86440700495504,1.56617111225752,3.02753631214569,-1.24836898461442,-0.956825720922792,-0.956825720923855,1.55854526034843,-0.349126030289258,1.51961518893823,1.60246530743121,-1.41094397250657,0.968112511529374,0.239879765387666,-0.396203296858121,-0.396203296858276,-0.403581916779751,0.586550592141328,NaN
1399.7056,-0.973512217230047,0.95738832361928,-0.0459301846278335,0.00654140096826686,-0.535391667632527,-0.535391667633884,-1.16167614006872,-0.0362396736241506,-0.982142503687329,-1.11585878009694,0.0823688184034961,-1.11585878009713,-2.19456467779685,-1.13341079196274,-2.12401331625845,-0.859369708307293,0.143452971795531,-0.916758198000856,-0.183876204529083,0.00966725269578535,-0.183876204527825,0.129268258285265,-0.430114762370773,-0.194330463557533,-0.607996595688024,0.0381446479278705,0.0381446479271341,0.378382230445612,-0.378382230445017,-1.55748646294127,2.61172689739717,0.196050753845703,2.68722880697159,2.87443592947883,1.59461103610605,3.05082841510168,-1.21228079006785,-0.952167870401705,-0.952167870402768,1.53356188496123,-0.355336034150603,1.48344074082136,1.55641999487087,-1.3570325005575,0.960162388725716,0.23748035370163,-0.383392911364105,-0.383392911364283,-0.424720813439755,0.602023302327773,NaN
1399.808,-1.03387590477693,0.968756957061349,-0.0807823553326287,-0.00808276265437925,-0.517583757187806,-0.517583757189132,-1.21837454764474,-0.0328417108340475,-1.02745321805067,-1.14070186498537,0.117411613826008,-1.14070186498555,-2.13344779653666,-1.08005675660032,-2.05259868229909,-0.885975824118768,0.160285741761644,-0.934447490161715,-0.190334284124811,-0.00680077721120174,-0.190334284123556,0.12233618611317,-0.404740093656458,-0.182239002998007,-0.60589887496217,0.0709762065141994,0.070976206513464,0.326891492294656,-0.326891492294024,-1.56869818454048,2.5608242865485,0.207352931198814,2.64366875415318,2.88189338121482,1.62103136159974,3.0710633574528,-1.1751187115921,-0.945774972448047,-0.945774972449116,1.50795595675404,-0.362254818883083,1.44581043148875,1.50839710188167,-1.30219005405119,0.949813447100363,0.234034079442596,-0.369261831608757,-0.369261831608972,-0.447072336328622,0.618067422437369,NaN
1399.9104,-1.09315420386441,0.978712317542563,-0.115813944891446,-0.0242849635384414,-0.500553880845648,-0.500553880846952,-1.27162769914943,-0.0296168670609481,-1.06999369696468,-1.16464926717729,0.152970937380259,-1.16464926717747,-2.0681234664173,-1.02401706082699,-1.97682334370582,-0.911487228888079,0.177618646730278,-0.950379661499546,-0.197562357525438,-0.024521634373369,-0.197562357524179,0.116839080401314,-0.379515475924527,-0.168960045068697,-0.604531864698452,0.104799686503113,0.104799686502388,0.275007414628949,-0.27500741462829,-1.57811999941585,2.50695014437966,0.217942320924375,2.59676584391953,2.88684047971783,1.64543610243114,3.08828948245445,-1.13696437573697,-0.937653780028252,-0.937653780029329,1.48178038172673,-0.369888428868138,1.40678165664946,1.45845877651148,-1.24647447120773,0.937098599348219,0.229568206422961,-0.353799353565628,-0.353799353565879,-0.470588578323338,0.634661424719285,NaN
1400.0128,-1.15123769174933,0.987286028913526,-0.150926946527383,-0.0420279163308075,-0.484274075844999,-0.484274075846287,-1.32137752524835,-0.0265731398968416,-1.10971982937866,-1.18773539083721,0.188957856923305,-1.18773539083739,-1.99876264704112,-0.965412745589834,-1.89687119304616,-0.935896600561518,0.195386755918812,-0.96460188012934,-0.205549100533386,-0.0434878388419527,-0.205549100532131,0.112827801078339,-0.354468473676827,-0.154467590602029,-0.603875166094034,0.139517010466944,0.139517010466237,0.222840703678153,-0.222840703677463,-1.5857117988944,2.45021094000302,0.227799107935441,2.54661341668877,2.88934651555363,1.66783639267836,3.10256523634064,-1.09790070810651,-0.927818012972361,-0.927818012973451,1.45508600517498,-0.378242036945417,1.36641021301022,1.40667352492984,-1.18994696344482,0.922057905877003,0.22411134113203,-0.336999533728661,-0.336999533728949,-0.495219174497435,0.651781455211427,NaN
1400.1152,-1.20802062839697,0.99451286600159,-0.186023841109766,-0.061268515992182,-0.468713132612641,-0.46871313261392,-1.36757833553336,-0.0237202233827279,-1.14659863576887,-1.20999414907875,0.225282612237743,-1.20999414907892,-1.92554995238734,-0.904372180366147,-1.81293949393807,-0.95920128130754,0.213523968363149,-0.977167971612967,-0.214278401830192,-0.0636869242477215,-0.214278401828938,0.110347727288489,-0.329626549486414,-0.138740516803907,-0.603907601158031,0.175029003577623,0.175029003576921,0.170501098395477,-0.170501098394752,-1.59143728511831,2.39072090430545,0.236908169722072,2.49331519438463,2.88948832444358,1.6882501445574,3.11395850679886,-1.05801168368587,-0.916288208017536,-0.916288208018638,1.42792149320528,-0.387319680382689,1.32475042041252,1.3531160735793,-1.13267209739366,0.904738337884278,0.217693217677022,-0.318861195831265,-0.318861195831607,-0.520911452780429,0.669401419715116,NaN
1400.2176,-1.26340117735205,1.00043043560556,-0.221007965136072,-0.0819581429011109,-0.453836892663356,-0.453836892664613,-1.41019679320145,-0.0210695195507165,-1.18060825299643,-1.23145865956649,0.261855096023473,-1.23145865956666,-1.84868280686237,-0.841030674786168,-1.72523809095868,-0.981403089598309,0.231963410842425,-0.98813784802012,-0.223729434335362,-0.0851013762592178,-0.223729434334114,0.109438690755226,-0.305017073577892,-0.121762644366876,-0.604607344408363,0.21123574871817,0.211235748717479,0.118096983033026,-0.118096983032267,-1.59526405034272,2.32860149275055,0.245259012200792,2.43698471382307,2.88734963229311,1.70670167064904,3.12254591983117,-1.0173820871685,-0.903091538681924,-0.903091538683045,1.40033322655776,-0.39712394644119,1.28185530917057,1.2978672026346,-1.07471772934949,0.885193556243571,0.210344516780604,-0.299387930963574,-0.299387930963962,-0.547610591563031,0.687493078067079,NaN
1400.32,-1.31728165221497,1.00507884129709,-0.255783907510893,-0.10404299866334,-0.439608565453357,-0.439608565454615,-1.44921182596653,-0.0186341300643916,-1.21173785615204,-1.25216094653336,0.298585324582277,-1.25216094653353,-1.76837052378464,-0.775530058876255,-1.63398854936601,-1.00250813269426,0.250637816209165,-0.997576954386969,-0.233876767806373,-0.107708613413409,-0.233876767805133,0.110134921691781,-0.280667333646639,-0.103522793423985,-0.605952049339948,0.248036936666674,0.248036936665989,0.0657350219491573,-0.0657350219483702,-1.59716368897431,2.26398084864974,0.252845694779553,2.37774475427523,2.88302036863674,1.72322126952556,3.12841209254531,-0.976097276923821,-0.888261607282228,-0.88826160728336,1.37236520246736,-0.407655603104893,1.23777687192525,1.24101354331306,-1.01615488391369,0.863483704187083,0.202096724836637,-0.278588088852002,-0.278588088852445,-0.575259782792879,0.706026146702973,NaN
1400.4224,-1.3695687894348,1.0085003351329,-0.290257933552748,-0.127464473267372,-0.425989064292046,-0.425989064293304,-1.4846144677913,-0.0164288289218459,-1.23998751338729,-1.27213164957837,0.335383891862674,-1.27213164957853,-1.68483330853218,-0.7080182302955,-1.53942322522711,-1.02252662045806,0.269479880883907,-1.00555573476511,-0.244690522615423,-0.131481010763815,-0.244690522614193,0.112465005980147,-0.256604545073685,-0.0840148296115344,-0.607918970152417,0.285332213814571,0.285332213813904,0.0135198146224286,-0.0135198146216087,-1.59711193394446,2.19699326774103,0.259666753872636,2.31572676541538,2.87659595005024,1.73784478121066,3.1316488466029,-0.934242944920951,-0.871838211657716,-0.871838211658865,1.34405894343509,-0.418913179483159,1.19256637414779,1.18264733292401,-0.957057571837439,0.839675209510744,0.192982035704951,-0.256474754600363,-0.256474754600886,-0.603800405349941,0.72496841472333,NaN
1400.5248,-1.42017404248055,1.01073896497437,-0.324338426957939,-0.152159532760398,-0.412937356982044,-0.412937356983303,-1.51640763271329,-0.0144700146999269,-1.26536797401616,-1.29139974132195,0.372162406878518,-1.2913997413221,-1.59830120292736,-0.638648668086257,-1.44178427690692,-1.04147268217328,0.288422601303002,-1.01214912007168,-0.256136562995758,-0.156385971609277,-0.256136562994541,0.11645185032705,-0.232855859731906,-0.0632377019083318,-0.610485075382776,0.323021528582835,0.323021528582179,-0.0384464303473531,0.0384464303482041,-1.59508880289624,2.12777866853429,0.265725126405004,2.25107030094358,2.86817654472223,1.75061312834742,3.13235439954786,-0.891904869751072,-0.853867087408379,-0.853867087409543,1.31545341698402,-0.43089251503424,1.14627470901849,1.12286612646107,-0.897502553074096,0.81384058508672,0.183033290004315,-0.233065711331967,-0.23306571133255,-0.633172215255699,0.744285878972749,NaN
1400.6272,-1.46901388480627,1.01184023159151,-0.357936331421548,-0.178061109167542,-0.400410821720623,-0.400410821721894,-1.54460583283713,-0.0127756385205188,-1.28790039796168,-1.30999225918433,0.408833919964522,-1.30999225918447,-1.50901299692655,-0.567579913995852,-1.34132263616586,-1.05936418169598,0.307399587097287,-1.01743603400174,-0.26817672962315,-0.18238605336787,-0.268176729621942,0.122112651099331,-0.20944836852123,-0.0411954726163388,-0.613627148863199,0.361005475016533,0.361005475015884,-0.0900642024627036,0.0900642024635736,-1.59107874261539,2.05648207157768,0.271028069933223,2.1839224590252,2.85786633726647,1.76157186246713,3.1306325591366,-0.849168668262318,-0.83439962241841,-0.834399622419593,1.28658497353628,-0.443586308172375,1.09895277465276,1.06177247140158,-0.837569065070775,0.786058210662889,0.172283938211153,-0.208383396673749,-0.208383396674412,-0.66331355244642,0.763942897070441,NaN
1400.7296,-1.51601010590592,1.01185076937709,-0.390965571657322,-0.205098477038611,-0.388365596625867,-0.388365596627148,-1.56923485910547,-0.0113651047704682,-1.30761604048016,-1.32793406026062,0.445313343781782,-1.32793406026073,-1.41721512886072,-0.494975023370458,-1.23829695438014,-1.07622252243881,0.326345348073128,-1.02149890923742,-0.280769113568039,-0.209439147404143,-0.280769113566842,0.12945886429916,-0.186409091802439,-0.0178973375593867,-0.617321875438455,0.39918563005268,0.399185630052056,-0.141236976934531,0.141236976935415,-1.5850707679466,1.98325308750056,0.275587074351244,2.11443732647216,2.84577280899138,1.77077072769381,3.12659193897291,-0.806119555584687,-0.813492541497636,-0.813492541498838,1.25748730560736,-0.456983691290603,1.05065185045571,0.999473555807649,-0.777338538613849,0.756412082094839,0.160768012353477,-0.182454858655882,-0.182454858656611,-0.69416155440023,0.783902348592853,NaN
1400.832,-1.56109008722159,1.01081805888784,-0.423343439032196,-0.233197609979873,-0.376756912999417,-0.37675691300073,-1.59033144129098,-0.0102591438586323,-1.32455590543974,-1.34524761100902,0.481517869955018,-1.34524761100911,-1.32316058526455,-0.421000988613058,-1.13297253304322,-1.09207243893275,0.345195556103574,-1.02442320905696,-0.293868369383312,-0.237498702658519,-0.293868369382123,0.13849617829591,-0.163764952601556,0.0066423686689582,-0.621545911972798,0.437464879882055,0.437464879881433,-0.191871480563373,0.191871480564276,-1.57705859594908,1.90824541231208,0.279417757952422,2.04277542095465,2.83200603789478,1.77826324367054,3.12034519965569,-0.762842120500511,-0.791207566475426,-0.791207566476649,1.22819142630214,-0.471069846279287,1.00142395609785,0.936080836652425,-0.716894313252662,0.724991523383621,0.148520096646997,-0.155311707941135,-0.155311707941934,-0.725652362037779,0.804125790025927,NaN
1400.9344,-1.60418704709245,1.00879017515862,-0.454990931583863,-0.262281518868741,-0.365539408643413,-0.365539408644727,-1.60794289785956,-0.00947965954771023,-1.33877037727797,-1.36195282562183,0.517367374654019,-1.3619528256219,-1.22710780939652,-0.345828141488565,-1.02562024824834,-1.10694177538206,0.363887285215838,-1.02629695201069,-0.30742605978449,-0.266513979865084,-0.307426059783314,0.149224493106943,-0.141542727518061,0.0324041894981837,-0.626275946199625,0.475747729611397,0.475747729610804,-0.241877933245685,0.24187793324661,-1.56704077531508,1.83161632920107,0.282539740342361,1.96910312612599,2.81667801963677,1.78410630665215,3.11200831580182,-0.719420119063682,-0.767611058201374,-0.767611058202622,1.19872566561064,-0.485825664644355,0.951322187203735,0.871709649298149,-0.656321351345744,0.691890864711523,0.135575293656353,-0.126990062170647,-0.126990062171516,-0.757721304695303,0.824573592832603,NaN
1401.0368,-1.64524024586264,1.0058155745428,-0.485833040341628,-0.292270578434368,-0.354667426152472,-0.354667426153782,-1.62212677935636,-0.00904955829185383,-1.35031883844345,-1.37806696531778,0.552784799686072,-1.37806696531783,-1.12931962883502,-0.269629544150307,-0.916515481742212,-1.12086124566043,0.382359229454006,-1.02721023330495,-0.321391025584901,-0.296430330823173,-0.321391025583733,0.161637907930475,-0.119768971988065,0.0593635891745654,-0.631488746835086,0.513940590243355,0.513940590242795,-0.291170263255626,0.291170263256573,-1.55502080755512,1.75352621716361,0.284976489849763,1.89359211861072,2.79990201502968,1.7883598114674,3.10169987461845,-0.675936288217019,-0.742773636757858,-0.742773636759128,1.16911568518809,-0.501227451187356,0.900401029613053,0.806478794555952,-0.595705940691823,0.657209094564648,0.121969186176812,-0.0975304854187402,-0.097530485419673,-0.790303056576439,0.845205063966155,NaN
1401.1392,-1.68419514778788,1.00194292044534,-0.515798979344405,-0.323082849115863,-0.344095303726754,-0.344095303728094,-1.63295049870694,-0.00899256963133037,-1.35926927143836,-1.3936046001058,0.587696492873829,-1.39360460010583,-1.03006220567357,-0.192580376869933,-0.805937065427422,-1.1338641640623,0.40055189743903,-1.02725473088506,-0.335709778283707,-0.327189502755917,-0.33570977828255,0.17572471659854,-0.0984699222707045,0.087491019543072,-0.637161208816162,0.551952040284205,0.551952040283666,-0.339666296371099,0.339666296372069,-1.54100725201787,1.67413806585918,0.286755149296249,1.81641878851604,2.7817919268886,1.79108629780244,3.08954041007901,-0.632472177984368,-0.716769771021605,-0.716769771022903,1.13938451129431,-0.517246669424342,0.848716653649001,0.740510100238545,-0.53513537637846,0.62104949395465,0.107737796379043,-0.0669779277321523,-0.0669779277331329,-0.823331761432918,0.865978553914876,NaN
1401.2416,-1.72100354357288,0.997220944566581,-0.544822364304442,-0.354634396423671,-0.333777660429273,-0.333777660430641,-1.64049093522087,-0.00933306177367975,-1.36569783659885,-1.4085776224956,0.622032495980067,-1.40857762249561,-0.929604003151378,-0.114857323083398,-0.694166235484464,-1.14598614215605,0.418407788595015,-1.02652318629484,-0.350326915690992,-0.358729966215178,-0.350326915689852,0.191467410765188,-0.0776713799781825,0.116752006440865,-0.643270396492702,0.589693063823954,0.589693063823431,-0.387287920596589,0.387287920597573,-1.52501380491268,1.593616994479,0.287906344734221,1.73776365396932,2.76246170152387,1.79235062180579,3.07565176969502,-0.589107995363893,-0.689677334984491,-0.689677334985809,1.10955258503793,-0.5338497313002,0.796327184810491,0.673927957071087,-0.474697620099885,0.583519255080298,0.092917543580713,-0.0353816634599044,-0.035381663460935,-0.856741125551741,0.886851556997537,NaN
1401.344,-1.75562364038397,0.99169833973033,-0.572841347346699,-0.386839604792766,-0.323669672969445,-0.323669672970856,-1.64483400585661,-0.0100958510284695,-1.36968841959249,-1.42299530373908,0.655726779350749,-1.42299530373909,-0.82821476133439,-0.0366379468360023,-0.581485588345118,-1.15726475737951,0.435871557785707,-1.02510886132254,-0.365185565041917,-0.390987267325868,-0.365185565040793,0.208842688729152,-0.0573985803378419,0.147107252945692,-0.649793584660443,0.627077267786544,0.627077267786059,-0.433961228084398,0.433961228085387,-1.50705934628421,1.51212977401563,0.288463977568424,1.65781076932226,2.74202475184641,1.79221965461292,3.06015651248141,-0.545922454522045,-0.661577130628255,-0.661577130629588,1.07963783092403,-0.550997837355323,0.743292945924414,0.606858829026209,-0.414480937372596,0.544729083918182,0.077545199975379,-0.00279522201694227,-0.00279522201800933,-0.890464486878962,0.907780811403942,NaN
1401.4464,-1.78802012479534,0.985423682300924,-0.599798712991094,-0.419611482368283,-0.313727340751694,-0.313727340753112,-1.64607421039909,-0.011306003021534,-1.37133215309679,-1.43686439368247,0.688717431544909,-1.43686439368247,-0.726164478250021,0.041899942366092,-0.468178033271755,-1.16773920243788,0.452890169001214,-1.023104980851,-0.380227860050305,-0.423894407823672,-0.380227860049193,0.227821464664501,-0.0376760403987002,0.178512757497809,-0.656708295925822,0.664021078986299,0.664021078985838,-0.479616634979194,0.479616634980201,-1.48716795527061,1.42984435449704,0.288464997459221,1.57674712704482,2.72059340497246,1.79076200966157,3.04317734132795,-0.502992635179662,-0.632552374058437,-0.632552374059776,1.04965574411293,-0.568646870864795,0.689676667724175,0.539430739029207,-0.354573511710682,0.504792789945838,0.0616578397201517,0.0307236966908094,0.030723696689701,-0.924434873981019,0.928722409335898,NaN
1401.5488,-1.8181642010038,0.978445381474611,-0.625641938829375,-0.452861957829869,-0.303907736644,-0.303907736645444,-1.64431416019336,-0.0129886260615228,-1.37072692084864,-1.45018926853646,0.720946812514186,-1.45018926853645,-0.623722392416416,0.120578939127687,-0.354525737763919,-1.17744991998258,0.469413034087626,-1.02060417079321,-0.395395453392987,-0.457382245842288,-0.395395453391891,0.248368875315246,-0.0185273883172284,0.210919943416111,-0.663992335399081,0.700443920790604,0.700443920790162,-0.52418898062068,0.524188980621699,-1.46536889693015,1.34692939567852,0.287949155847738,1.49476205173195,2.69827837380887,1.78804779429401,3.02483656689557,-0.460393852568335,-0.602688147484945,-0.602688147486292,1.01961949399036,-0.586747346863185,0.635543664062888,0.471772738139704,-0.295063043456477,0.463826867065285,0.0452927749465762,0.0651133295375779,0.0651133295364519,-0.958585063477549,0.949631922036854,NaN
1401.6512,-1.8460336017744,0.9708116501629,-0.650323222634943,-0.486502176117678,-0.294169243044452,-0.294169243045911,-1.63966409156453,-0.0151686605176952,-1.36797684696279,-1.46297212380536,0.752361673112135,-1.46297212380535,-0.521155961983277,0.199222702198012,-0.240809064782713,-1.18643822160754,0.485392133573629,-1.01769789248862,-0.410630054859509,-0.491379895282031,-0.410630054858428,0.270444288284266,2.48151526427242e-05,0.244275795492394,-0.671623827071305,0.736268369867515,0.736268369867104,-0.567617609130719,0.567617609131752,-1.44169658214141,1.26355379420513,0.286958745264405,1.41204658234741,2.67518824498047,1.78414837407579,3.00525559087584,-0.418199537110611,-0.572070831766574,-0.57207083176792,0.989540041604229,-0.605244420123016,0.580961964758414,0.404014374056642,-0.236036355342472,0.42195006322923,0.0284874756913127,0.100307984197177,0.100307984196034,-0.992847635690605,0.970464536704986,NaN
1401.7536,-1.87161256452041,0.962570492603583,-0.67379947380932,-0.520442802229615,-0.284471776378572,-0.284471776380065,-1.63224135745407,-0.0178706717427982,-1.36319176897978,-1.47521320194573,0.78291323910653,-1.47521320194572,-0.418729843137302,0.277656613359382,-0.127305510121459,-1.19474588963255,0.500782119408873,-1.01447587186745,-0.425873974255309,-0.525815099823401,-0.425873974254248,0.294001321201835,0.0179592484679056,0.278523001564852,-0.679581256734533,0.771420294330612,0.771420294330208,-0.609846436897162,0.609846436898204,-1.41619049906399,1.17988619904302,0.285538332524078,1.32879283934756,2.65142897644476,1.77913613965643,2.98455439796635,-0.37648111851409,-0.540787537128759,-0.54078753713011,0.959426270382103,-0.624077958591244,0.52600239885864,0.336285173968521,-0.17757902860483,0.379282932102383,0.011279475345557,0.136238200782175,0.136238200781013,-1.02715502426799,0.991175198991841,NaN
1401.856,-1.89489176335627,0.953769706477974,-0.696032264206672,-0.554594339135592,-0.274777004080269,-0.274777004081799,-1.62216989023971,-0.0211186557534109,-1.35648669348944,-1.48691104047106,0.812557258569706,-1.48691104047106,-0.316704880841471,0.355708419100816,-0.0142886578169984,-1.20241476112488,0.515540400462462,-1.01102552198589,-0.441070645472842,-0.560614568130746,-0.441070645471795,0.318987881727247,0.0352559846315269,0.313600100993073,-0.68784352340267,0.805828975985976,0.80582897598558,-0.650824008997205,0.65082400899826,-1.38889511401371,1.09609450933367,0.28373449349481,1.24519337540613,2.62710340584492,1.77308427383202,2.96285105606161,-0.335307909881246,-0.508925541490149,-0.508925541491505,0.929285131610456,-0.643182687423898,0.470738624959058,0.268714149222062,-0.119775080363168,0.335947365128253,-0.00629373615394941,0.172830944150026,0.172830944148835,-1.06143955444927,1.01171875415288,NaN
1401.9584,-1.91586819075597,0.944456897504829,-0.716987735213247,-0.588867458726413,-0.265048555086925,-0.265048555088454,-1.60957963268188,-0.0249358639856454,-1.34798123500412,-1.49806272525547,0.841254016923928,-1.49806272525548,-0.215337128528777,0.433208841615818,0.0979728275674501,-1.20948629331817,0.52962721132598,-1.0074313574444,-0.456165115169065,-0.595704266287894,-0.456165115168034,0.345346235973075,0.0518966268065927,0.349441644540344,-0.69638999653819,0.839427220781367,0.839427220780981,-0.690503546844175,0.69050354684524,-1.35985974184569,1.01234535016172,0.281595553565688,1.16144050770186,2.60231077751301,1.76606652249478,2.94026123266725,-0.294746989165605,-0.47657173941347,-0.476571739414836,0.899121809259479,-0.662488409795964,0.415247107887916,0.201429323475466,-0.0627066812618882,0.292066108681241,-0.0241948315049379,0.210009835738445,0.210009835737254,-1.09563346749538,1.03205008314908,NaN
1402.0608,-1.93454498814304,0.934679502088205,-0.736636463557605,-0.623173338877216,-0.255252221626901,-0.25525222162842,-1.59460594039884,-0.0293446477780884,-1.3377990412349,-1.50866413704301,0.868968328578165,-1.50866413704302,-0.11487691064858,0.509992152689224,0.209216158754571,-1.21600111371717,0.543005665617962,-1.00377440363808,-0.471104489114036,-0.631009667574313,-0.471104489113022,0.373013108840468,0.0678644254092227,0.385978369681605,-0.705200572968309,0.872151460999682,0.872151460999323,-0.728842987869888,0.728842987870957,-1.32913838863694,0.928803522449103,0.279171331178344,1.07772562650196,2.57714629773573,1.75815697332367,2.91689773692268,-0.254863076042867,-0.443812108018698,-0.443812108020058,0.868939909114108,-0.681920311774513,0.359607040414442,0.13455728443103,-0.00645391002632661,0.247762271458773,-0.0423867782615484,0.247695434592916,0.247695434591711,-1.12966893796562,1.05212423707271,NaN
1402.1632,-1.95093123139394,0.924484812619471,-0.754953293657103,-0.657423999406447,-0.245356149399291,-0.245356149400804,-1.57738896541491,-0.0343663204102732,-1.32606721158572,-1.51871018514671,0.895669512482058,-1.51871018514674,-0.015567938047813,0.585896709677333,0.31918532645254,-1.22199856673609,0.555641796502578,-1.00013161284356,-0.485838337372592,-0.666455963721569,-0.485838337371594,0.401919815348814,0.0831443798977046,0.423137392836136,-0.71425572745909,0.903941850472461,0.903941850472124,-0.765805016264149,0.76580501626522,-1.29678957058517,0.845631427669035,0.276512876761899,0.994238476260199,2.55170072478062,1.74942984327425,2.89287009272065,-0.215718403388908,-0.410731202236244,-0.410731202237598,0.838741671916571,-0.701399351342057,0.303900209539596,0.0682227583461053,0.0489054596708142,0.203158827423993,-0.0608329820721714,0.285805569354134,0.285805569352925,-1.16347809772966,1.07189657724186,NaN
1402.2656,-1.96504168207803,0.913920001298616,-0.771917146866035,-0.691532632822796,-0.235331013426683,-0.235331013428208,-1.55807303201117,-0.0400210355670571,-1.31291571760736,-1.52819502579466,0.921331352969431,-1.52819502579469,0.082353518205778,0.660765454609883,0.427631939723604,-1.22751627240204,0.567504586022256,-0.996575304568192,-0.50031906551726,-0.701968247035301,-0.500319065516276,0.431992419202921,0.0977233281017766,0.460842417188772,-0.723536553822393,0.934742351975041,0.934742351974718,-0.801357082787844,0.801357082788912,-1.26287611315625,0.762988477477651,0.273672201782775,0.911166416095241,2.52605999598868,1.73995927466969,2.86828414455462,-0.177372584559067,-0.377411691226122,-0.377411691227465,0.808528204895194,-0.720842719984373,0.248210812217911,0.00254820542137177,0.103296149300036,0.158378124434934,-0.0794974366625709,0.324255714461248,0.324255714460051,-1.19699307809202,1.0913229259145,NaN
1402.368,-1.97689651644136,0.903032139225629,-0.787510818232744,-0.72541392848234,-0.225150175892186,-0.225150175893712,-1.53680601262983,-0.0463276810018686,-1.29847683121814,-1.53711226334863,0.945932042788236,-1.53711226334868,0.178659394722363,0.73444637778169,0.534316006902478,-1.23258971004882,0.578565981225744,-0.993172647553563,-0.514502257447305,-0.737471673523738,-0.514502257446333,0.463151914772554,0.111590023950175,0.499013953265551,-0.733024796568889,0.964500814620817,0.964500814620524,-0.835471411367285,0.835471411368351,-1.22746493542596,0.681030507038202,0.270702000080737,0.828693679410956,2.50030489203575,1.72981913992705,2.84324169618997,-0.139882478922522,-0.343933941033678,-0.343933941035012,0.778299724522109,-0.740164357475675,0.192625231308635,-0.0623465641622352,0.156645552135285,0.113541412407857,-0.0983448760020666,0.362959402322041,0.362959402320857,-1.23014607226422,1.1103597268181,NaN
1402.4704,-1.98652104277285,0.89186820677864,-0.801720770900076,-0.758984389522181,-0.214789821080532,-0.214789821082077,-1.51373870463984,-0.0533037814998767,-1.28288455836428,-1.54545513308349,0.969454104073016,-1.54545513308354,0.273130551651649,0.806792949419386,0.639006663308694,-1.23725183892528,0.588800895396176,-0.989985199334983,-0.528346984508539,-0.772891611815992,-0.528346984507582,0.495314431840017,0.12473520393222,0.537569551924694,-0.742702873819623,0.993169038595966,0.993169038595693,-0.868124990023782,0.868124990024837,-1.19062682608491,0.59990921015039,0.267655367528304,0.74700065402114,2.47451073930272,1.71908285520575,2.81784018302698,-0.103302057024462,-0.310375641828478,-0.310375641829811,0.748055800023878,-0.759275493985286,0.137231785088247,-0.126344750032765,0.208883898219645,0.0687684003364229,-0.117340922221314,0.401828666126475,0.401828666125292,-1.26286941156659,1.1289642084299,NaN
1402.5728,-1.99394541522066,0.880475089259085,-0.814536937834923,-0.792162639259533,-0.204229062351159,-0.204229062352731,-1.4890242016064,-0.0609653984788796,-1.26627406641235,-1.55321666448583,0.99188428515318,-1.55321666448589,0.36555744652826,0.877664526619332,0.741482856588817,-1.24153276943179,0.598187198284407,-0.987068516591431,-0.541816067698536,-0.808153776199971,-0.54181606769759,0.528391466719167,0.137151644967024,0.576424054951,-0.752553889726929,1.02070282458898,1.02070282458874,-0.899299543305582,0.899299543306638,-1.15243621815032,0.51977160335507,0.264585521155116,0.666263190507737,2.44874715502167,1.70782320336926,2.79217238189403,-0.0676822644649917,-0.27681147639684,-0.276811476398173,0.717795578846484,-0.778085185096847,0.0821204622154257,-0.189332892340401,0.259944401330657,0.0241768421719215,-0.136452219686709,0.440774508827315,0.440774508826136,-1.29509564534629,1.14709453858302,NaN
1402.6752,-1.99920434862168,0.868899550826825,-0.825952538746488,-0.824869709465781,-0.193450016801054,-0.193450016802629,-1.46281725279561,-0.069327011676084,-1.24878109267973,-1.56038982601801,1.01321343597362,-1.56038982601807,0.455740774290859,0.946926743799104,0.841533999873391,-1.24545949741514,0.606705702043283,-0.984471845558894,-0.554876283552912,-0.84318434026588,-0.554876283551981,0.562290143242514,0.148834218249373,0.61548986971652,-0.762561632220677,1.04706200542654,1.04706200542633,-0.928981483342683,0.928981483343739,-1.11297096869939,0.440759515870595,0.261545510936104,0.58665193175166,2.42307784223356,1.69611216554488,2.76632616318502,-0.0330708833460193,-0.243312829956263,-0.243312829957593,0.687517971132945,-0.796500804146071,0.0273826502569699,-0.251201171417821,0.309763382167295,-0.0201178532412868,-0.155646547441179,0.47970739112521,0.479707391124037,-1.32675761969018,1.16470996034352,NaN
1402.7776,-2.00233683671383,0.857188184182971,-0.835963915554505,-0.857029302400258,-0.182437844297036,-0.18243784429863,-1.43527361632617,-0.0784013757446406,-1.23054133494672,-1.5669676567107,1.0334363681229,-1.56696765671076,0.543492072737674,1.01445189253818,0.938960595555936,-1.24905570971426,0.614340145984384,-0.98223789973287,-0.567498512313641,-0.877910033376459,-0.567498512312722,0.596913501018929,0.159779942936421,0.65467726835601,-0.772710552896913,1.07221046025553,1.07221046025534,-0.957161839392352,0.957161839393415,-1.07231214691952,0.363009102106455,0.258587916865007,0.508331656129876,2.39756043687268,1.68402075953376,2.74038428612169,0.00048760849040136,-0.209947545578248,-0.209947545579583,0.657221779613305,-0.814428472630302,-0.0268891392738745,-0.311843680733496,0.358280371167014,-0.0640029914215742,-0.174892910558177,0.518537731342544,0.51853773134136,-1.35778856181094,1.18177090833286,NaN
1402.88,-2.00338587600519,0.845387342348622,-0.844570383772774,-0.888568022378132,-0.171180748618696,-0.171180748620308,-1.40654942438054,-0.0881993563163479,-1.21168984154041,-1.57294339174947,1.05255170353479,-1.57294339174953,0.628634281492055,1.08011929318329,1.03357482295432,-1.25234166554637,0.621077179506506,-0.980402730978903,-0.579657829773088,-0.912258230681709,-0.579657829772181,0.632160802290505,0.169988041635315,0.693894705043284,-0.782985728959587,1.09611611759962,1.09611611759946,-0.98383617077074,0.983836170771807,-1.03054382817277,0.286650380412917,0.255764532084578,0.431460638432685,2.37224640050148,1.6716188853826,2.714424232426,0.0329521797317184,-0.17677972849422,-0.176779728495565,0.626905776769302,-0.831773433490323,-0.0806015519372842,-0.371158682496998,0.405438203159475,-0.10736894045744,-0.194161618523025,0.557176415715614,0.557176415714422,-1.38812218544467,1.19823911555316,NaN
1402.9824,-2.00239819591641,0.833543063549215,-0.85177409289978,-0.919415577064951,-0.159669940731229,-0.159669940732825,-1.37680057750468,-0.0987297568198072,-1.19236042085341,-1.57831058526749,1.07056171224195,-1.57831058526755,0.711002239330721,1.14381565601488,1.12520107835663,-1.2553341537906,0.626906342898246,-0.978995694377079,-0.591333543032951,-0.946157047930483,-0.591333543032057,0.667927848744481,0.179459996556542,0.733049142740106,-0.793372809285834,1.11875095584624,1.11875095584611,-1.00900446976133,1.0090044697624,-0.987752887922229,0.211806806219321,0.253126041281588,0.356190041899565,2.34718094910102,1.65897518127331,2.68851807290637,0.0642853872184657,-0.143869593577622,-0.143869593578974,0.59656873747856,-0.848440381650069,-0.133660682002037,-0.429048853268838,0.451183115315088,-0.150109455201325,-0.213424358744161,0.595535319567493,0.595535319566307,-1.41769282774871,1.21407772235861,NaN
1403.0848,-1.99942399250889,0.821700995147977,-0.857579889964155,-0.949504952002112,-0.147899568281156,-0.147899568282751,-1.34618217009793,-0.109999146323959,-1.17268507725913,-1.58306322728693,1.08747213842407,-1.58306322728698,0.790443113784138,1.2054354245141,1.21367645912837,-1.25804652037703,0.63182004773092,-0.978039498306101,-0.602509171903266,-0.979535442965378,-0.602509171902384,0.704107304867241,0.188199600646727,0.772046382222646,-0.803857947754675,1.14009100395753,1.14009100395741,-1.03267105742391,1.03267105742499,-0.944028789115487,0.138594885653689,0.250721706380692,0.282663354389432,2.32240301254648,1.64615689242632,2.66273236439561,0.0944535118977152,-0.11127334150398,-0.11127334150534,0.566209430370128,-0.864333757461442,-0.185972376471632,-0.485421520840038,0.495464852099604,-0.192121974354598,-0.232654267598151,0.633527833876117,0.633527833874926,-1.44643561443181,1.22925139065842,NaN
1403.1872,-1.9945166622165,0.809906313702121,-0.861995185657961,-0.978772562485263,-0.135866619308844,-0.135866619310443,-1.3148479364164,-0.122011696030348,-1.15279346843929,-1.58719584712508,1.10329201536028,-1.58719584712513,0.866816767569021,1.2648810894966,1.29885118864702,-1.26048875655019,0.63581355901252,-0.977550326716677,-0.613172380082886,-1.01232331694121,-0.613172380082017,0.740589030827251,0.196212994553299,0.810791389466985,-0.814427727906886,1.16011633723815,1.16011633723802,-1.05484447094817,1.05484447094926,-0.899463353225191,0.0671238310888297,0.248599070171944,0.21101587630727,2.29794522348607,1.63322975335276,2.63712807625852,0.123426683879457,-0.0790430516466246,-0.0790430516479813,0.535826564705448,-0.879358000335682,-0.237442552601462,-0.540188890848275,0.538236774995537,-0.233307890838938,-0.251825997525246,0.671069388571004,0.67106938856982,-1.47428664079658,1.24372641870809,NaN
1403.2896,-1.98773253362441,0.798203633486086,-0.865029826787576,-1.00715838208704,-0.12357080995427,-0.123570809955874,-1.28294970378204,-0.1347690325876,-1.13281237723637,-1.59070359326666,1.11803347344504,-1.59070359326672,0.939996067752734,1.32206346092212,1.3805889786356,-1.26266763777976,0.63888498005398,-0.97753802038952,-0.623314852234948,-1.04445160795011,-0.623314852234093,0.777260435474359,0.20350868023204,0.849188624310098,-0.825069083350192,1.17881105851298,1.17881105851286,-1.07553733911481,1.07553733911591,-0.85415049607859,-0.00250474268938919,0.246803684444619,0.141374262832787,2.27383393470447,1.62025788197588,2.61176054495763,0.151178993247734,-0.0472265921681216,-0.0472265921694728,0.505418689036802,-0.893417765992912,-0.287977536835586,-0.593268263303242,0.579455975141201,-0.273572798532482,-0.27091578027287,0.708077969161744,0.708077969160554,-1.50118315797305,1.25747085268816,NaN
1403.392,-1.97913059767523,0.786636895408032,-0.866695980693276,-1.03460603974765,-0.11101446478512,-0.111014464786719,-1.25063684368489,-0.148270115904024,-1.11286519420527,-1.59358228055665,1.13171155053561,-1.59358228055671,1.00986714036307,1.37690188561446,1.45876732411164,-1.26458690392545,0.641035239632395,-0.978006306163242,-0.632932095916066,-1.07585237585709,-0.632932095915222,0.814006867652017,0.210097506365658,0.887142383326249,-0.835769216946555,1.19616325456622,1.1961632545661,-1.09476624114814,1.09476624114924,-0.808185906051655,-0.0701970841780646,0.2453788613929,0.0738561172820851,2.25008926315069,1.60730368215015,2.58667945338436,0.177688583353981,-0.0158675593321006,-0.0158675593334502,0.474984040673853,-0.90641812126969,-0.337484440275705,-0.64458224206361,0.619083393218464,-0.312826714753161,-0.289901490040643,0.744474629222455,0.744474629221259,-1.52706376132755,1.27045459724395,NaN
1403.4944,-1.96877223894762,0.775249230561195,-0.867008037336694,-1.06106287556364,-0.0982023946242612,-0.098202394625864,-1.21805571974994,-0.162511143784982,-1.09307141119309,-1.59582840223622,1.14434401535425,-1.5958284022363,1.07632957185541,1.42932440567644,1.5332777289726,-1.26624747546194,0.642268079502296,-0.978953069524661,-0.64202314366607,-1.10645888381514,-0.642023143665241,0.850712062208852,0.215992628018016,0.924557173472143,-0.846515518999513,1.21216492141022,1.21216492141011,-1.11255154417746,1.11255154417858,-0.76166665315073,-0.135867535057234,0.244365438938059,0.0085696278449455,2.22672515838543,1.59442774921814,2.56192883029787,0.202937722482491,0.0149947397570001,0.0149947397556534,0.44452034631648,-0.918264727294076,-0.385871581070161,-0.694058940499142,0.65708395561225,-0.350984271264984,-0.308762711197215,0.780183998742761,0.780183998741554,-1.55186858374037,1.28264953000432,NaN
1403.5968,-1.95672097022604,0.764082798327838,-0.865982530670624,-1.08647995292576,-0.0851417733497407,-0.0851417733513151,-1.18534914261309,-0.177485481278503,-1.07354613320444,-1.59743911552288,1.15595120887276,-1.59743911552298,1.13929655700509,1.47926785855792,1.60402586246429,-1.26764770260231,0.642590037389864,-0.980370670931827,-0.650590153968622,-1.13620568350084,-0.650590153967811,0.8872586420773,0.221209447099768,0.961338122492095,-0.857295483107105,1.22681185812431,1.2268118581242,-1.12891721703129,1.12891721703243,-0.71469073652624,-0.199438724122797,0.243801550390719,-0.054386757715142,2.20374949375136,1.58168877261828,2.53754706528147,0.226912849403323,0.0453252550776904,0.0453252550763478,0.414024580514961,-0.928864012356244,-0.433048947064121,-0.741632181713423,0.693426729970873,-0.387964866050191,-0.327480811903148,0.815134775945337,0.815134775944137,-1.57553949397805,1.29402962044889,NaN
1403.6992,-1.94304216846557,0.753178605652056,-0.863638073546515,-1.1108120354893,-0.0718420138559673,-0.0718420138575394,-1.15265585022793,-0.193183613593167,-1.05439962334096,-1.59841221829077,1.16655590102345,-1.59841221829089,1.1986949900563,1.52667791990078,1.6709316450189,-1.26878363804515,0.642010417946929,-0.982246301131959,-0.658637943329427,-1.16502870561565,-0.658637943328635,0.923528661768452,0.225765537740407,0.997391415812769,-0.868096619640574,1.24010353321597,1.24010353321587,-1.14389062153754,1.14389062153868,-0.667356593764637,-0.260841722289391,0.243722397077679,-0.114924617280853,2.18116418025164,1.56914342915801,2.51356693567503,0.249604587314361,0.0750931169740217,0.075093116972674,0.383492705477222,-0.938123338964343,-0.478928674999172,-0.787241684075553,0.728085088541928,-0.423692775428454,-0.346039019540944,0.84926017628189,0.84926017628067,-1.59802029181869,1.30457104472577,NaN
1403.8016,-1.92780280671587,0.742576317313607,-0.859995295782143,-1.13401754164179,-0.0583146415469112,-0.0583146415484856,-1.12011003276935,-0.209593122304101,-1.03573689657068,-1.59874613518943,1.17618315726212,-1.59874613518958,1.2544654962502,1.57150908907067,1.73392926146351,-1.26964931703105,0.640541245308252,-0.9845623612058,-0.666173497811149,-1.19286535035907,-0.666173497810376,0.959404172138887,0.229680555845303,1.03262474121182,-0.878906368296951,1.25204292905787,1.25204292905778,-1.15750228484937,1.15750228485053,-0.619762601295396,-0.320016155754273,0.244160030393641,-0.172965792889823,2.15896530489899,1.55684626071184,2.49001564336305,0.271007721740477,0.10427152367099,0.104271523669643,0.35291942835248,-0.945951177978854,-0.523425515839084,-0.83083321834504,0.761036856134641,-0.45809723469152,-0.364422490043719,0.882498309412467,0.882498309411233,-1.61925688723166,1.31425228308407,NaN
1403.904,-1.91107117782666,0.732314065111076,-0.855076777179229,-1.15605848520743,-0.0445731613940554,-0.0445731613956248,-1.087840913296,-0.226698681245081,-1.01765736975728,-1.59843992419017,1.18486020926691,-1.59843992419035,1.30656240436863,1.6137246200231,1.79296710351988,-1.27023703022694,0.63819719626994,-0.987296850651186,-0.673205501979662,-1.21965457276555,-0.673205501978908,0.994767788841163,0.23297613057349,1.0669477237377,-0.889712010392884,1.26263637084378,1.2626363708437,-1.16978565727083,1.169785657272,-0.572006589941651,-0.376910276440337,0.245143151971299,-0.228442576596863,2.13714329654449,1.54484953332285,2.46691486201907,0.291121142730711,0.13283760073083,0.132837600729483,0.322298005091796,-0.952257298902902,-0.566457260408598,-0.872358724785563,0.792264419837269,-0.491112499047213,-0.382618363907531,0.914792466636605,0.91479246663534,-1.63919745601202,1.32305418919305,NaN
1404.0064,-1.8929166106306,0.722428258849632,-0.848906974049762,-1.1769004070582,-0.0306329168457743,-0.0306329168473727,-1.05597238320973,-0.244482066800886,-1.00025456446559,-1.59749330439867,1.19261632036923,-1.59749330439888,1.3549536628474,1.65329640263208,1.84800764621111,-1.27053758352221,0.634995519546915,-0.990423751632535,-0.67974390091864,-1.24533696603267,-0.679743900917909,1.02950325002027,0.235675736918776,1.1002723372496,-0.900500580024319,1.27189334604465,1.27189334604458,-1.18077685927563,1.1807768592768,-0.524185388634655,-0.431480988784266,0.24669693894957,-0.28129783870152,2.11568312307167,1.53320308018615,2.44428079910861,0.309947753212068,0.160772239982037,0.160772239980688,0.291620102488996,-0.956952975405889,-0.607945110507217,-0.911776384372855,0.821754786111011,-0.522677894966009,-0.400615806938251,0.946091317436837,0.946091317435562,-1.65779257028457,1.33096002483071,NaN
1404.1088,-1.87340918379121,0.712953398323403,-0.84151214343767,-1.19651230132933,-0.0165109447603143,-0.0165109447619152,-1.02462268201505,-0.262922180818516,-0.983615852929924,-1.59590669873646,1.19948263123888,-1.59590669873669,1.39962069985857,1.69020479860044,1.89902726076387,-1.27054054539079,0.630955949986458,-0.99391340252744,-0.685799495345198,-1.26985485456932,-0.685799495344488,1.06349595151845,0.2378045488565,1.13251328158765,-0.91125877293179,1.27982631879875,1.2798263187987,-1.19051441947218,1.19051441947335,-0.476394399065059,-0.483693828876755,0.248842898444515,-0.331485092014963,2.09456452378845,1.52195413605681,2.42212427971319,0.327494342711652,0.188059927198137,0.188059927196786,0.260875719094029,-0.959951203197357,-0.647813991782827,-0.949050644160341,0.849499580871353,-0.552737868574245,-0.418406038695536,0.976349023617292,0.97634902361602,-1.67499530074496,1.33795545313873,NaN
1404.2112,-1.85261944571047,0.703921886701586,-0.832920270664166,-1.21486653809214,-0.0022258319795176,-0.00222583198109413,-0.99390410857418,-0.281995086892116,-0.967822236946164,-1.59368128283789,1.20549197534725,-1.59368128283815,1.44055822524601,1.72443843682037,1.94601596531339,-1.270234483543,0.626100623692592,-0.997732857719018,-0.6913835672485,-1.29315240945051,-0.691383567247807,1.096633452706,0.23938927302006,1.16358831913129,-0.921972853044868,1.28645054325819,1.28645054325816,-1.19903900456049,1.19903900456167,-0.428727194855381,-0.533522890154747,0.251598753223767,-0.3789684852861,2.07376227953422,1.51114717520043,2.400450860775,0.343771428795863,0.214688566401704,0.214688566400361,0.230053163027877,-0.961166931988386,-0.685992812467227,-0.984152205174941,0.875495000770286,-0.581242034901376,-0.435982350778292,1.00552528264122,1.00552528263997,-1.69076128535732,1.3440284853831,NaN
1404.3136,-1.8306181496225,0.69536384924716,-0.82316100399234,-1.2319387812195,0.012202424796716,0.012202424795114,-0.963922755932731,-0.301674058872339,-0.952948152529116,-1.59081903423405,1.21067866844383,-1.59081903423433,1.47777397319369,1.75599397654647,1.9889771173582,-1.26960719049676,0.620453992526534,-1.00184623450977,-0.696507538210872,-1.31517579124429,-0.696507538210195,1.1288059516718,0.240457966682747,1.19341857233312,-0.932628558093405,1.29178387917364,1.29178387917363,-1.2063931430833,1.20639314308448,-0.381275134133228,-0.580950693112682,0.254978359546554,-0.423722722730804,2.05324652171059,1.50082376535399,2.37926098356706,0.358793074939987,0.240649303577602,0.240649303576264,0.19913908445497,-0.960517317090676,-0.722414676218819,-1.01705798895111,0.899741735930164,-0.608145228695501,-0.453340112584275,1.03358531002504,1.03358531002379,-1.70504876416574,1.34916938452592,NaN
1404.416,-1.80747600648803,0.687306959910868,-0.812265596553501,-1.24770789866773,0.0267525561573583,0.0267525561557511,-0.934778268329056,-0.321929639018338,-0.939061297872789,-1.58732278166561,1.21507828624349,-1.58732278166589,1.51128838853281,1.78487584582223,2.0279270541205,-1.26864589588163,0.614042732235032,-1.00621504947016,-0.701182664341724,-1.33587331634832,-0.701182664341061,1.15990673195795,0.241039844107597,1.22192878713911,-0.943211005162501,1.29584660930155,1.29584660930156,-1.21262094438918,1.21262094439036,-0.334126981297548,-0.625968003254705,0.258991656160692,-0.465732914411369,2.03298308141596,1.49102243983281,2.35855016646064,0.372576689017606,0.265936350858085,0.26593635085677,0.168118561573851,-0.957921997991224,-0.757017057781926,-1.04775109539791,0.922244882044703,-0.633407554463546,-0.470476760699898,1.06049976349915,1.0604997634979,-1.71781858370794,1.35337053144539,NaN
1404.5184,-1.78326344869109,0.679776272820863,-0.800266852602543,-1.26215586286701,0.0414021526529135,0.041402152651299,-0.906563622981058,-0.342729704257545,-0.926222485985503,-1.58319625894184,1.21872743966762,-1.58319625894214,1.54113426270404,1.81109595719075,2.0628946860291,-1.26733746556751,0.606895641486815,-1.01079854668007,-0.705419767493417,-1.35519564252578,-0.705419767492775,1.18983258372151,0.241165069613875,1.24904756370499,-0.953704594853404,1.29866125459433,1.29866125459436,-1.21776781255444,1.21776781255562,-0.287368545896739,-0.668573605573817,0.263644639627734,-0.504994368443538,2.01293387939876,1.48177857708296,2.33830923261294,0.385142795223446,0.29054681493181,0.290546814930512,0.136975239273234,-0.953303409352042,-0.789741947938891,-1.07622075299422,0.94301384484223,-0.656994433188653,-0.487391771655071,1.0862446053578,1.08624460535655,-1.72903417194554,1.35662625258363,NaN
1404.6208,-1.75805039748646,0.672794056153229,-0.787199074822236,-1.27526764027425,0.0561277920878963,0.0561277920862619,-0.879364942554196,-0.364039538757295,-0.91448552598515,-1.57844416807093,1.22166354953062,-1.57844416807124,1.56735632426447,1.8346734008913,2.09392104674962,-1.2656685930772,0.599043533842928,-1.01555402272527,-0.709228997122036,-1.37309597476566,-0.70922899712141,1.21848420026187,0.240864536147458,1.27470755437909,-0.964092912995358,1.30025238420123,1.3002523842013,-1.22188015482656,1.22188015482775,-0.241082349335797,-0.708774041962361,0.268939358800995,-0.541512335522351,1.99305735395888,1.47312427850653,2.31852456533774,0.396514772849145,0.314480532225165,0.314480532223896,0.105691514299861,-0.946587121100203,-0.820535971797234,-1.10246225768075,0.962062233507171,-0.678876643837611,-0.50408662134667,1.11080090163862,1.11080090163739,-1.73866148588123,1.35893260872315,NaN
1404.7232,-1.73190603586901,0.666379634484514,-0.773098009782953,-1.28703107092847,0.0709051645858733,0.0709051645842622,-0.853261347545826,-0.385821909744723,-0.903897139159545,-1.57307225328326,1.22392462425982,-1.57307225328358,1.59001078422694,1.85563411778865,2.12105880122137,-1.26362599020957,0.590519124889931,-1.02043715491235,-0.712619615435768,-1.3895302932607,-0.71261961543516,1.24576654750029,0.24016963845329,1.29884563335228,-0.9743586331767,1.30064642101062,1.30064642101072,-1.22500508572147,1.22500508572266,-0.195347323654505,-0.746583313599957,0.274873923250035,-0.575301710816932,1.9733089199905,1.46508824960927,2.29917838881395,0.406718567736376,0.337739908301809,0.33773990830056,0.0742487542427074,-0.937702194373575,-0.849350482391734,-1.12647690036944,0.979407746116194,-0.69903035496502,-0.520564733746182,1.13415456437366,1.13415456437246,-1.7466689429508,1.36028715937875,NaN
1404.8256,-1.70489859271053,0.66054925301377,-0.758000786739884,-1.29743674093289,0.0857091989904282,0.0857091989888282,-0.828324857229149,-0.40803714576184,-0.894496916549244,-1.56708738377101,1.22554904775998,-1.56708738377133,1.60916483030801,1.87401055278787,2.14437170811286,-1.26119657834936,0.581356912146743,-1.02540233655131,-0.715599803996414,-1.40445759935719,-0.715599803995827,1.27158920203138,0.239112058654635,1.32140304689629,-0.984483427772015,1.29987144398787,1.29987144398801,-1.22719012857847,1.22719012857967,-0.150238540979256,-0.782022546285251,0.281442523945313,-0.606386692213588,1.95364145390051,1.45769570045027,2.28024907899287,0.415782388455489,0.360329761202159,0.360329761200937,0.0426275396762663,-0.926581538655475,-0.876141627704093,-1.14827188401009,0.995072054174791,-0.717437137681261,-0.536831417781363,1.1562960483197,1.15629604831852,-1.75302735332563,1.36068872997429,NaN
1404.928,-1.67709514034903,0.655315978284455,-0.741945841547872,-1.30647785222847,0.100514189259892,0.100514189258347,-0.804620342366611,-0.430643221797304,-0.886317322972359,-1.56049763941571,1.22657538273949,-1.56049763941604,1.62489605803727,1.88984128343877,2.16393402555719,-1.25836767247768,0.571593039556409,-1.03040301670264,-0.718176498028231,-1.41784016689966,-0.718176498027662,1.29586665523683,0.237723582793446,1.34232555534297,-0.994447896516384,1.29795698551725,1.2979569855174,-1.22848291538226,1.22848291538346,-0.105826970521917,-0.815119612478124,0.288635466358196,-0.634800388675903,1.93400580514638,1.45096828351459,2.26171151528418,0.423736395571507,0.382257179744664,0.382257179743476,0.0108079276819236,-0.91316226105209,-0.900870384183168,-1.16786022829466,1.00908069156978,-0.734083948414149,-0.552893786498738,1.17722001386312,1.17722001386199,-1.75770986822934,1.36013720945703,NaN
1405.0304,-1.6485614049323,0.650689648433708,-0.724972816516112,-1.31415009346095,0.115293915941589,0.115293915940076,-0.782205526987749,-0.453595858371837,-0.879383748842967,-1.55331239082124,1.22704219287893,-1.55331239082157,1.63729182485967,1.90317061476354,2.17982984572959,-1.25512714236085,0.561265136366163,-1.03539203439376,-0.720355252020808,-1.42964378016305,-0.720355252020255,1.31851858628455,0.236035962698369,1.3615635797452,-1.00423152000515,1.29493382037826,1.29493382037843,-1.22893088492132,1.22893088492253,-0.0621792593474096,-0.845908701992352,0.296439216859765,-0.660584370266589,1.91435133918737,1.44492408520895,2.24353748559507,0.430612389781345,0.403531414823364,0.403531414822202,-0.0212302586537722,-0.897386006328535,-0.92350254986574,-1.18526065887344,1.02146295301974,-0.748963067933624,-0.56876064880871,1.19692496479558,1.19692496479447,-1.76069195515156,1.35863339930828,NaN
1405.1328,-1.61936159006098,0.646676881840079,-0.707122430670594,-1.32045151322921,0.130021759033039,0.130021759031563,-0.76113103233684,-0.476848638901424,-0.873714606260328,-1.54554236418905,1.22698788897917,-1.54554236418938,1.64644852013838,1.91404813439956,2.19215235013932,-1.2514635357025,0.550412124339404,-1.04032193410783,-0.722140126219871,-1.43983794204026,-0.72214012621933,1.33947011214776,0.234080830067217,1.37907236554715,-1.01381264146969,1.29083374477748,1.29083374477768,-1.22858097988992,1.22858097989113,-0.0193575331255108,-0.874429837820788,0.304836463155154,-0.683788155935923,1.89462651644827,1.43957768201796,2.22569615429555,0.436443505191204,0.424163816826309,0.424163816825181,-0.0535071089757114,-0.879199295590718,-0.944008698049571,-1.20049747966374,1.03225180791771,-0.762071985165454,-0.584442365005954,1.21541286480342,1.21541286480234,-1.76195140844008,1.35617892728013,NaN
1405.2352,-1.58955821390004,0.643281144123698,-0.688436320573527,-1.32538239464802,0.14467080137844,0.144670801377007,-0.741440453043206,-0.500353144933853,-0.869321460911223,-1.5371996843817,1.22645060614747,-1.53719968438203,1.65247075808785,1.92252822863787,2.20100299072284,-1.24736615411631,0.539073994639143,-1.04514525031924,-0.723533574074235,-1.4483960453857,-0.723533574073713,1.35865202514749,0.231889657652095,1.39481216905304,-1.02316847575182,1.2856893453454,1.28568934534564,-1.22747934418142,1.22747934418264,0.0225807829452655,-0.9007283433883,0.313806188231182,-0.704468645583041,1.87477950851903,1.43494026063894,2.20815459365617,0.441263910438852,0.444167822263443,0.444167822262351,-0.086042271297054,-0.858553875163127,-0.962364101476822,-1.21360042924163,1.04148383346295,-0.773413221897479,-0.59995066351664,1.23268873042979,1.23268873042872,-1.76146839942289,1.3527762303455,NaN
1405.3376,-1.55921195609973,0.640502862633448,-0.668956856373197,-1.32894512977971,0.159213922374729,0.15921392237334,-0.723170455752782,-0.524059106414898,-0.866209190242501,-1.52829789615651,1.22546811646566,-1.52829789615683,1.65547051327511,1.92866956524217,2.20649061334926,-1.24282507978371,0.527291562404343,-1.04981475156726,-0.724536317961009,-1.45529550890084,-0.724536317960506,1.37600102610914,0.229493750319337,1.40874846154191,-1.03227514129082,1.2795337576627,1.27953375766297,-1.22567102170978,1.225671021711,0.0635831163789374,-0.924854276094423,0.323323757517259,-0.72268951120624,1.8547588467732,1.43101978610833,2.19087836628419,0.445108513575587,0.463558984952547,0.463558984951487,-0.118854573686355,-0.835407077348663,-0.978548639687922,-1.22460452378437,1.04919916629746,-0.782994104263694,-0.615298422805505,1.24876019232393,1.24876019232285,-1.75922556081172,1.34842859839539,NaN
1405.44,-1.52838150822621,0.638339571598651,-0.648726939873261,-1.33114409262661,0.173623880530353,0.173623880529007,-0.706350894958309,-0.547914563707825,-0.864376161873325,-1.51885197037773,1.22407777429081,-1.51885197037805,1.65556622000292,1.93253455248114,2.20873054348,-1.23783115877622,0.515106210512575,-1.05428364138951,-0.725147220481857,-1.46051788634305,-0.725147220481369,1.39145995377377,0.226924246134474,1.42085213725028,-1.04110770878744,1.27240041502041,1.2724004150207,-1.22319965878517,1.22319965878638,0.103601865618005,-0.946861843516268,0.333361021765094,-0.738520561809698,1.83451409326265,1.42782119437999,2.17383213788942,0.448012665152689,0.48235504354789,0.48235504354686,-0.151961639687957,-0.809722180993392,-0.992546698665158,-1.23354989005348,1.05544146815276,-0.79082649436011,-0.630499423902902,1.26363701510639,1.26363701510527,-1.75520809221942,1.34314025779147,NaN
1405.5424,-1.49712342250831,0.636786072954632,-0.627789790966602,-1.33198550890861,0.187873383703153,0.187873383701852,-0.691004945570598,-0.571866038027641,-0.863814430171216,-1.50887830291212,1.2223164846663,-1.50887830291243,1.65288184979607,1.93418878600167,2.20784365015703,-1.23237595297923,0.502559633077602,-1.05850572146594,-0.725363172609014,-1.46404896244088,-0.725363172608544,1.40497800351374,0.224212115313931,1.43109971015183,-1.04964025975294,1.26432279198612,1.26432279198645,-1.22010721396968,1.2201072139709,0.142594482867487,-0.966808813738679,0.343886439403729,-0.752037091173988,1.81399652161389,1.42534659155952,2.15698030127776,0.450011859410208,0.5005760173768,0.50057601737579,-0.185379515415081,-0.781468755086061,-1.00434706749646,-1.24048159262075,1.06025790166463,-0.796926495739325,-0.645568078013667,1.27733057454784,1.27733057454668,-1.74940387507115,1.33691647268312,NaN
1405.6448,-1.46549195938341,0.635834603591059,-0.606188728942335,-1.33147732283043,0.201935148062173,0.201935148060912,-0.677149253071772,-0.595858707720038,-0.864509950383742,-1.49839470875573,1.22022068278728,-1.49839470875605,1.64754597649787,1.93370049581106,2.20395540166223,-1.22645167141634,0.489693585980918,-1.06243552375003,-0.725179014537094,-1.46587884466861,-0.725179014536637,1.41651092575653,0.221388154020012,1.43947348868068,-1.05784595098956,1.255334151164,1.25533415116436,-1.21643368155986,1.21643368156109,0.180523524011932,-0.984755925236814,0.354865219157128,-0.763319213376275,1.79315979251772,1.42359545297355,2.14028759617346,0.451141439707129,0.518244322242742,0.518244322241763,-0.219122323682593,-0.750622969919102,-1.01394283500265,-1.24544945712843,1.06369911315572,-0.801314140965462,-0.660519136159816,1.28985330751131,1.28985330751012,-1.74180359164052,1.32976365194439,NaN
1405.7472,-1.43353894295735,0.635475004639716,-0.583966957995869,-1.32962906532338,0.215781948318324,0.215781948317116,-0.664794099612466,-0.619836588982956,-0.866442808254594,-1.48742040776003,1.21782631285542,-1.48742040776034,1.63969084007722,1.93114000512468,2.19719492698092,-1.22005108801393,0.476549649950502,-1.06602841535322,-0.724587490669429,-1.46600204987894,-0.724587490668984,1.42602119606442,0.218482975705436,1.44596172308245,-1.06569708490132,1.24546730310903,1.24546730310944,-1.21221683614696,1.21221683614819,0.217356669293009,-1.00076629868383,0.366259480547374,-0.772451189782956,1.77196060413251,1.42256482264931,2.12371971033647,0.451436318280027,0.535384894347121,0.535384894346183,-0.25320195753626,-0.717167862824416,-1.02133128815026,-1.24850788603533,1.06581921517823,-0.8040130651544,-0.675367391704573,1.30121816320247,1.30121816320127,-1.73240084615422,1.32168945920517,NaN
1405.8496,-1.40131363781764,0.635694891332202,-0.561167367369635,-1.32645172811798,0.229386662835195,0.229386662834052,-0.653943580113826,-0.643742718784517,-0.869587459055569,-1.47597599351622,1.21516879823601,-1.47597599351653,1.62945142341154,1.92657921166782,2.18769409868945,-1.21316745287675,0.463169012904197,-1.06924067894754,-0.723579234368815,-1.46441757788551,-0.723579234368383,1.43347815261693,0.215527005280872,1.45055872536637,-1.07316518577607,1.23475438860601,1.23475438860643,-1.20749200523775,1.20749200523898,0.253066721800369,-1.01490485459239,0.378028430888219,-0.779520752178685,1.75035930036126,1.42224951670052,2.10724385104885,0.450930722576432,0.552025308219534,0.552025308218629,-0.287627817214988,-0.681093554274468,-1.02651381287782,-1.24971566187714,1.06667575988286,-0.80505016926627,-0.690127385173222,1.31143808363927,1.31143808363805,-1.72119228620713,1.31270292620869,NaN
1405.952,-1.36886265642341,0.636479822493042,-0.537832353230758,-1.32195764226349,0.242722319096887,0.242722319095822,-0.644595780119879,-0.667519335187482,-0.873912966753017,-1.46408337625542,1.2122830021915,-1.46408337625573,1.61696455813448,1.92009110007436,2.17558665302589,-1.20579440483444,0.449592279390329,-1.07202957132256,-0.722142782604625,-1.46112896213195,-0.722142782604203,1.43885810214885,0.212550480109991,1.4532649657052,-1.08022107917846,1.22322668928426,1.2232266892847,-1.20229187467273,1.20229187467396,0.287631593326487,-1.02723774537236,0.390128560223515,-0.784618429639017,1.72832042993129,1.42264233254357,2.09082928269754,0.44965797921744,0.568195876721882,0.568195876721015,-0.322406584068356,-0.642397424245521,-1.02949579947169,-1.24913573812913,1.06632970000673,-0.804455278085649,-0.704813114890991,1.32052553177634,1.32052553177511,-1.7081777229416,1.30281456830915,NaN
1406.0544,-1.33622989865401,0.637813466553089,-0.514003665475384,-1.31616035704243,0.255762144523032,0.255762144522029,-0.636742950816531,-0.69110805042439,-0.879383237140411,-1.45176569922795,1.20920318525477,-1.45176569922827,1.60236807450871,1.91174929059036,2.16100736020598,-1.19792588946504,0.435859309884398,-1.07435336280899,-0.720264627372758,-1.45614428742231,-0.720264627372341,1.44214439870561,0.209583457780687,1.45408714918555,-1.08683497103925,1.21091446633681,1.21091446633726,-1.19664632807854,1.19664632807977,0.321034282597377,-1.03783181303578,0.402513855238774,-0.787836889611767,1.70581325663228,1.42373425939203,2.07444782820521,0.447650340064411,0.58392972481863,0.583929724817809,-0.357542021580914,-0.60108426554912,-1.03028655739958,-1.24683502199897,1.06484533930026,-0.802260798461504,-0.719437752745424,1.32849207705048,1.3284920770492,-1.6933602484864,1.29203650002993,NaN
1406.1568,-1.30345652133144,0.639677758425502,-0.489722281696126,-1.30907451967289,0.268479623504756,0.268479623503817,-0.630371684970178,-0.714450015539186,-0.885957247448969,-1.43904724193738,1.20596296622843,-1.43904724193771,1.58580000570717,1.90162762601253,2.14409125310212,-1.18955608384607,0.422009084199685,-1.07617136403852,-0.717929314356336,-1.44947616854872,-0.71792931435593,1.44332749730727,0.206655827472799,1.4530382724974,-1.09297652639122,1.19784682140098,1.19784682140144,-1.19058231830795,1.19058231830918,0.35326284244584,-1.04675408153504,0.415136029617281,-0.78927030353345,1.68281222025639,1.42551467926104,2.05807432801145,0.444938846552384,0.599262830016398,0.599262830015611,-0.393034799226094,-0.557166424041632,-1.02889924438958,-1.24288415235761,1.06229027256225,-0.798501383691131,-0.734013364600296,1.33534804286279,1.33534804286146,-1.67674634889749,1.28038254867842,NaN
1406.2592,-1.2705809359174,0.642053041145551,-0.465028311115051,-1.30071575997168,0.280848558856285,0.280848558855393,-0.625463102907045,-0.737486077155123,-0.893589280287559,-1.42595332886577,1.20259528896659,-1.4259533288661,1.56739785242112,1.88979979834289,2.12497291912689,-1.18067933263148,0.408079583139981,-1.07744395067464,-0.715119599058097,-1.44114169200688,-0.715119599057695,1.442404978901,0.203797321300511,1.45013765467397,-1.09861494954254,1.18405157388641,1.18405157388689,-1.18412376787148,1.18412376787269,0.384310329317638,-1.05407128882404,0.427944766603001,-0.789013744464801,1.65929734245484,1.42797154781365,2.04168704633993,0.441553225696843,0.614234020923897,0.614234020923147,-0.428882342755565,-0.510663922943962,-1.02535081130891,-1.23735727259498,1.05873531131512,-0.793213609536981,-0.748550637035191,1.34110221781721,1.34110221781584,-1.65834600996484,1.26786836245782,NaN
1406.3616,-1.23763883256032,0.644918188917603,-0.439960929437271,-1.29110058191508,0.292843136674789,0.292843136673982,-0.621993055449933,-0.760156926165489,-0.902229167546663,-1.41251025449125,1.19913239186693,-1.41251025449159,1.54729790945319,1.87633901616291,2.10378585700869,-1.17129010289621,0.394107689076443,-1.07813259453706,-0.711816665743308,-1.43116232786777,-0.71181666574291,1.43938153948156,0.201037524034131,1.44541093429691,-1.10371906601923,1.16955515329985,1.16955515330035,-1.1772914962014,1.1772914962026,0.414174732071075,-1.05984946013679,0.440887970753276,-0.787162619976052,1.63525456931719,1.43109155065312,2.02526801613767,0.437521814074157,0.628884925844429,0.628884925843716,-0.465078717120944,-0.46160456076676,-1.01966195976145,-1.23033179414275,1.05425438809349,-0.786435664175235,-0.763058612127734,1.34576163009748,1.34576163009607,-1.63817281234173,1.25451150828079,NaN
1406.464,-1.20466322904648,0.648250713591176,-0.41455834226123,-1.28024626127507,0.304437994073553,0.304437994072802,-0.619932343818596,-0.782403238423472,-0.911822544310321,-1.39874522387157,1.19560577517708,-1.39874522387191,1.52563465005156,1.86131771051996,2.08066189434342,-1.16138295998499,0.380129105861564,-1.07819990347111,-0.708000404009431,-1.41956381774677,-0.708000404009035,1.43426893819765,0.198405882863559,1.4388900296889,-1.10825740618765,1.15438250732605,1.15438250732656,-1.17010317211322,1.1701031721144,0.442858881543095,-1.06415351872106,0.453912026175225,-0.783812138152575,1.61067604556389,1.43486023883062,2.00880332091476,0.432871508482257,0.643259869260935,0.643259869260256,-0.501614545006706,-0.410023972781308,-1.01185710590877,-1.22188814341615,1.04892443253638,-0.778207048333538,-0.777544430320044,1.34933138184039,1.34933138183894,-1.61624401349161,1.24033155682541,NaN
1406.5664,-1.17168454670972,0.652026859079029,-0.388857775479825,-1.2681707484977,0.315608288298777,0.315608288298087,-0.619246948551532,-0.804165807550441,-0.922311106247778,-1.38468630048412,1.19204616099268,-1.38468630048446,1.50254016174533,1.84480727624976,2.05573065996522,-1.15095256088329,0.36617829399616,-1.0776096692706,-0.703649730603647,-1.40637604475953,-0.703649730603261,1.42708590460621,0.195931719162534,1.43061306365674,-1.1121982907558,1.1385570269734,1.13855702697391,-1.1625732906622,1.16257329066336,0.470370346560021,-1.06704692579406,0.466962057866753,-0.779056800579473,1.58556031894062,1.43926215123379,1.99228331665709,0.427627743470456,0.657405720435605,0.657405720434958,-0.538476962367351,-0.355965648391913,-1.00196434453581,-1.21210948716515,1.04282521779545,-0.768568278246513,-0.792013080809454,1.35181453984794,1.35181453984643,-1.59258061489666,1.22535015289607,NaN
1406.6688,-1.13873071685993,0.656221683302268,-0.362895495452387,-1.25489257483475,0.326329765603437,0.326329765602832,-0.619898253758601,-0.825385667762717,-0.933632858060147,-1.37036235132987,1.18848344117708,-1.37036235133022,1.47814363324313,1.82687784961967,2.02911911133766,-1.13999366388531,0.35228842033808,-1.07632692278455,-0.698742948359694,-1.39163289407915,-0.698742948359312,1.41785800872324,0.193644238974111,1.42062425370852,-1.11550991586943,1.12210049153437,1.12210049153488,-1.15471317556601,1.15471317556714,0.496721325976309,-1.06859134440612,0.479982195085065,-0.772989917697655,1.55991247384721,1.44428092682503,1.9757027947239,0.421814498491909,0.671371697664804,0.671371697664192,-0.575649614654404,-0.299480896610405,-0.99001540997548,-1.20108143727709,1.03603918075732,-0.757560588224441,-0.806467158934514,1.35321207824871,1.35321207824716,-1.56720740987488,1.2095910624589,NaN
1406.7712,-1.10582731665899,0.660809121670408,-0.33670686218964,-1.24043075917418,0.33657882909877,0.336578829098242,-0.621843255655607,-0.846004204610949,-0.945722342745955,-1.3558029843758,1.18494661152728,-1.35580298437614,1.45257089793668,1.80759812483739,2.00095112215029,-1.12850115700848,0.338491327134175,-1.07431799504716,-0.693258139628085,-1.37537211203472,-0.693258139627708,1.40661749694069,0.191572533171313,1.40897376397451,-1.11816043471978,1.10503303573934,1.10503303573981,-1.14653100933776,1.14653100933888,0.521928542698513,-1.06884633122927,0.49291584049893,-0.76570314829952,1.53374419231311,1.44989940113827,1.95906108121386,0.41545433637963,0.685209126884505,0.685209126883933,-0.613112695117319,-0.240628756731844,-0.976045632649126,-1.18889173986235,1.02865121850638,-0.745225638469869,-0.820906630801163,1.35352286695577,1.35352286695419,-1.54015300378476,1.19308018278493,NaN
1406.8736,-1.07299772887439,0.66576202940626,-0.310326413430301,-1.2248047185971,0.346332605051121,0.346332605050677,-0.625034756836559,-0.865963256976941,-0.958510854592697,-1.34103848202934,1.18146369457345,-1.34103848202968,1.42594403690511,1.78703520683543,1.97134713062411,-1.11647010516317,0.324817520158646,-1.07155058462896,-0.687173586075344,-1.3576351670062,-0.687173586074973,1.39340309500161,0.189745558303369,1.3957175134066,-1.12011803853581,1.08737313762592,1.08737313762637,-1.13803189165085,1.13803189165195,0.546013132926563,-1.06786906568254,0.505705950851629,-0.757286069098613,1.50707374050135,1.45609967868816,1.94236206681347,0.408568467423635,0.698971153447385,0.698971153446846,-0.650843016415042,-0.179475866239821,-0.960093892751173,-1.17562995289997,1.02074845951376,-0.73160523857246,-0.835328609335825,1.35274370146229,1.35274370146071,-1.51144980171794,1.17584551029882,NaN
1406.976,-1.04026332138158,0.671052209114825,-0.283787972439872,-1.20803419231258,0.355569006805963,0.355569006805558,-0.629421558567268,-0.885205218389619,-0.971926650180954,-1.32609973926713,1.17806165429369,-1.32609973926747,1.39838103571743,1.76525449186653,1.94042383990047,-1.10389581179143,0.311296165375179,-1.06799383515168,-0.680468193825723,-1.3384671137823,-0.680468193825363,1.3782597787895,0.188192094019623,1.38091693796829,-1.12135104575613,1.06913762254052,1.06913762254093,-1.12921792395543,1.12921792395652,0.56900051556208,-1.06571412153291,0.518295331039081,-0.747825778325917,1.4799258802796,1.46286317800364,1.92561416496162,0.401176826225733,0.712712412586861,0.712712412586362,-0.688814099324773,-0.116096308931273,-0.942202574641653,-1.16138711451507,1.01242000618098,-0.716741095655109,-0.849727151690477,1.35086937362244,1.35086937362087,-1.48113396654232,1.15791707492146,NaN
1407.0784,-1.00764364528103,0.676650434958084,-0.257124771157919,-1.19013918694499,0.36426679606952,0.364266796069166,-0.634948661248628,-0.903673143338854,-0.985895168705422,-1.31101821220037,1.17476630387809,-1.3110182122007,1.36999548430381,1.74231956722385,1.90829395835911,-1.09077388965332,0.297955080807714,-1.06361842801415,-0.673121895631868,-1.31791646549959,-0.673121895631508,1.36123851483089,0.186940677069486,1.364638708529,-1.12182800569001,1.0503416799379,1.05034167993827,-1.12008831752055,1.12008831752163,0.590920232272071,-1.06243327856822,0.530626937529527,-0.737406533359049,1.45233170805437,1.47017065261892,1.90883020183037,0.393298148691617,0.726488670741631,0.726488670741161,-0.726996267408344,-0.0505714591166291,-0.92241752445549,-1.14625540318849,1.00375664666949,-0.70067459273268,-0.8640930900073,1.3478927830975,1.34789278309591,-1.44924535344735,1.13932685457929,NaN
1407.1808,-0.975156649694049,0.68252648292633,-0.230369581004457,-1.17113994394588,0.372405642253444,0.372405642253126,-0.641557473300734,-0.921310859047384,-1.00033926205506,-1.2958258748735,1.17160220452743,-1.29582587487382,1.3408963113945,1.71829212546887,1.87506597150989,-1.07710033569631,0.284820716652881,-1.05839669020945,-0.665116009866351,-1.29603507665081,-0.665116009865991,1.34239597347907,0.186019512748615,1.34695440777264,-1.12151781602239,1.03099889377572,1.03099889377606,-1.11063952371226,1.11063952371331,0.611805759742138,-1.0580753691749,0.542644185926317,-0.726109420323423,1.42432842529383,1.47800219467596,1.89202724514059,0.384950044204538,0.740356450491014,0.740356450490575,-0.765356750271426,0.0170101800788885,-0.900788012113095,-1.13032779156447,0.994850536768175,-0.683446599351834,-0.878413902205172,1.34380508494102,1.34380508493942,-1.41582742484069,1.12010867783164,NaN
1407.2832,-0.942818908968986,0.68864917164436,-0.203554845385573,-1.15105692590082,0.379966180366479,0.379966180366169,-0.649186022556417,-0.938063081536298,-1.01517942915651,-1.28055517565998,1.16859255150993,-1.2805551756603,1.31118755049788,1.69323189306325,1.84084394334904,-1.06287160461202,0.271918124829456,-1.05230270966805,-0.656433553620882,-1.27287803593569,-0.656433553620522,1.3217942171625,0.185456365098407,1.32794016921847,-1.12038985047869,1.011121290339,1.01112129033928,-1.10086538787606,1.1008653878771,0.631694300818472,-1.05268615682181,0.55429126275672,-0.714012052663182,1.39595904543123,1.48633722805261,1.87522637917583,0.376149067483717,0.754372647746055,0.754372647745658,-0.803859807000115,0.0865531576811733,-0.877366698246223,-1.11369769490144,0.985794854302864,-0.665097312789689,-0.892673619488597,1.33859586698618,1.33859586698459,-1.38092714717847,1.10029811609601,NaN
1407.3856,-0.910645858088952,0.694986413377176,-0.176712811162949,-1.12991081883903,0.386930066868981,0.386930066868685,-0.657769165085298,-0.953875535405878,-1.03033405007365,-1.26523898562988,1.16575904633116,-1.2652389856302,1.28096813873103,1.6671965764659,1.80572734979213,-1.04808467749683,0.259270923188805,-1.04531244928029,-0.647059517609743,-1.24850356430788,-0.647059517609382,1.29950036514489,0.185278429365624,1.30767628219771,-1.11841409438667,0.990719406302332,0.990719406302593,-1.09075732851508,1.09075732851611,0.650626559036992,-1.04630824654263,0.565513445382204,-0.70118829650236,1.36727204253623,1.49515449626794,1.85845243296348,0.366910797862665,0.768594147016619,0.768594147016256,-0.84246687673295,0.157955286643027,-0.852209602831988,-1.09645861366981,0.976683428428832,-0.645666125383382,-0.906852761880631,1.33225335462418,1.33225335462261,-1.34459487171703,1.07993236587871,NaN
1407.488,-0.878652034876436,0.701505272482672,-0.149875659935589,-1.10772254983122,0.3932800333156,0.393280033315349,-0.667238791575326,-0.968695076813898,-1.04571961970526,-1.24991053840818,1.16312175961714,-1.2499105384085,1.25033175317558,1.64024183028029,1.76981094992841,-1.03273712721541,0.24690125869326,-1.03740385781703,-0.63698111139356,-1.22297291184921,-0.636981111393199,1.27558623651831,0.185512191097398,1.28624676750463,-1.11556128851263,0.969802376286647,0.969802376286871,-1.08030454124264,1.08030454124366,0.668646494952742,-1.03898102905647,0.576257430564019,-0.687708024100512,1.33832094625905,1.50443204575675,1.84173366535016,0.357249928723442,0.783077438353535,0.78307743835321,-0.881136753710027,0.231107890605921,-0.825376068168078,-1.07870376765257,0.967610342735742,-0.625191514524362,-0.92092829751819,1.32476464703831,1.32476464703674,-1.30688420079065,1.05905012215134,NaN
1407.5904,-0.84685133095395,0.708172029600068,-0.123075641651919,-1.0845133221517,0.398999940585977,0.398999940585728,-0.677524036028484,-0.982469819493515,-1.06125098494707,-1.23460336510634,1.16069899293959,-1.23460336510666,1.2193666927699,1.61242125244207,1.73318470332993,-1.01682718560513,0.234829771063764,-1.0285569826745,-0.62618798633575,-1.19635024527048,-0.626187986335387,1.25012797308963,0.186183273767968,1.26373892659345,-1.11180308476191,0.948378037784954,0.948378037785153,-1.06949422599026,1.06949422599128,0.685801056595952,-1.0307406599317,0.586471667624617,-0.673636899153132,1.30916387913999,1.51414719896925,1.82510140095758,0.347180362786301,0.797878234177074,0.797878234176784,-0.919825784301288,0.305896087213016,-0.796928711627176,-1.06052571623026,0.958669504275429,-0.603710956869754,-0.934873629929761,1.31611599342738,1.31611599342583,-1.26785183677075,1.03769144079511,NaN
1407.6928,-0.815257253347933,0.714952253315082,-0.0963452107180103,-1.06030467111673,0.404074839318251,0.404074839318035,-0.688551491219414,-0.99514926398239,-1.07684158909574,-1.21935122428817,1.15850714667985,-1.2193512242885,1.18815581363717,1.58378641006308,1.69593374080018,-1.00035381466045,0.223075555576535,-1.0187540881726,-0.61467243845709,-1.16870251797413,-0.614672438456721,1.22320564288901,0.187316274353171,1.24024286455683,-1.10711221901103,0.926453052801497,0.926453052801662,-1.05831183704431,1.05831183704533,0.702139875658105,-1.02162007435536,0.596106692361324,-0.659036196730589,1.27986302380502,1.52427651047718,1.808589603831,0.336715305791178,0.813051080688218,0.813051080687958,-0.958488091039825,0.382199111222487,-0.766933370966175,-1.04201595869234,0.949954167116514,-0.581260871928361,-0.948658622008273,1.30629311608538,1.30629311608386,-1.22755740498032,1.01589758258125,NaN
1407.7952,-0.783883193916434,0.721810883516137,-0.069717159809692,-1.0351185409433,0.408491040912542,0.408491040912348,-0.700245431583573,-1.00668442971733,-1.09240372387245,-1.20418802301289,1.15656059610098,-1.20418802301321,1.15677651968558,1.55438689531781,1.65813838945996,-0.983316777519284,0.211656121264636,-1.00797977757876,-0.602429583719318,-1.14009931802809,-0.602429583718941,1.19490282488444,0.188934585764421,1.21585098662618,-1.10146270331825,0.904033046433865,0.90403304643399,-1.04674135539589,1.0467413553969,0.717714927740998,-1.01164903706852,0.605115459513276,-0.643962658704502,1.25048401188636,1.53479570457581,1.79223438178678,0.325867352387894,0.828648962668961,0.828648962668734,-0.997075831040737,0.459890681201484,-0.735459047257756,-1.02326451098528,0.941556403916144,-0.55787659782935,-0.962249664245112,1.29528157787356,1.29528157787209,-1.18606323800937,0.993710827361984,NaN
1407.8976,-0.752742699445902,0.728712330102667,-0.0432247439179895,-1.00897738077746,0.412236198491509,0.412236198491341,-0.712528041812185,-1.01702799045219,-1.10784878786928,-1.18914772718774,1.15487157100179,-1.18914772718804,1.12530080217142,1.52427040583085,1.61987424477956,-0.965716702587824,0.200587340502935,-0.99622111425979,-0.589457495089824,-1.11061269469707,-0.58945749508944,1.16530617548688,0.191060206263396,1.19065746880951,-1.09483003450104,0.881122761983143,0.881122761983228,-1.03476558125094,1.03476558125194,0.732580163715364,-1.00085422477295,0.613453671763401,-0.628468383182829,1.22109524033662,1.54567959895923,1.77607342826738,0.314648561783736,0.844722908099988,0.844722908099787,-1.03553949211883,0.538839412649446,-0.702577846566811,-1.00435946032395,0.933566528458286,-0.533592397619408,-0.975609790197445,1.28306718240156,1.28306718240013,-1.14343411143241,0.971174248897712,NaN
1408,-0.721849734288935,0.735620588158831,-0.0169017881717097,-0.981904257101863,0.415299392535561,0.415299392535408,-0.725319649758848,-1.02613441550551,-1.12308755153456,-1.17426426348738,1.15345003018855,-1.17426426348767,1.09379531675526,1.49348284150017,1.58121227725091,-0.947555136469012,0.189883388551422,-0.983467737942321,-0.575757298189115,-1.08031696855143,-0.575757298188727,1.13450497726561,0.193713540107489,1.16475770611972,-1.08719141199617,0.857726230922911,0.857726230922946,-1.02236644309115,1.02236644309213,0.746791124741879,-0.989259335580301,0.621080102770518,-0.612600744065583,1.19176713451586,1.55690202195571,1.7601454204676,0.303070525352974,0.861321604256197,0.861321604256023,-1.07382822292759,0.618909277117994,-0.668364916394632,-0.985386505651156,0.926072482431673,-0.508441491635059,-0.98869883647842,1.26963639415904,1.26963639415764,-1.09973693489628,0.948331452982433,NaN
1408.1024,-0.691218925840725,0.742499367185992,0.00921722577832725,-0.953922974081369,0.417671213802679,0.41767121380254,-0.738538963289187,-1.03396011814553,-1.13803042905571,-1.15957141639622,1.15230352651584,-1.15957141639651,1.06232148546284,1.46206840943761,1.54221896049322,-0.928834584497093,0.179556675749673,-0.96971197230829,-0.561333233293768,-1.04928853039778,-0.561333233293376,1.10259067327211,0.196913198891478,1.13824774830833,-1.07852595311022,0.833846953259918,0.833846953259894,-1.00952531695419,1.00952531695516,0.760404557118313,-0.976885219781728,0.627956907395562,-0.596402339068,1.16257139123717,1.56843573131216,1.74448940319313,0.291144433389204,0.878491038288121,0.878491038287972,-1.1118901810511,0.699960097040381,-0.632898367916511,-0.966428499867446,0.919159211522187,-0.482456109140247,-1.00147363900023,1.25497676533452,1.25497676533318,-1.05504042080932,0.925226297820762,NaN
1408.2048,-0.660865780034023,0.749312228431345,0.0350970998493478,-0.92505818520137,0.419343836046981,0.419343836046842,-0.752103312540004,-1.04046360805291,-1.15258775680174,-1.14510272562819,1.15143706928339,-1.14510272562846,1.03093561243318,1.43006972941731,1.50295640898138,-0.909558540096017,0.169617777736806,-0.954948920761804,-0.54619269763836,-1.01760563155246,-0.546192697637961,1.06965639594122,0.20067581352793,1.11122373839618,-1.06881488947441,0.809488079877387,0.809488079877317,-0.996223345233715,0.996223345234664,0.773478044019639,-0.963750028605881,0.634049904427533,-0.579910971492868,1.1335802449932,1.5802523409692,1.72914419463033,0.278881151086959,0.896274172221113,0.89627417222099,-1.14967287073878,0.781848055150039,-0.596259171199196,-0.947565015662235,0.912908063752549,-0.455667552042812,-1.01388825313958,1.23907734917412,1.23907734917281,-1.00941475913535,0.901902620701907,NaN
1408.3072,-0.630806855393157,0.75602272361663,0.0607018896813989,-0.895335480162401,0.420311073332129,0.420311073331966,-0.765928902156557,-1.04560564315582,-1.16667007972458,-1.13089139231121,1.1508529978178,-1.13089139231147,0.999689005966991,1.39752793416828,1.46348251713916,-0.889731505378926,0.160075366800613,-0.939176550616048,-0.53034627775356,-0.985348166033085,-0.530346277753152,1.03579650150489,0.20501586089521,1.08378136679129,-1.05804173178591,0.784652587317512,0.784652587317401,-0.982441742833234,0.982441742834171,0.786069663876696,-0.949869380164082,0.639328815577019,-0.563159674423005,1.10486579260601,1.59232225801583,1.71414784183365,0.266291310146663,0.914710656323025,0.914710656322917,-1.18712344622647,0.864426201413033,-0.558531011637729,-0.928871952586602,0.907396234972248,-0.428106267421201,-1.02589418697309,1.22192907855499,1.22192907855375,-0.96293131538769,0.878403984776012,NaN
1408.4096,-0.601059891424902,0.762594531638418,0.085994905538825,-0.864781441057209,0.420568422071878,0.420568422071699,-0.779931078553064,-1.04934937864727,-1.18018844879221,-1.11697020068934,1.15055087797816,-1.11697020068959,0.968628105567845,1.36448276224708,1.42385109763787,-0.869359003214077,0.150936142504291,-0.922395767570764,-0.513807770281407,-0.952597443215893,-0.513807770280994,1.00110611785122,0.209945502088912,1.05601534594233,-1.04619240025966,0.759343439518424,0.759343439518254,-0.968162082774184,0.968162082775106,0.798237672657864,-0.935256543368913,0.643767453104808,-0.546176782556861,1.07649938575757,1.60461462697042,1.69953713148994,0.253385413822117,0.933836579468513,0.933836579468425,-1.22418897754131,0.947544959067243,-0.519800102296974,-0.910421188237928,0.902696264888414,-0.399801929312225,-1.0374406452403,1.20352510170378,1.2035251017026,-0.915662351032806,0.854773444544514,NaN
1408.512,-0.571643893603604,0.76899159346932,0.110938742524288,-0.833423670385306,0.420113093403393,0.420113093403217,-0.794024612005542,-1.05166051352748,-1.19305472946917,-1.10337145415857,1.15052742617449,-1.10337145415881,0.937794619396988,1.33097264439414,1.38411202307985,-0.84844757545334,0.142204758475701,-0.904610476746663,-0.496594183304733,-0.919435945721051,-0.496594183304314,0.965680710459518,0.215474425651131,1.0280189049181,-1.03325532640719,0.733563737350454,0.733563737350218,-0.953366559965943,0.953366559966847,0.810040200747732,-0.91992264126177,0.647343858304079,-0.528986051808499,1.04855107790589,1.61709727597813,1.68534714278485,0.240173948518866,0.953684251501036,0.953684251500953,-1.26081669194677,1.03105264330792,-0.480154954385402,-0.892280263787628,0.898875571478267,-0.370783529145744,-1.04847479054135,1.18386108229621,1.18386108229511,-0.867680755045153,0.83105331995409,NaN
1408.6144,-0.542579178965281,0.775178246452796,0.135495338078636,-0.801290796234434,0.418944042620627,0.418944042620446,-0.808123985928067,-1.0525074356222,-1.20518191538217,-1.09012691769168,1.15077645660616,-1.0901269176919,0.907225680521126,1.29703478520077,1.34431137776956,-0.827004757126468,0.133883745155155,-0.885827618105941,-0.478725713944294,-0.885947066373425,-0.478725713943869,0.929615669160773,0.221609688980478,0.999883301480275,-1.01922153343964,0.70731686094034,0.707316860940049,-0.938038236179438,0.938038236180327,0.821534957684967,-0.903876874071675,0.650040397091783,-0.511606823343569,1.02108910562495,1.62973666079909,1.67161082502577,0.22666749739358,0.974282011669908,0.974282011669834,-1.29695420306542,1.11479600168588,-0.439686111223433,-0.874512092711411,0.895996011361077,-0.341079471978871,-1.05894202965551,1.16293547469038,1.16293547468934,-0.8190597725837,0.807284967928599,NaN
1408.7168,-0.51388738551142,0.781119359088743,0.159626055248226,-0.768412460248087,0.417061998762362,0.417061998762225,-0.822143682707167,-1.05186136562719,-1.21648443863545,-1.07726775837847,1.15128883875658,-1.07726775837866,0.876954026713603,1.26270524107146,1.30449162335003,-0.805039017170535,0.125973431907921,-0.866057161900714,-0.460225704617813,-0.85221482453952,-0.46022570461738,0.893005916196473,0.228355554867519,0.971697349866493,-1.00408469991939,0.680606610508964,0.680606610508623,-0.922161270206944,0.922161270207818,0.832778944706139,-0.887126759562493,0.651843818439661,-0.494054226304884,0.994179391832233,1.64249780756516,1.65835859110158,0.212876856405359,0.995654061412788,0.995654061412722,-1.33254973021761,1.1986207773604,-0.398485847607531,-0.857174687859948,0.894113460907024,-0.310717676991597,-1.06878632696079,1.1407497790126,1.14074977901164,-0.76987271625923,0.783508542058037,NaN
1408.8192,-0.485591447928792,0.786780467514669,0.183291790761213,-0.734819291745086,0.414469493199801,0.414469493199694,-0.835998459009436,-1.04969649899531,-1.22687847029708,-1.06482447920282,1.1520524513294,-1.064824479203,0.847008201785429,1.22801899556142,1.2646917775423,-0.782559663800291,0.118471874301403,-0.845312056850369,-0.441120580335947,-0.818323570645844,-0.441120580335508,0.85594553393849,0.23571332865876,0.943546966785539,-0.987841206159627,0.653437349809969,0.653437349809582,-0.9057211358046,0.905721135805461,0.843828181737866,-0.869678385645658,0.652745278315043,-0.476339412723022,0.96788507252814,1.6553442616888,1.64561793208716,0.198813157361923,1.01782032574715,1.0178203257471,-1.36755230571968,1.28237229594861,-0.356647831121425,-0.840320909434352,0.893277421090736,-0.27972568267872,-1.0779505397782,1.1173087760279,1.117308776027,-0.720192650391931,0.759762735502597,NaN
1408.9216,-0.457715543261294,0.792127912709414,0.206453104708025,-0.700542866430853,0.411170885138949,0.411170885138888,-0.849603607351577,-1.04599014132047,-1.23628220618425,-1.05282684318786,1.15305213035744,-1.05282684318803,0.817412775599501,1.1930100356293,1.22494760605197,-0.759576719982522,0.111374790548753,-0.823608134209393,-0.421439762982566,-0.784357688644361,-0.42143976298212,0.818527411189336,0.243681207829544,0.915514743168488,-0.970490158679833,0.625814153106971,0.62581415310654,-0.888704827536935,0.888704827537779,0.854737458119524,-0.85153667057316,0.652740327599572,-0.458469820889023,0.942266058305189,1.66823805152625,1.63341306624431,0.184488003728195,1.04079634701664,1.04079634701661,-1.40191196993278,1.365896078711,-0.314266742402729,-0.823998241055215,0.893530655998297,-0.248130755762172,-1.08637676722859,1.0926207434938,1.09262074349298,-0.6700920495313,0.736084508542045,NaN
1409.024,-0.430285013400561,0.797128973277437,0.229070363570329,-0.665615646203714,0.407172383696027,0.407172383696012,-0.862875200200101,-1.04072283123744,-1.24461613181234,-1.04130378478643,1.1542696226418,-1.04130378478659,0.788188587053544,1.15771143493555,1.18529183399545,-0.736100774585498,0.104675504542023,-0.800963976695058,-0.401215556269528,-0.75040129954208,-0.401215556269075,0.780842909334527,0.25225415256197,0.887679549041724,-0.952033389742782,0.597742953363735,0.597742953363262,-0.871101052968331,0.871101052969161,0.865560111340279,-0.832705630578165,0.651828861648526,-0.440449468420787,0.917378637438165,1.68113966896068,1.62176462875659,0.169913621747277,1.06459320636534,1.06459320636533,-1.4355799553467,1.44903847822096,-0.271437859759812,-0.808248601118822,0.894908875711769,-0.215960001645587,-1.09400670610188,1.06669765961253,1.06669765961176,-0.619642439863986,0.712508805973262,NaN
1409.1264,-0.403326273338746,0.801751988263893,0.251103886610846,-0.630070901272028,0.40248206631538,0.402482066315421,-0.875730312337789,-1.03387844741225,-1.25180326123053,-1.03028330569786,1.15568355684005,-1.03028330569801,0.759353017826891,1.12215544968235,1.14575438521741,-0.712142811520837,0.0983648883547753,-0.777400761225453,-0.380482999714028,-0.716537965902178,-0.380482999713562,0.742981550057056,0.261423779728257,0.860116174802392,-0.932475435435506,0.569230687838701,0.569230687838199,-0.852900410280371,0.852900410281188,0.876347829842117,-0.813188659738543,0.650015035194243,-0.422279277569081,0.89327511637908,1.69400806331572,1.61068939706198,0.15510302375423,1.08921746176817,1.08921746176818,-1.46850885646101,1.53164731653087,-0.228256624258573,-0.793108194679771,0.897440469927126,-0.183240476986359,-1.10078201056592,1.03955539789218,1.03955539789147,-0.568914032615787,0.689068270610931,NaN
1409.2288,-0.376866711556291,0.805966469113035,0.2725140905525,-0.593942622230076,0.397109890478872,0.397109890478977,-0.888087219146749,-1.0254443013219,-1.25776934865779,-1.01979235355622,1.15726943478375,-1.01979235355636,0.730920298423439,1.08637362826456,1.10636265125172,-0.687714018385617,0.0924312996774593,-0.752942081208556,-0.359279693422625,-0.682850401782826,-0.359279693422149,0.705030724691667,0.271178281116788,0.832895009571806,-0.911823500246659,0.54028543769785,0.540285437697324,-0.834095552215605,0.834095552216408,0.887150472597749,-0.792988826438825,0.647307155045573,-0.40395742981654,0.870003489607787,1.70680064651068,1.60020004455415,0.140070176320969,1.11467109504062,1.11467109504064,-1.50065277635409,1.61357249405976,-0.184818206153318,-0.77860740983362,0.901146295425333,-0.149999307349018,-1.10664465252042,1.01121391114757,1.01121391114691,-0.517975357370274,0.66579296080386,NaN
1409.3312,-0.350934583103703,0.809743202950167,0.293261633607584,-0.557265431719649,0.391067693507861,0.391067693508013,-0.899865567830424,-1.01541122156743,-1.262443073367,-1.00985668190759,1.15899963760706,-1.00985668190772,0.702901841920559,1.05039693068851,1.06714178454201,-0.662825575004092,0.086860515657879,-0.727613747595397,-0.337645595632233,-0.649420194393607,-0.33764559563175,0.667075425299777,0.281502365046443,0.806081756082094,-0.890087415600059,0.5109165590218,0.510916559021249,-0.814681338135488,0.814681338136279,0.898015900336113,-0.772109184961164,0.643717566485533,-0.385479739053947,0.847607133439346,1.71947331014889,1.59030491896028,0.124830164139439,1.14095146993646,1.1409514699365,-1.5319674414177,1.69466654360202,-0.141217088061157,-0.764770759896267,0.906039518348371,-0.116263811005507,-1.1115372767749,0.981697397639886,0.981697397639282,-0.466892901961804,0.642710080437538,NaN
1409.4336,-0.325558891096698,0.813054347414296,0.313307562017901,-0.520074502310581,0.384369175198824,0.384369175199039,-0.910986514828972,-1.00377363684314,-1.26575619584031,-1.00050068893653,1.16084343990836,-1.00050068893664,0.675306600783437,1.01425584984072,1.02811500832313,-0.637488419660942,0.0816356695584327,-0.701443560490506,-0.315622794569958,-0.616327538075748,-0.315622794569468,0.629197999852221,0.292377215617738,0.779737180092231,-0.867279595894793,0.481134802897277,0.48113480289671,-0.794654975374388,0.794654975375162,0.908989818093037,-0.750553094780713,0.639262545666023,-0.366840028851392,0.8261245226093,1.73198045468929,1.58100784458902,0.109399342011773,1.16805131056621,1.16805131056626,-1.56241028138765,1.77478512232695,-0.0975466685743099,-0.751616869306294,0.912125510135686,-0.0820616266170085,-1.11540354319838,0.951034442124755,0.951034442124209,-0.415730764143315,0.619843728406358,NaN
1409.536,-0.300769250605608,0.815873514449258,0.332613461608074,-0.482405481285345,0.377029858372868,0.377029858373103,-0.921372821370692,-0.990529663117237,-1.26764368133381,-0.991747232546688,1.16276702729876,-0.991747232546794,0.648141442141594,0.97798052586746,0.989303935128185,-0.611712991294467,0.0767372000211418,-0.674461040773617,-0.293255254125008,-0.583650976526157,-0.293255254124515,0.591477935302745,0.303780462539183,0.75391689264277,-0.843414990478842,0.450952422239956,0.450952422239357,-0.774016149283459,0.774016149284212,0.92011563504016,-0.728324539578481,0.633962204293636,-0.348030502287622,0.805588975545796,1.74427503123751,1.57230795320394,0.0937954725932027,1.1959587114793,1.19595871147937,-1.59194047533227,1.85378744789392,-0.0538988809745203,-0.739158501252411,0.919401797048982,-0.0474208410832121,-1.11818844735987,0.919258125085704,0.919258125085232,-0.364550319754677,0.597214673381325,NaN
1409.6384,-0.276595730753546,0.818175840229657,0.351141615411523,-0.444294417304596,0.36906702439777,0.369067024397999,-0.930948903582808,-0.975681195600809,-1.26804378817733,-0.98361742170781,1.16473351874352,-0.983617421707909,0.621411535410733,0.941600848391637,0.950728886810991,-0.585508951507623,0.0721428235911129,-0.646697117212457,-0.270588530011947,-0.551467149457467,-0.270588530011451,0.55399167142887,0.315686159530361,0.728671166302014,-0.818511027189483,0.420383262542987,0.420383262542375,-0.752767139239748,0.752767139240481,0.931434349748369,-0.705428442710537,0.627840406459001,-0.329042101210848,0.786028439749015,1.75630859790591,1.56419955321915,0.0780378521598596,1.22465718796134,1.22465718796144,-1.62051896534127,1.93153668609533,-0.0103638217217282,-0.727402626122389,0.927858064829072,-0.012370113536841,-1.11983861346906,0.886406094424599,0.886406094424179,-0.313409912231307,0.574840158515909,NaN
1409.7408,-0.253068676161806,0.819938039659825,0.368855165527573,-0.405777684161703,0.360499625150021,0.360499625150254,-0.939640844693368,-0.959234000239415,-1.2668981243824,-0.976130391164774,1.16670300247841,-0.976130391164866,0.595120746612846,0.905146548244029,0.912409213203492,-0.558884900956738,0.0678275386962668,-0.618183779621835,-0.24766945616391,-0.519850543304404,-0.247669456163413,0.516812445900857,0.328064774418918,0.704044788074133,-0.792587545286859,0.389442833647892,0.389442833647259,-0.73091291704995,0.730912917050668,0.942984462133753,-0.681870979928936,0.620924690022088,-0.309864860136761,0.767465324211452,1.76803139014324,1.55667204211789,0.0621474264381607,1.25412576644319,1.25412576644331,-1.6481084429603,2.00790029284137,0.0329706080487877,-0.716350527468593,0.937476217205436,0.0230612089363508,-1.1203025592531,0.852520596630993,0.852520596630638,-0.26236457009302,0.552733739433681,NaN
1409.8432,-0.230218514047588,0.821138443673243,0.385718273595179,-0.36689190326683,0.351348175932142,0.351348175932422,-0.947376389651064,-0.94119779759117,-1.26415168579574,-0.969303077414467,1.16863259334407,-0.96930307741456,0.569272035790804,0.868647286639212,0.874363611430723,-0.531848116627495,0.0637636661964576,-0.588953725755063,-0.22454581179272,-0.488873252431731,-0.224545811792224,0.480010167593963,0.340883193065368,0.680076947816943,-0.765666718892902,0.358148361218666,0.358148361217994,-0.70846122509282,0.708461225093518,0.954801904014574,-0.657659890868041,0.613246180295992,-0.290488263418854,0.749916374724651,1.77939239784397,1.54970985498396,0.0461468962099125,1.28433910293514,1.28433910293529,-1.67467331894543,2.08275031088797,0.0760190357419447,-0.705997939883983,0.948230482683162,0.0588429862890014,-1.11953093763586,0.817648464814436,0.817648464814126,-0.211465760866849,0.530905156112232,NaN
