time,S1-D1,S1-D8,S1-D9,S1-D15,S2-D1,S2-D2,S2-D3,S2-D9,S3-D1,S3-D2,S3-D16,S4-D2,S4-D3,S4-D5,S5-D3,S5-D4,S5-D5,S6-D2,S6-D5,S6-D17,S7-D6,S7-D7,S8-D6,S8-D7,S8-D18,S9-D3,S9-D4,S9-D9,S9-D11,S9-D19,S10-D8,S10-D9,S10-D10,S10-D11,S11-D8,S11-D10,S11-D20,S12-D10,S12-D11,S12-D12,S13-D4,S13-D11,S13-D12,S14-D10,S14-D12,S14-D21,S15-D13,S15-D14,S16-D13,S16-D14,S16-D22
85.9136,0.799977380970041,-0.922446825532247,0.575640452982523,0.55139583216771,-0.957830228681191,-0.957830228679979,NaN,-1.40908324662,0.904154398578087,1.79036290432984,-3.06482873176523,1.79036290433092,-0.0422803288717424,0.946577979288384,NaN,-0.443834943123743,NaN,0.274316738071285,-0.645971226602121,-0.574715776312979,-0.645971226602363,2.31145919342215,NaN,NaN,NaN,-0.22565529057013,NaN,NaN,0.229840579622478,-1.03756040577969,-0.638101213522749,-1.23565818092801,-3.27470837070145,NaN,-1.89590692560335,-2.14854324835463,1.53021821282463,-1.08391535313903,-1.08391535313794,0.388403190803658,-1.29995190769914,-0.714074303454774,1.07403427702261,-0.122251427663115,1.74924203643904,NaN,-0.731774415322884,0.317670178838955,NaN,2.95685602788781,-1.61776506232162
86.016,0.775290385576534,-0.989083164436463,0.5248925802591,0.566808248521724,-0.951065673204929,-0.951065673203745,NaN,-1.45924414007396,0.870804206122558,1.79118209768786,-3.03816648813098,1.79118209768894,-0.0870562339369029,0.9136778875105,NaN,-0.495601549410876,NaN,0.249495177322904,-0.643826394597223,-0.586619737386227,-0.643826394597466,2.29382292783239,NaN,NaN,NaN,-0.269695663521831,NaN,NaN,0.178604737710448,-0.980852772940631,-0.662695064188379,-1.19248341243121,-3.2296025717514,NaN,-1.93562795169504,-2.15127077823668,1.60155102388459,-1.12057656531383,-1.12057656531275,0.421373018941024,-1.3734411204382,-0.743277536953551,1.06168803469588,-0.0928198464146254,1.78132907143507,NaN,-0.712294343501483,0.332894639494719,NaN,3.00042524052472,-1.68541645601881
86.1184,0.749912940955397,-1.05500037472884,0.473621167238654,0.581971409265235,-0.944147807886922,-0.944147807885766,NaN,-1.50843991248964,0.836614801208052,1.79025143989304,-3.00866370655216,1.79025143989411,-0.131700529609405,0.880152378530697,NaN,-0.547597846786648,NaN,0.223759356229254,-0.641099374380991,-0.599045711805678,-0.64109937438124,2.27507413828467,NaN,NaN,NaN,-0.313108051438637,NaN,NaN,0.126977259480858,-0.923880462133772,-0.687297537039158,-1.14754958698556,-3.18119054297444,NaN,-1.97340800088339,-2.15238607369772,1.67202177328432,-1.15642833887059,-1.15642833886951,0.453294061559307,-1.44542822391176,-0.772263937867203,1.04816246749667,-0.0628041171117623,1.81233327794114,NaN,-0.692683538710222,0.348589544724478,NaN,3.04178107749888,-1.75199495913601
86.2208,0.723930375300038,-1.12000160402038,0.421990010952882,0.596856941603804,-0.937126222943388,-0.937126222942255,NaN,-1.5565285266246,0.801727272311416,1.78763535427271,-2.97642806387543,1.78763535427378,-0.17609502093444,0.846181871388054,NaN,-0.599710996635014,NaN,0.197161554099504,-0.637810196633904,-0.611961710109812,-0.637810196634158,2.25530330290482,NaN,NaN,NaN,-0.355741523560647,NaN,NaN,0.0751259376086839,-0.866800778398282,-0.711847293907574,-1.10103027364275,-3.12970909959026,NaN,-2.00916872935171,-2.1519621612782,1.74150151459233,-1.19139753411915,-1.19139753411808,0.484087340306456,-1.51574237691496,-0.800967982430035,1.03354771713965,-0.0323060390456374,1.84223098841346,NaN,-0.673010951339503,0.364752466989322,NaN,3.08091818661739,-1.8173712309626
86.3232,0.697426781733981,-1.18389705921248,0.3701590774591,0.611436911131919,-0.930048398812996,-0.930048398811882,NaN,-1.60337705354004,0.766279243038434,1.78340179784849,-2.94157257333723,1.78340179784954,-0.22012815676262,0.81194190892698,NaN,-0.65182805741782,NaN,0.169757036594636,-0.6339824777991,-0.625333821166628,-0.633982477799361,2.23459886390955,NaN,NaN,NaN,-0.39744912065495,NaN,NaN,0.0232158405019868,-0.809767013148796,-0.736282413605128,-1.05310222420809,-3.07540020015962,NaN,-2.0428390439486,-2.1500731428458,1.80986556871939,-1.22541430325683,-1.22541430325576,0.513680328168392,-1.5842221815039,-0.829325654024624,1.01793479130613,-0.0014258580335484,1.87100302236969,NaN,-0.653338668924351,0.38138197069305,NaN,3.11783776840482,-1.88142116343151
86.4256,0.670484697578947,-1.24650492296099,0.318283824933054,0.62568390741858,-0.922959460497625,-0.922959460496538,NaN,-1.64886228402744,0.730404199224101,1.77762191003263,-2.90421495604513,1.77762191003368,-0.263695494569126,0.777602253916136,NaN,-0.703836413923461,NaN,0.141603859073137,-0.629643314972239,-0.639126530702871,-0.629643314972505,2.21304674551709,NaN,NaN,NaN,-0.438088481400891,NaN,NaN,-0.0285914582512838,-0.752927937970121,-0.760541014042299,-1.00394419528758,-3.01850964368468,NaN,-2.07435531613724,-2.14679359678146,1.87699386896591,-1.25841224603248,-1.25841224603141,0.54200722345253,-1.6507162686781,-0.857274664539654,1.00141491787634,0.0297384291209801,1.89863479310208,NaN,-0.633721938218779,0.398477613816779,NaN,3.15254730125593,-1.94402642375537
86.528,0.64318481013245,-1.3076521958782,0.266514582194695,0.639571133326331,-0.915901980018174,-0.915901980017112,NaN,-1.69287123087117,0.694230883865943,1.77036962923409,-2.86447699558424,1.77036962923512,-0.306700057345094,0.743326086111913,NaN,-0.755624223699298,NaN,0.112762652936319,-0.624823108536481,-0.65330307120554,-0.624823108536752,2.19072992470934,NaN,NaN,NaN,-0.477522441626852,NaN,NaN,-0.0801386399474847,-0.696427280633964,-0.784561857387597,-0.953735786727916,-2.95928577256695,NaN,-2.10366156041834,-2.14219800996853,1.94277131251207,-1.29032855301279,-1.29032855301172,0.569009189805485,-1.71508380755337,-0.88475464496033,0.984078958334352,0.0610916746283334,1.92511634537763,NaN,-0.614209336105511,0.416039935013691,NaN,3.185060197575,-2.00507497843568
86.6304,0.615605687998416,-1.36717544329975,0.214995988939413,0.653072535596068,-0.908915821450027,-0.908915821449,NaN,-1.73530149601106,0.65788277317426,1.76172127431803,-2.82248387136421,1.76172127431904,-0.349052569434524,0.709269322349913,NaN,-0.807080916452613,NaN,0.0832963660090473,-0.619555340828736,-0.667825800593799,-0.619555340829013,2.16772805283343,NaN,NaN,NaN,-0.51561959649593,NaN,NaN,-0.131273396728981,-0.640403142770681,-0.808284908544231,-0.902656311124254,-2.89797816517502,NaN,-2.13070958896282,-2.13636025377934,2.00708816078513,-1.32110415438291,-1.32110415438184,0.594634560872415,-1.77719493608304,-0.911707304947987,0.966016882522346,0.09254207206,1.9504423055722,NaN,-0.594843069844419,0.434070417582407,NaN,3.21539540821247,-2.06446158400789
86.7328,0.587823542526933,-1.42492141886302,0.163866512400758,0.66616300604991,-0.9020380234283,-0.902038023427296,NaN,-1.77606147272853,0.621477655008906,1.75175509604452,-2.77836346860028,1.75175509604552,-0.390671557673488,0.675580083879464,NaN,-0.85809775683748,NaN,0.0532699430674897,-0.613876344462252,-0.682656606490924,-0.613876344462531,2.14411712307338,NaN,NaN,NaN,-0.55225481524907,NaN,NaN,-0.181849181276942,-0.58498732676604,-0.831651836641142,-0.850883700738216,-2.83483631475814,NaN,-2.1554591538054,-2.12935312580266,2.06984051542263,-1.35068388878263,-1.35068388878157,0.618838997485846,-1.83693110922513,-0.938076570192586,0.947317314365596,0.124001533772617,1.97461174840897,NaN,-0.575659383663007,0.452571421669546,NaN,3.24357699342672,-2.12208822301868
86.8352,0.559912035703005,-1.48074754876872,0.113258064330675,0.678818660023031,-0.895302713750744,-0.895302713749774,NaN,-1.81507037392838,0.585127327204791,1.74055082290898,-2.73224566742129,1.74055082290996,-0.431483315138643,0.642398320128594,NaN,-0.908568442328257,NaN,0.0227499637625101,-0.607825076796351,-0.697757327801741,-0.607825076796632,2.1199691816358,NaN,NaN,NaN,-0.587309700478397,NaN,NaN,-0.231725928652432,-0.530304579680501,-0.854606472866801,-0.798593456381201,-2.77010832300321,NaN,-2.17787807347791,-2.12124797396307,2.13093086038117,-1.3790166822501,-1.37901668224903,0.641585578006915,-1.89418535750506,-0.96380871117503,0.928067154923726,0.155385962414007,1.99762800876999,NaN,-0.556689044150116,0.471546086471018,NaN,3.26963367021079,-2.1778644665565
86.9376,0.531942148579564,-1.53452227929768,0.0632957331846953,0.69101716914793,-0.888741050793233,-0.888741050792283,NaN,-1.85225811143198,0.54893741341858,1.72818923349695,-2.68426162551254,1.72818923349792,-0.4714217464896,0.609855571062878,NaN,-0.958389682906784,NaN,-0.00819572374942622,-0.601442901301595,-0.713090172221762,-0.601442901301879,2.09535208472177,NaN,NaN,NaN,-0.62067298767899,NaN,NaN,-0.280770710251586,-0.476471819801845,-0.877095238554828,-0.745957656182453,-2.70403966260622,NaN,-2.19794232805505,-2.11211440723789,2.19026861943502,-1.40605570908611,-1.40605570908503,0.662844808483336,-1.94886245046751,-0.988852472166761,0.90835127703269,0.186615440478198,2.01949847265908,NaN,-0.537957862801185,0.490998213964486,NaN,3.29359834192998,-2.231707753585
87.04,0.5039821026687,-1.58612530469313,0.0140976170853417,0.702738102058848,-0.882381188811665,-0.882381188810726,NaN,-1.88756507264359,0.51300726964827,1.71475176951792,-2.6345430796649,1.71475176951886,-0.510428134005859,0.578074828986542,NaN,-1.00746171811683,NaN,-0.0394983431230509,-0.594773362276121,-0.728618100880835,-0.594773362276406,2.0703293003377,NaN,NaN,NaN,-0.652240887721331,NaN,NaN,-0.328858284976603,-0.423597439640293,-0.89906754658662,-0.693144046988429,-2.63687205630767,NaN,-2.21563610819837,-2.10202008441247,2.24777065870891,-1.43175851418155,-1.43175851418048,0.68259455655516,-2.00087897043993,-1.01315920110241,0.888252272939861,0.217614366472022,2.04023436627784,NaN,-0.519487210914988,0.510932145578218,NaN,3.31550762821628,-2.28354358634708
87.1424,0.476097305103932,-1.63544770158052,-0.0342252841880836,0.713963221778971,-0.876248266951914,-0.876248266950992,NaN,-1.92094184039475,0.477429941293465,1.70032017571747,-2.58322169106443,1.70032017571839,-0.548450870162825,0.547170457588889,NaN,-1.05568875696219,NaN,-0.0710885009495531,-0.587861934775866,-0.744305164059766,-0.587861934776152,2.04495974782255,NaN,NaN,NaN,-0.681917382867248,NaN,NaN,-0.375871537809771,-0.371780756290699,-0.920476175551231,-0.640315227605569,-2.56884248894552,NaN,-2.230951813133,-2.09103056437802,2.30336167976974,-1.4560870975232,-1.45608709752213,0.700819925877418,-2.05016331324189,-1.03668297750048,0.867850234340398,0.248311558382549,2.05985054384364,NaN,-0.501294501916911,0.531352640299686,NaN,3.33540142363894,-2.3333056459909
87.2448,0.448350287471263,-1.68239199636518,-0.0815691610525588,0.724676704905199,-0.870364422085781,-0.87036442208487,NaN,-1.9523488871063,0.442292136867313,1.68497614252391,-2.53042844924449,1.68497614252482,-0.585445191010732,0.517248139055236,NaN,-1.10297934708398,NaN,-0.102896480768816,-0.580755747667182,-0.760116789833817,-0.580755747667468,2.01929766984834,NaN,NaN,NaN,-0.709614488542839,NaN,NaN,-0.421701816068915,-0.321111634594795,-0.941277611255109,-0.587627922896522,-2.50018234266457,NaN,-2.24388999900316,-2.07920920043801,2.35697448322643,-1.47900797410291,-1.47900797410184,0.717513084975354,-2.09665563042712,-1.05938073675472,0.847222558093379,0.278640328041503,2.07836526847469,NaN,-0.483393642775716,0.552264760993549,NaN,3.35332250188711,-2.38093583650515
87.3472,0.420800624981764,-1.72687218084266,-0.127837490020866,0.734865273886648,-0.864748822034771,-0.864748822033858,NaN,-1.9817562563387,0.407674203938412,1.66880094008752,-2.47629313869816,1.6688009400884,-0.621372922385443,0.488404839155755,NaN,-1.14924668315003,NaN,-0.134852524722771,-0.573503289030538,-0.776020023386894,-0.573503289030825,1.99339254046487,NaN,NaN,NaN,-0.735252486957345,NaN,NaN,-0.466249179058305,-0.271670272820046,-0.96143233756638,-0.535232352842983,-2.43111663641147,NaN,-2.25445928081712,-2.06661706491662,2.40855011216705,-1.50049222163078,-1.50049222162972,0.732673054471899,-2.14030771510876,-1.08121238854984,0.826443785737766,0.308538514993183,2.09579997986975,NaN,-0.465795470427249,0.57367377023285,NaN,3.36931616390647,-2.42638426917209
87.4496,0.393504840881938,-1.76881367702251,-0.17294112851326,0.744518256591015,-0.85941771198401,-0.859417711983088,NaN,-2.00914322933418,0.373650112032959,1.65187505072682,-2.42094386360369,1.65187505072768,-0.656202231567259,0.460728796633757,NaN,-1.19440886249113,NaN,-0.166887099159606,-0.566154089514068,-0.791983699830905,-0.566154089514356,1.96728901736446,NaN,NaN,NaN,-0.758760131289031,NaN,NaN,-0.509422575404088,-0.22352712036428,-0.980905055251807,-0.483271703528245,-2.36186335128586,NaN,-2.26267618969707,-2.05331289508563,2.45803790216661,-1.52051552125025,-1.52051552124919,0.746305455226487,-2.18108282627941,-1.10214092249048,0.805585482360236,0.337948470381621,2.11217904133871,NaN,-0.448508185486438,0.595585029766155,NaN,3.38342992690325,-2.46960919854689
87.552,0.366516312997246,-1.80815324578652,-0.216798387801597,0.753627602195938,-0.854384468397593,-0.854384468396659,NaN,-2.03449796432458,0.340287459106306,1.63427781628291,-2.36450661830765,1.63427781628375,-0.689907365767113,0.434299552400865,NaN,-1.23838909324806,NaN,-0.19893114129651,-0.558758365236015,-0.807978536411379,-0.558758365236305,1.94102694357563,NaN,NaN,NaN,-0.780074816569522,NaN,NaN,-0.551139960795497,-0.176742885014875,-0.999664823740163,-0.431881694546673,-2.29263282389446,NaN,-2.26856498517437,-2.03935305601496,2.50539547312683,-1.53905818865332,-1.53905818865227,0.758422224362006,-2.21895545008039,-1.12213249255315,0.78471614815983,0.366816997005256,2.1275294653848,NaN,-0.43153778198784,0.61800389686704,NaN,3.39571325418757,-2.51057691573814
87.6544,0.339885205883453,-1.8448388344605,-0.259335056099539,0.762187889857599,-0.849659659181775,-0.849659659180846,NaN,-2.05781709366757,0.307647523051651,1.61608711862359,-2.30710488500521,1.61608711862441,-0.722468355645134,0.409188035575532,NaN,-1.28111585610491,NaN,-0.230916284786295,-0.551366608889744,-0.823977146884891,-0.551366608890034,1.91464139944434,NaN,NaN,NaN,-0.799142714823373,NaN,NaN,-0.59132836739319,-0.131368580695482,-1.01768513844465,-0.381190225777878,-2.22362719418957,NaN,-2.27215742353673,-2.02479152169094,2.5505886996115,-1.55610518789942,-1.55610518789837,0.769041303960484,-2.253911002197,-1.14115647907378,0.763901154148772,0.395095259021594,2.14188062719031,NaN,-0.414888461258747,0.640935615077894,NaN,3.40621731604318,-2.54926160091336
87.7568,0.313658453453971,-1.87882935885026,-0.300484342416082,0.770196363517198,-0.845251111235107,-0.845251111234185,NaN,-2.07910526758864,0.275785378603817,1.59737911190498,-2.24885924059407,1.59737911190578,-0.75387066665036,0.385456718651616,NaN,-1.32252301865432,NaN,-0.262775060516138,-0.544029132979112,-0.839953991682491,-0.544029132979401,1.88816280599603,NaN,NaN,NaN,-0.815918872050599,NaN,NaN,-0.629923929925217,-0.0874455761489146,-1.03494395792828,-0.331317093211166,-2.15503990944623,NaN,-2.27349248642839,-2.00967988126954,2.59359168548372,-1.57164611767206,-1.57164611767102,0.778186301412206,-2.28594547836529,-1.15918553525338,0.743202698514598,0.422738669305836,2.15526397451625,NaN,-0.398563016639574,0.664385196855594,NaN,3.41499476572299,-2.58564513414471
87.8592,0.287879807587536,-1.91009441710961,-0.340186722902508,0.777653006036203,-0.841163987805151,-0.84116398780424,NaN,-2.09837464337688,0.244750089865288,1.57822802058499,-2.18988696542013,1.57822802058576,-0.784104792957446,0.363159842781544,NaN,-1.3625499006606,NaN,-0.294441068255735,-0.536795582334672,-0.855885275750434,-0.536795582334964,1.86161708276108,NaN,NaN,NaN,-0.830367263490017,NaN,NaN,-0.666871862014924,-0.0450056420488192,-1.05142368828607,-0.282373778389913,-2.08705530390025,NaN,-2.27261607503565,-1.9940673794565,2.63438674128467,-1.58567516089824,-1.58567516089719,0.785886119497383,-2.315065059343,-1.1761956255435,0.722679779665234,0.449706759435762,2.16771273595335,NaN,-0.382563179575233,0.688357289720553,NaN,3.42209953047216,-2.61971686281467
87.9616,0.262589944150397,-1.9386139415141,-0.378389701388656,0.784560633827696,-0.837400878608631,-0.837400878607725,NaN,-2.11564433444683,0.214584966704155,1.55870599957017,-2.13030166368811,1.55870599957093,-0.813165809141502,0.342343697096184,NaN,-1.40114129021058,NaN,-0.32584911764189,-0.529714452074412,-0.871748800238899,-0.529714452074705,1.83502585739722,NaN,NaN,NaN,-0.842460806692066,NaN,NaN,-0.702126371869134,-0.00407103746735383,-1.06711112921471,-0.234463318566518,-2.01984827403465,NaN,-2.26958067431216,-1.97800099465541,2.6729643333315,-1.59819099701937,-1.59819099701831,0.792174558945678,-2.34128567610513,-1.19216605803712,0.702388182528135,0.475963036133215,2.1792616283464,NaN,-0.366889919592834,0.712856016324695,NaN,3.42758663293182,-2.65147332732879
88.064,0.237826594339806,-1.9643778061841,-0.415047526294456,0.790924971627709,-0.83396190336218,-0.833961903361289,NaN,-2.13093984670099,0.185327851240105,1.53888303221065,-2.07021291718165,1.53888303221139,-0.841052914873468,0.32304692219026,NaN,-1.43824741830992,NaN,-0.356935345600275,-0.522832660852755,-0.887523777442454,-0.522832660853049,1.8084067134795,NaN,NaN,NaN,-0.852181337701393,NaN,NaN,-0.73565051575847,0.0353453130765648,-1.08199738795466,-0.187680253217618,-1.95358405044926,NaN,-2.26444498958068,-1.96152554482255,2.70932296561792,-1.60919668546461,-1.60919668546354,0.797089906598156,-2.36463254681801,-1.20707950740527,0.682380480993674,0.501474822807525,2.18994656618896,NaN,-0.351543695211388,0.737884789180355,NaN,3.43151204833044,-2.68091795159922
88.1664,0.213624668378791,-1.98738541296707,-0.450120908529239,0.796754671965335,-0.830844825923518,-0.830844825922631,NaN,-2.14429252931598,0.157011398352568,1.51882683833362,-2.00972599209007,1.51882683833434,-0.867769008758252,0.305300809282148,NaN,-1.47382390389469,NaN,-0.387637324330212,-0.516195213824878,-0.90319062853613,-0.516195213825176,1.78177345989376,NaN,NaN,NaN,-0.859519556117576,NaN,NaN,-0.767415997716373,0.0732395265408845,-1.09607776930351,-0.14211063188859,-1.88841805007313,NaN,-2.25727355471302,-1.94468379918077,2.74346897241713,-1.61869952921787,-1.61869952921679,0.800674531173167,-2.38513970138175,-1.22092201952994,0.662706059617018,0.526213085707525,2.19980437780192,NaN,-0.336524663112646,0.763446113541458,NaN,3.43393258458175,-2.70806070648138
88.2688,0.190016356842252,-2.00764527102843,-0.48357676225052,0.8020612667025,-0.828045174904937,-0.828045174904067,NaN,-2.15573905313247,0.129663332114489,1.49860277702229,-1.94894160727359,1.49860277702298,-0.893320306466353,0.289129582377936,NaN,-1.50783167949284,NaN,-0.417894173692033,-0.509844960909022,-0.918730787802717,-0.509844960909321,1.7551364110296,NaN,NaN,NaN,-0.864474939200692,NaN,NaN,-0.797402924421758,0.109616358659798,-1.10935164685194,-0.097832068549315,-1.82449578837624,NaN,-2.24813631074441,-1.92751657604236,2.77541622460694,-1.62671092319531,-1.62671092319422,0.802974503752783,-2.40284950146489,-1.23368298723254,0.643411151870147,0.550152250128976,2.20887253345453,NaN,-0.32183285747974,0.789541393736892,NaN,3.43490576838241,-2.73291775521131
88.3712,0.167031212199761,-2.02517457534622,-0.515387967389802,0.806859060987092,-0.825556368343615,-0.825556368342752,NaN,-2.16532091265324,0.103306680903768,1.4782737414082,-1.88795576010641,1.47827374140887,-0.917715994205948,0.274550668729355,NaN,-1.54023690909891,NaN,-0.447646687514938,-0.503822444940907,-0.934126532622361,-0.503822444941206,1.72850267314662,NaN,NaN,NaN,-0.867055620689528,NaN,NaN,-0.825599521683204,0.144488718779893,-1.12182231464114,-0.0549138322134708,-1.76195283106078,NaN,-2.23710815782536,-1.91006281948712,2.80518577278071,-1.63324619191496,-1.63324619191386,0.80403924636544,-2.41781215289159,-1.24535509099956,0.624538892838941,0.573270009310223,2.21718888645668,NaN,-0.307468350224127,0.816170748213933,NaN,3.43448972652777,-2.75551109112078
88.4736,0.14469622274459,-2.03999878105091,-0.545533139260924,0.811164995241885,-0.82336984386558,-0.823369843864726,NaN,-2.17308393538087,0.0779600070360463,1.45790005001636,-1.82685959718058,1.45790005001701,-0.940967895015031,0.261574974245151,NaN,-1.57101090928896,NaN,-0.476837474103417,-0.498165832485812,-0.949360857957245,-0.498165832486113,1.70187643588721,NaN,NaN,NaN,-0.867278228578194,NaN,NaN,-0.8520018179833,0.177877141041087,-1.13349682219554,-0.0134169599465202,-1.70091476341983,NaN,-2.22426848681748,-1.8923596581998,2.83280546101613,-1.63832442004377,-1.63832442004267,0.803921203057718,-2.43008520119378,-1.25593420256066,0.606129385853657,0.59554712407292,2.22479142266162,NaN,-0.293431405573619,0.843332829109215,NaN,3.43274305603093,-2.77586817430928
88.576,0.12303589629292,-2.05215116723417,-0.573996383578374,0.814998507378652,-0.821475198877444,-0.821475198876593,NaN,-2.17907777865607,0.0536376516480501,1.43753934353308,-1.76573931272546,1.43753934353371,-0.963090122830387,0.250207183085472,NaN,-1.60013007553406,NaN,-0.505411100481156,-0.49291090618528,-0.964417419614695,-0.492910906185584,1.67525926989727,NaN,NaN,NaN,-0.865167675973455,NaN,NaN,-0.876613297134208,0.209809254124597,-1.14438580712094,0.026605626612578,-1.64149716272661,NaN,-2.20970069673843,-1.87444245597477,2.85830954545728,-1.64196827246908,-1.64196827246798,0.802675523872189,-2.43973299975551,-1.2654192520241,0.588219771901741,0.616967219557462,2.23171800967922,NaN,-0.279722641443599,0.871024642991855,NaN,3.42972467532672,-2.79402156790342
88.6784,0.102072369967542,-2.06167238666092,-0.600767017385218,0.81838142045019,-0.819860345552419,-0.819860345551586,NaN,-2.1833554037062,0.030350011273225,1.41724649821265,-1.70467605937779,1.41724649821327,-0.984098707641656,0.240446093045725,NaN,-1.6275758075592,NaN,-0.533314229292558,-0.488091080001069,-0.979280555736277,-0.488091080001375,1.6486504348603,NaN,NaN,NaN,-0.860756904098039,NaN,NaN,-0.899444516777766,0.240319277461012,-1.15450334100049,0.0651090096953087,-1.58380558091226,NaN,-2.19349170294043,-1.85634486870811,2.88173833737945,-1.64420379519218,-1.64420379519109,0.800359748575871,-2.44682614855694,-1.27381207020939,0.570844279653469,0.637516596377264,2.23800613725745,NaN,-0.266343198052052,0.899241373830016,NaN,3.42549365165559,-2.81000857431994
88.7808,0.0818255498476468,-2.06861000357191,-0.625839252415752,0.821337856785129,-0.818511683008027,-0.818511683007206,NaN,-2.18597253611739,0.00810384692602151,1.39707356416532,-1.643745866883,1.39707356416591,-1.00401119595782,0.232284981733116,NaN,-1.65333442656284,NaN,-0.560495744620661,-0.483737396128269,-0.993935359803689,-0.483737396128576,1.62204720316867,NaN,NaN,NaN,-0.854086585689373,NaN,NaN,-0.920512689058447,0.269447535177982,-1.16386679377451,0.102056158907932,-1.52793556388752,NaN,-2.17573144036823,-1.83809892165961,2.90313786116699,-1.64506019350362,-1.64506019350253,0.79703347793369,-2.451440915696,-1.28111722892989,0.554034244671915,0.657184068677632,2.24369265104893,NaN,-0.253294900182303,0.927976209305446,NaN,3.42010901236896,-2.82387087418653
88.8832,0.0623132645509446,-2.07301802599656,-0.649211860957109,0.823894151904681,-0.817414282852504,-0.817414282851686,NaN,-2.18698713683834,-0.0130973949840977,1.3770697241297,-1.58301958159292,1.37706972413028,-1.0228462558619,0.225711981477373,NaN,-1.67739708022622,NaN,-0.586906867436646,-0.479878477859799,-1.00836776765298,-0.479878477860108,1.59544519430361,NaN,NaN,NaN,-0.845204799274543,NaN,NaN,-0.939841225356941,0.297239945178401,-1.17249670846589,0.137417793115066,-1.47397272695171,NaN,-2.15651236669453,-1.81973510871297,2.92255949283689,-1.64456959578979,-1.6445695957887,0.792758030710174,-2.45365865764765,-1.28734189466901,0.537818109140728,0.675960827122551,2.24881349694238,NaN,-0.240580389783964,0.957220173652107,NaN,3.4136295536558,-2.83565416966305
88.9856,0.0435514062847745,-2.07495643874027,-0.670887855973091,0.82607873334563,-0.81655207405043,-0.816552074049602,NaN,-2.186458908144,-0.0332532824407413,1.35728125583823,-1.52256284990006,1.35728125583878,-1.04062332651818,0.220710435401407,NaN,-1.69975963536815,NaN,-0.612501262915361,-0.476540440900057,-1.02256464364881,-0.476540440900368,1.56883870199953,NaN,NaN,NaN,-0.834166677014125,NaN,NaN,-0.957459252203174,0.323747442105979,-1.18041666817509,0.171172208470925,-1.42199288264647,NaN,-2.13592896938528,-1.80128250103447,2.94005954654447,-1.64276681743558,-1.6427668174345,0.78759609927361,-2.45356524794572,-1.29249569085121,0.52222142057519,0.693840318891622,2.25340349520162,NaN,-0.228203204436937,0.986961976185,NaN,3.40611365325,-2.84540783219289
89.088,0.0255540404220406,-2.0744907387343,-0.690874207283566,0.827921944733301,-0.815908007411161,-0.815908007410328,NaN,-2.18444884834646,-0.0523661428338742,1.33775148403087,-1.46243616260335,1.3377514840314,-1.05736233967859,0.217259217256894,NaN,-1.72042256041003,NaN,-0.637235143762865,-0.473746792422249,-1.03651386543208,-0.473746792422558,1.54222099643444,NaN,NaN,NaN,-0.82103402230014,NaN,NaN,-0.973401106878602,0.349025324016153,-1.18765313527808,0.203305064841806,-1.37206220602554,NaN,-2.11407727751462,-1.78276884689172,2.95569879976786,-1.63968913462256,-1.63968913462147,0.781611424076915,-2.45125051919281,-1.29659055233351,0.507266839937921,0.710818138548223,2.25749615216127,NaN,-0.216167792579517,1.01718788323039,NaN,3.39761909584058,-2.85318455320681
89.1904,0.00833348018118943,-2.07169147169365,-0.709181597263153,0.829455817550585,-0.815464187972926,-0.815464187972095,NaN,-2.18101885505375,-0.0704408573090111,1.31852072132591,-1.40269496116613,1.31852072132642,-1.07308351609399,0.215333015172779,NaN,-1.73939080011101,NaN,-0.66106737447357,-0.471518349056629,-1.05020440811714,-0.471518349056936,1.51558459361853,NaN,NaN,NaN,-0.805874894587604,NaN,NaN,-0.98770582014129,0.373132543094655,-1.19423524971455,0.233809127783366,-1.32423742330815,NaN,-2.09105437701475,-1.76422064913067,2.96954197139837,-1.63537606983299,-1.6353760698319,0.774868500614617,-2.44680771902766,-1.29964055886615,0.492974161304163,0.726891925985239,2.26112350636212,NaN,-0.204479481812039,1.04788161213832,NaN,3.38820293283653,-2.85903999534438
89.2928,-0.00809966489666775,-2.06663377115211,-0.725824206698183,0.830713809802311,-0.815201978518046,-0.815201978517214,NaN,-2.17623136465518,-0.0874846904308041,1.29962620571882,-1.34338979259691,1.29962620571931,-1.08780721835302,0.214902592862714,NaN,-1.75667364178801,NaN,-0.683959577412303,-0.469873180805141,-1.06362644010882,-0.469873180805447,1.48892149197722,NaN,NaN,NaN,-0.788763162274391,NaN,NaN,-1.00041659145181,0.396130977160453,-1.2001945843491,0.262683972361844,-1.27856600906794,NaN,-2.06695792919588,-1.74566321579655,2.98165718096457,-1.62986918507068,-1.62986918506958,0.767432317802326,-2.44033297316456,-1.30166174272267,0.479360337406762,0.742061273039341,2.26431600165292,NaN,-0.193144431815282,1.07902424334538,NaN,3.37792139093405,-2.86303244407429
89.3952,-0.0237364504164494,-2.05939690164191,-0.7408195132154,0.831730541565391,-0.815102084339743,-0.815102084338912,NaN,-2.17014900933294,-0.103507132164479,1.28110204605327,-1.28456649173884,1.28110204605375,-1.10155383096861,0.215935047341658,NaN,-1.77228456764057,NaN,-0.705876232365192,-0.468826568451854,-1.07677144499058,-0.468826568452157,1.46222338189102,NaN,NaN,NaN,-0.769778026395699,NaN,NaN,-1.01158026194204,0.418084725712867,-1.20556486118997,0.289935658817457,-1.23508637868711,NaN,-2.04188569469612,-1.72712068754578,2.9921154237892,-1.62321187580971,-1.6232118758086,0.759368117973426,-2.4319247475143,-1.30267187363076,0.466439503192228,0.756327641805926,2.26710237842197,NaN,-0.182169602123696,1.11059415031883,NaN,3.36682981234688,-2.86522246528687
89.4976,-0.0385695479038527,-2.05006380358849,-0.754188078333678,0.832541562639746,-0.81514462624528,-0.815144626244457,NaN,-2.16283427412605,-0.118519727612813,1.26297919124567,-1.22626636688975,1.26297919124612,-1.11434363768853,0.218394082289914,NaN,-1.78624109123503,NaN,-0.726784757495041,-0.468390971982867,-1.08963235496771,-0.468390971983169,1.43548184122981,NaN,NaN,NaN,-0.749003521848583,NaN,NaN,-1.02124679438328,0.439059474825374,-1.2103816278515,0.315576380213418,-1.19382807489811,NaN,-2.01593506688853,-1.70861605321394,3.00099009713316,-1.61544915999232,-1.61544915999121,0.75074116924161,-2.42168331166196,-1.30269023232235,0.454223002120471,0.769694284835332,2.26950957338259,NaN,-0.171562751673551,1.14256694594566,NaN,3.35498259132756,-2.86567257994123
89.6,-0.0525931651442202,-2.03872063512353,-0.765953299374293,0.833183180862382,-0.815309205797508,-0.815309205796691,NaN,-2.15434914524494,-0.132535874534781,1.2452854417021,-1.16852636829008,1.24528544170253,-1.12619667422178,0.222240310091122,NaN,-1.79856458542865,NaN,-0.746655569647093,-0.468576033534215,-1.10220365573383,-0.468576033534514,1.40868853347002,NaN,NaN,NaN,-0.726528006691791,NaN,NaN,-1.02946877083189,0.459121958928206,-1.21468189098995,0.339624071043247,-1.15481196438416,NaN,-1.98920261859777,-1.6901711686215,3.00835659824039,-1.60662745717698,-1.60662745717586,0.741616543345531,-2.40971021455638,-1.30173738893283,0.442719434140936,0.782166144740941,2.27156262091467,NaN,-0.161332459565988,1.17491543956092,NaN,3.34243308566656,-2.86444696628013
89.7024,-0.0658029283684493,-2.02545631104503,-0.776141117669872,0.833692354366359,-0.815574967458219,-0.81557496745741,NaN,-2.14475475507487,-0.145570583545571,1.22804551369799,-1.11137923360611,1.22804551369841,-1.13713255472577,0.227431579900215,NaN,-1.80928011098393,NaN,-0.765462133504714,-0.469388643687576,-1.11448143787667,-0.469388643687873,1.38183541594584,NaN,NaN,NaN,-0.702443648184994,NaN,NaN,-1.036300910629,0.47833950711224,-1.2185037152033,0.362101969177505,-1.1180504713659,NaN,-1.96178366416052,-1.671806787689,3.01429198223633,-1.59679435057689,-1.59679435057574,0.732058896637968,-2.39610778357237,-1.29983499813112,0.43193473993434,0.793749720598456,2.27328455931172,NaN,-0.151488126234408,1.20760960162842,NaN,3.32923350649954,-2.86161119160186
89.8048,-0.0781957421820461,-2.01036204860934,-0.784779704226515,0.834106617706825,-0.815920661313259,-0.815920661312457,NaN,-2.13411104366488,-0.157640219950274,1.2112811472005,-1.05485362491409,1.21128114720089,-1.14717029738325,0.233923309660214,NaN,-1.81841624831055,NaN,-0.783181010206145,-0.470833076053768,-1.12646340435232,-0.470833076054063,1.35491494638529,NaN,NaN,NaN,-0.67684591054808,NaN,NaN,-1.04179960242686,0.496779622530213,-1.22188581350454,0.383038140737153,-1.08354786868091,NaN,-1.93377184017336,-1.65354260527261,3.01887463755482,-1.58599833108165,-1.58599833108048,0.72213226131702,-2.38097865905286,-1.29700561410293,0.42187231549578,0.804452914849402,2.27469635656764,NaN,-0.142039915586754,1.24061654053208,NaN,3.31543480389476,-2.85723196790657
89.9072,-0.089769662004267,-1.99353093611011,-0.791899167293834,0.834463995731252,-0.816324705900529,-0.816324705899728,NaN,-2.12247646318094,-0.168762263363416,1.19501122914261,-0.998974281999798,1.19501122914298,-1.15632818944027,0.241668791190276,NaN,-1.82600492528864,NaN,-0.79979191041962,-0.472911169840994,-1.13814885848842,-0.472911169841285,1.3279202637698,NaN,NaN,NaN,-0.649833049609144,NaN,NaN,-1.04602244438223,0.514509541633521,-1.22486716191231,0.40246499382101,-1.05130062554503,NaN,-1.90525871189683,-1.6353973061916,3.02218393623107,-1.57428853836866,-1.57428853836748,0.711899859146937,-2.36442537850617,-1.29327252505036,0.412533134562064,0.814284889312693,2.27581686756433,NaN,-0.132998637403531,1.2739004988021,NaN,3.30108656525514,-2.85137692695907
90.0096,-0.100523810164998,-1.97505753732744,-0.797531321250035,0.834802870847542,-0.8167652469737,-0.81676524697291,NaN,-2.10990774635636,-0.178955116815104,1.17925190546727,-0.943762210480431,1.17925190546761,-1.16462372301873,0.250619445706497,NaN,-1.83208122697041,NaN,-0.815277746785353,-0.475622531775864,-1.14953868783124,-0.475622531776153,1.30084532781773,NaN,NaN,NaN,-0.621505619468884,NaN,NaN,-1.04902779274868,0.531595750513823,-1.22748665934101,0.420418806350595,-1.02129779564142,NaN,-1.87633340993943,-1.61738861148979,3.02429984066849,-1.56171451908102,-1.56171451907984,0.701423944181421,-2.34655001776086,-1.28865960682848,0.403915859522667,0.823255948800585,2.27666282147093,NaN,-0.124375599809506,1.30742287382411,NaN,3.28623693107685,-2.84411441517906
90.112,-0.11045834579675,-1.95503753515521,-0.801709529297964,0.835161794779243,-0.817220207040925,-0.817220207040148,NaN,-2.0964597454977,-0.188237976762718,1.16401667239963,-0.8892349093778,1.16401667239994,-1.17207360937436,0.260725024398431,NaN,-1.83668317598241,NaN,-0.829624669667835,-0.478964734146709,-1.16063534397853,-0.47896473414699,1.27368501928082,NaN,NaN,NaN,-0.59196599215202,NaN,NaN,-1.05087432409142,0.548103467066712,-1.22978283224107,0.436939277607419,-0.993521426658998,NaN,-1.84708229327467,-1.59953330849206,3.02530247311364,-1.54832600850508,-1.54832600850389,0.69076567112931,-2.32745387972982,-1.28319119115823,0.396016939265584,0.831377450842531,2.27724883371714,NaN,-0.116182454587235,1.34114226560604,NaN,3.27093251993023,-2.83551330971163
90.2144,-0.119574478477425,-1.93356740933471,-0.804468606968583,0.835579258155476,-0.817667323368016,-0.817667323367249,NaN,-2.08218533277889,-0.196630755267482,1.14931645168578,-0.835406630358602,1.14931645168607,-1.17869385689012,0.271933764458853,NaN,-1.83985148767246,NaN,-0.842822074292314,-0.482933493110708,-1.17144281506284,-0.482933493110986,1.2464352111249,NaN,NaN,NaN,-0.561317886930479,NaN,NaN,-1.051620619107,0.564096116643617,-1.23179356839264,0.452069102359421,-0.96794697030615,NaN,-1.8175886305052,-1.58184725262723,3.02527166949549,-1.53417272872803,-1.53417272872682,0.679984978160555,-2.30723720631728,-1.27689193892224,0.388830703126825,0.838661730854091,2.27758743955888,NaN,-0.108431037978443,1.37501455258163,NaN,3.25521835289864,-2.82564285540216
90.3168,-0.127874504572091,-1.91074413960286,-0.805844759850087,0.836093445322391,-0.818084178087115,-0.818084178086361,NaN,-2.06713534127487,-0.204154032962439,1.13515965949228,-0.782288651737613,1.13515965949255,-1.18449988387148,0.284192521429086,NaN,-1.84162931747748,NaN,-0.854862585970953,-0.487522811914509,-1.18196659463183,-0.487522811914783,1.21909281726835,NaN,NaN,NaN,-0.529665905617688,NaN,NaN,-1.05132477592782,0.579634839725269,-1.2335558649342,0.465853566846416,-0.944543672123933,NaN,-1.78793229694577,-1.56434534014955,3.02428654886568,-1.51930419680185,-1.51930419680063,0.669140467932803,-2.28599888738876,-1.26978671276162,0.382349453564921,0.845122035428818,2.27768914042493,NaN,-0.101133206435169,1.40899299310321,NaN,3.23913777401942,-2.8145725211157
90.4192,-0.13536184089243,-1.8866649234748,-0.805875523389743,0.83674200884929,-0.818448227110526,-0.818448227109784,NaN,-2.05135852215542,-0.210829015935813,1.12155228245835,-0.729889545642668,1.1215522824586,-1.18950663362146,0.297446903021785,NaN,-1.84206201557124,NaN,-0.865742037328414,-0.492725078065866,-1.1922136494723,-0.492725078066136,1.19165582459823,NaN,NaN,NaN,-0.497115072182331,NaN,NaN,-1.05004405821359,0.594778075113555,-1.23510558567518,0.478340166327899,-0.923274934339688,NaN,-1.75818949211176,-1.54704146355944,3.02242513342136,-1.50376954227418,-1.50376954227294,0.658289272557676,-2.26383615360941,-1.26190045220764,0.376563553384006,0.850772459165143,2.27756244681302,NaN,-0.09430067673103,1.44302834604931,NaN,3.22273237231714,-2.80237187128304
90.5216,-0.142041030081939,-1.86142689680624,-0.804599672007096,0.837561895764695,-0.818736832169213,-0.818736832168486,NaN,-2.03490149773533,-0.216677470972764,1.10849798078533,-0.678215419414051,1.10849798078555,-1.19372866663373,0.311641425563613,NaN,-1.84119689266301,NaN,-0.87545944081265,-0.498531121732843,-1.20219237834397,-0.498531121733109,1.16412332011248,NaN,NaN,NaN,-0.463770376197046,NaN,NaN,-1.04783457805287,0.609581251815931,-1.23647723292859,0.489578241345771,-0.904098664873816,NaN,-1.72843248098338,-1.52994846584137,3.01976404411824,-1.48761733089143,-1.48761733089017,0.647486899094515,-2.24084425581322,-1.25325805707663,0.371461509173391,0.855627878447628,2.27721390854965,NaN,-0.087944878925489,1.47706900195798,NaN,3.2060419182332,-2.78911044414233
90.624,-0.147917701175986,-1.83512684993039,-0.802057076491022,0.838589238563411,-0.81892729843151,-0.818927298430796,NaN,-2.01780870254713,-0.221721624849931,1.09599823615629,-0.627270123981423,1.09599823615649,-1.19718021978242,0.32671970040668,NaN,-1.83908299444334,NaN,-0.884016951280449,-0.504930256515279,-1.21191255189435,-0.504930256515541,1.13649552847142,NaN,NaN,NaN,-0.429736320677075,NaN,NaN,-1.04475100554923,0.624096587174235,-1.23770374279484,0.499618627607618,-0.886967635314209,NaN,-1.69872935700356,-1.51307810567384,3.01637826895111,-1.47089538503622,-1.47089538503495,0.636787062306658,-2.21711614124718,-1.24388428111572,0.36703005642414,0.85970387929686,2.27664813709042,NaN,-0.0820768140508925,1.51106111536428,NaN,3.18910432404232,-2.77485762750056
90.7264,-0.152998492390746,-1.80786094369417,-0.798288519077473,0.839859292328085,-0.818996920859444,-0.818996920858747,NaN,-2.00012232189676,-0.225984035891579,1.08405254216665,-0.577055438794043,1.08405254216682,-1.1998752428565,0.342624637909462,NaN,-1.83577088037989,NaN,-0.89141981515038,-0.511910317690136,-1.22138523638898,-0.511910317690394,1.10877386663015,NaN,NaN,NaN,-0.395116478613986,NaN,NaN,-1.04084629390495,0.638372946659516,-1.23881630969567,0.508513316473986,-0.871829862122457,NaN,-1.66914382484205,-1.49644103729528,3.01234097083023,-1.45365059580645,-1.45365059580515,0.626241512891382,-2.1927421363232,-1.23380363578343,0.363254244160591,0.863016687709487,2.27586783156504,NaN,-0.0767069004493724,1.54494873128017,NaN,3.17195562528754,-2.75968252910968
90.8288,-0.15729096721445,-1.77972443979958,-0.793335505990613,0.841406376995196,-0.818923040884342,-0.818923040883644,NaN,-1.98188224969843,-0.229487467165372,1.07265861163884,-0.527571254030406,1.07265861163899,-1.20182744124732,0.359298642594644,NaN,-1.83131240322343,NaN,-0.897676306957719,-0.519457704525782,-1.23062271754219,-0.519457704526037,1.08096100543998,NaN,NaN,NaN,-0.360013066990837,NaN,NaN,-1.03617141654135,0.652455709296462,-1.23984424441219,0.516315132517804,-0.858629005156007,NaN,-1.63973500573603,-1.48004679871522,3.00772329391851,-1.435928734875,-1.43592873487368,0.615899870049038,-2.16780964517624,-1.22304030310166,0.360117511581911,0.865583116766797,2.27487382134466,NaN,-0.071844807036408,1.57867390697186,NaN,3.15462996809261,-2.74365384433434
90.9312,-0.160803556517212,-1.75081145984712,-0.787240119065999,0.843263788131031,-0.818683110372713,-0.818683110372024,NaN,-1.96312608637744,-0.232254792626457,1.06181257234619,-0.478815768252546,1.06181257234631,-1.20305035473962,0.376683775070789,NaN,-1.82576048890355,NaN,-0.902797655434369,-0.527557440190957,-1.23963843667262,-0.527557440191209,1.05306091937342,NaN,NaN,NaN,-0.324526547677813,NaN,NaN,-1.0307751231502,0.666386606977203,-1.24081486927218,0.523077440348348,-0.847304765890431,NaN,-1.61055727003946,-1.46390379644041,3.00259414414993,-1.41777428181999,-1.41777428181865,0.605809473414675,-2.14240287794646,-1.21161805420863,0.357601755463094,0.867420536721548,2.27366513439436,NaN,-0.0674992937071026,1.61217683598067,NaN,3.1371595829387,-2.72683972503065
91.0336,-0.163545540424219,-1.72121477958663,-0.7800449240992,0.845463662744706,-0.818254756698695,-0.818254756698008,NaN,-1.94388918633608,-0.234308951150685,1.05150913866955,-0.430785707996641,1.05150913866965,-1.20355748397164,0.394721870769685,NaN,-1.81916891575083,NaN,-0.906797956988845,-0.536193266776545,-1.24844692867941,-0.536193266776793,1.02507891372031,NaN,NaN,NaN,-0.288755260213172,NaN,NaN,-1.02470372631287,0.680203538087522,-1.24175344368064,0.528853882105049,-0.837793272629209,NaN,-1.58166009844674,-1.44801927654144,2.99701994372284,-1.3992302791051,-1.39923027910375,0.596015270447304,-2.11660262415022,-1.19956017038922,0.35568739791379,0.868546858907302,2.27223909202661,NaN,-0.0636780884920839,1.64539597770133,NaN,3.11957473602558,-2.70930765553339
91.136,-0.165527064466657,-1.69102565599989,-0.771792928954819,0.848036809910559,-0.817615843784236,-0.817615843783552,NaN,-1.92420475043994,-0.235672943928368,1.04174176247711,-0.383476564211972,1.04174176247718,-1.20336245395023,0.413354621899418,NaN,-1.81159208684713,NaN,-0.909694067794143,-0.545347772979448,-1.25706373593905,-0.545347772979692,0.997021632043915,NaN,NaN,NaN,-0.252795084831001,NaN,NaN,-1.01800092835028,0.693940377118402,-1.24268309976475,0.5336981314852,-0.830027449469081,NaN,-1.55308796994733,-1.43239927772478,2.99106437761423,-1.38033821936495,-1.38033821936358,0.58655974449266,-2.09048607983402,-1.18688936870408,0.354353467891398,0.868980515668084,2.27059142155996,NaN,-0.0603878215450834,1.67826818938346,NaN,3.10190367029399,-2.69112434145616
91.2384,-0.166759174355871,-1.6603336781932,-0.762527570781878,0.851012530723855,-0.8167445280751,-0.816744528074424,NaN,-1.90410394652453,-0.23636985701941,1.03250277322277,-0.336882832272666,1.03250277322281,-1.20247918934338,0.432523641224457,NaN,-1.80308479312113,NaN,-0.911505468668132,-0.55500253385362,-1.26550528086762,-0.555002533853864,0.968897050717243,NaN,NaN,NaN,-0.216739129344128,NaN,NaN,-1.01070769140982,0.707626812419248,-1.24362477016857,0.537663650415273,-0.823937368672856,NaN,-1.5248802749605,-1.41704856929901,2.9847881608736,-1.3611379641544,-1.36113796415301,0.577482876012542,-2.0641267286296,-1.17362773992892,0.353577703915649,0.868740421636126,2.26871637326569,NaN,-0.0576340217017879,1.71072885445033,NaN,3.08417255786436,-2.67235561181525
91.3408,-0.167253849099182,-1.62922663000206,-0.752292705434754,0.854418458760903,-0.815619312109835,-0.815619312109175,NaN,-1.88361603368856,-0.236422884484385,1.02378351798822,-0.290998238323881,1.02378351798824,-1.20092207019061,0.452170531604262,NaN,-1.7937019784501,NaN,-0.912254111496619,-0.565138255247798,-1.27378870271788,-0.565138255248043,0.940714462453734,NaN,NaN,NaN,-0.180677431448972,NaN,NaN,-1.00286214763899,0.721288245889703,-1.24459710490098,0.540803448274328,-0.819450582044716,NaN,-1.49707125398875,-1.4019705816495,2.97824885758357,-1.34166768876695,-1.34166768876553,0.568822123327958,-2.03759426730645,-1.15979670463169,0.353336678361879,0.867845909432351,2.26660682939915,NaN,-0.0554211746494229,1.74271200186251,NaN,3.06640547217318,-2.65306633211491
91.4432,-0.167024011979941,-1.59779035307648,-0.741132572280005,0.858280447719237,-0.814219098889039,-0.814219098888384,NaN,-1.86276846880898,-0.235855330078682,1.01557451172883,-0.245815937988777,1.01557451172881,-1.19870604214964,0.472236980186754,NaN,-1.78349852207222,NaN,-0.91196426349596,-0.575734934077809,-1.28193168043325,-0.575734934078049,0.912484446800972,NaN,NaN,NaN,-0.144696668001897,NaN,NaN,-0.994499542283787,0.734945775013007,-1.24561638644123,0.543169853455627,-0.816492426450331,NaN,-1.46968996140179,-1.38716733744021,2.97150076989454,-1.32196384368804,-1.3219638436866,0.560612407716998,-2.01095455559873,-1.14541698552227,0.353605939942951,0.866316640755439,2.26425440087479,NaN,-0.0537528337845531,1.77415041473194,NaN,3.04862437256653,-2.63332032641793
91.5456,-0.166083508775304,-1.56610860495395,-0.729091720587837,0.862622511949,-0.812523249347293,-0.812523249346645,NaN,-1.84158698912305,-0.234690579463429,1.00786560434578,-0.201328684559993,1.00786560434574,-1.19584667576246,0.492664879744185,NaN,-1.77252904200765,NaN,-0.910662358501476,-0.586772036142802,-1.28995226061206,-0.586772036143041,0.884218826324244,NaN,NaN,NaN,-0.108879868422301,NaN,NaN,-0.985652200059628,0.748616245568817,-1.24669645875082,0.544814306509527,-0.81498630917456,NaN,-1.44276025287682,-1.37263939158665,2.96459488737373,-1.3020611247447,-1.30206112474324,0.552886090078834,-1.98426956848116,-1.13050859043964,0.354360164617667,0.864172504892466,2.26164951602585,NaN,-0.0526317595232981,1.80497573093595,NaN,3.03084910446953,-2.61318030444576
91.648,-0.164447062733895,-1.53426291687917,-0.716214909818581,0.867466797012104,-0.810511645095321,-0.81051164509467,NaN,-1.82009568562286,-0.232952055987082,1.00064615950164,-0.157528976188484,1.00064615950157,-1.19236019536179,0.513396460328033,NaN,-1.76084771236796,NaN,-0.908376856496974,-0.598228673829792,-1.29786869583275,-0.598228673830028,0.855930606651849,NaN,NaN,NaN,-0.0733061406073199,NaN,NaN,-0.976349508587049,0.762312332592029,-1.24784868551969,0.545787178330771,-0.814853989241463,NaN,-1.41630079690211,-1.3583857858608,2.95757886107325,-1.28199245270268,-1.2819924527012,0.545672936100309,-1.95759734229594,-1.11509080175553,0.355573296046143,0.861433527807535,2.25878150982368,NaN,-0.0520600512474206,1.83511854330861,NaN,3.0130974413767,-2.59270778601462
91.7504,-0.162130231695038,-1.5023324637745,-0.702547016520872,0.872833543401617,-0.808164756712627,-0.80816475671199,NaN,-1.79831709297169,-0.230663186875513,0.993905228178875,-0.114409196714312,0.99390522817878,-1.18826351141749,0.534374406263178,NaN,-1.74850808541746,NaN,-0.905138107577637,-0.610083767416075,-1.30569928669936,-0.610083767416306,0.827633895474643,NaN,NaN,NaN,-0.0380504252620266,NaN,NaN,-0.96661792061058,0.776042605614442,-1.24908194562099,0.546137611699136,-0.816015869675243,NaN,-1.39032511193671,-1.34440401631709,2.95049696524638,-1.26178897077952,-1.26178897077802,0.539000081458976,-1.93099192396888,-1.09918216837369,0.357218656860746,0.858119813269691,2.25563871904745,NaN,-0.0520392380784007,1.86450850973974,NaN,2.99538519187494,-2.57196301517705
91.8528,-0.159149390822658,-1.47039395767486,-0.688132978043162,0.87874101652172,-0.805463712886138,-0.805463712885515,NaN,-1.77627231612447,-0.227847403088878,0.987631699764731,-0.0719617618682056,0.987631699764608,-1.18357428222536,0.5555419404753,NaN,-1.73556291219651,NaN,-0.900978211906984,-0.622316188362559,-1.31346221981341,-0.622316188362785,0.79934379570455,NaN,NaN,NaN,-0.00318329091978151,NaN,NaN,-0.956480978775945,0.78981155936517,-1.25040266602328,0.545913384027887,-0.818391305118131,NaN,-1.36484162815255,-1.33069000328487,2.94339002957313,-1.24148006626445,-1.24148006626293,0.532892016036315,-1.90450334013571,-1.0828004954239,0.35926902504036,0.854251522062698,2.25220858414331,NaN,-0.0525703094230012,1.89307448227819,NaN,2.97772636642572,-2.55100486447787
91.9552,-0.155521749657355,-1.43852156902918,-0.673017784328833,0.885205397927875,-0.802390362525471,-0.802390362524864,NaN,-1.7539811979114,-0.224528180728002,0.981814422085449,-0.0301792765174996,0.981814422085305,-1.17831101155973,0.576842872541718,NaN,-1.72206396556476,NaN,-0.895930871142629,-0.634904889145922,-1.32117540705122,-0.634904889146147,0.771076271195055,NaN,NaN,NaN,0.0312292299481462,NaN,NaN,-0.945959361318468,0.803619618554769,-1.25181488668914,0.54516079212818,-0.821898915192867,NaN,-1.33985376992843,-1.31723805176256,2.93629534703965,-1.22109341325564,-1.22109341325409,0.527370598928856,-1.87817759467476,-1.06596282694017,0.361696680985111,0.849848884315692,2.24847775883651,NaN,-0.0536536877018668,1.92074466032256,NaN,2.96013338457553,-2.52989073860532
92.0576,-0.151265397197528,-1.40678687262814,-0.657246509630569,0.892240652291248,-0.798927325337438,-0.798927325336852,NaN,-1.73146251429502,-0.220729115121852,0.976442291191306,0.0109452995812352,0.976442291191136,-1.17249317055786,0.598221621594877,NaN,-1.70806188319645,NaN,-0.890031236456687,-0.647829022761687,-1.32885634256888,-0.647829022761912,0.742847987722042,NaN,NaN,NaN,0.065125773478343,NaN,NaN,-0.9350709432856,0.817463142818965,-1.25332034722822,0.543924560483634,-0.826456885665093,NaN,-1.31536005646627,-1.30404079656461,2.92924657831393,-1.20065502893684,-1.20065502893527,0.522455102355222,-1.85205668893022,-1.04868541858074,0.364473432370392,0.844932241016824,2.24443223319202,NaN,-0.05528916495888,1.94744676652166,NaN,2.94261731384941,-2.50867648296936
92.16,-0.146399358847854,-1.37525880920593,-0.640864362946166,0.899858397078623,-0.795058033815574,-0.79505803381502,NaN,-1.70873417253123,-0.216474006225841,0.971504319184761,0.0514184906015067,0.971504319184564,-1.16614131921548,0.619623236315172,NaN,-1.69360604977503,NaN,-0.883315760336136,-0.661068057289493,-1.33652198802111,-0.661068057289717,0.714676136719303,NaN,NaN,NaN,0.0984497566163957,NaN,NaN,-0.923830870728049,0.831334467128414,-1.25491858367795,0.542247771395506,-0.831983243311646,NaN,-1.291354222611,-1.29108913773722,2.92227368322994,-1.18018933851476,-1.18018933851318,0.518162274655823,-1.82617865328138,-1.03098370066017,0.367570625613104,0.839522108500979,2.24005747481902,NaN,-0.0574758306156989,1.97310823854114,NaN,2.92518813279414,-2.48741629119013
92.2624,-0.140943643924162,-1.34400365202415,-0.623916729610275,0.908067807816952,-0.790766775145869,-0.790766775145349,NaN,-1.68581338577899,-0.211786928375217,0.966989691917786,0.0912461686850978,0.966989691917562,-1.15927719645953,0.640993438073221,NaN,-1.67874452317237,NaN,-0.875822054601243,-0.674601896581649,-1.34418869000149,-0.674601896581871,0.686578250167749,NaN,NaN,NaN,0.131149475540278,NaN,NaN,-0.912251649729152,0.845222014917967,-1.2566070267786,0.540171812185792,-0.838396100813198,NaN,-1.26782536688207,-1.27837218093239,2.91540291232649,-1.1597192456466,-1.15971924564501,0.514506411258642,-1.80057758232803,-1.01287223618705,0.370959157845962,0.833639248237426,2.23533858088085,NaN,-0.0602120054864512,1.99765643135903,NaN,2.90785498849108,-2.46616260409217
92.3648,-0.134919262423087,-1.31308497036019,-0.606449177404787,0.916875587149835,-0.786038742728671,-0.786038742728184,NaN,-1.66271680498125,-0.206692260725183,0.962887827513309,0.130433461605571,0.96288782751306,-1.15192375115886,0.662278707178258,NaN,-1.66352399292458,NaN,-0.867588752512521,-0.688411017958122,-1.35187214167039,-0.688411017958344,0.658572012286919,NaN,NaN,NaN,0.163178193137575,NaN,NaN,-0.90034325017493,0.859110507561047,-1.25838110044586,0.537736334662929,-0.84561387880181,NaN,-1.24475813454213,-1.26587720085151,2.90865687918028,-1.13926620211644,-1.13926620211485,0.511499421755602,-1.7752836689392,-0.99436468187608,0.374609498893432,0.827304724206287,2.23026042540045,NaN,-0.0634951784583922,2.02101882952312,NaN,2.89062640766087,-2.44496600224716
92.4672,-0.128348199259493,-1.28256358762654,-0.588507413192681,0.926286003969676,-0.780860104294155,-0.780860104293692,NaN,-1.63946060582501,-0.201214669593751,0.959188442904103,0.16898470875641,0.959188442903825,-1.14410510506301,0.683426414860256,NaN,-1.64798975382955,NaN,-0.858655371790932,-0.702476624583971,-1.35958740103233,-0.702476624584189,0.630675072817199,NaN,NaN,NaN,0.194494214007973,NaN,NaN,-0.888113216647904,0.872981258269169,-1.26023432586562,0.534979222463328,-0.853555521359613,NaN,-1.22213293823827,-1.25358964219657,2.90205470402924,-1.11885026904105,-1.11885026903945,0.509150883620008,-1.75032323458637,-0.975473759537799,0.37849171890646,0.820539950266711,2.22480779834253,NaN,-0.0673219336208935,2.04312326855202,NaN,2.87351044649823,-2.4238750995976
92.5696,-0.12125335491472,-1.25249753865619,-0.570137201659941,0.936300976498254,-0.775218087051943,-0.775218087051508,NaN,-1.6160605514192,-0.195379058123163,0.955881627445739,0.206903452040246,0.955881627445433,-1.13584646889163,0.704384981080873,NaN,-1.63218568144247,NaN,-0.84906217905221,-0.716780790605601,-1.36734895060486,-0.716780790605818,0.602904866093517,NaN,NaN,NaN,0.225060937333862,NaN,NaN,-0.875566777587417,0.88681250146324,-1.26215843267073,0.531936557691786,-0.862140723309216,NaN,-1.19992621147134,-1.24149316163134,2.89561218821567,-1.09849016835543,-1.09849016835382,0.507468083739754,-1.72571876325475,-0.956211242870371,0.382575511718852,0.813366744194714,2.21896554924219,NaN,-0.0716878638841562,2.0638981606466,NaN,2.85651480259987,-2.40293644153267
92.672,-0.113658481058594,-1.22294203335451,-0.551384280638661,0.946920153876706,-0.769101071445702,-0.769101071445289,NaN,-1.59253206333373,-0.18921051680413,0.952957913096372,0.244192437055981,0.95295791309604,-1.12717405483262,0.725104025999223,NaN,-1.61615420245853,NaN,-0.83885005876347,-0.731306571843029,-1.37517075103949,-0.731306571843242,0.575278436301275,NaN,NaN,NaN,0.254846872337403,NaN,NaN,-0.86270695275688,0.900579702443893,-1.26414346817011,0.528642573630847,-0.871290180910035,NaN,-1.17811068629459,-1.2295697024814,2.88934197363553,-1.07820333437353,-1.07820333437192,0.506456059144852,-1.70148895882472,-0.936587965070242,0.386830211195895,0.805807395145922,2.21271874293667,NaN,-0.0765874822812581,2.08327271856263,NaN,2.8396469264998,-2.3821944046003
92.7744,-0.105588141183647,-1.19394943061043,-0.532294307989266,0.958140958806413,-0.762498678457204,-0.762498678456817,NaN,-1.56889032378173,-0.182734305697081,0.950408328178757,0.280853600962194,0.950408328178398,-1.11811502537701,0.745534489333305,NaN,-1.59993626235063,NaN,-0.828060388639868,-0.746038073625323,-1.38306624262781,-0.746038073625533,0.547812265628813,NaN,NaN,NaN,0.283825606439204,NaN,NaN,-0.849534665910092,0.914255817059116,-1.26617789540916,0.52512958535171,-0.88092586773965,NaN,-1.1566556860127,-1.21779958916464,2.88325366229036,-1.05800598018033,-1.05800598017871,0.506117647181027,-1.67764884553438,-0.91661385358082,0.391224806171892,0.797884733691926,2.20605281749274,NaN,-0.0820141447403645,2.1011771760349,NaN,2.82291415349109,-2.36169109581006
92.8768,-0.0970677108648826,-1.16556922363796,-0.512912856807407,0.96995857818263,-0.755401836769472,-0.755401836769123,NaN,-1.54515041049807,-0.175975880535681,0.948224425617678,0.3168880338418,0.948224425617289,-1.10869749526889,0.765628708619171,NaN,-1.58357130339027,NaN,-0.81673492456618,-0.760960491741888,-1.39104828607802,-0.760960491742095,0.520522100934276,NaN,NaN,NaN,0.311975728858544,NaN,NaN,-0.836048867122453,0.927811500948757,-1.26824868280379,0.521427905285007,-0.890971326496364,NaN,-1.13552742462457,-1.2061616300119,2.87735389649263,-1.03791318758947,-1.03791318758785,0.506453548220405,-1.65420991585445,-0.896297992536654,0.395727962955973,0.789622188547903,2.19895373127901,NaN,-0.087959981366158,2.11754301176809,NaN,2.80632384142725,-2.34146625673406
92.9792,-0.08812341467823,-1.13784803773907,-0.493285455977905,0.982365911638608,-0.747802824961485,-0.74780282496116,NaN,-1.5213274487872,-0.168960955278273,0.946398281823707,0.352295914557184,0.946398281823291,-1.098950578407,0.785340463373692,NaN,-1.56709726446833,NaN,-0.804915699941469,-0.776060147243583,-1.39912906945175,-0.776060147243787,0.493422775961839,NaN,NaN,NaN,0.339280720806858,NaN,NaN,-0.822246664753321,0.941215287724161,-1.27034139639069,0.517565763170106,-0.901351956407877,NaN,-1.11468930800271,-1.19463322089572,2.87164641734115,-1.01793901896643,-1.01793901896479,0.507462400911874,-1.63118031408778,-0.87564870293973,0.400308064767615,0.781043820524799,2.19140809878394,NaN,-0.0944158184610613,2.13230318794821,NaN,2.78988348055823,-2.32155717983234
93.0816,-0.0787823843339368,-1.11082963764076,-0.473457657799158,0.995353502701064,-0.739695291540866,-0.739695291540582,NaN,-1.49743675679093,-0.161715580428781,0.944922470743534,0.387076433764898,0.944922470743089,-1.08890445510897,0.804625003589148,NaN,-1.55055059836487,NaN,-0.792644937606904,-0.791324520813246,-1.4073200081798,-0.791324520813448,0.466528031884359,NaN,NaN,NaN,0.365728823913028,NaN,NaN,-0.808123466899091,0.954433766101505,-1.2724403008992,0.513569247568636,-0.911995272993362,NaN,-1.09410223655166,-1.18319044655242,2.86613212869109,-0.99809664219962,-0.998096642197967,0.509140870130768,-1.60856503818981,-0.854673625489158,0.404933275394485,0.772174331923422,2.18340332528252,NaN,-0.101371080256735,2.14539240772061,NaN,2.77360076060894,-2.30199863629686
93.184,-0.0690727138736461,-1.08455493454804,-0.453475102221838,1.00890948546762,-0.73107425681848,-0.731074256818236,NaN,-1.47349395872663,-0.154266209714787,0.943790027736704,0.421227722917517,0.94379002773623,-1.07859042722386,0.823439086940773,NaN,-1.53396629290947,NaN,-0.779964961255897,-0.806742281400018,-1.41563164339882,-0.806742281400215,0.439850346741065,NaN,NaN,NaN,0.3913128956585,NaN,NaN,-0.793673134151281,0.967431790817694,-1.27452846622334,0.509462273308848,-0.922831126882214,NaN,-1.07372491239251,-1.17180818186111,2.86080919782855,-0.978398456619546,-0.978398456617883,0.511483745385656,-1.5863661439227,-0.833379794797613,0.409571628620127,0.763039054105712,2.17492774829441,NaN,-0.108813674749418,2.1567473870833,NaN,2.7574836038383,-2.28282280665545
93.2864,-0.0590234831602657,-1.05906197922441,-0.433383540745714,1.02301958095588,-0.721936098995219,-0.721936098995007,NaN,-1.44951504568246,-0.146639727343714,0.942994423870473,0.454746808792021,0.942994423869967,-1.06804092821983,0.841741048126255,NaN,-1.5173778897126,NaN,-0.766918092009871,-0.82230330559436,-1.42407353264424,-0.82230330559455,0.413400788385123,NaN,NaN,NaN,0.416030257600741,NaN,NaN,-0.77888814275675,0.980172758025792,-1.27658787388172,0.505266568281326,-0.933791886102959,NaN,-1.05351415297305,-1.16046020209271,2.85567321885818,-0.958856203819754,-0.958856203818078,0.514484042758665,-1.56458293997294,-0.811773702324307,0.414191138355213,0.753663916744015,2.1659707830278,NaN,-0.1167298767161,2.16630713237568,NaN,2.74154017152697,-2.26405920492791
93.3888,-0.0486647272035956,-1.03438593062921,-0.413228791202711,1.03766716427868,-0.712278526341206,-0.712278526341037,NaN,-1.42551637639809,-0.13886341831379,0.942529567666075,0.487629606166033,0.942529567665534,-1.05728946727365,0.859490912379481,NaN,-1.50081750202296,NaN,-0.753546524302996,-0.837998682512562,-1.43265412788375,-0.837998682512746,0.387188904912532,NaN,NaN,NaN,0.439882537714314,NaN,NaN,-0.763759749232005,0.992618953586928,-1.27859952259193,0.501001668966008,-0.944812600588899,NaN,-1.03342520841812,-1.14911931631746,2.85071744433248,-0.939481045795574,-0.939481045793887,0.518133103048065,-1.54321217209305,-0.789861353804172,0.418759921987078,0.744075399715601,2.15652305983278,NaN,-0.125104219960145,2.17401321341328,NaN,2.72577884916205,-2.24573459354787
93.4912,-0.0380273516037903,-1.01055900168383,-0.393056624287177,1.05283339400438,-0.70210053811769,-0.702100538117551,NaN,-1.40151463151696,-0.130964888116413,0.942389834602055,0.519870946116734,0.942389834601482,-1.04637051331598,0.876650543023064,NaN,-1.48431583000299,NaN,-0.739892180885773,-0.853820694605069,-1.44138063533681,-0.853820694605247,0.361222661098861,NaN,NaN,NaN,0.462875500946437,NaN,NaN,-0.74827814535785,1.00473194636107,-1.28054353475062,0.496684916973993,-0.955831166107953,NaN,-1.01341207892248,-1.13775753493946,2.84593306033706,-0.920283603010119,-0.920283603008429,0.522420685527077,-1.5222482055434,-0.767648329672922,0.4232463329827,0.734300465182055,2.1465765417842,NaN,-0.133919393967549,2.17981002614962,NaN,2.71020822088224,-2.22787289887272
93.5936,-0.0271430206096344,-0.987610398000606,-0.372912616988042,1.06849736649154,-0.691402377026192,-0.691402377026087,NaN,-1.37752675165821,-0.122971962261716,0.942570103412715,0.551464622932477,0.942570103412107,-1.03531935249968,0.893183793367148,NaN,-1.46790216647804,NaN,-0.725996549011706,-0.8697627720326,-1.45025885708905,-0.869762772032772,0.33550841751415,NaN,NaN,NaN,0.485018857605603,NaN,NaN,-0.732432600711302,1.01647297578694,-1.28239926771311,0.492331459334552,-0.966788488221016,NaN,-0.993427833651347,-1.12634627057854,2.84130946204359,-0.901273963781092,-0.901273963779392,0.527335063136715,-1.50168321597793,-0.745139851234331,0.427619104078742,0.724366468793359,2.1361246228743,NaN,-0.143156121716621,2.18364504854921,NaN,2.69483704089562,-2.21049514591825
93.696,-0.0160440512649996,-0.965566269001101,-0.352842017133524,1.08463625410321,-0.680185474386898,-0.680185474386828,NaN,-1.35356988650105,-0.114912599669405,0.943065770615252,0.582403439479799,0.943065770614608,-1.02417195821993,0.90905663307987,NaN,-1.45160439087131,NaN,-0.71190050606269,-0.885819424781475,-1.45929303920209,-0.885819424781641,0.310050936058019,NaN,NaN,NaN,0.506326045331385,NaN,NaN,-0.716211595644005,1.02780329318717,-1.28414543863466,0.487954266286036,-0.97762863326168,NaN,-0.973424936015362,-1.11485656010843,2.83683449499785,-0.882461685007991,-0.882461685006282,0.532863126124308,-1.4815073885488,-0.722340845269238,0.431847499302179,0.714301060137604,2.1251622224308,NaN,-0.152793002465757,2.18546910079337,NaN,2.67967420499859,-2.19361942362713
93.7984,-0.00476333301462367,-0.944449682614228,-0.332889644615348,1.10122540598012,-0.668452388174612,-0.668452388174576,NaN,-1.32966136250394,-0.106814836862657,0.943872724445371,0.612679239031372,0.94387272444469,-1.01296489473365,0.92423723615177,NaN,-1.43544896107251,NaN,-0.697644152230391,-0.901986152728508,-1.46848577585837,-0.901986152728669,0.284853390251779,NaN,NaN,NaN,0.526813992280355,NaN,NaN,-0.699602945093954,1.0386844455674,-1.2857602720574,0.483564180783246,-0.988298953097515,NaN,-0.953355576828246,-1.10325929108413,2.83249465134184,-0.863855796229208,-0.863855796227485,0.538990502644524,-1.46170911851035,-0.699255992725044,0.435901462153646,0.70413209323094,2.11368589117048,NaN,-0.162806328210099,2.1852366199936,NaN,2.66472872339719,-2.17726087633305
93.9008,0.0066657258099197,-0.924280624126465,-0.313099831081563,1.11823841396953,-0.656206734398494,-0.656206734398492,NaN,-1.30581865884725,-0.0987067597451815,0.944987275034975,0.642282922875557,0.944987275034263,-1.00173525179848,0.938696035869677,NaN,-1.41946091846581,NaN,-0.683266672136487,-0.91825933640206,-1.47783800899902,-0.918259336402214,0.259917363471004,NaN,NaN,NaN,0.546502873768183,NaN,NaN,-0.682593912605251,1.04907851553965,-1.28722166993069,0.479170003441802,-0.998750176191529,NaN,-0.933172011797299,-1.09152541855176,2.82827523170649,-0.845464807564812,-0.845464807563081,0.54570170442368,-1.4422752083572,-0.675889749041118,0.439751745911919,0.693887560114466,2.10169392737742,NaN,-0.1731698992022,2.18290595167599,NaN,2.65000968831099,-2.16143171036786
94.0032,0.018209234941404,-0.905076011335756,-0.293516383825806,1.13564716272083,-0.643453111425043,-0.643453111425074,NaN,-1.28205937366966,-0.090616487252479,0.946406051021184,0.671204461428022,0.946406051020443,-0.990520591713461,0.95240576315734,NaN,-1.40366391485466,NaN,-0.668806242033531,-0.934636120538334,-1.48734912038497,-0.934636120538483,0.235242830784116,NaN,NaN,NaN,0.565415870742501,NaN,NaN,-0.665171318532885,1.05894834436673,-1.2885073929156,0.474778606017579,-1.00893646150455,NaN,-0.912826897923387,-1.0796261661794,2.82416049646737,-0.827296717803136,-0.827296717801395,0.552980294740333,-1.42319105592675,-0.652246334148577,0.443370022789541,0.683595541826703,2.08918648651323,NaN,-0.183854866709205,2.17843964897813,NaN,2.63552622433224,-2.14614120861068
94.1056,0.0298328601193004,-0.886849713123284,-0.274182549752332,1.15342189136656,-0.63019701645603,-0.630197016456078,NaN,-1.25840116262675,-0.0825721450602011,0.948125881036,0.699432912100455,0.94812588103522,-0.97935888211742,0.965341489357283,NaN,-1.38808026160095,NaN,-0.654299987575445,-0.951114299859383,-1.49701708135114,-0.951114299859528,0.210828132177993,NaN,NaN,NaN,0.583578934499818,NaN,NaN,-0.647321649528911,1.06825776945226,-1.28959524247782,0.470395065682073,-1.01881541432569,NaN,-0.892273625385958,-1.06753321501309,2.82013383483742,-0.809359020220689,-0.809359020218936,0.560809061249169,-1.40444082191684,-0.628329700016731,0.446728974275005,0.673284166597926,2.07616566964799,NaN,-0.194829627760388,2.17180476244691,NaN,2.6212874167995,-2.13139574914383
94.208,0.0415018834189432,-0.869612560417276,-0.255140951640655,1.17153129277166,-0.616444757899508,-0.616444757899586,NaN,-1.23486163780859,-0.0746018069561973,0.9501436803138,0.726956460236773,0.950143680312984,-0.96828838750215,0.977480692494418,NaN,-1.37273099559479,NaN,-0.639783981325333,-0.96769220261381,-1.50683862667361,-0.96769220261395,0.186669950658943,NaN,NaN,NaN,0.601020558863091,NaN,NaN,-0.629031172606529,1.07697189875872,-1.29046324357401,0.466022816714134,-1.02834807011885,NaN,-0.871466645838103,-1.05521889151441,2.81617797256162,-0.791658706145921,-0.791658706144151,0.569170168597395,-1.38600756020227,-0.60414348698295,0.449802361761743,0.662981575328199,2.06263558917112,NaN,-0.206059789280316,2.16297310368525,NaN,2.60730222327523,-2.11719882469971
94.3104,0.0531813015074048,-0.853372347585687,-0.236433478632101,1.18994265998229,-0.602203372831327,-0.602203372831424,NaN,-1.21145822882516,-0.0667333918252079,0.95245635652688,0.753762494599319,0.952456356526025,-0.957347505746025,0.988803353089114,NaN,-1.35763594928381,NaN,-0.625293254481774,-0.984368558274755,-1.51680943112972,-0.984368558274889,0.162763309760575,NaN,NaN,NaN,0.61777155472683,NaN,NaN,-0.610286049181123,1.08505741805778,-1.29108983283297,0.461663813556714,-1.03749886504861,NaN,-0.850361799964825,-1.04265637067676,2.81227521541605,-0.774202268457367,-0.774202268455577,0.578045267844021,-1.36787329759754,-0.579690980794436,0.452565072456121,0.652715899561576,2.04860241227181,NaN,-0.217508203471546,2.15192147339032,NaN,2.59357937073832,-2.10355106375474
94.4128,0.0648359579732453,-0.838133833018107,-0.218101138289825,1.20862206300166,-0.587480557560497,-0.587480557560626,NaN,-1.18820802394601,-0.0589945258446213,0.955060734423604,0.779837714324883,0.955060734422709,-0.946574562970212,0.999292065468632,NaN,-1.3428138073656,NaN,-0.610861796303369,-1.00114233924071,-1.52692427340403,-1.00114233924084,0.139101599662871,NaN,NaN,NaN,0.633864815347235,NaN,NaN,-0.591072441482807,1.09248289779058,-1.29145405174232,0.457318692596601,-1.04623561631505,NaN,-0.828916643909335,-1.02981990282241,2.80840769972426,-0.75699570914623,-0.756995709144419,0.587415555726314,-1.35001906700099,-0.554975080767543,0.454993133499174,0.642515254444067,2.03407437381745,NaN,-0.229135060675885,2.1386318551143,NaN,2.58012723191042,-2.09045025895933
94.5152,0.0764306866955961,-0.823898753222014,-0.200183900987525,1.2275345217667,-0.572284612159586,-0.572284612159744,NaN,-1.1651276173361,-0.0514123973351553,0.95795348557615,0.805168251269845,0.957953485575215,-0.936007601504165,1.0089321377354,NaN,-1.32828213769986,NaN,-0.59652252792898,-1.01801257544827,-1.53717717307421,-1.01801257544839,0.115676629965585,NaN,NaN,NaN,0.649335059356007,NaN,NaN,-0.57137661084267,1.09921906006053,-1.29153573595359,0.452986919589369,-1.05452952383499,NaN,-0.807090769038949,-1.01668505551374,2.80455761441168,-0.740044554935454,-0.740044554933625,0.597261801733857,-1.33242491982013,-0.529998282928033,0.457063694751803,0.632407743909618,2.01906175432535,NaN,-0.240898028001008,2.12309158474115,NaN,2.56695367798095,-2.07789140831522
94.6176,0.0879304422492791,-0.8106658609811,-0.182720567156406,1.24664414681742,-0.556624392657904,-0.556624392658099,NaN,-1.14223298354343,-0.0440136303122079,0.961131050492295,0.829739790619625,0.96113105049132,-0.925684193026092,1.01771165793638,NaN,-1.31405739378996,NaN,-0.582307250548562,-1.03497814428827,-1.54756148284437,-1.0349781442884,0.0924787018328647,NaN,NaN,NaN,0.664218543944782,NaN,NaN,-0.551185017051555,1.1052389850475,-1.29131568739842,0.448666914519848,-1.06235518908821,NaN,-0.784846106254964,-1.00322894988273,2.8007073746536,-0.723353881789092,-0.72335388178725,0.607564369954561,-1.31506994574402,-0.504762674713219,0.458754996764116,0.622421467085096,2.00357683293399,NaN,-0.252752435442428,2.10529350589548,NaN,2.55406592077672,-2.06586677254701
94.72,0.0993004075747516,-0.798430987212452,-0.165748668203307,1.26591423983215,-0.540509261336476,-0.540509261336709,NaN,-1.11953938388953,-0.0368241860610116,0.964589551004667,0.853537679988476,0.964589551003652,-0.915641287966414,1.02562152078315,NaN,-1.3001548950804,NaN,-0.568246575544242,-1.05203753799667,-1.55806992162883,-1.05203753799679,0.0694966948746254,NaN,NaN,NaN,0.678552751741719,NaN,NaN,-0.530484429970786,1.11051826053659,-1.29077581785593,0.444356152907426,-1.06969063620483,NaN,-0.762147206276193,-0.989430472430587,2.79683974958642,-0.706928346013685,-0.706928346011824,0.618303246633448,-1.29793230430319,-0.479269933927759,0.460046343746503,0.612584512129592,1.98763382617889,NaN,-0.264651510062591,2.08523611579018,NaN,2.54147035981975,-2.05436594875825
94.8224,0.110506083633802,-0.787187116508656,-0.149304392341836,1.28530736649914,-0.523949027878979,-0.523949027879246,NaN,-1.09706129037917,-0.0298692846431839,0.968324698152752,0.87654702620915,0.968324698151694,-0.905915090990523,1.03265542637944,NaN,-1.28658879639959,NaN,-0.554369847600754,-1.06918861548447,-1.56869455537966,-1.06918861548459,0.0467181657450215,NaN,NaN,NaN,0.692376065183871,NaN,NaN,-0.509262059637048,1.11503509580936,-1.28989925532871,0.440051247182849,-1.07651731567521,NaN,-0.738961490824096,-0.975270451686579,2.79293796354369,-0.690772217562951,-0.69077221756107,0.629458066938221,-1.28098925028505,-0.453521323267332,0.460918087543017,0.602924931224422,1.97124881191574,NaN,-0.276546640462854,2.06292370287597,NaN,2.52917243185405,-2.04337595422302
94.9248,0.12151337544334,-0.776924462936021,-0.13342251456699,1.30478542772927,-0.50695388045021,-0.506953880450507,NaN,-1.07481230289678,-0.0231733272791114,0.972331704363386,0.898752788353631,0.972331704362287,-0.896540938933908,1.03880987226544,NaN,-1.27337205385021,NaN,-0.540705065909497,-1.08642835064599,-1.57942675022035,-1.08642835064611,0.0241294562015085,NaN,NaN,NaN,0.705727444444954,NaN,NaN,-0.487505705980994,1.11877043168191,-1.28867040171784,0.435748006322011,-1.08282007709193,NaN,-0.715259472979997,-0.960731795309961,2.78898579916663,-0.674889406934352,-0.674889406932448,0.641008135034777,-1.2642171379009,-0.427517673516312,0.461351619064551,0.59347069426951,1.95443962731802,NaN,-0.288387643321222,2.03836647850437,NaN,2.51717644975632,-2.03288131087749
95.0272,0.132288695254563,-0.767630532313685,-0.118136302746997,1.32430976159376,-0.48953431125028,-0.489534311250612,NaN,-1.05280503669304,-0.0167597954998569,0.976605213918288,0.920139883356573,0.976605213917147,-0.887553152500402,1.04408416282103,NaN,-1.26051638433048,NaN,-0.527278796772667,-1.10375258098463,-1.59025711406332,-1.10375258098475,0.00171581202635524,NaN,NaN,NaN,0.718646120093761,NaN,NaN,-0.465203926349848,1.12170808166977,-1.28707492995746,0.431441463723609,-1.08858711231448,NaN,-0.69101494556749,-0.945799588490028,2.78496773178977,-0.659283473255774,-0.659283473253845,0.652932444172548,-1.24759140986078,-0.40125935387365,0.461329365844168,0.584249614556753,1.93722572595452,NaN,-0.30012301480073,2.01158070250515,NaN,2.50548543561204,-2.02286412100299
95.1296,0.142799103068102,-0.759290158811158,-0.103477373010912,1.34384130249421,-0.471701043731328,-0.471701043731702,NaN,-1.03105096571462,-0.0106511057560039,0.981139268111739,0.940693320990521,0.981139268110559,-0.878984839524962,1.0484804550064,NaN,-1.24803221020633,NaN,-0.514116069709428,-1.12115574443982,-1.60117542618629,-1.12115574443994,-0.0205384828683005,NaN,NaN,NaN,0.731171304758384,NaN,NaN,-0.44234621577448,1.12383492643754,-1.28509972316207,0.427125867574854,-1.0938098836914,NaN,-0.666205137494991,-0.930461163987488,2.78086911291534,-0.643957605784599,-0.643957605782645,0.665209711018429,-1.23108659513385,-0.374746235234907,0.460834796848028,0.575289241056229,1.91962798604307,NaN,-0.311700166428782,1.98258879397818,NaN,2.49410097666607,-2.01330412305742
95.232,0.153012490482025,-0.751885512440917,-0.0894754865312752,1.3633407998166,-0.453464969682949,-0.453464969683355,NaN,-1.00956022320116,-0.0048684143923074,0.985927311463203,0.960398373246018,0.985927311461982,-0.870867649210106,1.05200384227463,NaN,-1.2359285836926,NaN,-0.501240263335117,-1.1386305941951,-1.61217055752784,-1.13863059419522,-0.0426499559443034,NaN,NaN,NaN,0.743341920957584,NaN,NaN,-0.418923190575174,1.12514114946597,-1.28273278066515,0.422794643085053,-1.09848305641839,NaN,-0.640810844106738,-0.914706164028762,2.77667639261518,-0.628914583294293,-0.628914583292317,0.677818430893935,-1.21467633984352,-0.347977660519975,0.459852434016919,0.56661672213476,1.90166847788967,NaN,-0.323065647607638,1.95141941319306,NaN,2.48302312604666,-2.00417871929685
95.3344,0.162897790314588,-0.745396088576825,-0.0761583112183313,1.38276906637992,-0.43483710187419,-0.434837101874621,NaN,-0.988341380530668,0.000568606656906114,0.99096222609595,0.97924076497455,0.99096222609469,-0.863231505507366,1.05466245458004,NaN,-1.22421309359371,NaN,-0.488673000700236,-1.15616790600578,-1.623230397131,-1.1561679060059,-0.064635786045265,NaN,NaN,NaN,0.755196334867224,NaN,NaN,-0.394926766297527,1.12562046781548,-1.27996312163831,0.418440343419503,-1.10260444864039,NaN,-0.614816543850107,-0.898526611734566,2.77237734240634,-0.614156724493196,-0.614156724491194,0.690736947339684,-1.19833348371108,-0.320952439292801,0.458367870373908,0.558258652038977,1.88337021131507,NaN,-0.334165349831912,1.91810750763193,NaN,2.4722503412939,-1.99546297841837
95.4368,0.172425180235437,-0.739798699566496,-0.0635511908479569,1.40208721211729,-0.415828540709421,-0.415828540709884,NaN,-0.96740123701841,0.00564198752511381,0.996236371754079,0.997206862898077,0.996236371752782,-0.856104362861873,1.05646753926704,NaN,-1.21289176016632,NaN,-0.476434069291005,-1.17375621194302,-1.63434178903026,-1.17375621194315,-0.0865136447197992,NaN,NaN,NaN,0.76677208066247,NaN,NaN,-0.370350328755397,1.12527030885602,-1.27678069666824,0.41405459549476,-1.10617500301252,NaN,-0.588210509172718,-0.881916992282666,2.76796123622719,-0.599685841139549,-0.599685841137514,0.703943528706726,-1.18203018357299,-0.29366887537446,0.456367797781823,0.550240908777181,1.86475688482457,NaN,-0.344944688663299,1.88269432778453,NaN,2.4617794427452,-1.98712962785946
95.5392,0.181566255188144,-0.735067485497607,-0.0516769557703925,1.42125683026669,-0.396450447382124,-0.396450447382609,NaN,-0.946744648068125,0.0103356424091508,1.00174161638802,1.01428384536777,1.00174161638668,-0.849512016657771,1.05743349513911,NaN,-1.20196891861865,NaN,-0.464541362099788,-1.19138158876212,-1.64549046033296,-1.19138158876224,-0.108301544283141,NaN,NaN,NaN,0.778105563690683,NaN,NaN,-0.345188902833093,1.12409190910998,-1.27317629661043,0.409628034220794,-1.10919877603397,NaN,-0.560984907215364,-0.86487432759836,2.76341896770203,-0.585503199475334,-0.585503199473271,0.717416454675311,-1.16573808189269,-0.266124822736968,0.453840045825438,0.542588489128751,1.84585264990511,NaN,-0.35534876738767,1.84522742328846,NaN,2.45160558539359,-1.97914905236138
95.6416,0.190294160676955,-0.731173951381469,-0.0405557865932284,1.44024012789418,-0.376714015714045,-0.376714015714544,NaN,-0.926374399923829,0.0146355068539014,1.00746935334832,1.03045984626189,1.00746935334694,-0.843477975627536,1.05757785186147,NaN,-1.19144709113358,NaN,-0.453010825049508,-1.20902750881192,-1.65666092597809,-1.20902750881205,-0.130017690792895,NaN,NaN,NaN,0.789231744589209,NaN,NaN,-0.319439320899147,1.12209033894955,-1.26914144947483,0.405150223239783,-1.11168293516786,NaN,-0.533135879872382,-0.847398226751231,2.75874310689017,-0.571609492243016,-0.571609492240932,0.731134118485646,-1.14942851421136,-0.238317758652336,0.45077362742207,0.535325348222907,1.82668189621661,NaN,-0.365322528105813,1.80576062637829,NaN,2.44172224372207,-1.97148930876162
95.744,0.198583693335962,-0.728087027997159,-0.0302051226974174,1.45900001370978,-0.35663043718489,-0.356630437185404,NaN,-0.906291120402943,0.018529638924122,1.01341050809317,1.04572407483968,1.01341050809175,-0.838023382158096,1.05692120553551,NaN,-1.18132685595812,NaN,-0.441856402695759,-1.22667474204719,-1.66783637535273,-1.22667474204733,-0.151680337480489,NaN,NaN,NaN,0.800183819418375,NaN,NaN,-0.293100387979949,1.11927447461585,-1.26466830721104,0.400609572109369,-1.11363774773872,NaN,-0.504663596462072,-0.829490903314675,2.75392791692833,-0.55800482251279,-0.558004822510685,0.745075142070337,-1.13307273992048,-0.210244863636844,0.447158787424605,0.528474248868776,1.80726906045184,NaN,-0.374810893148393,1.76435402375458,NaN,2.43212120394415,-1.96411615820052
95.8464,0.20641138448016,-0.725773145883962,-0.0206395943650066,1.47750016910855,-0.336210856539502,-0.336210856540029,NaN,-0.886493206066634,0.022008303501687,1.0195555439096,1.06006692080198,1.01955554390813,-0.83316695373238,1.05548713296472,NaN,-1.17160672862969,NaN,-0.43108998425133,-1.2443012860634,-1.6789985454623,-1.24430128606355,-0.173307634596535,NaN,NaN,NaN,0.810992912995684,NaN,NaN,-0.266173041573911,1.11565694961643,-1.25974952520618,0.395993260994033,-1.11507654489108,NaN,-0.475572277632188,-0.811157159535235,2.74896936001671,-0.544688697943568,-0.544688697941437,0.759218494729613,-1.11664217384049,-0.181903098490466,0.442987056529586,0.522056617564376,1.78763845739951,NaN,-0.383758901164855,1.72107391353742,NaN,2.42279255791639,-1.95699311095589
95.9488,0.213755589034322,-0.724196308615322,-0.011870948637281,1.49570513456784,-0.315466320546793,-0.315466320547331,NaN,-0.866976745275475,0.0250640638168555,1.02589448147736,1.07348006149756,1.02589448147586,-0.828924913137041,1.05330211147547,NaN,-1.16228307067026,NaN,-0.420721354168497,-1.26188230383888,-1.69012758172555,-1.26188230383903,-0.194917473151456,NaN,NaN,NaN,0.821687797105841,NaN,NaN,-0.238660507174001,1.1112541234017,-1.25437813146431,0.391287175816457,-1.11601565055896,NaN,-0.445870191836944,-0.79240434155579,2.7438651239091,-0.531660029204706,-0.531660029202556,0.773543607818479,-1.10010859912083,-0.15328926946112,0.438251311208469,0.516092402685338,1.76781412615333,NaN,-0.392111847652412,1.67599274122803,NaN,2.41372469847552,-1.95008147652353
96.0512,0.22059660479984,-0.723318154972213,-0.00390793735995174,1.51358044081055,-0.294407729636331,-0.294407729636889,NaN,-0.847735421821954,0.0276919025116648,1.03241694685189,1.08595659145424,1.03241694685035,-0.825310878227291,1.0503954667634,NaN,-1.15335003654112,NaN,-0.410758151081752,-1.27939006858202,-1.70120190154419,-1.27939006858219,-0.216527320283704,NaN,NaN,NaN,0.832294638393379,NaN,NaN,-0.210568448591246,1.10608609875422,-1.24854738533164,0.386475851435975,-1.11647427983593,NaN,-0.415569626743911,-0.773242275173847,2.73861469020024,-0.518917122599837,-0.518917122597664,0.788030480969827,-1.08344435208323,-0.124400078079411,0.432945830484779,0.510599939809752,1.74781968380552,NaN,-0.399815440545013,1.62918900534457,NaN,2.4049043184415,-1.9433404128603
96.1536,0.226916838260399,-0.723098008660964,0.00324385119131498,1.53109279555496,-0.273045806069051,-0.273045806069635,NaN,-0.828760397636736,0.0298893819439169,1.03911225497653,1.09749118649765,1.03911225497495,-0.822335697783896,1.04679935608309,NaN,-1.14479955789199,NaN,-0.401205838402768,-1.29679393827084,-1.71219808368707,-1.296793938271,-0.238154041500987,NaN,NaN,NaN,0.84283677355642,NaN,NaN,-0.181905105662102,1.10017678999426,-1.24225063974917,0.381542423246874,-1.11647442667293,NaN,-0.384686839089178,-0.753683198498654,2.73321944048288,-0.506457659195181,-0.506457659192992,0.802659774437336,-1.06662248121828,-0.0952321630384747,0.427066335769659,0.505595835697064,1.72767818269725,NaN,-0.406815974884957,1.5807471195129,NaN,2.39631641458617,-1.93672697491811
96.256,0.232701009432659,-0.723492924242917,0.00958220570967624,1.54821030531702,-0.251391087626505,-0.25139108762712,NaN,-0.810040191557592,0.0316568299587447,1.04596952099862,1.10808029601828,1.045969520997,-0.820007246935246,1.04254877218479,NaN,-1.13662134925673,NaN,-0.39206768510799,-1.31406038698334,-1.72309078765399,-1.31406038698351,-0.259813704995687,NaN,NaN,NaN,0.853334501553017,NaN,NaN,-0.152681412141882,1.09355400585376,-1.23548122723685,0.376468592719946,-1.11604076034967,NaN,-0.353241988104007,-0.733741707072081,2.72768276845304,-0.494278663291791,-0.494278663289584,0.817412881428392,-1.04961689210664,-0.0657821503654681,0.420610006319737,0.501094878853306,1.70741197231174,NaN,-0.413060524190189,1.53075722000781,NaN,2.38794429952176,-1.93019617146483
96.3584,0.237936364929203,-0.724457743770415,0.0151085107361947,1.56490268941625,-0.229453945584369,-0.22945394558502,NaN,-0.791560581825109,0.03299751758917,1.05297777808469,1.11772234072599,1.05297777808302,-0.818330218226034,1.03768153847186,NaN,-1.12880291382032,NaN,-0.383344749505362,-1.33115309813342,-1.73385268332561,-1.3311530981336,-0.281521369980676,NaN,NaN,NaN,0.863804878471713,NaN,NaN,-0.122911095666682,1.08624949696936,-1.22823237710027,0.371234611385815,-1.11520053330482,NaN,-0.321259057647308,-0.713434715630462,2.72201015803519,-0.48237647624552,-0.482376476243298,0.832271981421935,-1.03240249711482,-0.036046726940391,0.413575471422842,0.49710997869664,1.68704257159538,NaN,-0.418497143907947,1.4793149186013,NaN,2.37976963125684,-1.92370104358733
96.4608,0.242612866564091,-0.725945175940747,0.0198279303494245,1.58114144795946,-0.20724461830352,-0.207244618304212,NaN,-0.773304553731159,0.0339177964669954,1.06012608062112,1.12641789160451,1.06012608061942,-0.817305944655058,1.03223826942782,NaN,-1.1213295373779,NaN,-0.375035857526514,-1.34803309443745,-1.74445437324698,-1.34803309443764,-0.303290869959701,NaN,NaN,NaN,0.874261507445445,NaN,NaN,-0.092610766026442,1.07829893641208,-1.22049715703941,0.365819283467543,-1.11398348985161,NaN,-0.288765769076744,-0.692781428686156,2.71620920343997,-0.47074675478495,-0.470746754782711,0.847220086804153,-1.01495538930139,-0.0060227414223998,0.40596278430791,0.493652130182686,1.66659055505484,NaN,-0.423075081091356,1.42652100989129,NaN,2.37177247319419,-1.91719277238566
96.5632,0.246723339832025,-0.727905900383172,0.0237495382171282,1.5968999692216,-0.184773249138514,-0.184773249139256,NaN,-0.755252297915603,0.034427181905484,1.06740358348966,1.13416981498833,1.06740358348791,-0.816932272021819,1.02626228655305,NaN,-1.11418427145169,NaN,-0.367137568556648,-1.36465886958883,-1.75486430835539,-1.36465886958902,-0.325134604658151,NaN,NaN,NaN,0.884714329605645,NaN,NaN,-0.0617999935233187,1.06974182984293,-1.21226842933661,0.360199985257287,-1.11242176485267,NaN,-0.255793482005123,-0.67180330587917,2.71028956963251,-0.459384501713439,-0.459384501711181,0.862241096377884,-0.997253047080646,0.0242926755803762,0.397773383925693,0.490730394999421,1.64607544738706,NaN,-0.426744985195078,1.37248114206417,NaN,2.36393138935546,-1.91062081458908
96.6656,0.250263583895382,-0.730288691088825,0.0268863979172803,1.61215358509397,-0.162049917112714,-0.162049917113495,NaN,-0.737381252653613,0.0345383854434658,1.07479960007998,1.14098337916987,1.07479960007819,-0.81720347705318,1.01979949518878,NaN,-1.10734790918937,NaN,-0.359644123927402,-1.38098650556387,-1.7650487026619,-1.38098650556407,-0.347063348132033,NaN,NaN,NaN,0.895169430698012,NaN,NaN,-0.0305013763185692,1.06062137175435,-1.20353881008898,0.354352694651286,-1.11054976772862,NaN,-0.222377076109963,-0.650524006247944,2.70426290779231,-0.448284121260749,-0.448284121258474,0.877319860544792,-0.979274558023164,0.0549019868664635,0.389010048356871,0.488351893161901,1.6255156220664,NaN,-0.429459121119781,1.31730545543917,NaN,2.35622356786121,-1.90393306341461
96.768,0.253232454445915,-0.73304054831956,0.0292556099518282,1.62687959761358,-0.13908465192435,-0.139084651925175,NaN,-0.719666175419753,0.0342673117496035,1.0823036479595,1.14686632669124,1.08230364795767,-0.818110213330544,1.01289823782831,NaN,-1.10079895748763,NaN,-0.352547379516569,-1.39696978568792,-1.77497145330411,-1.39696978568812,-0.36908607441596,NaN,NaN,NaN,0.9056288796439,NaN,NaN,0.00125940410977453,1.05098427467993,-1.19430061635075,0.348252018491209,-1.10840405273341,NaN,-0.188554807605535,-0.62896929956799,2.69814274942033,-0.437439482313326,-0.437439482311034,0.892442256588236,-0.961000841196642,0.0858071354811813,0.379676835093297,0.486521812286698,1.6049282086958,NaN,-0.431171592634924,1.26110819221836,NaN,2.34862495684484,-1.89707603218308
96.8704,0.255631935021052,-0.7361068277042,0.0308783468109757,1.64105730524299,-0.115887432067155,-0.115887432068021,NaN,-0.702079221941691,0.0336330404395254,1.08990549141902,1.15182892323077,1.08990549141715,-0.819639460422554,1.00560914518315,NaN,-1.09451361623617,NaN,-0.345836734848965,-1.41256032305958,-1.78459409240589,-1.41256032305979,-0.391209804700047,NaN,NaN,NaN,0.916090614171262,NaN,NaN,0.0334535450416385,1.04088060135548,-1.18454579493189,0.341871212189869,-1.10602317667078,NaN,-0.15436813933429,-0.607166944868235,2.69194440533334,-0.426843971975397,-0.426843971973083,0.907595266274644,-0.94241484449183,0.117009455225831,0.369778998899037,0.485243445187921,1.58432901183519,NaN,-0.431838583000921,1.20400728300818,NaN,2.3411103913253,-1.8899950518071
96.9728,0.257467209796817,-0.739431359574924,0.0317798930754873,1.65466805058251,-0.0924681712434992,-0.0924681712444123,NaN,-0.684590015156194,0.0326578094845908,1.09759518794654,1.15588399510835,1.09759518794464,-0.821774459082107,0.997985001254937,NaN,-1.08846577769337,NaN,-0.339499077365416,-1.42770771396912,-1.79387580358957,-1.42770771396934,-0.413439482153393,NaN,NaN,NaN,0.926548381455446,NaN,NaN,0.0660491147417242,1.03036361921049,-1.17426584814496,0.335182202514107,-1.10344754614237,NaN,-0.119861547931901,-0.585146550175665,2.68568488534818,-0.41649052749863,-0.416490527496301,0.922767038024107,-0.92350169492724,0.148509605595213,0.35932288842348,0.484518249627316,1.56373243197873,NaN,-0.431418612970374,1.14612391280964,NaN,2.33365369737341,-1.88263446774388
97.0752,0.258746737791916,-0.742956560887262,0.0319896896709256,1.66769528776957,-0.0688366990557222,-0.0688366990566869,NaN,-0.667165707740625,0.0313669997801645,1.10536314150936,1.15904695868565,1.10536314150742,-0.824494638529351,0.990080620131723,NaN,-1.08262704498239,NaN,-0.333518755616263,-1.44235971129274,-1.80277350242559,-1.44235971129296,-0.435777874274901,NaN,NaN,NaN,0.936991728337749,NaN,NaN,0.0990110853851757,1.01948966729287,-1.16345178218932,0.328155630261704,-1.10071926072388,NaN,-0.0850823128444807,-0.562939432391379,2.67938282895091,-0.406371647072136,-0.406371647069789,0.937946915355717,-0.904248796260025,0.180307517430106,0.348315834834591,0.48434591200696,1.54315137918648,NaN,-0.429872814487602,1.08758206121547,NaN,2.32622778421921,-1.8749378283346
97.1776,0.259482310424555,-0.746623552996723,0.031541357454244,1.68012464154272,-0.0450027396327452,-0.0450027396337627,NaN,-0.649771062101786,0.0297891000270821,1.11320015495888,1.16133583115685,1.11320015495692,-0.827775564906346,0.981952713021683,NaN,-1.07696675751199,NaN,-0.327877586184265,-1.45646240851587,-1.81124196008139,-1.4564624085161,-0.458225500849115,NaN,NaN,NaN,0.947406027724276,NaN,NaN,0.132301407191874,1.00831799769989,-1.15209409261116,0.320760923170272,-1.09788195390726,NaN,-0.0500802936725185,-0.540578488687265,2.67305841508126,-0.396479394102218,-0.396479394099855,0.953125425758057,-0.884645886784903,0.212402332375813,0.336766040520566,0.484724408507643,1.52259718208494,NaN,-0.427165216999819,1.02850801183481,NaN,2.3188047466351,-1.8668480706103
97.28,0.259689066528496,-0.750372302838954,0.0304726650595471,1.69194392353136,-0.0209758895006338,-0.0209758895016979,NaN,-0.632368571434355,0.0279556247533748,1.12109746353972,1.16277120572226,1.12109746353773,-0.83158894415233,0.973659720787037,NaN,-1.07145202013323,NaN,-0.322554894555126,-1.46996042852699,-1.81923397324966,-1.46996042852722,-0.480780593586931,NaN,NaN,NaN,0.957772531997924,NaN,NaN,0.165879117565428,0.996910554675588,-1.14018278626334,0.312966404186238,-1.0949806212819,NaN,-0.0149077020617388,-0.5180980789637,2.6667332216615,-0.386805413842759,-0.386805413840375,0.968294233739064,-0.864685068210717,0.244792330672541,0.324682464382847,0.485650072115844,1.50207950156015,NaN,-0.423263035633912,0.969029837709822,NaN,2.31135598396501,-1.85830771597471
97.3824,0.259385448038949,-0.754141797135748,0.0288254188702012,1.70314308744677,0.00323440795266005,0.00323440795155151,NaN,-0.614918630274395,0.0259009698339992,1.12904673505127,1.16337617931141,1.12904673504926,-0.835902697544219,0.965261599964219,NaN,-1.06604774706434,NaN,-0.317527587825049,-1.48279711040741,-1.82670059626958,-1.48279711040764,-0.503439096337265,NaN,NaN,NaN,0.968068454098708,NaN,NaN,0.199700479011622,0.985331679547969,-1.12770743327614,0.304739436582108,-1.09206142355459,NaN,0.020381131583969,-0.495533909897138,2.66043002709086,-0.377340972841841,-0.377340972839433,0.983446066626346,-0.844360807484042,0.277474854374247,0.312074702600255,0.487117669953606,1.4816062553024,NaN,-0.41813694534068,0.909276877875189,NaN,2.30385232678409,-1.84925908126943
97.4848,0.258593096527136,-0.757870247380172,0.0266452760967236,1.71371412704114,0.0276188973082445,0.0276188973070946,NaN,-0.597379749360081,0.0236622071944915,1.13704003626497,1.16317623176096,1.13704003626293,-0.840681106756158,0.956819566039543,NaN,-1.06071673361024,NaN,-0.312770254848401,-1.49491468350792,-1.83359142931654,-1.49491468350815,-0.526194706251522,NaN,NaN,NaN,0.978267084006165,NaN,NaN,0.23371914148137,0.973647753512067,-1.11465723765229,0.296046598721838,-1.0891714611611,NaN,0.0557300019685065,-0.472922906779564,2.65417256625056,-0.368077019631124,-0.368077019628697,0.998574630461592,-0.823669917985716,0.310446238103367,0.298952873169102,0.48912048458481,1.46118355670661,NaN,-0.411761327800983,0.849379217985739,NaN,2.29626416331896,-1.83964450399209
97.5872,0.257336703679568,-0.761495318076718,0.0239814982308569,1.72365093751315,0.0521685585073717,0.0521685585061732,NaN,-0.579708801882484,0.0212788333059675,1.14506977582933,1.16219906581274,1.14506977582725,-0.845885007631081,0.948395808829609,NaN,-1.05541976413049,NaN,-0.308255289932237,-1.50625441931213,-1.83985493868605,-1.50625441931236,-0.549038946130343,NaN,NaN,NaN,0.988337949177535,NaN,NaN,0.267886324752392,0.961926804586341,-1.10102110751604,0.286853872887193,-1.08635852183621,NaN,0.0910810879022137,-0.45030306232778,2.64798526546169,-0.359004258479055,-0.359004258476608,1.01367453488097,-0.802611529851928,0.343701758184326,0.285327513020738,0.491650392800295,1.44081567222811,NaN,-0.404114483929601,0.789467181361915,NaN,2.28856156165256,-1.82940658310189
97.6896,0.255643834725743,-0.764954369936967,0.0208866690287716,1.73294917149486,0.0768746648694867,0.0768746648682314,NaN,-0.56186128267196,0.0187924936231884,1.15312863830273,1.16047442521173,1.15312863830063,-0.851472002514461,0.940053201235981,NaN,-1.05011575921843,NaN,-0.303953037124387,-1.51675675923892,-1.84543878849277,-1.51675675923915,-0.571961253160761,NaN,NaN,NaN,0.998247023069092,NaN,NaN,0.302151015108104,0.950238114192337,-1.08678770862187,0.277126834808298,-1.08367080210847,NaN,0.126375226883629,-0.427713260656897,2.64189298730925,-0.350113226743888,-0.350113226741417,1.02874123193133,-0.781187047963139,0.377235606415627,0.271209489105698,0.494697940687278,1.42050499752599,NaN,-0.395178813968005,0.729670830620172,NaN,2.28071438365306,-1.81848844016327
97.792,0.253544745601409,-0.768184708233961,0.0174164036921224,1.74160612451786,0.101728848213915,0.101728848212608,NaN,-0.543791560329215,0.0162467078232474,1.1612095263067,1.15803391190164,1.16120952630456,-0.857396662095321,0.931855023330005,NaN,-1.04476195575399,NaN,-0.299831949823241,-1.52636142736977,-1.85029017243103,-1.52636142737,-0.594949069798024,NaN,NaN,NaN,1.00795698052998,NaN,NaN,0.33646017171185,0.938651861217444,-1.07194550194256,0.26683083915124,-1.08115661288843,NaN,0.161552204150736,-0.405193082835846,2.63592081566901,-0.341394363277782,-0.341394363275288,1.0437709612061,-0.759400086784112,0.411040889977191,0.256609918809214,0.498252415161884,1.40025204419526,NaN,-0.384940975000224,0.67011947586305,NaN,2.27269239016002,-1.80683400143493
97.8944,0.25107221079221,-0.771123826543243,0.0136290716057083,1.74962067520065,0.126723167946665,0.126723167945302,NaN,-0.525453110698992,0.0136866147862284,1.16930552702522,1.15491081985912,1.16930552702305,-0.863610701420005,0.923864714840063,NaN,-1.03931410393228,NaN,-0.295858755931023,-1.53500754066672,-1.85435613624001,-1.53500754066695,-0.617987927088751,NaN,NaN,NaN,1.01742749448132,NaN,NaN,0.370758942676233,0.927238825891208,-1.0564827816623,0.255931199273865,-1.07886409647031,NaN,0.196551056002165,-0.382782604980659,2.63009389589771,-0.332838052340492,-0.332838052337974,1.0587606907801,-0.737256374958863,0.445109652854323,0.241540095682189,0.502301910341349,1.38005542667253,NaN,-0.373392022791706,0.610941183448838,NaN,2.26446534901184,-1.79438829271924
97.9968,0.248261364342349,-0.773709642579993,0.00958553655449657,1.75699327701233,0.151850179766685,0.151850179765267,NaN,-0.506798737754544,0.0111587385682548,1.17740991015651,1.15113999037366,1.17740991015432,-0.870063140000352,0.916145650622274,NaN,-1.03372666295106,NaN,-0.291998613761636,-1.54263372161235,-1.85758387620856,-1.54263372161257,-0.641061516863741,NaN,NaN,NaN,1.02661556344678,NaN,NaN,0.404990894102186,0.916070137866349,-1.04038773217195,0.24439336073571,-1.07684098340837,NaN,0.231310385664517,-0.36052220060319,2.62443731458783,-0.324434636569913,-0.32443463656737,1.07370804167523,-0.714763629696045,0.479432906309724,0.226011422077323,0.506833387309531,1.3599118495476,NaN,-0.360527537037678,0.552262279375109,NaN,2.25600316284103,-1.78109773236845
98.0992,0.245149536875014,-0.775880734337963,0.00534889237115371,1.76372596625782,0.177102999579698,0.177102999578232,NaN,-0.48778080385656,0.00871075500212893,1.18551614852604,1.14675767713509,1.18551614852382,-0.876700480499083,0.90876091492602,NaN,-1.02795298393067,NaN,-0.288215243587239,-1.54917821467333,-1.85992100074561,-1.54917821467355,-0.664151756907336,NaN,NaN,NaN,1.03547585587169,NaN,NaN,0.439098253611106,0.905217018567376,-1.02364851905342,0.232183077042076,-1.07513439542263,NaN,0.265768685269385,-0.33845235349695,2.61897597793508,-0.316174410396744,-0.31617441039418,1.08861118490414,-0.691931403822068,0.514000654847309,0.210035353456463,0.5118327297673,1.33981610869388,NaN,-0.34634772397798,0.494206845923155,NaN,2.24727601731789,-1.76691041005443
98.2016,0.241776062749123,-0.777576591627298,0.000984159810846876,1.76982234124042,0.202475362159209,0.202475362157702,NaN,-0.468351493719756,0.00639122936520662,1.1936179423758,1.14180140112635,1.19361794237356,-0.883466947141032,0.901773044591645,NaN,-1.02194548077522,NaN,-0.28447103061065,-1.5545790158007,-1.86131575685848,-1.55457901580093,-0.687238861551349,NaN,NaN,NaN,1.04396105904075,NaN,NaN,0.473022166050803,0.894750469650883,-1.00625342468717,0.219266604941819,-1.07379067737517,NaN,0.299864656324597,-0.316613476208417,2.61373444957956,-0.308047612137041,-0.308047612134453,1.10346871120129,-0.668770909359409,0.548801914491055,0.19362335462432,0.517284802391723,1.3197611193957,NaN,-0.330857481107619,0.436896219928215,NaN,2.23825453193148,-1.75177634733158
98.304,0.238182040067317,-0.778737893830683,-0.00344207844967408,1.77528748472783,0.227961678441693,0.22796167844016,NaN,-0.448463125013741,0.00424930520589638,1.20170923165254,1.13630977977095,1.20170923165027,-0.890304809830792,0.895243722222628,NaN,-1.01565580201969,NaN,-0.280727113535613,-1.55877402832327,-1.86171723618801,-1.55877402832349,-0.710301432870631,NaN,NaN,NaN,1.05202222767862,NaN,NaN,0.50670295743635,0.884740889835329,-0.988191028491414,0.205610931856081,-1.07285523459918,NaN,0.333537526146025,-0.295045718747591,2.6087367318504,-0.300044424051599,-0.300044424048983,1.11827948951786,-0.645294824859363,0.583824733517062,0.176786860082964,0.523173519722801,1.29973797166668,NaN,-0.314066402115551,0.380448509606107,NaN,2.22890989688075,-1.73564774200868
98.4064,0.234410041743564,-0.779306814324141,-0.00786210684914061,1.78012782703829,0.253557096105508,0.253557096103945,NaN,-0.42806850240797,0.00233434290033583,1.20978419051049,1.13032232540603,1.2097841905082,-0.897154795063124,0.889233418491431,NaN,-1.00903502496924,NaN,-0.276943484673124,-1.56170124795183,-1.8610755741598,-1.56170124795205,-0.733316582493652,NaN,NaN,NaN,1.05960913445107,NaN,NaN,0.540080403175199,0.875257630884214,-0.969450416676753,0.191184033390773,-1.0723723570976,NaN,0.366727362321623,-0.273788750135971,2.60400599777967,-0.292154978786146,-0.292154978783499,1.13304254074404,-0.621517099576071,0.619056231315769,0.159537229003642,0.529481929291222,1.27973600218222,NaN,-0.295988713040535,0.324978147529043,NaN,2.21921399159083,-1.71847920072644
98.5088,0.230503787704781,-0.779227343491718,-0.0122075559377244,1.78435096590872,0.279257565627724,0.279257565626133,NaN,-0.407121298496694,0.000695522161513324,1.21783720589606,1.12387921821072,1.21783720589375,-0.903956563032918,0.88380099822364,NaN,-1.00203388942307,NaN,-0.273079121911022,-1.5632989651773,-1.85934214965821,-1.56329896517752,-0.756260087585963,NaN,NaN,NaN,1.06667062726766,NaN,NaN,0.573093996322525,0.866368518990617,-0.950021397365653,0.175955147252986,-1.07238502072158,NaN,0.399375386617164,-0.252881502354165,2.59956429624176,-0.284369366697873,-0.284369366695195,1.1477569499145,-0.597452768099637,0.654482667356675,0.141885691703612,0.536192306528134,1.25974287251819,NaN,-0.27664315554571,0.27059548911259,NaN,2.2091394891425,-1.70022796440108
98.6112,0.226507796785477,-0.778445616762211,-0.0164099058481873,1.78796547068708,0.305059909977458,0.305059909975832,NaN,-0.385576437936781,-0.000618567475202115,1.22586284739648,1.1170210676811,1.22586284739416,-0.910649216164475,0.879003315117309,NaN,-0.99460306805452,NaN,-0.269092153271144,-1.56350597180427,-1.85646978936565,-1.56350597180449,-0.779106579334006,NaN,NaN,NaN,1.07315499750407,NaN,NaN,0.605683211127074,0.858139376230572,-0.929894698262982,0.159895046669315,-1.07293466349462,NaN,0.431424287532775,-0.232361875113579,2.59543226058167,-0.276677639021283,-0.276677639018572,1.16242182477036,-0.573117778481918,0.690089545652538,0.123843292266151,0.54328625562117,1.23974465136447,NaN,-0.256052848234376,0.217406454315598,NaN,2.19865995823605,-1.68085412669346
98.7136,0.222467045513522,-0.776910230588942,-0.0204009778708688,1.79098070432072,0.330961891737482,0.33096189173582,NaN,-0.363390462420056,-0.00156031929615294,1.23385584139681,1.1097886841622,1.23385584139447,-0.917171796989621,0.874894824583902,NaN,-0.986693448283732,NaN,-0.264940035751175,-1.56226176775947,-1.85241297220377,-1.56226176775969,-0.801829753300258,NaN,NaN,NaN,1.07901036069348,NaN,NaN,0.637787756591064,0.850633582092723,-0.909062133749187,0.142976300269284,-1.07406094227318,NaN,0.462818530350044,-0.212266406146335,2.59162885282856,-0.269069801642537,-0.269069801639791,1.17703629381558,-0.548528826722246,0.725861753844775,0.1054208389769,0.550744807882375,1.21972590649201,NaN,-0.234245151378841,0.165512203207706,NaN,2.18774997611813,-1.66032084213375
98.816,0.218426665361491,-0.774572530693782,-0.0241133733474576,1.79340669421452,0.356962267767112,0.356962267765417,NaN,-0.34052186172626,-0.00208345778284408,1.24181106559359,1.10222288266664,1.24181106559122,-0.923463735055254,0.871527240603546,NaN,-0.97825639798532,NaN,-0.260579726942623,-1.55950677293393,-1.84712802195859,-1.55950677293414,-0.824402581642901,NaN,NaN,NaN,1.08418504768361,NaN,NaN,0.669347817838572,0.843911709776913,-0.887516744083285,0.125173514207945,-1.07580148168936,NaN,0.493504661422825,-0.192629920460431,2.5881711672578,-0.261535793691447,-0.261535793688663,1.19159953002977,-0.52370319352191,0.761783726366914,0.0866288766225541,0.558548508653051,1.1996698156123,NaN,-0.211251541858816,0.115008835351656,NaN,2.17638525202357,-1.63859452618881
98.9184,0.214431697872843,-0.771386866824601,-0.0274808361605194,1.79525406512892,0.383060819715511,0.383060819713786,NaN,-0.31693136632195,-0.00214332814992417,1.249723571128,1.09436433017749,1.24972357112562,-0.929465219869443,0.86894924793456,NaN,-0.969244005298185,NaN,-0.255967841538582,-1.55518255149675,-1.84057329248643,-1.55518255149696,-0.846797510207524,NaN,NaN,NaN,1.08862800127581,NaN,NaN,0.700304291837028,0.838031243893042,-0.865252924955143,0.106463562764205,-1.07819163057125,NaN,0.523431596730534,-0.173485184877247,2.58507429470831,-0.25406545003933,-0.254065450036506,1.20611078061988,-0.498658585623803,0.797839609823048,0.067477684397114,0.566677492761809,1.17955830305333,NaN,-0.187107489911086,0.0659871045701671,NaN,2.16454274236109,-1.61564505697562
99.0208,0.2105268971901,-0.767310824544044,-0.0304385541909476,1.79653401578721,0.409258349787151,0.409258349785393,NaN,-0.292582210906643,-0.00169713684291529,1.25758861954612,1.0862534298494,1.25758861954372,-0.935117508728386,0.867206258874694,NaN,-0.959609298244832,NaN,-0.251060797614015,-1.54923204920369,-1.83270937264456,-1.54923204920389,-0.868986638817951,NaN,NaN,NaN,1.09228916803395,NaN,NaN,0.73059902624744,0.833046346926999,-0.842266569464904,0.0868258187169489,-1.08126423715306,NaN,0.552550878871227,-0.154862597838735,2.58235122203302,-0.246648458208786,-0.246648458205922,1.22056938033877,-0.473412983127832,0.834013406612858,0.0479772866990484,0.575111561354401,1.15937220271794,NaN,-0.161852324289516,0.0185321458032628,NaN,2.1522007397452,-1.59144598738838
99.1232,0.206756545303764,-0.762305455513527,-0.0329234460127557,1.79725829668013,0.435556635568014,0.435556635566234,NaN,-0.267440391814059,-0.000704173223194344,1.26540170883598,1.07793022416088,1.26540170883356,-0.940363205501585,0.866340187157031,NaN,-0.949306449081256,NaN,-0.24581495661127,-1.54159983107903,-1.82349933079157,-1.54159983107922,-0.890941894708484,NaN,NaN,NaN,1.09511986658419,NaN,NaN,0.760175058535396,0.829007625134562,-0.818555233252458,0.0662423903086999,-1.08504944607768,NaN,0.5808168902943,-0.136789928904996,2.5800127295888,-0.239274327333458,-0.239274327330556,1.23497473883648,-0.447984496613625,0.870289083871773,0.0281374588253628,0.583830274047706,1.13909144018821,NaN,-0.135529075623474,-0.0272767802561618,NaN,2.13933893699611,-1.5659747685203
99.2256,0.203164248032293,-0.756335521705797,-0.0348744739900003,1.79743914964222,0.461958346150804,0.461958346148997,NaN,-0.241474939725064,0.000873957996770108,1.27315857025328,1.06943429867562,1.27315857025085,-0.945146549894734,0.866389212894193,NaN,-0.938290960904427,NaN,-0.240186754034611,-1.53223230150245,-1.81290899531225,-1.53223230150264,-0.912635210837712,NaN,NaN,NaN,1.09707311480391,NaN,NaN,0.788976843491323,0.825961861705471,-0.794118320472735,0.0446983665763345,-1.08957451042775,NaN,0.608187022994096,-0.119292099690285,2.57806726086391,-0.231932380538308,-0.231932380535369,1.2493263153665,-0.422391247255756,0.906650649996131,0.00796772315488473,0.592813055818344,1.11869522476494,NaN,-0.10818430024165,-0.0713665153921209,NaN,2.12593848310898,-1.53921297590103
99.328,0.199792699969882,-0.749369751463381,-0.0362329962223805,1.79708919387293,0.488466932131692,0.488466932129871,NaN,-0.214658211644476,0.00307308105397444,1.28085513446471,1.06080467237306,1.28085513446226,-0.949413739935056,0.867387528173864,NaN,-0.926519831983285,NaN,-0.234132816075585,-1.52107789687008,-1.80090725946344,-1.52107789687026,-0.934038719577597,NaN,NaN,NaN,1.09810391373786,NaN,NaN,0.816950462360394,0.82395171421986,-0.768957285343859,0.0221820741982736,-1.09486360504835,NaN,0.634621815236424,-0.102390985592831,2.576520759577,-0.22461176868082,-0.224611768677839,1.26362360384026,-0.39665128223395,0.943082211580572,-0.0125226465097976,0.602039300070482,1.09816224940867,NaN,-0.0798679053814011,-0.113670200037501,NaN,2.11198204828092,-1.51114652528074
99.4304,0.196683424040278,-0.741381093396997,-0.0369431461699575,1.79622126729608,0.515086506984198,0.515086506982357,NaN,-0.186966191258167,0.00592617434698504,1.28848747631258,1.05207966742524,1.28848747631011,-0.953113288480046,0.869365068994225,NaN,-0.913951697846114,NaN,-0.22761006148918,-1.50808725389812,-1.78746639652093,-1.5080872538983,-0.955124966924381,NaN,NaN,NaN,1.09816949850453,NaN,NaN,0.844043814269838,0.823015394500178,-0.743075842981718,-0.00131465406606822,-1.10093763172506,NaN,0.660085066825343,-0.086105218459234,2.5753764871196,-0.217301494406681,-0.217301494403662,1.27786614169354,-0.370782522823902,0.97956802664565,-0.0333245849774937,0.611488443933601,1.07747090453219,NaN,-0.050633005518921,-0.154127436333955,NaN,2.09745390162186,-1.48176586933798
99.5328,0.193876500537056,-0.732346953309013,-0.0369522181603581,1.79484824671605,0.541821732383713,0.541821732381866,NaN,-0.158378783466249,0.0094630909702775,1.29605175101974,1.04329676243256,1.29605175101726,-0.956196394830517,0.872347249106991,NaN,-0.900546956483077,NaN,-0.220575792836392,-1.49321336491245,-1.77256236027126,-1.49321336491262,-0.975867140099132,NaN,NaN,NaN,1.09722956470998,NaN,NaN,0.870206790315821,0.823186359723631,-0.71648017711132,-0.0257962099806702,-1.10781401794115,NaN,0.684543939165411,-0.0704499791510829,2.5746348438358,-0.209990435586714,-0.209990435583655,1.29205354236385,-0.34480273048723,1.01609256646394,-0.0544291429796114,0.621140001013825,1.05659950960251,NaN,-0.0205358259617703,-0.192684417797304,NaN,2.08233999137556,-1.45106617680795
99.6352,0.191410305895493,-0.722249401469493,-0.0362110317191456,1.79298287698375,0.568677709807851,0.568677709805989,NaN,-0.128880088393321,0.013710295344157,1.30354413547019,1.03449244403245,1.3035441354677,-0.958617298800272,0.87635471670429,NaN,-0.886267880854006,NaN,-0.212987780204965,-1.47641173491784,-1.75617504102374,-1.47641173491801,-0.996239291441851,NaN,NaN,NaN,1.09524647316679,NaN,NaN,0.895391426581935,0.824493046918337,-0.689179131049249,-0.0512629531042459,-1.115506514805,NaN,0.707969041028927,-0.0554367806227789,2.57429322196315,-0.202667362733025,-0.202667362729924,1.30618554360821,-0.31872947393239,1.05264059261847,-0.0758273429359296,0.630973548742628,1.03552655506394,NaN,0.0103643565192567,-0.22929402696371,NaN,2.0666280152438,-1.41904750031803
99.7376,0.189321283985082,-0.711075338698951,-0.0346742452068799,1.79063763735918,0.595659872631746,0.595659872629872,NaN,-0.0984586401790804,0.0186906382178288,1.31096078812064,1.0257020750964,1.31096078811813,-0.960333584095108,0.881403154005444,NaN,-0.871078717921574,NaN,-0.204804333917222,-1.45764055762455,-1.73828846104852,-1.4576405576247,-1.01621654159236,NaN,NaN,NaN,1.09218543418836,NaN,NaN,0.919552033260503,0.826958674555612,-0.661184378877877,-0.0777109717522202,-1.12402499907444,NaN,0.730334497900721,-0.0410732527597804,2.57434591105371,-0.195320947743135,-0.195320947739999,1.3202620600194,-0.292580084242821,1.08919724848709,-0.0975099986857608,0.640968676413214,1.01423093737451,NaN,0.0420052645581597,-0.263915904168779,NaN,2.05030747402284,-1.38571493463033
99.84,0.187643765373046,-0.69881661479197,-0.0323005992238418,1.78782465626609,0.622773870504462,0.622773870502573,NaN,-0.0671076035295136,0.0244231829925319,1.31829783629439,1.01695978947927,1.31829783629187,-0.961306416204481,0.887503128056206,NaN,-0.854945774064333,NaN,-0.195984361538415,-1.43686092686045,-1.71889091551147,-1.43686092686059,-1.03577525417417,NaN,NaN,NaN,1.08801467099994,NaN,NaN,0.942645305144484,0.830601109843187,-0.632510588180414,-0.105131857433206,-1.1333752881294,NaN,0.751618000551707,-0.0273629489261241,2.57478405479949,-0.18793976176708,-0.187939761763915,1.33428322662757,-0.266371599269604,1.125748150838,-0.119467522277283,0.651104909788797,0.992692174232382,NaN,0.0743216921794531,-0.296516490413378,NaN,2.03336970772472,-1.35107875882568
99.9424,0.186409827784279,-0.685470104047588,-0.0290530990193834,1.78455565734081,0.650025439902108,0.65002543990021,NaN,-0.0348249351095084,0.0309230759492138,1.32555138488638,1.00829840729586,1.32555138488385,-0.961500729702026,0.894659982923444,NaN,-0.837837490645698,NaN,-0.186487413695618,-1.41403709132792,-1.69797508119346,-1.41403709132806,-1.05489318930333,NaN,NaN,NaN,1.08270555685777,NaN,NaN,0.964630425417742,0.835432771415133,-0.60317558966772,-0.133512485704531,-1.14355897724376,NaN,0.771800825251943,-0.0143051975766992,2.57559563483299,-0.180512267710998,-0.180512267707802,1.34824942482273,-0.240120716772788,1.16227945604531,-0.141689740417276,0.66136163553971,0.970890601701905,NaN,0.107245618300688,-0.327069045315278,NaN,2.01580792000038,-1.31515455161933
100.0448,0.185649168840147,-0.671037753160487,-0.0248991735693258,1.78084190065729,0.677420258713923,0.677420258712025,NaN,-0.0016135267648071,0.0382014355553917,1.3327175245171,0.999749353093296,1.33271752451456,-0.960885399301141,0.902873751617315,NaN,-0.819724513729924,NaN,-0.176273731284568,-1.38913674503996,-1.67553811890634,-1.38913674504008,-1.07354965392167,NaN,NaN,NaN,1.07623271715746,NaN,NaN,0.985469171518936,0.841460528772228,-0.573200554007976,-0.162834803545794,-1.1545732998031,NaN,0.790867817331007,-0.00189501410902874,2.5767654517326,-0.173026823733761,-0.173026823730535,1.36216129051013,-0.2138437790643,1.19877788144516,-0.164165735131051,0.67171804514107,0.9488075630199,NaN,0.140706375586112,-0.355553636281943,NaN,1.99761719965724,-1.27796327354413
100.1472,0.185388961343135,-0.655526617383737,-0.0198108501254004,1.77669408896488,0.704963787958653,0.704963787956738,NaN,0.0325186542208383,0.0462652361722277,1.33979231655944,0.991342560057481,1.33979231655689,-0.959433425020985,0.912139067625916,NaN,-0.800579761779707,NaN,-0.1653043029386,-1.36213133201969,-1.65158178655286,-1.36213133201981,-1.09172566442236,NaN,NaN,NaN,1.06857409192015,NaN,NaN,1.00512602312706,0.848685576516124,-0.542610155762751,-0.193075635566956,-1.16641100399921,NaN,0.808807336210444,0.00987692912290801,2.57827508664371,-0.165471712643042,-0.165471712639785,1.37601971036442,-0.187556798598219,1.23523067972924,-0.186883714740979,0.68215310785353,0.926425595759129,NaN,0.174630886774365,-0.381957088941068,NaN,1.97879454041035,-1.23953131900958
100.2496,0.185653678733369,-0.638948892053188,-0.0137649605482724,1.77212223152166,0.732661109160336,0.732661109158402,NaN,0.0675584245067745,0.0551171760678136,1.34677174553618,0.98310635217819,1.34677174553362,-0.957122143751236,0.922445067644732,NaN,-0.780378497558119,NaN,-0.153540932627907,-1.33299634213067,-1.62611256826787,-1.33299634213077,-1.10940412837578,NaN,NaN,NaN,1.05971096406858,NaN,NaN,1.0235682673702,0.857103285787052,-0.51143270140274,-0.224206522639988,-1.17906023760166,NaN,0.825611168591808,0.0210242901467016,2.58010284506941,-0.15783519935713,-0.157835199353843,1.38982581257319,-0.161275521071577,1.27162557578394,-0.209830920874373,0.69264557855896,0.903728617586785,NaN,0.208943971632273,-0.406272888373405,NaN,1.9593388519826,-1.19989054446376
100.352,0.186464895200716,-0.621321937986573,-0.00674337388899577,1.76713547980903,0.760516766945193,0.760516766943238,NaN,0.103487253677462,0.0647555354459175,1.35365164068908,0.97506730663519,1.35365164068651,-0.953933461059499,0.933775291281874,NaN,-0.759098412303196,NaN,-0.140946317920136,-1.30171158211534,-1.59914182124158,-1.30171158211542,-1.12657004419309,NaN,NaN,NaN,1.04962796585637,NaN,NaN,1.04076609611502,0.866703053640191,-0.479700211772271,-0.256193595063533,-1.19250443054954,NaN,0.841274418967725,0.0315650185516343,2.58222369918127,-0.15010560810324,-0.150105608099926,1.40358095577392,-0.135015515462754,1.3079506787408,-0.232993578954157,0.703174045004397,0.880702105378779,NaN,0.24356871027436,-0.428501027901271,NaN,1.93925095961254,-1.15907827681499
100.4544,0.187841074632338,-0.602668294843254,0.00126676270644599,1.76174196254266,0.78853462170123,0.788534621699251,NaN,0.140281161035919,0.0751740413598449,1.36042757424131,0.967250108903644,1.36042757423874,-0.949854081936122,0.946107594979795,NaN,-0.73671973062932,NaN,-0.127484150150806,-1.26826141099728,-1.57068594059286,-1.26826141099736,-1.14321070944857,NaN,NaN,NaN,1.03831307420131,NaN,NaN,1.05669268971025,0.877468181402841,-0.447448459745289,-0.288997475729484,-1.20672216791212,NaN,0.855795384124588,0.0415212993439849,2.58460925497891,-0.142271407646261,-0.142271407642925,1.41728671622795,-0.108792274191011,1.3441943836143,-0.25635688866552,0.713717007356652,0.857333260926324,NaN,0.278426840662498,-0.448647811811313,NaN,1.91853359123797,-1.11713730345628
100.5568,0.18979736977452,-0.58301567052189,0.0102728028380155,1.7559486535023,0.816717711995732,0.816717711993736,NaN,0.177910662475585,0.0863617642925639,1.36709475093665,0.959677421001988,1.36709475093407,-0.944875708707041,0.959414104858181,NaN,-0.713225340436539,NaN,-0.113119248383752,-1.2326349289552,-1.5407665340717,-1.23263492895526,-1.15931592480448,NaN,NaN,NaN,1.02575760079335,NaN,NaN,1.07132428163307,0.889375816618697,-0.414716966324959,-0.322573212929488,-1.22168705734288,NaN,0.869175415573892,0.050919480125023,2.58722777466162,-0.134321293518888,-0.134321293515523,1.43094487063058,-0.0826213039439321,1.38034527646811,-0.279905033252437,0.724252967808582,0.833611160703188,NaN,0.313439173348536,-0.466725626394104,NaN,1.89719134300122,-1.07411583552711
100.6592,0.192345458594535,-0.562396887398126,0.0202764363064033,1.74976130382979,0.845068124576022,0.845068124574011,NaN,0.216340788852606,0.0983030744157531,1.37364791222727,0.952369783945262,1.37364791222469,-0.938995172686079,0.973661234161903,NaN,-0.688600938746393,NaN,-0.0978177211337296,-1.19482611235862,-1.50941058536846,-1.19482611235867,-1.17487818183041,NaN,NaN,NaN,1.01195618079604,NaN,NaN,1.0846402054849,0.902396985973383,-0.381548964475916,-0.356870245275455,-1.23736760942653,NaN,0.881418771287388,0.0597899749232285,2.59004427784682,-0.12624425795337,-0.126244257949981,1.44455736697059,-0.0565181906851642,1.41639204946984,-0.303621185686799,0.734760510242191,0.809526892871624,NaN,0.348526006658633,-0.482752699170731,NaN,1.87523061800797,-1.03006742308125
100.7616,0.19549343921211,-0.540849768804721,0.0312736108612439,1.74318445328416,0.873586868958481,0.87358686895645,NaN,0.255531185797351,0.110977676083557,1.38008127680902,0.945345565074495,1.38008127680645,-0.932214478734675,0.988809779779791,NaN,-0.662835172427697,NaN,-0.0815471381334853,-1.15483390599605,-1.4766505818033,-1.15483390599608,-1.18989282508175,NaN,NaN,NaN,0.996906761486722,NaN,NaN,1.09662293688398,0.91649672127813,-0.34799135004714,-0.391832397778057,-1.25372715773136,NaN,0.892532454981468,0.0681671295078491,2.59302072297436,-0.118029642920899,-0.11802964291748,1.45812626596868,-0.0304986276034348,1.45232341769969,-0.327487508890672,0.745218370000384,0.785073686813168,NaN,0.383607523180523,-0.496752864559496,NaN,1.85265955423277,-0.985050803144522
100.864,0.199245780233677,-0.518416966805144,0.043254536332915,1.73622150284681,0.90227375177733,0.90227375177529,NaN,0.295436283584202,0.12436071372863,1.38638851844056,0.938620943337122,1.38638851843799,-0.924540770047171,1.00481508927752,NaN,-0.635919758450107,NaN,-0.0642767059402171,-1.11266230875404,-1.44252459504192,-1.11266230875406,-1.20435818624712,NaN,NaN,NaN,0.980610584799182,NaN,NaN,1.10725814380436,0.93163424603074,-0.314094637742863,-0.427397906956919,-1.27072384110064,NaN,0.902526037939489,0.076089029487362,2.59611624140871,-0.109667183490351,-0.109667183486902,1.47165363458724,-0.00457840419054389,1.48812802049381,-0.351485162491964,0.755605507211379,0.760247037250075,NaN,0.418604163355502,-0.50875534042525,NaN,1.82948796010141,-0.939129680936034
100.9664,0.203603296709055,-0.49514575110609,0.0562037309263563,1.72887480496056,0.931127246785726,0.931127246783668,NaN,0.336005507925505,0.138422917523366,1.39256275948798,0.932209912841226,1.39256275948541,-0.915986249044801,1.02162726931687,NaN,-0.607849582388313,NaN,-0.0459774525207694,-1.06832049332591,-1.40707631402996,-1.06832049332591,-1.21827569875715,NaN,NaN,NaN,0.963072150848358,NaN,NaN,1.11653474713659,0.947763173773043,-0.279912921949589,-0.463499479798444,-1.28831065698604,NaN,0.911411458663462,0.0835972429721267,2.59928738275937,-0.101147059485284,-0.10114705948181,1.48514139378374,0.0212266303468271,1.52379429827114,-0.375594324261701,0.76590118983507,0.735044819448815,NaN,0.45343698776674,-0.518794503663693,NaN,1.80572725899105,-0.892372459485453
101.0688,0.208563119395734,-0.471087780223296,0.0701000661777807,1.72114572885865,0.960144363931886,0.960144363929818,NaN,0.377183501868645,0.153130754526643,1.39859655867824,0.926124284223631,1.39859655867567,-0.90656809682025,1.03919140406721,NaN,-0.578622775760685,NaN,-0.0266224165682729,-1.02182297602252,-1.37035502202061,-1.02182297602251,-1.23165000001103,NaN,NaN,NaN,0.944299152026283,NaN,NaN,1.12444498307112,0.964831684128238,-0.245503822104692,-0.500064401158267,-1.30643558333459,NaN,0.919202803890238,0.0907365091714758,2.60248833993516,-0.0924599689730034,-0.0924599689695065,1.49859114923713,0.0469006040329205,1.55931035240244,-0.399794220990165,0.776085078715884,0.709467390786793,NaN,0.488028035314329,-0.526909650867442,NaN,1.7813904415524,-0.844851931157405
101.1712,0.214118643249944,-0.446298861796199,0.084916792419405,1.71303468143287,0.989320530267643,0.989320530265561,NaN,0.418910344353265,0.168446568355134,1.40448188690042,0.9203736696717,1.40448188689785,-0.896308416650567,1.05744776704579,NaN,-0.548240769368624,NaN,-0.00618682649664006,-0.973189825686468,-1.33241550444717,-0.973189825686443,-1.244489017852,NaN,NaN,NaN,0.924302378639262,NaN,NaN,1.13098445778724,0.982782670982575,-0.210928386506342,-0.537014705477684,-1.32504176038825,NaN,0.925916085233352,0.0975543978987468,2.60567114439856,-0.0835972217445844,-0.0835972217410656,1.51200403972806,0.0724276363146462,1.5946638035857,-0.42406315669236,0.786137303342864,0.683517679928341,NaN,0.522300683023263,-0.533144739408678,NaN,1.75649203366483,-0.796644936221048
101.2736,0.220259457227147,-0.420838696749063,0.100621548922698,1.70454108838091,1.01864949702559,1.0186494970235,NaN,0.461121770635999,0.184328709402567,1.41021009309627,0.914965445237675,1.41021009309372,-0.885234203728792,1.07633202804397,NaN,-0.516708327542496,NaN,0.0153517366411769,-0.922446890218498,-1.29331789223648,-0.922446890218457,-1.25680403557053,NaN,NaN,NaN,0.903095608318697,NaN,NaN,1.13615218875398,1.00155387953884,-0.176250939573345,-0.574267417870793,-1.34406771977613,NaN,0.931569028203499,0.104100964353242,2.60878584146031,-0.0745508417965444,-0.0745508417930023,1.52538062249074,0.0977918237233114,1.6298416633912,-0.44837852994284,0.796038524892246,0.657201272325201,NaN,0.556180020378048,-0.53754811062897,NaN,1.73104807753432,-0.74783199023177
101.376,0.226971264840219,-0.394770598170957,0.117176372463043,1.69566335616592,1.04812328141961,1.04812328141751,NaN,0.503749413007216,0.200731669701624,1.4157718635316,0.909904693390618,1.41577186352906,-0.873377324629359,1.09577546950466,NaN,-0.484033574773454,NaN,0.0380131829164291,-0.869626022738994,-1.25312745852904,-0.86962602273894,-1.26860973453616,NaN,NaN,NaN,0.88069549458433,NaN,NaN,1.13995063162432,1.02107806079559,-0.141538872595116,-0.611734858797574,-1.36344765004408,NaN,0.936180884300459,0.110428412938751,2.61178066794351,-0.0653136696072068,-0.0653136696036495,1.53872079622318,0.122977210118044,1.66483023084633,-0.472716841169058,0.805769991548535,0.630526499819641,NaN,0.589593237189305,-0.540172200148349,NaN,1.70507610200441,-0.698496883696619
101.4784,0.234235811030956,-0.36816117358741,0.134537725648733,1.68639884448262,1.07773214563398,1.07773214563187,NaN,0.546721083595881,0.217606244203433,1.42115718390704,0.905194139464848,1.4211571839045,-0.860774476952255,1.11570523397486,NaN,-0.450228016805988,NaN,0.0618147544828501,-0.814765303596813,-1.21191436357847,-0.814765303596747,-1.27992421150382,NaN,NaN,NaN,0.857121464149204,NaN,NaN,1.14238569286081,1.04128317807951,-0.106862382105553,-0.649325007016158,-1.38311169471964,NaN,0.939772269698537,0.116590773056136,2.61460226162552,-0.0558794586699717,-0.0558794586663968,1.55202375062217,0.147967761953601,1.69961502019445,-0.497053693807314,0.815313587234671,0.60350452926971,NaN,0.622470002578958,-0.541073247031091,NaN,1.67859505850674,-0.648726258859476
101.5808,0.242030837855939,-0.341079955841772,0.152656575330688,1.67674388312534,1.10746461010582,1.1074646101037,NaN,0.589961120113348,0.234899745935307,1.42635532194934,0.900834104125817,1.42635532194682,-0.847467091851491,1.13604462864566,NaN,-0.415306549104335,NaN,0.0867708622316367,-0.757909266299537,-1.16975331422632,-0.757909266299458,-1.29076896065262,NaN,NaN,NaN,0.832395625819369,NaN,NaN,1.14346672632586,1.0620927017731,-0.072294153858556,-0.686941923037766,-1.40298628411825,NaN,0.942365028415647,0.122643582349886,2.61719593364046,-0.0462429611142644,-0.0462429611106756,1.56528792977088,0.172747362826225,1.73418071912729,-0.521363789851422,0.824651863230213,0.576149429626917,NaN,0.654742818166214,-0.540311019851494,NaN,1.65162522514714,-0.598609164065024
