time,S1-D1,S1-D8,S1-D9,S1-D15,S2-D1,S2-D2,S2-D3,S2-D9,S3-D1,S3-D2,S3-D16,S4-D2,S4-D3,S4-D5,S5-D3,S5-D4,S5-D5,S6-D2,S6-D5,S6-D17,S7-D6,S7-D7,S8-D6,S8-D7,S8-D18,S9-D3,S9-D4,S9-D9,S9-D11,S9-D19,S10-D8,S10-D9,S10-D10,S10-D11,S11-D8,S11-D10,S11-D20,S12-D10,S12-D11,S12-D12,S13-D4,S13-D11,S13-D12,S14-D10,S14-D12,S14-D21,S15-D13,S15-D14,S16-D13,S16-D14,S16-D22
1583.7184,0.567918717634003,-0.957135607195335,0.175355321644383,0.0776229024046176,0.338278793666136,0.338278793663913,-0.886404442180653,-0.864292949639836,-0.886401895816632,-0.395162263093604,-0.0701373330242725,-0.395162263095201,-1.42579443664459,1.53841082951292,-0.968516855931211,0.0494897581158031,0.960844961747918,0.32358764814922,0.255730065088538,-0.75420515287673,0.255730065089244,-0.271520268009878,0.798600360250209,0.175836118263624,0.288630762747025,1.58189332314309,1.58189332314601,-0.855891899824337,0.855891899822887,1.11723378834525,-0.0528543139979826,1.02612752662618,0.516220339621412,-2.00179150760146,0.0494277451339447,-1.5965027681468,0.909544630775272,1.26902581148106,1.26902581148442,1.2360863116685,-0.679263979072897,0.652610104794671,-0.099555837718183,0.307620162409162,0.118010746270011,0.76215843242545,0.554304359981564,0.554304359982303,1.03859652153236,0.132586588874077,NaN
1583.8208,0.565093287720454,-0.975476498945421,0.166179813874563,0.0734950413051466,0.354607938777632,0.35460793877549,-0.889253247928838,-0.865929865358546,-0.888857984675827,-0.393183896619596,-0.0638267609791555,-0.393183896621208,-1.3855241508895,1.52599822417952,-0.932222291692118,0.060768878736535,0.955010262872049,0.331095391616906,0.27838704847546,-0.739253624422385,0.278387048476165,-0.255717787605046,0.814590763110352,0.192138172719286,0.283541997268004,1.59611980362817,1.5961198036311,-0.840105295578732,0.840105295577295,1.10757880518719,-0.0767154098762987,0.97589721681591,0.465397902595456,-1.99470589385456,0.0351865883994311,-1.59830683508572,0.910696415291458,1.2562080488828,1.2562080488861,1.20070870867927,-0.69643720107817,0.617089457789673,-0.0966487134460365,0.278005472440527,0.100293539852872,0.775966991585412,0.530866201954994,0.530866201955712,1.02225892289966,0.117911775343578,NaN
1583.9232,0.562170791468925,-0.994197708137017,0.156778855001058,0.0692086763915129,0.37009927981159,0.37009927980954,-0.891520319757781,-0.867006090774022,-0.890734589869893,-0.390225230180438,-0.0574865573052659,-0.390225230182066,-1.3439751873909,1.51203696781538,-0.895107813005274,0.0728065443600512,0.949465116229372,0.339308975583639,0.301011930019022,-0.724083612757397,0.301011930019724,-0.23990363272806,0.829953133912959,0.208180475587563,0.278696213420706,1.60950188385879,1.60950188386171,-0.824069795287749,0.824069795286323,1.09811926791016,-0.100397359906294,0.924842091007326,0.414292553319542,-1.98666464833167,0.0211511713824373,-1.59922720196579,0.912216734967534,1.24252278619169,1.24252278619496,1.1653230408149,-0.714380185521031,0.581208423790325,-0.0932736302454693,0.247521753298525,0.082420692634189,0.789819162221831,0.506651536851717,0.506651536852404,1.00579492364539,0.102504784355322,NaN
1584.0256,0.559140758718012,-1.01324546543609,0.147162194968806,0.0647786906350162,0.384732341211972,0.384732341210006,-0.89320521532157,-0.86752433431949,-0.892032349854367,-0.386306761953435,-0.051143056975696,-0.386306761955079,-1.3011796106113,1.49653417850707,-0.857203115176142,0.0855914354144618,0.944185209535354,0.348211976731597,0.323589442623417,-0.708749612129668,0.323589442624116,-0.224084044981205,0.844646846858292,0.223942013669383,0.274125771888435,1.62198641439933,1.62198641440225,-0.807784126588047,0.807784126586631,1.08882859430223,-0.123810257745622,0.873043364376766,0.363036052676348,-1.97760939396422,0.00738443432845259,-1.59918318853618,0.914090667642236,1.227969498541,1.22796949854421,1.12994819090647,-0.733097491273325,0.544979648439658,-0.0894181242812701,0.216165317845863,0.0644015190836233,0.803732778192587,0.481687207359881,0.481687207360556,0.989243426490049,0.0863714808540263,NaN
1584.128,0.555994242948044,-1.03256294887472,0.137342074176675,0.0602203861081035,0.398490218972851,0.39849021897099,-0.894308827390762,-0.867488572251836,-0.892753226497625,-0.381450613347866,-0.0448223098690454,-0.381450613349518,-1.2571719255394,1.47949989001311,-0.818539469985138,0.0991100265920711,0.939145718542275,0.357786016498334,0.346104010042194,-0.693305708525843,0.346104010042887,-0.20826662810251,0.858630110027513,0.239400458713105,0.269864143070817,1.63352031844876,1.63352031845168,-0.791245203971881,0.791245203970476,1.0796768701718,-0.146859556226496,0.820586351295407,0.311766911422655,-1.96748045362924,-0.0060514715976908,-1.59809347890503,0.916301492096643,1.21254954699199,1.21254954699514,1.09460494475719,-0.752588720871779,0.508419543033166,-0.0850705403281917,0.183935127915261,0.0462463962246254,0.817725702782652,0.456003835121012,0.456003835121659,0.972644905136614,0.069520194112847,NaN
1584.2304,0.552723903871447,-1.05209042564505,0.127333248043899,0.0555494263425609,0.411359579164923,0.411359579163144,-0.894833291318979,-0.86690390359195,-0.892900393671955,-0.375680456169766,-0.0385499928501174,-0.375680456171439,-1.21198899581185,1.46094697709596,-0.779149666129848,0.113346599894346,0.934321319020595,0.368010775278373,0.36853974371495,-0.67780537541775,0.368539743715634,-0.19246030773004,0.871860173890748,0.254532280198149,0.265945833167459,1.64405086489999,1.64405086490289,-0.774448210434374,0.774448210432981,1.07063109941374,-0.16944638795133,0.767560180527849,0.260629923000273,-1.95621711981662,-0.0190954931153596,-1.5958765038045,0.918830791536738,1.19626610032537,1.19626610032847,1.0593159993833,-0.772848487097007,0.471548306326533,-0.080220045632069,0.150832876367003,0.0279668071990094,0.831815765609281,0.429635678845237,0.429635678845865,0.956041297559968,0.0519617483165572,NaN
1584.3328,0.549324065337635,-1.07176540634487,0.117152984527036,0.0507817778585814,0.42333064189692,0.423330641895201,-0.894781881485344,-0.865776393427506,-0.892478114514688,-0.369021467382486,-0.0323513060776165,-0.369021467384172,-1.16566994812623,1.44089109042197,-0.73906793333909,0.128283254739068,0.929686181981842,0.378863999283861,0.390880449645,-0.662301250251979,0.390880449645679,-0.176675259956926,0.884293590383067,0.269312898380078,0.262406302803532,1.65352596141038,1.65352596141327,-0.757386673088907,0.757386673087524,1.0616555176356,-0.191467945222879,0.714057466487897,0.209775614728356,-1.94375794108745,-0.0316879875668274,-1.59245083855255,0.921658550961911,1.17912403971355,1.1791240397166,1.02410593540657,-0.793866402594709,0.434389907755349,-0.074856654638942,0.116863070390535,0.00957537534634213,0.846020687629217,0.402620463112175,0.402620463112773,0.939475886625005,0.0337094689224631,NaN
1584.4352,0.545790761174967,-1.0915228201877,0.106821043071015,0.0459336505371683,0.434397145076737,0.434397145075085,-0.894158902239163,-0.864112909824022,-0.891491612836653,-0.361500295518592,-0.0262508595079974,-0.361500295520287,-1.11825605974399,1.41935059048886,-0.698329850025235,0.143899923063304,0.925213955903357,0.390321507662213,0.413109639276629,-0.64684489357938,0.413109639277291,-0.160922808448127,0.895886516062087,0.283716874979674,0.259281875968407,1.66189446693341,1.6618944669363,-0.740052540701488,0.740052540700118,1.05271196955767,-0.212817917233934,0.660173925565309,0.159359613308153,-1.93004102400665,-0.0437710456295205,-1.58773561884469,0.924763261917997,1.16112983805103,1.16112983805403,0.989001162934058,-0.815627104783853,0.39697203372315,-0.0689712591855159,0.0820331044756768,-0.00891411406116156,0.860357991296939,0.374999166625477,0.374999166626052,0.922993168545774,0.0147791572561161,NaN
1584.5376,0.542121782256325,-1.11129522036258,0.096359643843331,0.0410214351939414,0.444556284883779,0.444556284882161,-0.892969573458181,-0.86192095381816,-0.889946938570828,-0.353145019173753,-0.0202725566791375,-0.353145019175455,-1.06979062603461,1.39634647412517,-0.656972233315775,0.160174398260552,0.920877741645593,0.402357208777808,0.435210542927346,-0.63148653455939,0.435210542927996,-0.145215291709798,0.90659505003407,0.297718136602646,0.256609634517248,1.66910652655087,1.66910652655373,-0.722436271975999,0.72243627197464,1.04376034232431,-0.233386986742045,0.606007932207483,0.109541919551157,-1.91500435283861,-0.0552888261573821,-1.58165097737315,0.928122047725276,1.14229140874971,1.14229140875266,0.9540298551846,-0.838110325351075,0.359326003813069,-0.0625556532459495,0.0463533137439533,-0.0274867004866666,0.874844893307317,0.346815763572866,0.346815763573418,0.906638706969162,-0.00481096740526965,NaN
1584.64,0.53831672975132,-1.13101302527298,0.0857934297308784,0.0360616366416168,0.453808633767192,0.453808633765622,-0.891219905749155,-0.859208477455552,-0.887850822224393,-0.343985085162128,-0.0144394798204187,-0.34398508516384,-1.02031880591315,1.37190229564188,-0.615033008738522,0.177082382159047,0.916650063099961,0.414943129994222,0.457166129967825,-0.616274806560127,0.457166129968454,-0.129565901880939,0.916375602455535,0.311290228284556,0.254427293387548,1.67511393434214,1.67511393434498,-0.704526935560617,0.704526935559268,1.03475904695854,-0.25306339355102,0.551660015042038,0.0604860854149322,-1.89858612819913,-0.0661879049593775,-1.57411850319929,0.931710814500252,1.12261792335435,1.12261792335725,0.919221879825403,-0.861291005325934,0.321486664244487,-0.0556025434432589,0.00983700665225456,-0.0461262355136962,0.889498178295235,0.318116918869546,0.318116918870086,0.890458969702955,-0.0250403552983677,NaN
1584.7424,0.534377071041286,-1.15060479883684,0.0751494167332536,0.0310708009483594,0.462158036926001,0.462158036924482,-0.888916559639927,-0.855983684286361,-0.885210512656896,-0.334051221867596,-0.00877377570075111,-0.334051221869322,-0.969887444314739,1.34604408701278,-0.572551057451856,0.194597548881407,0.912502832384193,0.428049459659765,0.478959141802336,-0.601256473890012,0.478959141802939,-0.113988496346889,0.925185293624066,0.324406596384813,0.252773053312159,1.6798705288782,1.67987052888102,-0.686312314213954,0.686312314212617,1.02566554423346,-0.271733571153449,0.497232294887352,0.012358288228684,-1.88072512361141,-0.0764176397518526,-1.56506172421156,0.93550442690007,1.10211959809826,1.1021195981011,0.884608730599199,-0.885139451766985,0.283492262415595,-0.0481055406199243,-0.0274995201725775,-0.0648153645606765,0.904334054438811,0.288951640835037,0.288951640835565,0.874501149670306,-0.0458862412539025,NaN
1584.8448,0.53030618925333,-1.16999757087202,0.0644569241141208,0.0260654367326687,0.469611485023579,0.469611485022104,-0.886066686175254,-0.852254810240822,-0.882033595750115,-0.323375327855315,-0.00329653884674162,-0.323375327857055,-0.918544872668671,1.31880027925075,-0.529566041349103,0.212691622183762,0.908407307699422,0.441644597957727,0.500572142949837,-0.586476149845198,0.500572142950422,-0.0984973863181317,0.932982380970041,0.337040897194231,0.251685428975273,1.68333261844478,1.68333261844757,-0.667779004987404,0.667779004986076,1.01643691003445,-0.289282857843117,0.442827867881739,-0.034673697369936,-1.86136105923486,-0.0859305451771295,-1.55440660883932,0.939476903555145,1.08080744963379,1.08080744963655,0.850223455857436,-0.909621533038155,0.245384301278822,-0.0400591312627263,-0.065636985170867,-0.0835355019180821,0.919367995132993,0.259370896628956,0.259370896629465,0.858812973578382,-0.0673237849188568,NaN
1584.9472,0.526109412965676,-1.18911719480601,0.0537474730053658,0.0210619326091764,0.476178959394746,0.476178959393322,-0.882677751028712,-0.848029888981068,-0.878327796783046,-0.311990339780001,0.00197230980604938,-0.311990339781765,-0.866340691669267,1.29020162530636,-0.486118210197311,0.231334464370752,0.904334046902292,0.45569521596372,0.521987594662045,-0.571976011653465,0.521987594662604,-0.0831071124963782,0.939726702599391,0.349167320343854,0.251203052581774,1.68545942294934,1.6854594229521,-0.6489125146579,0.648912514656582,1.00703042687617,-0.30559628031547,0.388550142749686,-0.0804416228862908,-1.8404349916815,-0.0946826581285967,-1.54208207567001,0.943601622687877,1.05869302428594,1.05869302428862,0.816100576463251,-0.93469891149304,0.207207368209123,-0.0314586324233208,-0.104553146348178,-0.102266804780765,0.934614573073894,0.229427202019476,0.229427202019971,0.843442496935031,-0.0893262316784595,NaN
1585.0496,0.52179401050307,-1.2078887377586,0.0430546409947315,0.0160764746777331,0.481873247359642,0.481873247358268,-0.878757346579758,-0.843316509221425,-0.874100772046803,-0.299930089902096,0.00701414778476621,-0.29993008990388,-0.813325546140192,1.26028112387017,-0.442248200687846,0.250494176880536,0.900252867099889,0.470166326024267,0.543187953023771,-0.557795524044512,0.543187953024312,-0.0678322248847187,0.945380117129644,0.360760908145371,0.251364458058516,1.68621351578457,1.68621351578731,-0.629697354556018,0.629697354554711,0.997404180310963,-0.320559405017033,0.334502148691401,-0.124777971115629,-1.81788971691754,-0.102633867184716,-1.52802049465125,0.947851522917055,1.03578811361002,1.03578811361262,0.782275982820327,-0.960329310423079,0.169008931813487,-0.0223001395483722,-0.144222848955252,-0.120988156565574,0.950087293853152,0.199174203142413,0.199174203142885,0.828437880428349,-0.111865091280124,NaN
1585.152,0.517369138203942,-1.22623689964686,0.0324138641910079,0.0111249675586035,0.486709727686262,0.486709727684928,-0.874312994998834,-0.838121570264112,-0.869359893871376,-0.287229166861518,0.0118117769999624,-0.287229166863326,-0.759550905963434,1.22907394357421,-0.397996841376405,0.270137212914541,0.896132823633571,0.485021367701257,0.564155786812007,-0.543971183345021,0.564155786812535,-0.0526870873644235,0.949906916798386,0.371797848674072,0.252207855173122,1.68556125241463,1.68556125241734,-0.610117140406974,0.610117140405679,0.987517639227813,-0.334059245425052,0.280785833434229,-0.167517220765115,-1.79367018177599,-0.109748186797435,-1.51215816599281,0.952199282745763,1.01210447797621,1.01210447797872,0.748786801387445,-0.986466810105928,0.1308391015304,-0.0125804798264213,-0.184618096665076,-0.139677171733694,0.965798434263223,0.168666265597303,0.168666265597762,0.813847145238822,-0.13491033458518,NaN
1585.2544,0.512845745947032,-1.2440864592861,0.0218621905015666,0.00622296057208552,0.490706129484261,0.49070612948297,-0.869351945003581,-0.832451041805258,-0.864112032917755,-0.2739227844683,0.0163495457029442,-0.27392278447013,-0.705068864929485,1.1966173465225,-0.353404975559087,0.290228503798853,0.891942219488555,0.500222313914203,0.584873903130627,-0.530536291422946,0.584873903131135,-0.0376857243533907,0.953274193359696,0.382255723473094,0.253770899850929,1.68347317330202,1.68347317330471,-0.590154708580825,0.590154708579543,0.97733220266293,-0.345985202680866,0.227501368800387,-0.208497139144828,-1.76772389639883,-0.115993973760211,-1.49443576923049,0.956617470858318,0.987653602393092,0.987653602395519,0.715671228816508,-1.0130621715708,0.0927503492016269,-0.00229718043602807,-0.225708149540875,-0.158310233329579,0.981758886496276,0.137958077349856,0.137958077350311,0.79971790832003,-0.158430609111933,NaN
1585.3568,0.508236458269539,-1.26136274302304,0.0114380024907697,0.00138557901520278,0.493882270455411,0.49388227045416,-0.863880969747579,-0.82630973855467,-0.858363346321817,-0.260046647136126,0.0206134559115934,-0.26004664713798,-0.649931962629839,1.16295060716377,-0.308513308303155,0.310731603943481,0.887648653407624,0.515729803700227,0.605325468164198,-0.517520768309258,0.605325468164685,-0.0228417181343559,0.955452139656759,0.392113697441978,0.256090460250341,1.67992436379376,1.67992436379642,-0.569792261932396,0.569792261931128,0.966811694511598,-0.356230008921246,0.174746477718951,-0.247560065610092,-1.74000133610393,-0.121344099786178,-1.47479878045554,0.961078673900506,0.962446501965038,0.96244650196738,0.682968344345199,-1.04006319197526,0.0547971991250935,0.00855154771758459,-0.267459655906189,-0.176862568714316,0.997978007720227,0.107104266421956,0.107104266422398,0.786097100295858,-0.182393470005743,NaN
1585.4592,0.503555453864207,-1.27799210758945,0.0011807336451353,-0.00337253994984666,0.496259780655996,0.496259780654768,-0.85790617874557,-0.819701123332691,-0.852119084966103,-0.245636794399417,0.0245912427086804,-0.245636794401295,-0.594193029834584,1.12811492066506,-0.263362279753153,0.331608859295136,0.883219113415055,0.531503307572512,0.625494115480672,-0.504951011555161,0.625494115481135,-0.00816815652330516,0.956414274877943,0.401352646013607,0.25920237528474,1.67489475187736,1.67489475188,-0.549011547170852,0.549011547169597,0.955922786240354,-0.364690642229685,0.122615794254869,-0.284554149331658,-1.71045632360842,-0.125776098477643,-1.45319786004802,0.96555561726165,0.936493583450981,0.936493583453236,0.650717917202774,-1.06741509429562,0.0170358984300737,0.0199668168779616,-0.309836823576527,-0.195308361462393,1.01446347704216,0.0761590354228031,0.0761590354232514,0.77303067130985,-0.206765619242347,NaN
1585.5616,0.498818358337681,-1.29390242692386,-0.00886940466046014,-0.00803730720469017,0.497861817457436,0.49786181745624,-0.851432854833386,-0.81262714717684,-0.8453834301234,-0.230729415316001,0.028272417138194,-0.230729415317905,-0.537905057063882,1.09215329778269,-0.217991965289183,0.352821599326637,0.878620120254617,0.547501326839536,0.645364038179956,-0.492849805705825,0.645364038180392,0.00632237442095419,0.956137590328085,0.409955221462526,0.263141203998025,1.66836933298962,1.66836933299222,-0.527794054385831,0.52779405438459,0.944635333854608,-0.371269187986914,0.0712002664811769,-0.319334511594736,-1.67904639046569,-0.129272297320912,-1.4295892156236,0.97002129174884,0.909804560843504,0.909804560845674,0.618960220467349,-1.0950609474605,-0.0204759215145241,0.0319490650829507,-0.352801630160782,-0.213620894309825,1.03122116484254,0.0451758169397474,0.0451758169401854,0.760563293470977,-0.231513145952772,NaN
1585.664,0.494042152639422,-1.30902357232251,-0.0186716794687676,-0.0125952385012996,0.498712779048052,0.498712779046898,-0.844465318711699,-0.805088125886507,-0.838159360968841,-0.215360635367318,0.0316482755901267,-0.21536063536925,-0.481121085104002,1.0551104502499,-0.172442000142769,0.374330348381345,0.873817921950607,0.56368162382049,0.664920063454791,-0.481236278169676,0.664920063455206,0.0206177593691118,0.954602623044252,0.41790586550381,0.2679399658738,1.6603383244301,1.66033832443267,-0.506121228110992,0.506121228109766,0.932922627455476,-0.375873630401752,0.0205866120509546,-0.351764311508103,-1.64573312281748,-0.131819935090532,-1.40393494453284,0.97444908735533,0.882388419809141,0.882388419811221,0.587735852562912,-1.12294210734393,-0.0576795873225262,0.0444980538771005,-0.396314066223825,-0.231772719528575,1.04825501899524,0.0142069545547859,0.0142069545552163,0.748738068278982,-0.256601761694934,NaN
1585.7664,0.489245089101004,-1.32328787516467,-0.0281850793237782,-0.0170335102823366,0.498838026925833,0.498838026924737,-0.837006817491794,-0.797082648262921,-0.830448548948315,-0.19956628683634,0.034711886959066,-0.199566286838296,-0.423894113534842,1.01703267819069,-0.12675152126149,0.396095051517618,0.868778735063136,0.580001477680407,0.684147712062793,-0.470125893243561,0.684147712063182,0.0347062924896685,0.951793473058286,0.425190779777909,0.273629872502021,1.65079726170421,1.65079726170674,-0.483974681902302,0.483974681901092,0.920761564560757,-0.37841856858172,-0.0291431609631505,-0.381715702725744,-1.61048249935479,-0.133411258493479,-1.37620335904184,0.978812923268079,0.854253427422095,0.854253427424077,0.557085558929845,-1.1509986671076,-0.0945157299779852,0.0576128549465291,-0.440332399940215,-0.249735854711726,1.06556696938509,-0.0166965836742321,-0.0166965836738053,0.73759624265113,-0.281997022692096,NaN
1585.8688,0.48444660180719,-1.33663056171507,-0.0373685525023891,-0.0213400160323624,0.498263628239842,0.49826362823881,-0.829059435029092,-0.788607513697148,-0.822251276724148,-0.183381680610408,0.0374580691803695,-0.183381680612389,-0.366277022426888,0.977967773071671,-0.0809591177366872,0.41807530885249,0.863469020536222,0.596417957410468,0.703033248203755,-0.459530476557959,0.70303324820412,0.0485765965797856,0.94769778357735,0.431797868766281,0.280240053081796,1.63974705059799,1.63974705060048,-0.461336410680953,0.461336410679759,0.908132765320482,-0.378825859128352,-0.0779121542589857,-0.409070675523229,-1.57326522936524,-0.134043588468936,-1.34636929550034,0.983087360465665,0.825407185771129,0.825407185773028,0.527050041861884,-1.17916990577084,-0.130924639646485,0.071291817597683,-0.48481344907323,-0.267482001861128,1.08315685027277,-0.0474854507490972,-0.0474854507486685,0.727176935000385,-0.307664531782825,NaN
1585.9712,0.479667198968037,-1.34899015050377,-0.0461812482560356,-0.0255034226401892,0.497016123756287,0.497016123755327,-0.820624027147056,-0.77965770198426,-0.813566384750042,-0.166841402386926,0.0398833621863183,-0.16684140238893,-0.308322504382433,0.937964944763563,-0.0351027845285732,0.440230608618427,0.857855777386753,0.612888199012135,0.721563722974142,-0.449458265018214,0.721563722974493,0.0622175338308798,0.942306702097282,0.437716669573586,0.28779727985963,1.62719398348819,1.62719398349065,-0.438188998356943,0.438188998355766,0.89502064597956,-0.377025188833291,-0.125648891021343,-0.433721782430082,-1.53405709481775,-0.133719345102843,-1.31441440484851,0.987247688563161,0.795856728600252,0.795856728602062,0.497669746748754,-1.20739472452623,-0.166846633270625,0.0855325094413712,-0.529712847527009,-0.284982788228352,1.10102234011856,-0.0781121202958024,-0.0781121202953787,0.717516877977885,-0.333570120180901,NaN
1586.0736,0.474928330558055,-1.36030880582066,-0.054582764897733,-0.029513224238763,0.495122320206453,0.495122320205584,-0.811700186970307,-0.770226381179838,-0.804391250944507,-0.14997915290197,0.0419859997112476,-0.149979152903994,-0.250083006162122,0.897074775922004,0.010780122187303,0.462520547593846,0.851906839245321,0.629369673192724,0.739727007972115,-0.439913980230005,0.739727007972455,0.0756181169679073,0.935614836705971,0.442938279891548,0.29632570023424,1.61314972410168,1.61314972410411,-0.414515822829478,0.414515822828319,0.881413462198693,-0.372954580286417,-0.172287537095949,-0.455572748990443,-1.4928392946436,-0.132446021842569,-1.28032741803296,0.991269984877917,0.765608660426893,0.765608660428635,0.468984616698935,-1.23561206346681,-0.202222437841995,0.100331623219923,-0.57498529909718,-0.302210030530638,1.11915891742838,-0.108531044312835,-0.108531044312413,0.708650185821027,-0.359680013224737,NaN
1586.176,0.470252233314067,-1.3705326466305,-0.0625334025722262,-0.0333597905448163,0.492609103204002,0.492609103203215,-0.802286242893539,-0.760304956841266,-0.794721806291937,-0.132827637112589,0.0437658780717696,-0.132827637114635,-0.191610679309061,0.85534920382591,0.0566529286737542,0.484905032717607,0.845591164910558,0.64582043590462,0.757511811166137,-0.430898926444068,0.757511811166465,0.0887674259633308,0.927620215408343,0.447455290601076,0.30584657887086,1.59763126577866,1.59763126578105,-0.390301262585643,0.390301262584502,0.867303329540862,-0.366560831747829,-0.217768037133996,-0.474538974005876,-1.44959878593742,-0.130236106227111,-1.24410438057927,0.995131150526742,0.734669336225821,0.734669336227494,0.441033814720801,-1.26376129876195,-0.236993590008256,0.115684846946358,-0.620584818683158,-0.319136025418967,1.13755982960965,-0.138698781867305,-0.138698781866894,0.700608145176673,-0.385960979472057,NaN
1586.2784,0.465661763432664,-1.37961201564373,-0.0699944129546035,-0.0370344082620688,0.489503269275085,0.489503269274396,-0.792379289897688,-0.749883162313638,-0.784552586726854,-0.115418490939201,0.045224516765644,-0.115418490941263,-0.132957338038109,0.812841524837664,0.102479686608342,0.507344465713332,0.838879120392699,0.662199362478157,0.774907669460844,-0.422411115405328,0.774907669461162,0.101654533027831,0.918324247855675,0.451261724376499,0.316378050568506,1.58066086849514,1.5806608684975,-0.365530904977385,0.365530904976261,0.852686222452292,-0.357799890267606,-0.262036176278613,-0.490547924122963,-1.40432861660376,-0.127106953002123,-1.20574885499398,0.99880893433531,0.703045075390234,0.703045075391856,0.413855421968843,-1.29178262542525,-0.271102847739669,0.1315867044492,-0.666464965999174,-0.335733862929623,1.15621607297371,-0.168574111633981,-0.168574111633575,0.693419022138742,-0.412380459035016,NaN
1586.3808,0.461180228071591,-1.38750171521277,-0.0769282381197742,-0.0405293160211023,0.485831378325214,0.4858313783246,-0.781975255928897,-0.738949188837829,-0.773876822020263,-0.0977822303923159,0.0463650055652201,-0.0977822303943977,-0.0741744226467849,0.769606411639461,0.148225214272864,0.5297999157073,0.831742752985281,0.678466369583785,0.791904917834114,-0.414445419713599,0.791904917834424,0.114268437237059,0.90773168385101,0.454352978719096,0.327934886485785,1.56226597707625,1.56226597707857,-0.340191752915615,0.340191752914508,0.837561946200449,-0.346637158598396,-0.305043577531269,-0.50353942889695,-1.35702824455145,-0.12308061842175,-1.16527209169076,1.00228195444377,0.670742402065007,0.670742402066578,0.387486125510187,-1.31961742733015,-0.30449460431162,0.148030381544003,-0.712579073437418,-0.351977749573366,1.17511638475328,-0.198118132208593,-0.198118132208195,0.68710787998371,-0.438906667049716,NaN
1586.4832,0.45683121916624,-1.39416121596711,-0.0832987374971788,-0.0438377335871322,0.481619628499969,0.481619628499435,-0.771069003684708,-0.727489852738436,-0.762686560952948,-0.0799482171179812,0.0471919346532214,-0.0799482171200787,-0.0153129694539626,0.725699934047445,0.193855132310432,0.552233281734612,0.824156057467375,0.694582626603716,0.808494637807667,-0.406993756315024,0.80849463780796,0.12659800998948,0.895850565370948,0.456725772754431,0.340528280129616,1.54247912331189,1.54247912331418,-0.314272431150094,0.314272431149005,0.821934071375546,-0.333047742457273,-0.346747641410992,-0.513465886321746,-1.30770383714258,-0.118183658460942,-1.12269316478317,1.00552972080596,0.637768309208739,0.63776830921027,0.361960907325707,-1.34720862752525,-0.337115292261069,0.165007554194374,-0.758880461053517,-0.367843320623103,1.19424724926822,-0.227294344661617,-0.227294344661224,0.681696402230103,-0.465508664050749,NaN
1586.5856,0.45263844378032,-1.39955484256567,-0.0890714097708378,-0.046953884877171,0.476893754756977,0.476893754756523,-0.759654463453231,-0.715490793677669,-0.750972827812769,-0.0619446442550858,0.0477113065816123,-0.0619446442571968,0.0435764093900794,0.681179578467695,0.23933588931828,0.574607443407138,0.816095232625968,0.710510754467243,0.824668589602387,-0.400045302668693,0.824668589602667,0.138631953955803,0.882692175765355,0.458378100949883,0.354165660319118,1.52133781913608,1.52133781913834,-0.287763397977112,0.287763397976041,0.805809820517047,-0.317016647831534,-0.387111433849941,-0.520292391478499,-1.25636854153343,-0.112446885329557,-1.07803906218142,1.0085326555216,0.604130548561635,0.604130548563126,0.337312742410564,-1.37450100522163,-0.368913764907804,0.18250823230597,-0.805322625409977,-0.383307919437337,1.2135929202632,-0.256068709089207,-0.25606870908882,0.677202714836553,-0.492156382633417,NaN
1586.688,0.448625539519746,-1.40365193872066,-0.0942136209889815,-0.0498730133229767,0.471678953423261,0.471678953422892,-0.74772479033421,-0.702936698110084,-0.738725803765061,-0.0437985494184345,0.047930431931401,-0.0437985494205648,0.102443534864664,0.636104264002502,0.28463477535852,0.59688639786662,0.807538924630367,0.726215009392761,0.840419135461947,-0.393586747618944,0.840419135462211,0.150358780864822,0.868270996024301,0.459309201169574,0.368850535821925,1.49888445020841,1.49888445021063,-0.260657166267004,0.26065716626595,0.789199901900687,-0.298538936319363,-0.426103530017114,-0.523996800275381,-1.20304271510037,-0.105905072968347,-1.03134471629365,1.01127210344985,0.569837947084574,0.569837947086032,0.313572309666475,-1.40144146379796,-0.399841645356791,0.200520628105865,-0.851859388228254,-0.398350825579051,1.23313546171131,-0.28440967041186,-0.284409670411479,0.673641206021876,-0.518820608944222,NaN
1586.7904,0.444815863741712,-1.40642701030342,-0.0986948487600907,-0.0525913879290461,0.465999837767663,0.465999837767364,-0.73527254207135,-0.689811547285221,-0.725935030366331,-0.0255358605486387,0.047857813384094,-0.0255358605507832,0.161238661024245,0.59053435369046,0.329719925141589,0.619035381679255,0.798468453956373,0.741661449464262,0.855739162414035,-0.387602577093769,0.855739162414286,0.161766814239857,0.85260467954071,0.459519545600722,0.384582374663183,1.475166174192,1.47516617419418,-0.23294853289837,0.232948532897334,0.772118289743852,-0.277619843760141,-0.463697821968228,-0.524569737721772,-1.14775410572742,-0.0985966027291624,-0.982652962381219,1.01373032316027,0.534900747205155,0.534900747206578,0.290767715438526,-1.42797923634133,-0.42985363689478,0.219031052202206,-0.898444994432954,-0.412953421578844,1.25285481015403,-0.312288154279956,-0.312288154279586,0.671022349504723,-0.545472931531542,NaN
1586.8928,0.441232254123252,-1.40785984274498,-0.102486943401595,-0.0551062988899542,0.459880428431331,0.459880428431109,-0.722289877685494,-0.676098892831288,-0.712589636391339,-0.00718147747676667,0.0475030219967816,-0.00718147747892518,0.219912468219117,0.544531656158938,0.374560311790356,0.641020974727229,0.788868025180834,0.75681808143342,0.870622006817684,-0.382075392501697,0.870622006817929,0.172844219121253,0.835714051121178,0.459010858219849,0.40135652204128,1.45023481631299,1.45023481631515,-0.204634813151774,0.204634813150755,0.754581947312694,-0.25427486270317,-0.499873298909564,-0.522014556125314,-1.09053797103765,-0.0905630449994723,-0.932014413470902,1.01589045341229,0.499330964989709,0.499330964991098,0.26892423109468,-1.45406602250495,-0.458907790828923,0.238023838820674,-0.945034157769372,-0.427099295659552,1.27272886055331,-0.339677538793516,-0.339677538793159,0.669352539609362,-0.572085675338385,NaN
1586.9952,0.437896773554589,-1.40793559125485,-0.105564393654108,-0.0574160433910516,0.453344173794016,0.453344173793881,-0.708768776448135,-0.661782158230478,-0.698678587086024,0.0112406169715516,0.0468765648542122,0.0112406169693846,0.278416049843863,0.498159406556345,0.419125728228517,0.662811183702736,0.77872492181004,0.771654986425878,0.885061375428667,-0.376986257079893,0.885061375428906,0.183579054735816,0.817623125134254,0.457786154197238,0.419164160595822,1.42414674485963,1.42414674486174,-0.175716077806977,0.175716077805976,0.736610488888972,-0.228529782570445,-0.534613812224826,-0.51634724399198,-1.03143712694858,-0.0818486847328807,-0.879487248245635,1.01773646458545,0.463142753089743,0.463142753091097,0.248064053022526,-1.4796560641287,-0.486965728654099,0.257481305752137,-0.991582064957211,-0.440774282737008,1.29273357368657,-0.366553611462121,-0.366553611461785,0.668633942365538,-0.598631833030786,NaN
1587.0976,0.434830461824143,-1.40664484932981,-0.107904578382274,-0.0595199047931778,0.446413984103374,0.446413984103293,-0.694701272239175,-0.646844955638409,-0.684190948922949,0.029707235796849,0.0459897410759484,0.0297072357946703,0.336700893544687,0.45148221357124,0.463386753315363,0.684375508959191,0.768029687734947,0.786144428092647,0.899051256580243,-0.37231506212161,0.899051256580484,0.193959343083918,0.798359129541811,0.455849791379375,0.437992311111145,1.39696271089499,1.39696271089705,-0.146195392436303,0.14619539243532,0.718225790692079,-0.200420680513399,-0.567907836054096,-0.507596284830791,-0.970501928585186,-0.0725000146444674,-0.825136926964868,1.01925311501425,0.426352749765434,0.426352749766744,0.228206095190056,-1.50470618157988,-0.513992820727284,0.277383753511831,-1.03804435944156,-0.453966453980925,1.31284309984085,-0.392894522865768,-0.392894522865434,0.668864362603424,-0.625084999373284,NaN
1587.2,0.432053110803384,-1.40398370360298,-0.109487991876186,-0.0614181293608232,0.439112257673423,0.439112257673395,-0.680079696932811,-0.631271406516329,-0.66911616166706,0.0481958813257717,0.0448544875466057,0.048195881323582,0.394718861738695,0.404565966886846,0.507314705903981,0.705685004200961,0.756776292720634,0.800260950198924,0.912585820742187,-0.368040901199377,0.912585820742426,0.203973146853492,0.777952522962961,0.453207524424444,0.457823862097855,1.36874764527718,1.3687476452792,-0.116079055849082,0.116079055848117,0.699451581211468,-0.169993861530532,-0.599748224479264,-0.495802465061509,-0.907790205735554,-0.0625652272974401,-0.769035869948654,1.02042592605672,0.388980399745711,0.388980399746993,0.209365815810232,-1.5291757977066,-0.539958332617306,0.297709495208501,-1.08437712735233,-0.466666078669213,1.33302991397019,-0.418680746376335,-0.418680746376032,0.670037131449814,-0.651419314614164,NaN
1587.3024,0.429583066998652,-1.39995377418381,-0.11029843891175,-0.0631119028789651,0.431460883049473,0.431460883049506,-0.664896930119377,-0.615046462166347,-0.65344431461738,0.0666846691006291,0.0434832218458699,0.0666846690984261,0.452422179613647,0.357477709583719,0.550881596209865,0.726712336290615,0.744962275508141,0.81398146771276,0.925659316638602,-0.364142437957054,0.925659316638839,0.213608651434535,0.756436997328445,0.449866555284526,0.478637610496402,1.33957040900338,1.33957040900537,-0.0853768280244372,0.0853768280234909,0.680313046378783,-0.13730574655091,-0.630131957584969,-0.481018625500173,-0.843367180752215,-0.0520937330535048,-0.711263135539564,1.02124117462144,0.351048240955972,0.35104824095722,0.191555070570297,-1.55302696879473,-0.564835553935858,0.318434895573268,-1.13053690329286,-0.478865591038652,1.35326495960054,-0.443895047163033,-0.443895047162767,0.672141026690266,-0.677609424700761,NaN
1587.4048,0.427437057340653,-1.39456222599477,-0.110323198136883,-0.0646033264710619,0.423481215849625,0.423481215849721,-0.649146653967147,-0.598156222987891,-0.637166425823243,0.0851522801813141,0.0418886910210611,0.0851522801790963,0.509763437686061,0.31028548426435,0.594060084024443,0.747431843155867,0.732588856289839,0.82728534731545,0.938265972475084,-0.360598253964996,0.938265972475316,0.222854247355292,0.733849463035884,0.445835576508227,0.500408299347534,1.30950349091392,1.30950349091585,-0.0541021320656181,0.0541021320646902,0.660836471081329,-0.102422699642117,-0.659059869351543,-0.463309343986508,-0.777305383452378,-0.0411357196692591,-0.65190411770424,1.02168589425547,0.312582154595119,0.312582154596328,0.174781983320318,-1.57622442849914,-0.588601919505448,0.339534398414424,-1.17648070525118,-0.490559588297738,1.37351779978052,-0.468522457122121,-0.468522457121892,0.675160239906073,-0.703630463183514,NaN
1587.5072,0.425630030315689,-1.3878217315192,-0.10955315396525,-0.0658953887897694,0.415194042394675,0.415194042394826,-0.63282360806602,-0.580588248858571,-0.620274718233241,0.103577923368424,0.0400838323060405,0.103577923366187,0.566695611063146,0.263058161488073,0.636823448371304,0.767819579272653,0.719661007964349,0.840154465603411,0.950399910962402,-0.357387167115547,0.950399910962635,0.231698612270324,0.710230017244248,0.44112480711147,0.523106649668695,1.27862265326826,1.27862265327015,-0.0222722118925382,0.0222722118916297,0.641048923522089,-0.0654207830694113,-0.686536357267561,-0.442750538199569,-0.709684561261612,-0.0297417535041423,-0.591050261833412,1.02174787665396,0.27361157768304,0.273611577684213,0.159050826566505,-1.59873563837282,-0.611239125907292,0.36098053286149,-1.22216609653574,-0.501744867523967,1.39375677360734,-0.492550247891675,-0.492550247891482,0.679074398715988,-0.729458055545278,NaN
1587.6096,0.42417500176765,-1.3797503728161,-0.107982902371187,-0.0669919318867401,0.406619545544199,0.406619545544391,-0.615923835721288,-0.562331848869843,-0.602762883057267,0.121941282672406,0.0380816504844752,0.121941282670152,0.623172093327735,0.215865258360288,0.679145568804119,0.787853337069215,0.706187473137387,0.852573231606885,0.962055084271363,-0.354488515398281,0.962055084271596,0.240130795642122,0.685621900408409,0.4357460250738,0.54669939483088,1.24700654039602,1.24700654039785,0.0100917726771573,-0.0100917726780474,0.620977984264612,-0.0263854370991916,-0.712569079697569,-0.419428988996646,-0.640591575441102,-0.0179624080966054,-0.528798783766104,1.02141566608159,0.234169680176664,0.234169680177806,0.144361904498268,-1.62053083181529,-0.632733243023889,0.382743898724072,-1.26755126211151,-0.512420492403405,1.41394915714604,-0.515967893618149,-0.515967893617984,0.683858644286004,-0.755068344607535,NaN
1587.712,0.42308289792797,-1.37037148388913,-0.105610837782947,-0.067897610342386,0.397777282897941,0.397777282898169,-0.598444914214702,-0.543378342001541,-0.584626322473441,0.140222433530212,0.0358951154204488,0.140222433527946,0.679146741778914,0.168776750935556,0.721000916165636,0.807512637709781,0.692180716345317,0.864528565173724,0.973225231126418,-0.351882404244052,0.973225231126649,0.248140311402913,0.660071446801239,0.429712602083025,0.571149330338358,1.21473627234096,1.21473627234273,0.0429647236731332,-0.0429647236740042,0.600651520525446,0.0145889096642259,-0.737168650378418,-0.393441795050405,-0.570120272412777,-0.00584790536766403,-0.465252375320111,1.02067854148954,0.194293508116861,0.19429350811797,0.130711435083999,-1.64158304082682,-0.65307481839938,0.404793137384451,-1.31259508560377,-0.522587874203267,1.43406132702092,-0.538767021051214,-0.538767021051077,0.689483757648863,-0.780438034084844,NaN
1587.8144,0.422362400325045,-1.35971344553385,-0.10243922117789,-0.068617846031765,0.388686179766617,0.388686179766877,-0.580386165695026,-0.523721286376417,-0.56586236865042,0.158401729409976,0.0335370785770704,0.158401729407694,0.734573931286013,0.121862875453981,0.762364548658065,0.826778691454297,0.677656810095442,0.876009830964705,0.983903852767829,-0.349549918929894,0.983903852768054,0.25571724128749,0.633628028638472,0.423039541984022,0.596415388539281,1.18189503800715,1.18189503800887,0.0763176468271034,-0.076317646827956,0.580097500293551,0.0573992913926868,-0.760348340236393,-0.364895772163318,-0.498371318973819,0.00655223130612733,-0.400518886841191,1.01952648988504,0.154024089693706,0.154024089694774,0.118091438059697,-1.66186810537818,-0.672258969002195,0.42709489955613,-1.35725722285321,-0.532250853342414,1.45405892347919,-0.56094135411053,-0.560941354110429,0.695916327372201,-0.805544446298501,NaN
1587.9168,0.422019808544664,-1.34780944824335,-0.0984742203735096,-0.0691587824614041,0.379364533591852,0.379364533592118,-0.561748850382133,-0.503356680643175,-0.546470481425425,0.176459676863901,0.031020201455804,0.176459676861608,0.78940861512602,0.0751939092622636,0.803212108976189,0.845634333476989,0.662635264066877,0.887008735625846,0.994084201995479,-0.347473306739982,0.994084201995707,0.262852345947533,0.606343986149162,0.415743517940227,0.622452739500587,1.14856769084278,1.14856769084445,0.110117733142468,-0.110117733143303,0.559343833486047,0.101934709730752,-0.782123794591061,-0.333906809320482,-0.425451992923033,0.0191894998243478,-0.334710986431586,1.01795018147172,0.113406501154944,0.113406501155968,0.106489645530173,-1.68136467292078,-0.690285450797635,0.44961382337051,-1.40149817679923,-0.54141577204877,1.47390700899303,-0.582486663751254,-0.582486663751188,0.703118953776998,-0.830365588862829,NaN
1588.0192,0.422058936752358,-1.3346972335527,-0.0937259116947994,-0.0695272419841493,0.369830024624783,0.369830024625053,-0.542536345840593,-0.482283144209122,-0.526452429446855,0.194376820692343,0.0283568876739179,0.194376820690045,0.843606392336901,0.028839927152021,0.8435198208113,0.864063943441964,0.647138812795161,0.897519199440859,1.00375928265993,-0.345636134145543,1.00375928266016,0.269537177400063,0.578274534218133,0.407842900446157,0.64921291316291,1.11484034311639,1.114840343118,0.144328458735686,-0.144328458736501,0.538418225074073,0.148076683500099,-0.802512770346977,-0.300599192308781,-0.351475925494472,0.0320167060561276,-0.267945799212735,1.01594095390588,0.0724898944214013,0.0724898944223991,0.0958894532555473,-1.70005419313254,-0.707158694363883,0.47231253397974,-1.44527937790685,-0.550091530369075,1.49357021945651,-0.603400727283756,-0.603400727283713,0.71105048666571,-0.854880225135282,NaN
1588.1216,0.422481050995713,-1.32041881619705,-0.0882082374536551,-0.0697306871749535,0.360099728835649,0.360099728835918,-0.522754313610242,-0.460502080801429,-0.505812457178672,0.21213365270934,0.0255592142283418,0.212133652707038,0.897123581788281,-0.0171294654063893,0.883264485351038,0.882053355722691,0.631193175752797,0.907537212196618,1.01292186170907,-0.344023421520733,1.01292186170929,0.275764187368803,0.549477639732455,0.399357770423971,0.676643938110463,1.08079995388651,1.08079995388805,0.178909697822937,-0.178909697823733,0.51734802849599,0.195699836066593,-0.821534895021136,-0.265104903020447,-0.276562795702847,0.0449882128245522,-0.200344527592341,1.01349080582901,0.0313274884627757,0.0313274884637325,0.0862699244368919,-1.71792090610246,-0.722887796501303,0.495151672361159,-1.48856326900158,-0.558289617429375,1.51301290730188,-0.623683291768005,-0.623683291767992,0.719666296015029,-0.879067949226347,NaN
1588.224,0.423284845315425,-1.30502018543039,-0.0819389204488431,-0.069777186039446,0.350190131573281,0.350190131573554,-0.50241085157523,-0.438017825686675,-0.484557436804763,0.229710547122886,0.0226388621681314,0.229710547120578,0.949917303356364,-0.0626454195494979,0.922423478902874,0.899589764574737,0.614826797561184,0.91706067906601,1.02156449804871,-0.342621754729504,1.02156449804892,0.281526829632943,0.520013868457985,0.390309915770693,0.704690496261933,1.04653390917322,1.0465339091747,0.213817857150874,-0.213817857151651,0.496160093610234,0.244672515910127,-0.839211447412639,-0.227562898642881,-0.200837978371057,0.0580601579197564,-0.13203205039991,1.01059239587315,-0.010023478531943,-0.010023478531036,0.0776058491628292,-1.73495181834527,-0.737486462786392,0.518089957769841,-1.53131338965329,-0.566024110352343,1.5321992786715,-0.643336031727087,-0.643336031727105,0.728918579329649,-0.902909274023569,NaN
1588.3264,0.424466449262482,-1.28855098364845,-0.0749393415888299,-0.0696753799636738,0.340117143635137,0.34011714363541,-0.481516630229882,-0.414837775294979,-0.462697003378221,0.247087717471057,0.0196070502552766,0.247087717468745,1.00194556651757,-0.107640150348969,0.960974752089756,0.916661626539318,0.598070570819987,0.926089259103948,1.02967959160462,-0.341419370834877,1.02967959160483,0.286819657495161,0.489946203453485,0.380722812877971,0.733294097271562,1.01212959538893,1.01212959539036,0.249006045145285,-0.249006045146043,0.474880609726337,0.294857448170344,-0.855565159600958,-0.188118372712834,-0.124432147345814,0.071190649658419,-0.0631364975971683,1.00723904206391,-0.0515018426866713,-0.0515018426858087,0.0698678549516686,-1.75113666003259,-0.750972901592669,0.541084284427064,-1.57349445358748,-0.573311635761043,1.55109352880488,-0.662362491960316,-0.66236249196036,0.738756709790988,-0.926385738961886,NaN
1588.4288,0.42601945784194,-1.27106416002753,-0.0672343880267451,-0.0694344525367008,0.329896124332587,0.329896124332862,-0.460085011349835,-0.390972497791965,-0.440243671723165,0.26424518515162,0.0164744768225026,0.264245185149307,1.05316736693297,-0.152047269184766,0.998896829743695,0.933258560547587,0.580957543588924,0.934624197340427,1.03725945294801,-0.340406213609962,1.03725945294822,0.291638418418672,0.459339837554583,0.370621595433541,0.762393279777043,0.977673965179862,0.97767396518124,0.284424288487344,-0.284424288488081,0.453534949284927,0.34611241737883,-0.870620042844044,-0.146921999253006,-0.0474808318899469,0.0843399455539054,0.00621120401628268,1.00342471709036,-0.0930426617597899,-0.0930426617589758,0.0630225601251998,-1.76646781721047,-0.763369673164551,0.564089850166581,-1.61507241303194,-0.580171291823653,1.56965997897156,-0.680768008690208,-0.680768008690287,0.749127624146547,-0.949480035250237,NaN
1588.5312,0.427934978349563,-1.25261559630127,-0.0588522758334936,-0.0690640965490193,0.319541916463862,0.31954191646416,-0.438132146732351,-0.366435822483982,-0.417212932809212,0.281162751466877,0.0132512730852183,0.28116275146456,1.10354279218167,-0.195802151236559,1.03616880974249,0.949371246121916,0.56352261644752,0.942668152246088,1.04429639019189,-0.339573955438022,1.04429639019209,0.295980146890044,0.428261939817556,0.360033011093568,0.791923845586721,0.943253092024568,0.943253092025891,0.320019801736067,-0.320019801736785,0.432147518327637,0.398290984581109,-0.884401243437233,-0.104129160246903,0.0298760819316263,0.0974706140176457,0.0758778206932397,0.999144038516171,-0.134577424161745,-0.134577424160987,0.057032764829036,-1.7809402368603,-0.7747034968068,0.587060314781523,-1.65601450802563,-0.586624531623209,1.58786321417683,-0.698559606152229,-0.698559606152354,0.759976243639526,-0.97217614151711,NaN
1588.6336,0.430201697278931,-1.23326370417018,-0.0498243441217329,-0.0685744766244632,0.309068894631162,0.309068894631468,-0.415677054176615,-0.341244905422532,-0.393623326812284,0.297819975359993,0.00994696495951221,0.29781997535768,1.15303313702755,-0.238842345503265,1.07277035903603,0.964991323348283,0.545802236140651,0.950225023640714,1.05078280802522,-0.338915987779619,1.05078280802541,0.299843254833062,0.396781389997712,0.34898536310293,0.821819126612242,0.908951709838277,0.908951709839541,0.355737302142644,-0.355737302143342,0.410741613117989,0.451243244072499,-0.896934936151422,-0.0598991556166388,0.107494917751398,0.110547670888823,0.145728343317702,0.994392260564633,-0.176034324979458,-0.176034324978743,0.0518576834124027,-1.79455131050109,-0.785005015911668,0.609947988864297,-1.69628930590054,-0.592695010702275,1.60566821684012,-0.715745870675554,-0.715745870675716,0.771245919540362,-0.994459464412733,NaN
1588.736,0.432805978669817,-1.21306899815201,-0.0401848115908824,-0.0679761862443975,0.298491024401563,0.298491024401893,-0.392741667728191,-0.315420267553111,-0.369496489626669,0.314196169222672,0.00657043477169834,0.31419616922036,1.20160102573325,-0.281108025478604,1.10868170494005,0.98011130150345,0.527834093053587,0.957299788810045,1.05671131436893,-0.338427388473717,1.05671131436911,0.303227616979266,0.364968469636283,0.337508430448569,0.852010278655041,0.874852735727832,0.874852735729048,0.391519350805085,-0.391519350805763,0.389339272266992,0.504816623906581,-0.908248260280142,-0.0143943944663093,0.185228855036479,0.123538675679346,0.215626562188965,0.989165281282445,-0.217338612890722,-0.217338612890053,0.0474532293684888,-1.80730074731606,-0.794308517130775,0.632704057564572,-1.73586674121211,-0.598408401677784,1.62304049204071,-0.732336806698087,-0.73233680669829,0.782878897643322,-1.01631698000805,NaN
1588.8384,0.435732003915695,-1.19209365174792,-0.029970489162365,-0.0672801994996131,0.287821927906323,0.287821927906692,-0.369350857013704,-0.288985799597627,-0.344857167390745,0.330270425743938,0.00312987636084206,0.330270425741635,1.24921053612511,-0.322542467586644,1.14388362016794,0.994724482940386,0.509656830630875,0.963898354623713,1.06207483099798,-0.338104873674886,1.06207483099816,0.306134645447607,0.332894500016146,0.325633358949931,0.882426596026915,0.841036780199652,0.841036780200809,0.427306700153553,-0.427306700154211,0.367961111975858,0.558856726622874,-0.918369293392665,0.0322204316864776,0.262928656837945,0.136413775700931,0.285435680339841,0.983459675509904,-0.258413010494281,-0.258413010493671,0.0437723613156456,-1.81919044574756,-0.802651601184867,0.655278842439502,-1.77471816421243,-0.603792178503315,1.63994618468832,-0.748343675828223,-0.748343675828451,0.794816797874363,-1.03773736827058,NaN
1588.9408,0.438961952247317,-1.17040104970044,-0.0192204540128015,-0.0664978194081422,0.277074949483019,0.277074949483412,-0.345532407079111,-0.261968726803563,-0.319733190958028,0.346021682252452,-0.000367253234868738,0.346021682250156,1.29582731941124,-0.363092532572557,1.17835740280685,1.00882490732332,0.491309776859203,0.970027432801131,1.0668667042816,-0.337946735766575,1.06686670428177,0.308567343721656,0.300631427544295,0.313392517619062,0.912995843639344,0.807581661404175,0.807581661405279,0.46303863247566,-0.463038632476297,0.3466261430415,0.613208192808911,-0.927327043413888,0.0797791876084368,0.340443464523443,0.149145700263306,0.355018954690775,0.977272749341312,-0.299178203423698,-0.299178203423147,0.0407654863570277,-1.83022436704449,-0.810074809773713,0.677622096917845,-1.81281639859923,-0.608875375148844,1.65635219359435,-0.763778814758967,-0.763778814759214,0.807001099348927,-1.05871112580788,NaN
1589.0432,0.442476210488996,-1.1480553526588,-0.00797570129718079,-0.0656406254381162,0.266263212889583,0.266263212889999,-0.321316950579123,-0.234399529193874,-0.29415540339454,0.361428821931674,-0.00391427509039766,0.361428821929388,1.34141871042384,-0.402709114900969,1.21208485602763,1.02240731946269,0.472832706548846,0.97569444355769,1.07108081185236,-0.337952764898362,1.07108081185252,0.310530329823067,0.268251370564108,0.300819320099694,0.943644603099925,0.774561949965609,0.774561949966648,0.498653278561239,-0.498653278561858,0.325351581959572,0.667715558639567,-0.935151432092202,0.128115131990717,0.417621629821445,0.161709718655794,0.424240348254766,0.970602600568039,-0.339553381695883,-0.339553381695387,0.0383809045348594,-1.84040841159456,-0.816621221682428,0.699683321720319,-1.85013580313069,-0.613688327957316,1.67222628743578,-0.778655428511087,-0.778655428511348,0.819373612505635,-1.07923063914562,NaN
1589.1456,0.446253596491462,-1.12512108763184,0.00372120736688245,-0.0647204217493793,0.255399662647563,0.255399662647993,-0.296737851087033,-0.206311818449259,-0.268157540074397,0.376470804110015,-0.00750531477532876,0.376470804107747,1.38595382392959,-0.441347523782563,1.24504827369404,1.03546715937952,0.454265634880554,0.980907446647722,1.07471166135278,-0.338124155338455,1.07471166135293,0.312029825673238,0.235826152996932,0.287948020164407,0.974298625709236,0.742048569081534,0.742048569082513,0.534087910826134,-0.534087910826733,0.304152674216487,0.722224077211151,-0.941873250423919,0.17706173561335,0.494311548934697,0.174083576193363,0.492965172393767,0.963448172134792,-0.379456806424778,-0.379456806424321,0.0365652707695323,-1.84975029930781,-0.822336037100233,0.721412080605119,-1.88665232940918,-0.618262415041721,1.68753722244235,-0.792987364196435,-0.7929873641967,0.83187691791234,-1.09929020871928,NaN
1589.248,0.450271582419803,-1.1016627693421,0.0158264841764733,-0.0637491852453598,0.244497085938709,0.244497085939159,-0.271831044108691,-0.177742176566724,-0.241776067518231,0.391126809865449,-0.0111353128937666,0.391126809863197,1.42940363474844,-0.478967771734792,1.2772304365732,1.0480005680317,0.435648633203831,0.98567509177587,1.07775447890008,-0.338463401628307,1.07775447890023,0.313073619322286,0.203426853691038,0.274813497556094,1.00488318320373,0.710108462585106,0.710108462586012,0.5692792138379,-0.56927921383848,0.283042545409071,0.776580482644364,-0.947524083034979,0.226453461378241,0.570362469326014,0.186247417625148,0.561060700224758,0.955809294290465,-0.418806372753742,-0.418806372753338,0.0352640507114586,-1.8582594544101,-0.827266168720303,0.742758297625263,-1.92234356846804,-0.622629805536848,1.70225485653026,-0.806788879082997,-0.806788879083259,0.844454756433992,-1.11888602709854,NaN
1589.3504,0.454506509476257,-1.07774455004226,0.0282954373587256,-0.0627390110405321,0.233568115199827,0.233568115200301,-0.246634842045022,-0.148729958841068,-0.215049985999563,0.405376388458331,-0.01480002098352,0.405376388456094,1.47174104212939,-0.515534767060676,1.3086146206333,1.06000440089589,0.417021656861098,0.990006578977975,1.08020528692364,-0.338974185617071,1.08020528692378,0.313671008733813,0.171123391231659,0.261451047793349,1.03532341159838,0.678804329939159,0.678804329940004,0.604163543619129,-0.604163543619692,0.262032089879544,0.830633690737635,-0.952136210396955,0.276126495295245,0.645625254345767,0.198183702857531,0.628396741777972,0.947686714433401,-0.457520149620346,-0.457520149620006,0.0344219549225522,-1.86594688999725,-0.831459849648683,0.763672526213718,-1.95718878039701,-0.626823223937192,1.71635025577813,-0.820074415507718,-0.82007441550798,0.857052361679596,-1.13801612040107,NaN
1589.4528,0.458933791156529,-1.05342989162703,0.0410827748872815,-0.0617020528155734,0.222625214517456,0.222625214517961,-0.22118970011321,-0.119317055500119,-0.188020591981288,0.419199593505677,-0.0184959798768032,0.419199593503459,1.51294091950358,-0.551018421033675,1.3391846154304,1.07147624366798,0.398424381855695,0.993911623340802,1.08206097113118,-0.339661246621847,1.08206097113132,0.313832728785332,0.138984147808213,0.247896178466166,1.06554465247889,0.648194419545952,0.64819441954674,0.638677191574813,-0.638677191575357,0.241129901310806,0.884235443627109,-0.955742499807032,0.325919429582715,0.719953107385474,0.209877117532277,0.694846183619215,0.93908211048827,-0.495516893701933,-0.495516893701645,0.0339833468050395,-1.87282508132329,-0.834966256627539,0.784106191759727,-1.99116890301746,-0.630875725178469,1.72979579560585,-0.832858384667164,-0.832858384667403,0.869616730341535,-1.15668025739216,NaN
1589.5552,0.463528104609777,-1.02878125335615,0.0541428917092681,-0.060650455351549,0.211680655610558,0.21168065561109,-0.195537932577103,-0.0895476011152392,-0.160731189562555,0.432577101002827,-0.0222204741560334,0.432577101000627,1.55298014949448,-0.585393681923012,1.36892474897026,1.0824144262545,0.379896052772905,0.997400421639327,1.0833193338899,-0.340530224002292,1.08331933389002,0.31357085697186,0.107075625242263,0.234184406376979,1.09547280232176,0.618332373663073,0.618332373663801,0.672756669513352,-0.672756669513877,0.220342248057259,0.937240912416262,-0.958376292663093,0.375673907209175,0.793202266576227,0.221314481796861,0.760285503636988,0.929998082135383,-0.532716546577249,-0.532716546577019,0.0338926257433532,-1.87890781569349,-0.837835141848997,0.804011813484087,-2.02426653725246,-0.634820473305004,1.74256526342657,-0.845154953009049,-0.845154953009276,0.882096830118219,-1.17487982906131,NaN
1589.6576,0.468263570305066,-1.00385979064833,0.0674301422998023,-0.0595962767355965,0.20074648986733,0.200746489867902,-0.169723372265629,-0.0594676261599643,-0.133226744334475,0.445490304511282,-0.0259714594907682,0.445490304509103,1.59183764350479,-0.618640502366055,1.39781991649782,1.09281803184893,0.361475342545383,1.00048361844293,1.0839791295309,-0.341587470820487,1.08397912953103,0.312898695551948,0.0754621278989954,0.220351051924874,1.12503467816102,0.589267124668452,0.58926712466911,0.706339029381492,-0.706339029381998,0.199673096599728,0.989509269278101,-0.960071291217341,0.425235237229615,0.865232679146176,0.232484661836731,0.824595270804595,0.920438121931196,-0.569040724754942,-0.569040724754762,0.0340945866230639,-1.88421001555436,-0.840116470883104,0.823343207527698,-2.05646591008778,-0.638690522520663,1.75463396704192,-0.856977829745312,-0.856977829745516,0.894443747246504,-1.19261770668743,NaN
1589.76,0.473113922054845,-0.978725065242444,0.0808991003128767,-0.058551400360947,0.189834520741844,0.189834520742434,-0.143790978446598,-0.0291246577115466,-0.105553485418972,0.457921389011921,-0.029747467432906,0.457921389009758,1.62949434563561,-0.65074374284654,1.42585561217753,1.10268689897773,0.34320022058934,1.00317226893693,1.08404007909018,-0.342839851240023,1.08404007909031,0.311830634359646,0.0442054745784563,0.206431034165055,1.15415839787448,0.561042845053833,0.561042845054425,0.739362223900371,-0.739362223900857,0.179124183811516,1.04090423255242,-0.96086144465787,0.474452984402829,0.935908656506515,0.243378484354867,0.887660630882364,0.910406580142133,-0.604413206485872,-0.604413206485744,0.0345347559087372,-1.88874754507371,-0.841860071312867,0.842055669248509,-2.08775282121904,-0.642518606747778,1.76597884672972,-0.868340067396656,-0.868340067396836,0.906610776661846,-1.20989808838051,NaN
1589.8624,0.478052671327365,-0.95343477185327,0.0945048070814287,-0.0575274412564022,0.17895627948757,0.178956279488173,-0.117786410176166,0.00143271173867618,-0.0777584735933564,0.469853391128192,-0.033547497419592,0.469853391126053,1.66593322115352,-0.681693016962777,1.45301796224091,1.11202161632967,0.325107825729465,1.00547779725144,1.08350286630258,-0.344294539042811,1.0835028663027,0.310382002032172,0.0133647446115979,0.192458673426729,1.18277376256306,0.533698949484374,0.533698949484912,0.771765503486577,-0.771765503487045,0.158695130874878,1.09129458004901,-0.960780834405537,0.523181528525197,1.00509950361878,0.253988647230225,0.949371769246531,0.899908639122466,-0.63876041274926,-0.638760412749167,0.0351597049000615,-1.89253701780853,-0.843115299687605,0.860106133078013,-2.118114582279,-0.646336945415847,1.77657858370389,-0.879253893199131,-0.879253893199288,0.918553462201252,-1.22672634053476,NaN
1589.9648,0.483053268677821,-0.928044487296895,0.108203009406974,-0.0565356543303115,0.168123009632829,0.168123009633434,-0.0917555906139894,0.032155260933018,-0.0498891615340822,0.481270253598387,-0.0373709051253012,0.481270253596272,1.70113923051455,-0.711482492740256,1.47929375649487,1.12082351033055,0.307234342148958,1.00741194974691,1.08236911972039,-0.345958828417185,1.08236911972052,0.308568913916529,-0.0170039388468251,0.178467507733012,1.21081262331648,0.50727013990709,0.507270139907564,0.803489834905279,-0.803489834905728,0.138383584484231,1.14055462036528,-0.959863562499577,0.571280581493009,1.07268011079726,0.264309617917062,1.00962433676977,0.88895030308811,-0.672011873295048,-0.672011873295003,0.0359173390830518,-1.89559562002401,-0.843930734339599,0.877453309578048,-2.14753995485176,-0.650177070115208,1.78641369372963,-0.88973058272754,-0.889730582727676,0.930229601081017,-1.24310883931921,NaN
1590.0672,0.488089261865542,-0.902607445641315,0.121950384965238,-0.0555868521263301,0.157345668512975,0.157345668513577,-0.065744288654227,0.0629935563153277,-0.0219929725108819,0.492156877903445,-0.0412172928926594,0.49215687790135,1.73509929127894,-0.740110670984367,1.50467047445407,1.12909462432488,0.289614877538832,1.00898674208162,1.080641386948,-0.347839960389119,1.08064138694814,0.30640812426568,-0.0468475883674462,0.164490127586239,1.23820921616018,0.481786479812554,0.481786479812971,0.834478320359784,-0.834478320360214,0.118185370767221,1.18856461055968,-0.958143649704683,0.618615647162761,1.13853149305535,0.274337513611704,1.06831982351633,0.877538398688415,-0.704100664643399,-0.704100664643401,0.0367571587939929,-1.89794095729804,-0.844353901309516,0.894057799541221,-2.17601908855473,-0.654069673150694,1.79546659369422,-0.899780377841897,-0.899780377842009,0.941599228889707,-1.25905281938436,NaN
1590.1696,0.493134447628379,-0.877174340853235,0.13570475202931,-0.0546913369656976,0.146634952354777,0.146634952355359,-0.0397977349353953,0.0938983334260125,0.00588308600624707,0.502499176605623,-0.0450864049846415,0.502499176603551,1.76780223113839,-0.767580158775964,1.5291363040732,1.1368376890609,0.27228334381166,1.01021439992072,1.07832310677327,-0.349944964323901,1.07832310677342,0.303916887647553,-0.0761164963891629,0.150558031337349,1.26490045523156,0.457273485269237,0.457273485269592,0.864676592597822,-0.864676592598234,0.098094654030533,1.23521111121109,-0.955654946976498,0.665058413332629,1.20254126349,0.284069959404221,1.12536586729884,0.86568057884348,-0.734963808901444,-0.734963808901484,0.0376304853510208,-1.89959092659492,-0.844431038948716,0.909882185787599,-2.20354345745625,-0.658044476176046,1.80372163387932,-0.909412444709418,-0.909412444709512,0.952624596780607,-1.27456623686754,NaN
1590.272,0.498163013245112,-0.851793157560499,0.149425259749408,-0.0538588481477176,0.136001344246169,0.136001344246723,-0.0139602772690563,0.124820840705771,0.0336927696119377,0.512284126596035,-0.0489780284984046,0.512284126593987,1.7992387352866,-0.793897444526076,1.55268015442984,1.14405608658437,0.255272341374293,1.01110729530166,1.07541858325878,-0.352280512477098,1.07541858325895,0.301112830868312,-0.104764346102439,0.136701501010637,1.29082618242862,0.43375222695416,0.433752226954453,0.8940331648224,-0.894033164822794,0.0781041009520464,1.28038727565576,-0.952431058546558,0.710487073706751,1.2646040334668,0.293505924195623,1.18067649111368,0.853385325256562,-0.764542628031176,-0.764542628031261,0.0384906498877541,-1.90056361169771,-0.844206902386817,0.924891104911597,-2.23010579211262,-0.662130114884515,1.81116509678973,-0.918634861987445,-0.918634861987504,0.963270145458397,-1.28965764825789,NaN
1590.3744,0.503149664768971,-0.82650902967113,0.163072556231992,-0.0530985210444067,0.125455177373169,0.12545517737369,0.0117249257166616,0.155713148601424,0.0613909068981348,0.521499824222222,-0.0528918996040954,0.521499824220199,1.82940129144749,-0.819072669549455,1.57529166709078,1.15075381159048,0.238613046600895,1.01167788186337,1.0719329640625,-0.354852785128597,1.07193296406267,0.298013835088019,-0.132748290966779,0.122949497585727,1.31592937950682,0.411239443364743,0.411239443364988,0.92249972490066,-0.922499724901037,0.0582050566170934,1.32399307631554,-0.948505272439165,0.754786584972364,1.32462174093993,0.302645540132163,1.23417227358485,0.840661949374924,-0.792783053287667,-0.792783053287778,0.0392931464052081,-1.90087719541743,-0.843724603653084,0.939051302138576,-2.25570000398176,-0.666354034504976,1.81778517024513,-0.927454624637887,-0.927454624637923,0.973502475498623,-1.30433609925057,NaN
1590.4768,0.508069740918146,-0.801364124569491,0.176608934310089,-0.0524188525058338,0.115006706257251,0.115006706257722,0.0372161750671798,0.186528426531883,0.0889336744952963,0.530135542308907,-0.0568276141666196,0.530135542306905,1.85828413649989,-0.843119387171254,1.59696123264978,1.15693543480431,0.222335101542549,1.01193863239377,1.06787222506039,-0.357667344294019,1.06787222506058,0.29463792824066,-0.160029005169227,0.109329574824243,1.34015635465575,0.38974766590545,0.389747665905642,0.950031376167944,-0.950031376168304,0.0383877387504957,1.36593547650926,-0.943910495197075,0.797848868879447,1.38250391726531,0.31148991591816,1.28578046630453,0.827520594613192,-0.819635891426794,-0.819635891426919,0.0399957536199665,-1.90054987796671,-0.843025478995683,0.952331672743917,-2.28032109884118,-0.67074239048407,1.82357190713987,-0.935877647833205,-0.935877647833206,0.983290314423495,-1.31861101579512,NaN
1590.5792,0.512899314077415,-0.776397548283488,0.189998457990032,-0.0518276661395747,0.104666185485296,0.104666185485728,0.0624734684465646,0.217221188621907,0.116278839076777,0.538181786838144,-0.0607845416634997,0.538181786836166,1.88588320876058,-0.866054303863928,1.61768001804294,1.16260607120362,0.206466507051128,1.01190198134457,1.06324316263816,-0.360729014832797,1.06324316263836,0.29100318801859,-0.186570708489967,0.0958678103253551,1.36345691816437,0.369285353418781,0.369285353418927,0.976586833231005,-0.976586833231349,0.0186414514652639,1.40612856072558,-0.938679189832209,0.839572972405473,1.43816791040095,0.320040955275191,1.33543507854773,0.813972243673384,-0.845057048529463,-0.845057048529601,0.0405586317971414,-1.8995997901341,-0.842148973339828,0.964703293841998,-2.30396507742082,-0.675319949492057,1.82851718502225,-0.943908757796406,-0.943908757796362,0.992604485447277,-1.3324920930583,NaN
1590.6816,0.517615281486275,-0.751645266910505,0.20320707408057,-0.0513320729733808,0.094443959264933,0.0944439592653241,0.0874587057521684,0.247747507951435,0.143385967710805,0.545630348777468,-0.064761741744602,0.545630348775512,1.91219610807883,-0.887897005268217,1.63744000595159,1.16777135154802,0.191033522396231,1.01158027196395,1.05805339095497,-0.364041772253796,1.05805339095517,0.287127654156655,-0.212341169187149,0.0825887515147272,1.38578455726412,0.349857031277071,0.349857031277172,1.00212857785488,-1.0021285778552,-0.00104518560028333,1.4444936367677,-0.932843318550572,0.879865198105236,1.49153908316167,0.328301187931524,1.38307694840633,0.800028734006834,-0.869007713723904,-0.869007713724053,0.0409444008039108,-1.89804489567341,-0.841132534446819,0.976139450077849,-2.32662882541707,-0.680109988887982,1.83261467169753,-0.951551663822255,-0.951551663822184,1.00141788276621,-1.34598918088386,NaN
1590.784,0.522195450373255,-0.727140042406097,0.216202713123916,-0.0509384288232179,0.0843505616293801,0.084350561629741,0.112135865186904,0.278065199227658,0.170216607716038,0.552474347010558,-0.0687578838543666,0.55247434700863,1.93722206180482,-0.90866967965681,1.65623404075717,1.17243739096509,0.176060572995877,1.0109857034123,1.05231133745761,-0.367608636611911,1.05231133745782,0.283029246688092,-0.237311687233017,0.0695153735735841,1.40709660753876,0.331463429317501,0.331463429317562,1.02662297609661,-1.02662297609692,-0.0206840021467918,1.48095931741452,-0.926434293868835,0.918639210031359,1.54255099528051,0.336273612080217,1.42865380687504,0.785702781484114,-0.891454510135594,-0.891454510135739,0.0411182041427399,-1.89590288806772,-0.840011515431773,0.986615655740829,-2.34830999973807,-0.68513419698395,1.83585979067085,-0.95880891977061,-0.95880891977052,1.00970545198547,-1.3591121662858,NaN
1590.8864,0.526618619861572,-0.70291138458117,0.228955381548939,-0.0506522957373345,0.0743968217850673,0.0743968217853543,0.136471151264831,0.308133971673968,0.196734437618637,0.558708261947705,-0.0727711709451446,0.558708261945806,1.96096189152693,-0.928396854090204,1.67405587160165,1.17661074782398,0.161570164223812,1.01013027172305,1.04602623207437,-0.371431572129875,1.04602623207458,0.278725686912881,-0.261457059166497,0.0566690468090765,1.42735440543578,0.31410161513962,0.314101615139649,1.05004036027712,-1.05004036027741,-0.0402870500739728,1.51546158043228,-0.919482940840545,0.955816112596722,1.59114556203727,0.343961541701049,1.47212032551976,0.771008007687181,-0.912369620919821,-0.912369620919974,0.0410477606053265,-1.89319109436201,-0.838819090197968,0.996109674306846,-2.36900691950126,-0.690412579044489,1.83824967342019,-0.965681895348118,-0.965681895347997,1.01744416876067,-1.37187085679953,NaN
1590.9888,0.530864659171749,-0.678985523005405,0.241437243283702,-0.0504784153834278,0.0645939673757131,0.0645939673759466,0.160433116401006,0.337915556091389,0.22290539166934,0.564327962733386,-0.0767992676903527,0.564327962731518,1.98341797656918,-0.947105151164606,1.69090018630957,1.18029837071019,0.147582797507988,1.00902570170477,1.03920809191149,-0.375511392863872,1.03920809191171,0.274234420324645,-0.284755525559611,0.0440695125886255,1.44652340440998,0.297765124812196,0.297765124812195,1.07235508142662,-1.0723550814269,-0.0598663969916298,1.54794380008026,-0.912019469867527,0.991324496044222,1.63727317219103,0.351368454789322,1.51343813163757,0.755958963207865,-0.931730890677402,-0.931730890677559,0.0407034007710903,-1.88992639674241,-0.837586188867263,1.00460153411419,-2.3887184670692,-0.695963373910052,1.83978309087407,-0.97217077604153,-0.972170776041385,1.02461300932842,-1.38427487095656,NaN
1591.0912,0.534914578515064,-0.655385400695856,0.253622686854334,-0.0504206973049388,0.0549537206502985,0.0549537206504695,0.183992757841502,0.367373810297356,0.248697760534534,0.569330731072081,-0.0808392329750348,0.56933073107024,2.00459421403091,-0.964823066216847,1.70676263599456,1.18350753606097,0.134116887720747,1.00768337158378,1.03186770660035,-0.379847675093397,1.03186770660056,0.269572542587917,-0.307188702386638,0.0317348679477147,1.46457324612388,0.282444096094897,0.282444096094869,1.09354553267846,-1.09354553267873,-0.0794339461079527,1.57835674592897,-0.904073459763511,1.02510044466807,1.68089275210489,0.35849784274854,1.55257578041571,0.740571140716754,-0.949521897028353,-0.949521897028511,0.0400580836321412,-1.88612517424512,-0.836341457986299,1.01207353795568,-2.40744399937435,-0.70180298352868,1.84046036675009,-0.978274597433811,-0.978274597433637,1.0311929106653,-1.39633354096837,NaN
1591.1936,0.538750588779699,-0.632130687478606,0.265488375164564,-0.0504822194240732,0.0454883867583779,0.0454883867584831,0.207123591314704,0.396474805464279,0.274082269947114,0.573715282297611,-0.0848874565327544,0.573715282295804,2.02449597740517,-0.981580760712444,1.72163985359774,1.18624578069003,0.121188685751724,1.00611423499298,1.02401662803335,-0.384438676611649,1.02401662803355,0.264756729313899,-0.328741498541288,0.0196815583676507,1.48147778958439,0.268125406238824,0.268125406238762,1.11359413873554,-1.11359413873579,-0.0990012815779697,1.60665855338536,-0.89567385467983,1.05708751003671,1.72197177617938,0.365353062182691,1.58950868483875,0.724860976059615,-0.965731989564449,-0.965731989564608,0.0390873919110241,-1.88180325971782,-0.835111244384449,1.01851026684109,-2.42518326672713,-0.707945913213561,1.84028328082736,-0.983991305302721,-0.983991305302509,1.03716672038768,-1.40805582879913,NaN
1591.296,0.542356147335477,-0.609237808620622,0.277013277092914,-0.0506652345934933,0.0362109366118935,0.0362109366118958,0.229801702446536,0.425186894191165,0.299032138296744,0.577481781478713,-0.0889395995090258,0.577481781476934,2.04313007548198,-0.997409862543734,1.73552947071787,1.18852083375769,0.108812211932588,1.00432874570442,1.01566716536817,-0.389281262433809,1.01566716536837,0.259803169847368,-0.349402022304333,0.00792437766077216,1.49721511004071,0.254792811555428,0.254792811555338,1.13248731076299,-1.13248731076323,-0.1185795321502,1.6328146746866,-0.886848978266029,1.0872366558176,1.76048623356365,0.371937192617131,1.62421901329585,0.708845839782539,-0.980356296100205,-0.980356296100376,0.0377695087588253,-1.87697590364353,-0.833919596725691,1.02389858063666,-2.44193633509409,-0.714404717273627,1.83925497099935,-0.989317823964148,-0.989317823963888,1.04251913861484,-1.41945025390574,NaN
1591.3984,0.545715988199929,-0.586719985212919,0.288178680565223,-0.0509711755994476,0.0271350877755384,0.027135087775442,0.252005777071595,0.453480760429738,0.323523113953275,0.580631850652957,-0.0929905383665831,0.580631850651209,2.0605047124978,-1.01234326082896,1.7484301372592,1.19034055292755,0.0969992028618395,1.00233678973483,1.00683238348712,-0.394370836126957,1.0068323834873,0.254727506087384,-0.369161478643849,-0.00352352522092193,1.51176748387199,0.242427085247332,0.242427085247196,1.150215373466,-1.15021537346622,-0.13817923860668,1.65679781541242,-0.877626562188859,1.11550618067287,1.7964205621988,0.378252907962894,1.65669556799059,0.692544023605525,-0.993395695602792,-0.993395695602968,0.0360851783700614,-1.87165773605212,-0.832788278737745,1.02822761682016,-2.45770350749725,-0.721189945830242,1.837379843421,-0.994250114850198,-0.994250114849903,1.04723665815175,-1.43052483046426,NaN
1591.5008,0.548816136110083,-0.564587284686241,0.298968187267668,-0.0514006528451372,0.0182753868607418,0.0182753868605328,0.273717111724775,0.481329451150806,0.347533493137456,0.5831685636415,-0.097034311890371,0.583168563639786,2.07662945011582,-1.02641488970625,1.7603415460615,1.19171286721759,0.0857590698923052,1.00014762636375,0.997526099993976,-0.399701276117182,0.997526099994151,0.249544778238855,-0.388014058145329,-0.0146506316508326,1.52512137219248,0.231006154167818,0.231006154167642,1.16677246874062,-1.16677246874082,-0.157810208544112,1.67858785691194,-0.868033782397118,1.14186162326445,1.82976755799638,0.384302368301539,1.68693365396474,0.67597472652268,-1.00485676020608,-1.00485676020626,0.0340176503830588,-1.86586272162091,-0.831736791967638,1.0314887850382,-2.47248524214638,-0.728310093369992,1.83466349791086,-0.99878321716868,-0.998783217168353,1.0513075088492,-1.44128701218466,NaN
1591.6032,0.551643906255754,-0.54284668125123,0.309367690680691,-0.0519534447461823,0.00964729418221105,0.00964729418188528,0.294919605651311,0.508708389998773,0.371044119313103,0.585096427014186,-0.10106407209818,0.585096427012497,2.0915151704554,-1.03965950999781,1.77126445918238,1.19264572344133,0.0750988664468918,0.997769834689782,0.987762873614904,-0.405264877149989,0.987762873615072,0.24426937848503,-0.405956818649567,-0.0254470309285484,1.53726740374823,0.220505237822742,0.220505237822519,1.18215643251646,-1.18215643251665,-0.177481352459279,1.69817176381734,-0.858097300071514,1.16627565026076,1.86052826292058,0.390087128265786,1.71493493981663,0.659158042615643,-1.01475167458928,-1.01475167458947,0.031552607010441,-1.859604111711,-0.830782410611118,1.03367575378012,-2.48628206967821,-0.735771554184434,1.8311126665083,-1.00291127820112,-1.00291127820078,1.05472160427347,-1.4517436451332,NaN
1591.7056,0.554187892788946,-0.521502127961386,0.31936533967168,-0.0526284874716675,0.00126726513731119,0.0012672651368774,0.3155997360241,0.535595374835892,0.394038365877328,0.586421348908636,-0.10507204044998,0.586421348906971,2.10517403784174,-1.05211250627716,1.78120072847606,1.19314702940883,0.0650232631059889,0.995211259825953,0.977557979610291,-0.411052297748476,0.977557979610449,0.238915011800085,-0.422989561386576,-0.035904391245899,1.54820034447777,0.210896990157837,0.210896990157563,1.19636864286639,-1.19636864286657,-0.197200510380074,1.71554347437514,-0.847843309080456,1.18872792414632,1.88871183013988,0.395608047002995,1.74070730067043,0.642114947560827,-1.02309814042713,-1.02309814042734,0.0286780730165097,-1.85289440491706,-0.8299402336505,1.03478442764051,-2.49909451574819,-0.743578590471134,1.82673515245665,-1.00662759087197,-1.00662759087161,1.0574704852784,-1.46190093434899,NaN
1591.808,0.556437947962221,-0.500554644603539,0.328951487829632,-0.0534238727020116,-0.00684718082159207,-0.00684718082212324,0.33574651866644,0.561970563043825,0.416502105006937,0.587150600507233,-0.109049470158805,0.58715060050559,2.11761945754487,-1.06380971090006,1.79015330542541,1.1932245903694,0.0555345304209306,0.992478955842904,0.966927375248694,-0.417052514309618,0.966927375248843,0.233494662869199,-0.439114702803883,-0.0460159251486548,1.55791903709584,0.202151643390938,0.202151643390626,1.20941385049629,-1.20941385049646,-0.216974283019604,1.73070376791845,-0.837297590718425,1.20920494492009,1.91433535879584,0.400865184305369,1.76426462918465,0.624867277025845,-1.02991926650227,-1.02991926650249,0.0253843093616238,-1.84574532810469,-0.829223259168758,1.03481291686859,-2.51092303448,-0.751733315287789,1.82153975549248,-1.00992465320449,-1.00992465320412,1.05954725983752,-1.47176443224333,NaN
1591.9104,0.558385151090441,-0.480002426358804,0.338118626028603,-0.0543368585512374,-0.0146774091471045,-0.0146774091477201,0.355351456879769,0.587816448914879,0.438423665879361,0.587292775986285,-0.112986614166489,0.587292775984665,2.12886603184964,-1.07478725224102,1.79812624135985,1.19288604175291,0.0466325284209223,0.989579127656288,0.95588766370896,-0.423252782043203,0.955887663709088,0.228020568723011,-0.454337141475369,-0.0557763494697811,1.56642630043923,0.194237158082754,0.194237158082401,1.22130001333508,-1.22130001333523,-0.236807874402626,1.74366010258848,-0.826485571164491,1.22769986154694,1.93742368942743,0.40585767928311,1.78562660541492,0.607437690738631,-1.03524343942643,-1.03524343942669,0.0216636907647856,-1.83816784386796,-0.82864248337267,1.03376150213513,-2.52176795439735,-0.760235688692831,1.81553617732111,-1.01279425290033,-1.01279425289993,1.06094654131584,-1.48133905264499,NaN
1592.0128,0.560021765147303,-0.45984097570595,0.346861295330127,-0.0553638934665895,-0.0222036371414604,-0.0222036371421642,0.37440848083964,0.613117836445486,0.459793785044899,0.586857754657617,-0.116872697381472,0.586857754656016,2.13892951543382,-1.08508141553251,1.80512468335842,1.19213878420275,0.0383147010357049,0.986517076237307,0.94445606411429,-0.429638602548587,0.944456064114395,0.222504196258759,-0.468664118319689,-0.0651818394799576,1.57372878858108,0.187119386574188,0.187119386573802,1.23203815064999,-1.23203815065013,-0.256704945568953,1.75442642037667,-0.815432374665285,1.24421225419982,1.95800915482134,0.410583621123528,1.80481842634947,0.589849619363504,-1.03910416803704,-1.03910416803731,0.0175105671434152,-1.83017218292634,-0.82820702367592,1.03163259649325,-2.5316294350771,-0.769083523973454,1.80873491092026,-1.0152275703975,-1.01522757039709,1.06166438584217,-1.49062910949112,NaN
1592.1152,0.56134117960046,-0.440063255936305,0.355175979533913,-0.0565006488349638,-0.0294049172877269,-0.0294049172885092,0.392913879731907,0.637861809318124,0.480605551008057,0.585856665558267,-0.12069589154436,0.585856665556692,2.1478267730129,-1.09472850573476,1.81115487181212,1.1909899258106,0.0305760741203482,0.983297150775856,0.932650391729508,-0.436193697209933,0.932650391729598,0.216956223439744,-0.482105069329288,-0.0742299776432328,1.57983681907685,0.180762250988642,0.180762250988218,1.24164221404311,-1.24164221404324,-0.276667476051661,1.7630229224724,-0.804162867313356,1.25874789301251,1.97613128728545,0.415039927216697,1.82187050402449,0.572127194693701,-1.04153989486386,-1.04153989486415,0.0129211095864699,-1.8217678935639,-0.827924261697242,1.02843070511509,-2.54050743076257,-0.778272500805187,1.80114712458206,-1.01721528941514,-1.01721528941473,1.06169822820788,-1.4996383740951,NaN
1592.2176,0.562337840433158,-0.420659860694679,0.363060980251171,-0.0577420538455077,-0.0362591357532348,-0.0362591357540972,0.410866228284338,0.662037697897246,0.500854344057617,0.584301851990616,-0.124443291625988,0.584301851989067,2.15557574225089,-1.10376470686106,1.81622414422084,1.18944623438586,0.0234092567367677,0.979922710012237,0.920489048530202,-0.442899985140251,0.920489048530292,0.211386523820814,-0.494671472330492,-0.0829196978356269,1.58476418598138,0.175127929123702,0.175127929123254,1.2501289599994,-1.25012895999951,-0.296695629230934,1.76947582224973,-0.792701688408262,1.27131848209322,1.99183648995589,0.419222242878711,1.83681814593108,0.554295166735632,-1.04259377243444,-1.04259377243473,0.00789314337627721,-1.81296389594671,-0.827799998614131,1.02416238318436,-2.54840165662401,-0.78779618199805,1.79278455520571,-1.01874770273485,-1.01874770273443,1.06104681465675,-1.50837013831053,NaN
1592.32,0.563007170960333,-0.401619191225332,0.370516280790434,-0.0590823262451782,-0.0427430242757902,-0.042743024276697,0.428266308427262,0.685637041061384,0.520537771083115,0.5822068316052,-0.128100893536757,0.582206831603668,2.16219540291121,-1.11222593709461,1.82034094638024,1.18751409932901,0.0168044471046362,0.976396092801004,0.907991019451071,-0.449737564632365,0.907991019451155,0.205804154221314,-0.506376690911527,-0.0912512264666614,1.58852797355282,0.170177041025814,0.170177041025347,1.25751780678655,-1.25751780678666,-0.316787619988907,1.77381708600601,-0.781073268093889,1.28194139929201,2.00517768618533,0.423124871398066,1.84970123372557,0.536378813842195,-1.04231341043296,-1.04231341043326,0.00242597325019316,-1.80376852999514,-0.827838613610606,1.01883619314384,-2.55531155572039,-0.797646031341892,1.78365942270879,-1.01981480262654,-1.01981480262612,1.05971013327156,-1.51682727239217,NaN
1592.4224,0.563345488412285,-0.382927634193252,0.377543405966183,-0.060514996432928,-0.04883218251744,-0.0488321825183844,0.445117026057687,0.708653540410842,0.539655594513719,0.579586248188983,-0.131653573690132,0.579586248187469,2.16770574999915,-1.12014770370026,1.82351484757977,1.18519949868929,0.0107494455082844,0.97271859496546,0.895175865668723,-0.456684698499681,0.89517586566881,0.200217344712741,-0.517235818222922,-0.0992260221537172,1.59114837822195,0.165868834137214,0.16586883413671,1.26383066554313,-1.26383066554323,-0.336939587701342,1.77608416994698,-0.769301833044362,1.29063943894889,2.0162139621593,0.426740732531747,1.86056391152873,0.518403851504675,-1.04075060436203,-1.04075060436236,-0.00347979402816706,-1.79418959372026,-0.828043220039004,1.01246266164493,-2.56123626903408,-0.807811433860863,1.77378436724811,-1.02040635517787,-1.02040635517745,1.05768934896205,-1.52501227918052,NaN
1592.5248,0.563349920625309,-0.364569738926867,0.384145282213204,-0.0620329294463078,-0.0545011078647813,-0.0545011078657471,0.461423323079844,0.731083006650342,0.558209655425379,0.576455817507845,-0.135085071734681,0.576455817506349,2.17212776799446,-1.12756496472649,1.82575655492408,1.18250796738801,0.00522967353618306,0.968890448971415,0.882063710656781,-0.463717805928126,0.882063710656872,0.194633491705075,-0.527265521479334,-0.106846713829621,1.59264853224783,0.162161369589709,0.162161369589173,1.26909175124504,-1.26909175124513,-0.357145480087076,1.77631975368852,-0.757411405452137,1.29744055497946,2.02501020752575,0.430061336377575,1.86945428076392,0.500396340300061,-1.03796105192938,-1.03796105192971,-0.00982242934569753,-1.78423438021649,-0.828415822718745,1.00505423398397,-2.56617461296242,-0.818279723618331,1.76317239934315,-1.02051197309446,-1.02051197309406,1.05498675021149,-1.53292735537545,NaN
1592.6272,0.563018325462164,-0.346528397882687,0.390326099039369,-0.0636283541556789,-0.0597232315690862,-0.0597232315700723,0.477192085682611,0.752923300554073,0.576203792283019,0.572832276581753,-0.138377978293531,0.572832276580268,2.17548340616406,-1.1345120050545,1.82707792459168,1.17944456780031,0.000228195812430367,0.964910806264626,0.868675225465833,-0.470811464281657,0.868675225465924,0.189059157717254,-0.536483887272989,-0.114117035172637,1.59305431291155,0.159011714139809,0.159011714139234,1.27332739243805,-1.27332739243812,-0.377396954482367,1.77457146372436,-0.745425801827307,1.30237759437065,2.0316367445861,0.433076758348072,1.87642408630664,0.482382588149855,-1.0340040566061,-1.03400405660644,-0.0165992657271293,-1.77390972625333,-0.828957484326517,0.996625224266368,-2.57012506741357,-0.829036222923708,1.7518368492979,-1.02012120650519,-1.02012120650478,1.05160570809379,-1.54057446702651,NaN
1592.7296,0.562349214026762,-0.328785032673603,0.396091171948571,-0.0652929065357229,-0.0644709631728255,-0.0644709631738345,0.492432050032107,0.774174271305805,0.593643757061916,0.568733344369975,-0.141513729205322,0.568733344368504,2.1777955571529,-1.14102233385049,1.82749197017449,1.17601386659884,-0.00427425710242618,0.960777725075231,0.855031623573702,-0.477938422441216,0.855031623573799,0.183500080366658,-0.544910269005914,-0.121041754388646,1.59239412432045,0.156376138965625,0.156376138965011,1.27656585309054,-1.2765658530906,-0.397683305742307,1.7708915825113,-0.733368636388394,1.30548801424256,2.03616893358534,0.435775609785846,1.88152838094951,0.464389041716957,-1.02894221781522,-1.02894221781556,-0.0238068871417132,-1.76322208004354,-0.829668503979944,0.987191763796523,-2.57308577607161,-0.840064291645735,1.73979130764483,-1.01922365929056,-1.01922365929015,1.04755064508604,-1.54795543897123,NaN
1592.832,0.561341677121002,-0.311319783360201,0.401446807155808,-0.0670176870900937,-0.0687157472386155,-0.0687157472396403,0.507153706059383,0.794837693697337,0.610537129710534,0.564177693778915,-0.14447260681881,0.564177693777456,2.17908804036761,-1.14712860778464,1.82701286834128,1.17221992004143,-0.00829926016504411,0.956488166793219,0.841154669870084,-0.485069624641459,0.841154669870183,0.177961188988761,-0.552565138273384,-0.127626601080068,1.59069865054129,0.154210319814529,0.154210319813874,1.27883716122409,-1.27883716122415,-0.417991429199459,1.76533674504811,-0.721263331024414,1.3068135831947,2.03868675028307,0.438145006076208,1.884825166071,0.446442165400273,-1.02284111029447,-1.0228411102948,-0.0314413173284928,-1.75217758656633,-0.830548603911056,0.976771752466567,-2.57505455889702,-0.851345382134381,1.72704955647781,-1.01780912229876,-1.01780912229835,1.04282701258493,-1.55507205595277,NaN
1592.9344,0.559995312760095,-0.294111695828213,0.40640016795807,-0.0687933269611097,-0.0724281357259436,-0.0724281357269966,0.521369199581127,0.814917204394465,0.626893231184928,0.559184929109406,-0.147233748114437,0.55918492910795,2.17938559044997,-1.15286257872363,1.82565596249138,1.1680662684976,-0.0118706525776067,0.952038003651122,0.827066702291923,-0.492174242496827,0.827066702292029,0.172446625294769,-0.559469941648031,-0.133878192978903,1.58800058902251,0.152469530569009,0.152469530568322,1.280172928068,-1.28017292806804,-0.438305820656693,1.75796762894777,-0.709133131868405,1.3064000727108,2.03927434161473,0.440170537245075,1.88637501586078,0.428568309930793,-1.01576895391889,-1.0157689539192,-0.0394982039191687,-1.74078218235702,-0.83159711682295,0.965384816478542,-2.57602893507281,-0.862859095338944,1.71362549822874,-1.01586770650351,-1.0158677065031,1.0374412768577,-1.56192617363466,NaN
1593.0368,0.558310153033567,-0.277138900484936,0.410959143626836,-0.0706100547793448,-0.075577874867304,-0.0755778748683695,0.535092232665411,0.834418236291383,0.642723034659198,0.553775561755014,-0.149775159237025,0.553775561753562,2.1787138508306,-1.15825506048633,1.82343776594752,1.16355594059267,-0.0150144776474822,0.947422039833779,0.812790662377988,-0.499219712848485,0.812790662378099,0.166959765169022,-0.565646965280881,-0.139803965314391,1.58433437853751,0.15110882493021,0.151108824929498,1.28060614853412,-1.28060614853416,-0.458608611371298,1.74884864711127,-0.697001131515204,1.30429694795671,2.03801957186394,0.441836250070775,1.88624069995544,0.410793575041751,-1.0077962737132,-1.00779627371349,-0.047972992875352,-1.72904168888661,-0.832813165035782,0.953052274965315,-2.57600615439188,-0.874583234293849,1.69953309263865,-1.01338995897884,-1.01338995897843,1.03140091275562,-1.56851983382846,NaN
1593.1392,0.556286591158597,-0.260378775195699,0.415132224140563,-0.072457756557049,-0.0781339994845471,-0.0781339994856232,0.548337961629519,0.853347948780881,0.658039073756911,0.547970977590208,-0.15207373630962,0.547970977588759,2.17709937187388,-1.1633359088878,1.8203759658669,1.15869146553619,-0.0177588998410659,0.942634046002801,0.798350129048719,-0.506171780028588,0.79835012904884,0.161503239858338,-0.571119210606995,-0.145412105263619,1.57973593682004,0.150083203690334,0.150083203689603,1.28017099217485,-1.28017099217487,-0.478879635986089,1.73804765310527,-0.684890295992212,1.30055706822431,2.03501357525972,0.443124652491915,1.88448682309948,0.393143672355175,-0.998995552911635,-0.998995552911911,-0.0568610881212404,-1.71696189489423,-0.834195822992465,0.939797117599,-2.57498323670864,-0.886493852723103,1.68478631228645,-1.01036695040965,-1.01036695040924,1.02471440130194,-1.57485537114152,NaN
1593.2416,0.55392531093355,-0.243808089236052,0.418928383935057,-0.0743260244646832,-0.0800649265479666,-0.0800649265490121,0.561122891819651,0.871715151696212,0.672855346466124,0.541793392052621,-0.154105292626206,0.541793392051172,2.17456961160769,-1.16813401028609,1.81648942726244,1.15347489002136,-0.0201340991767373,0.937666804237088,0.783769347531147,-0.512994543402311,0.78376934753128,0.156078956323504,-0.575910282300822,-0.150711492109793,1.57424241768154,0.14934776824957,0.149347768248829,1.27890260634452,-1.27890260634453,-0.499096529412311,1.72563566420239,-0.672823497458643,1.29523640127301,2.03035032704106,0.444016744493158,1.88117949380957,0.375643793924484,-0.989440884659226,-0.989440884659497,-0.0661579952961123,-1.70454862522417,-0.83574426115804,0.925643990852438,-2.57295702050879,-0.89856530171453,1.66939911989563,-1.00679033466383,-1.0067903346634,1.01739122111778,-1.58093549546388,NaN
1593.344,0.551227220097727,-0.227403131996057,0.422356974706096,-0.0762041967414532,-0.0813385464897904,-0.0813385464908139,0.573464768952309,0.889530222369771,0.68718721440076,0.535265794284849,-0.15584459225556,0.5352657942834,2.17115293544793,-1.17267727598354,1.8117981943426,1.14790779629765,-0.0221721482809931,0.932512159041224,0.769073247154991,-0.519650512728079,0.769073247155141,0.150688118182458,-0.580044285958052,-0.155711641176117,1.567891985328,0.148857864939248,0.148857864938501,1.27683694417327,-1.27683694417327,-0.519234847072939,1.71168659816389,-0.660823555200841,1.28839374636192,2.02412623283216,0.444492069248927,1.87638601861863,0.35831848788856,-0.979207626151325,-0.979207626151593,-0.0758594540721313,-1.69180780364553,-0.837457878223518,0.910619185436796,-2.56992422261984,-0.910770282980587,1.65338546103556,-1.00265239506175,-1.00265239506132,1.00944182180536,-1.58676334100463,NaN
1593.4464,0.548193388126154,-0.211139834429069,0.425427624875406,-0.0780813958176918,-0.0819223193883708,-0.0819223193893723,0.585382467907597,0.906805017545813,0.701051298597744,0.528411886369441,-0.157265389783077,0.52841188636799,2.16687861141405,-1.17699264226072,1.80632348576465,1.14199132060841,-0.023906879191606,0.927161071673348,0.754287448389901,-0.526100672970711,0.754287448390069,0.145331248915514,-0.583545731706958,-0.160422648917119,1.56072359362051,0.148569225435301,0.148569225434545,1.27401060723611,-1.27401060723611,-0.539268206371999,1.69627701460971,-0.648913285497693,1.28009045681023,2.01643972552273,0.444528774267593,1.870174607704,0.341191538264585,-0.968372055949534,-0.968372055949806,-0.0859615638987421,-1.67874552132207,-0.839336430776541,0.894750618537737,-2.56588151177797,-0.923079916655081,1.63675926191959,-0.997946097212916,-0.997946097212483,1.00087757534287,-1.59234248523317,NaN
1593.5488,0.544824988429977,-0.194993889547077,0.428150143428165,-0.0799465708161378,-0.0817833831935987,-0.0817833831945866,0.596895880384006,0.923552782745676,0.714465373680831,0.521256023618926,-0.158340475652841,0.521256023617475,2.16177679971503,-1.18110607599874,1.80008768270504,1.1357261739954,-0.0253737441863628,0.921603678169564,0.739438265042268,-0.532304558634946,0.739438265042455,0.140008218144439,-0.586439442023615,-0.164855137945973,1.55277675923815,0.148438105298038,0.148438105297271,1.27046068708465,-1.27046068708464,-0.559168451573448,1.6794858534743,-0.637115556835736,1.27039015678453,2.00739085967991,0.444103676313246,1.86261408051676,0.324285844993634,-0.957011034757309,-0.957011034757593,-0.096460903938682,-1.66536811833265,-0.841380164440517,0.878067810688398,-2.56082559804122,-0.935463825156338,1.61953442503524,-0.992665158161134,-0.992665158160697,0.991710711340888,-1.59767694984525,NaN
1593.6512,0.541123244748541,-0.178940873308563,0.430534427442622,-0.0817885458224085,-0.0808886726464478,-0.0808886726474351,0.608025802303378,0.939788060511605,0.727448261472453,0.513823158789255,-0.159041726980243,0.513823158787804,2.15587853891425,-1.18504258519751,1.79311431213233,1.12911266926292,-0.0266096718050877,0.915829353823544,0.724552708609899,-0.538220337560235,0.724552708610099,0.134718271550148,-0.588750464835999,-0.169020202118768,1.54409132695446,0.148421419594344,0.148421419593564,1.26622461039775,-1.26622461039773,-0.578905843785138,1.66139416874313,-0.625453345437341,1.25935845335365,1.99708090247078,0.443192329385473,1.85377357020323,0.307623303136112,-0.945201672378627,-0.945201672378912,-0.107354644951508,-1.6516822781961,-0.843589944708778,0.860601861583374,-2.55475333776677,-0.947890228824321,1.60172482135903,-0.986804126615362,-0.986804126614934,0.981954242842436,-1.60277119284717,NaN
1593.7536,0.537089381348604,-0.162956362959248,0.432590374016702,-0.0835960705237797,-0.0792050431959104,-0.0792050431968996,0.618793821201622,0.955526597437091,0.740019724178383,0.506138789486466,-0.159340164585402,0.506138789485014,2.14921573228247,-1.18882623399672,1.78542802896971,1.12215075765096,-0.0276529173379684,0.909826787238887,0.709658498923994,-0.543804903725293,0.70965849892419,0.129460064923773,-0.590503994373266,-0.172929352421423,1.53470723419062,0.148476874452891,0.148476874452112,1.26134000886858,-1.26134000886855,-0.598449273505726,1.64208486160593,-0.613949788436375,1.24706264928039,1.98561192790926,0.441769098522343,1.84372223380759,0.291224683323103,-0.933021004837423,-0.933021004837715,-0.118640650429301,-1.63769512897898,-0.845967382415555,0.842385428959136,-2.54766185153412,-0.960326047593284,1.58334428490602,-0.980358461622572,-0.980358461622143,0.971621885940048,-1.60763009189291,NaN
1593.856,0.532724575731915,-0.14701604811764,0.434327797095967,-0.085357866324243,-0.0766993984548,-0.0766993984558011,0.629222203918206,0.970785249520574,0.752200357193716,0.498228904021535,-0.159206017333868,0.498228904020084,2.14182113635707,-1.19248016112991,1.77705459945288,1.1148400763591,-0.0285429053195037,0.903584065613535,0.694784079259347,-0.549013977037309,0.694784079259532,0.124231702121824,-0.591725301670034,-0.176594464608495,1.52466428771004,0.148563096000661,0.148563095999892,1.25584462488554,-1.25584462488551,-0.617766487222924,1.62164242037482,-0.602628235478467,1.23357146322013,1.97308642463256,0.439807244792216,1.83252897937196,0.275109517167192,-0.920545682054103,-0.920545682054419,-0.130317564723385,-1.62341434055913,-0.848514947281857,0.8234527116162,-2.53954865073794,-0.972737004718655,1.56440662078945,-0.973324596746247,-0.973324596745814,0.960727978904062,-1.61225891590027,NaN
1593.9584,0.528029911927885,-0.131095831469212,0.435756348571294,-0.0870626602152891,-0.0733388220845986,-0.0733388220855836,0.639333785281645,0.985581885554532,0.764011481894294,0.490119918683551,-0.158608794562527,0.490119918682102,2.13372835130729,-1.19602659900683,1.76802088609506,1.10718000531577,-0.0293200623836291,0.897088770427203,0.679958627529393,-0.553802207597583,0.679958627529565,0.119030776360287,-0.592439674389381,-0.18002772879107,1.51400196697556,0.148639760432232,0.148639760431464,1.24977624571408,-1.24977624571404,-0.636824312147247,1.60015267247359,-0.591512301154515,1.21895476112113,1.95960692736679,0.43727902693492,1.82026222106371,0.259295991903538,-0.907851662271467,-0.907851662271801,-0.142384887720033,-1.60884820830437,-0.851236064710517,0.80383943345033,-2.53041176784872,-0.985087732080371,1.54492563700201,-0.965699981428779,-0.965699981428349,0.949287410661516,-1.61666328605196,NaN
1594.0608,0.52300633470592,-0.115171919272131,0.436885443879283,-0.0886992029069326,-0.0690907116080766,-0.0690907116090491,0.649151858439524,0.999935288017375,0.775475038661037,0.481838601623783,-0.157517367107222,0.481838601622329,2.12497181103962,-1.19948689231623,1.75835483253284,1.09916972924559,-0.0300256431770613,0.890328079508267,0.6652120527783,-0.558123283653174,0.665212052778457,0.113854414334744,-0.592672363929213,-0.1832416004179,1.50275926279008,0.148667725585384,0.148667725584629,1.24317265334488,-1.24317265334483,-0.655588863815591,1.57770254886127,-0.580625920483734,1.20328329795211,1.94527567955264,0.434155819396184,1.80698966825024,0.243800857852404,-0.895013910866263,-0.895013910866612,-0.154843037770824,-1.59400572055871,-0.854135195962533,0.783582822599979,-2.52024988758857,-0.997341880768343,1.52491520087867,-0.957483102541625,-0.957483102541179,0.93731556571725,-1.62084913103084,NaN
1594.1632,0.517654608976372,-0.0992209039402577,0.437724195194986,-0.0902562759798616,-0.0639229110901575,-0.063922911091129,0.658700066901218,1.01386505068509,0.786613479912961,0.473411985044952,-0.155900057539277,0.473411985043493,2.11558677028414,-1.20288152080389,1.74808544418057,1.09080830008998,-0.03070155571295,0.883288869554584,0.650574972423086,-0.561930045093648,0.650574972423225,0.108699322736795,-0.592448538435501,-0.186248752323602,1.49097454583705,0.148609157804309,0.148609157803556,1.2360715806407,-1.23607158064066,-0.674025737570364,1.55437985797166,-0.569993408582998,1.18662846630926,1.93019432755663,0.430408238555161,1.79277814452012,0.228639349151226,-0.882106106058755,-0.882106106059105,-0.167693403964022,-1.57889661745254,-0.857217906020453,0.762721581357666,-2.50906248158562,-1.00946224286622,1.50438930962958,-0.94867350274345,-0.948673502742997,0.924828285563604,-1.62482264159419,NaN
1594.2656,0.511975288719012,-0.0832198420036052,0.438281354998671,-0.0917226984913926,-0.0578038449090323,-0.0578038449100051,0.668002297800275,1.02739147281292,0.797449662769772,0.464867274077388,-0.153724740391248,0.464867274075921,2.10560928668442,-1.20623013272163,1.73724276086431,1.08209469717311,-0.0313901925891432,0.875957815081848,0.636078676413311,-0.565174606145569,0.636078676413432,0.103561838204975,-0.59179324115456,-0.189062026977997,1.47868544776041,0.14842764868502,0.148427648684269,1.22851067051203,-1.22851067051198,-0.692100198804439,1.53027306330528,-0.559639523004577,1.16906204707682,1.91446363573132,0.426006267827637,1.77769342300914,0.213825114526658,-0.869200355532283,-0.869200355532644,-0.180938387768383,-1.5635314538707,-0.860490925066988,0.741295845579108,-2.49684995202447,-1.02141088945545,1.48336216036039,-0.939271817322499,-0.939271817322038,0.911841842036128,-1.62859022922379,NaN
1594.368,0.505968695483646,-0.0671463316864062,0.438565268533571,-0.0930873415183392,-0.050702658911174,-0.050702658912146,0.677082575989687,1.04053545091619,0.808006741441334,0.456231761592126,-0.150958952771549,0.456231761590654,2.09507619745349,-1.20955158965573,1.72585782079875,1.07302788614971,-0.0321342718109574,0.868321483545716,0.621755088256262,-0.56780849023837,0.621755088256362,0.0984379834650769,-0.590731352981471,-0.191694386793228,1.46592873871813,0.148088322949062,0.148088322948321,1.2205274443059,-1.22052744430585,-0.709777381638393,1.50547105615165,-0.549589523714046,1.15065595668732,1.89818320561962,0.420919378888804,1.76180006302879,0.199370154353993,-0.856366925438661,-0.856366925439036,-0.194581435183859,-1.54792167575233,-0.863962208684455,0.719347133429299,-2.48361378746152,-1.03314932718431,1.46184821069421,-0.929279843464231,-0.929279843463757,0.898372916486416,-1.63215849325933,NaN
1594.4704,0.499634903716211,-0.050978592996558,0.438583831602766,-0.0943391526399665,-0.0425893733179481,-0.042589373318918,0.685964959080712,1.0533183694999,0.818308059882134,0.447532752797496,-0.147570014755407,0.44753275279602,2.08402509128997,-1.21286401779065,1.71396261801772,1.06360687931285,-0.0329766874561206,0.86036642867644,0.607636728262668,-0.5697827774491,0.607636728262741,0.093323531402428,-0.589287557926374,-0.194158860897054,1.45274019684364,0.147557939891099,0.14755793989036,1.21215929039416,-1.2121592903941,-0.727022495243172,1.48006291831496,-0.539869224394421,1.13148198951919,1.8814511896683,0.415116651584557,1.74516124154893,0.18528476283881,-0.84367398145902,-0.843673981459403,-0.208627059962746,-1.53207971029346,-0.867640997477783,0.696918284672105,-2.46935673032285,-1.04463867192005,1.43986222936794,-0.918700641307832,-0.918700641307335,0.884438578909729,-1.63553419884579,NaN
1594.5728,0.492973730349699,-0.03469554871632,0.438344451942273,-0.0954671866529103,-0.033435047564278,-0.0334350475652359,0.694673433614556,1.06576199120876,0.828377044998855,0.438797497219988,-0.143525158416105,0.438797497218501,2.07249427703393,-1.21618486091891,1.70159005607402,1.05383079971636,-0.0339603670397042,0.852079284960068,0.593756679485143,-0.571048263073207,0.593756679485193,0.088214076265091,-0.587486311215944,-0.196468488734283,1.43915447604925,0.146804987825577,0.146804987824853,1.20344347841028,-1.20344347841021,-0.743801034731635,1.45413767816778,-0.530505030308262,1.11161156127945,1.86436400310311,0.408566896116891,1.72783858439526,0.171577477020812,-0.831187341982241,-0.83118734198264,-0.223080854982998,-1.51601906324592,-0.871537870711674,0.674053394215943,-2.4540829534247,-1.05583983410978,1.41741934179675,-0.907538652192955,-0.90753865219245,0.870056264239472,-1.63872426431806,NaN
1594.6752,0.485984726357726,-0.0182769001084907,0.437854014288188,-0.0964606351351355,-0.0232119558243663,-0.0232119558253193,0.703231812254959,1.07788834590259,0.838237100166247,0.4300531216241,-0.138791665004366,0.430053121622608,2.06052275062347,-1.21953093300853,1.68877390018429,1.04369895066519,-0.0351281293633077,0.843446866368164,0.580148553902043,-0.571555625142492,0.580148553902074,0.0831051100072035,-0.585351810734099,-0.19863626199341,1.42520498503271,0.145799771074025,0.145799771073317,1.19441719918159,-1.19441719918152,-0.760078992691963,1.42778406925468,-0.521523960743599,1.09111546337273,1.84701604675937,0.401238782416573,1.70989201013708,0.158255036214886,-0.818970244224208,-0.818970244224604,-0.237949486456285,-1.49975441218131,-0.875664784689922,0.650797744362103,-2.43779824121685,-1.06671370864326,1.39453507934741,-0.895799811576593,-0.895799811576091,0.855243747954138,-1.64173575318876,NaN
1594.7776,0.47866716900432,-0.00170319003689945,0.437118850603781,-0.0973088461700822,-0.0118937710450826,-0.0118937710460154,0.711663631846299,1.08971961760714,0.847911498586708,0.421326555744711,-0.133337010454974,0.421326555743211,2.04815016066065,-1.22291846796847,1.67554872880414,1.03321089014887,-0.0365225356752479,0.83445627110208,0.566846453456217,-0.571255597932312,0.566846453456211,0.0779921015606287,-0.582907972783838,-0.200675066606619,1.41092379280303,0.144514490486678,0.14451449048598,1.18511762711871,-1.18511762711863,-0.775823064258193,1.40109030205414,-0.512953657279799,1.07006363782233,1.82949945754376,0.393100983162515,1.69137960360606,0.14532235667287,-0.807083125087967,-0.807083125088363,-0.253240665875145,-1.48330168333694,-0.88003508620233,0.62719773875819,-2.42051017091693,-1.07722136301705,1.3712254433279,-0.883491636042473,-0.883491636041964,0.840019127526204,-1.64457586559255,NaN
1594.88,0.47102005688793,0.0150441504367671,0.436144718800473,-0.0980013285432394,0.000544248411926501,0.000544248411005013,0.719992052513139,1.10127802789749,0.857423276113665,0.412644444361988,-0.127129019142126,0.41264444436048,2.03541677059771,-1.22636316302906,1.66194988369614,1.02236650700832,-0.0381857304070568,0.825094990826427,0.553884918239897,-0.570099148609819,0.55388491823986,0.0728705763993557,-0.580178412521304,-0.202597626558259,1.39634157226313,0.142923317462952,0.142923317462267,1.17558199358557,-1.17558199358549,-0.791000838690086,1.37414385759581,-0.504822381182595,1.04852497931628,1.81190390202222,0.384122333977265,1.67235753347762,0.132782525954429,-0.795583420393212,-0.795583420393616,-0.268963096641927,-1.46667810420341,-0.884663495045644,0.603300838678185,-2.40222829096367,-1.0873242214294,1.34750699060615,-0.870623276051488,-0.870623276050977,0.8244008175324,-1.64725192747955,NaN
1594.9824,0.463042113161717,0.0319827702108786,0.434936794238669,-0.0985277425152268,0.0141250772550647,0.0141250772541726,0.728239758072566,1.1125857144472,0.866795123283066,0.40403304490029,-0.120136025631804,0.404033044898776,2.02236341337577,-1.22988021486667,1.64801341461521,1.01116609312777,-0.0401592738073307,0.815351019038208,0.541298855066927,-0.568037656565258,0.541298855066862,0.0677361940308504,-0.577186428137665,-0.20441645053289,1.38148758115436,0.141002458865827,0.141002458865161,1.16584765621211,-1.16584765621202,-0.805580975990889,1.34703130505998,-0.497159003116137,1.02656716467111,1.79431641872811,0.374272005632845,1.65288001571148,0.120636818647186,-0.784525388105507,-0.784525388105932,-0.285126395801669,-1.44990223516219,-0.889566057469983,0.579155499239251,-2.38296429798917,-1.09698424791087,1.32339693468851,-0.857205544470221,-0.857205544469713,0.808407563103759,-1.64977138126171,NaN
1595.0848,0.454731802212155,0.049129375130531,0.433499676709014,-0.0988778872678309,0.0288697496956573,0.0288697496948127,0.736428857382944,1.12366460468646,0.876049276283315,0.395518116980172,-0.112327044739365,0.395518116978653,2.00903143453966,-1.2334843523788,1.63377601354953,0.999610406436711,-0.0424839731052109,0.805212952351415,0.529123446419978,-0.565023098324179,0.529123446419881,0.062584823124689,-0.57395498710883,-0.20614378086351,1.3663896655227,0.138730208504146,0.138730208503491,1.15595215665626,-1.15595215665617,-0.81953337460946,1.31983813600371,-0.48999298680646,1.00425650170303,1.77682129893353,0.363519674882749,1.63299930744332,0.108884730641692,-0.773959961012905,-0.773959961013344,-0.301740994973758,-1.4329939933776,-0.894760079821784,0.554811100921483,-2.36273221507963,-1.10616413481758,1.29891324426556,-0.843250944520796,-0.84325094452028,0.792058471416935,-1.65214178691791,NaN
1595.1872,0.446087361076669,0.0664997067595939,0.431837411533834,-0.0990416967542353,0.044797189439815,0.0447971894389706,0.744580785658875,1.13453628630118,0.885207406815286,0.387124813970429,-0.103671950105517,0.387124813968908,1.99546262293448,-1.2371898700467,1.61927493649754,0.987700724117121,-0.0451997195256781,0.794670082044786,0.517394048442112,-0.561008242481943,0.517394048441987,0.0574126166338423,-0.5705067131922,-0.20779154280154,1.35107426623166,0.136086982885766,0.136086982885129,1.14593326595047,-1.14593326595038,-0.83282933902351,1.29264860132639,-0.483354365041992,0.981657784982255,1.75949998436272,0.351835682801724,1.61276570798909,0.0975240259041811,-0.763934629223387,-0.763934629223836,-0.318818027026026,-1.41597468223754,-0.900264053607621,0.530317871541388,-2.34154857187788,-1.11482750168599,1.27407472262924,-0.828773718636025,-0.828773718635498,0.775373056075109,-1.65437084208228,NaN
1595.2896,0.437106842113931,0.0841085162918513,0.429953519211876,-0.099009250456569,0.0619240372503332,0.0619240372495114,0.752716205520045,1.14522187773822,0.894290511777732,0.378877584089187,-0.0941416603476355,0.378877584087658,1.98169913112735,-1.24101066204119,1.60454791485825,0.975438889895867,-0.0483453356215935,0.783712477731309,0.506146088449421,-0.55594685732231,0.506146088449264,0.0522160895080419,-0.566863873011714,-0.209371292052081,1.33556641601995,0.133055344655268,0.133055344654652,1.13582901967674,-1.13582901967664,-0.845441749840564,1.26554553718813,-0.477273702663227,0.958834148107039,1.74243096069873,0.339191180930071,1.59222754997577,0.0865507893633309,-0.754493345249773,-0.754493345250244,-0.336369205564563,-1.39886703180262,-0.906097580012735,0.505726794890677,-2.31943258320441,-1.12293910575665,1.24890106226934,-0.813789925229212,-0.81378992522868,0.758371286363652,-1.65646642193427,NaN
1595.392,0.427788162197721,0.101969529591704,0.427851027840703,-0.0987707987355199,0.0802644749134658,0.0802644749126722,0.760854908941284,1.15574190184674,0.903318804630864,0.370800083069185,-0.0837083314624588,0.370800083067649,1.96778338860825,-1.24496025636465,1.58963305966209,0.962827359382387,-0.051958431265322,0.772331066877173,0.495414966609447,-0.549793929800725,0.495414966609262,0.0469921986145521,-0.563048360892783,-0.210894160237351,1.31988972567086,0.129620020004881,0.129620020004287,1.12567775059378,-1.12567775059367,-0.857345231170026,1.23861017391631,-0.471782041595204,0.935846909469621,1.72568963780922,0.325558272108653,1.57143117689219,0.0759594820737479,-0.745676442093046,-0.745676442093518,-0.354406701354063,-1.38169524665671,-0.912281295427815,0.481089504864057,-2.29640632039966,-1.13046506127713,1.2234128784161,-0.798317535799606,-0.79831753579907,0.741073636129998,-1.65843663226821,NaN
1595.4944,0.418129155855076,0.120095405077313,0.425532506573604,-0.0983167976247462,0.0998300496971519,0.099830049696393,0.769015721470982,1.1661161637316,0.912311609716947,0.362915095683162,-0.0723455548243724,0.362915095681621,1.95375801036575,-1.24905184913975,1.57456876118036,0.94986924503496,-0.0560752610778713,0.760517713593369,0.485235960395993,-0.542505891840106,0.485235960395775,0.0417384215799235,-0.559081681556669,-0.212370800100208,1.30406636706664,0.1257679136604,0.125767913659822,1.11551812723428,-1.11551812723417,-0.868516309134497,1.21192193382457,-0.466910827263979,0.912755417601506,1.70934822395432,0.310910151199508,1.5504209157012,0.0657429990447515,-0.73752055974962,-0.737520559750085,-0.372943013920809,-1.36448505091749,-0.918836791908148,0.456458168130661,-2.27249486958772,-1.137373060664,1.19763173004018,-0.782376535382974,-0.78237653538242,0.723501130905082,-1.66028986487995,NaN
1595.5968,0.408127631263742,0.138497690759207,0.423000101387771,-0.0976379451976332,0.120629504573736,0.120629504573011,0.777216408889684,1.17636363101015,0.921287259029263,0.355244460627424,-0.0600285599852985,0.355244460625877,1.93966570261694,-1.25329833543729,1.55939358671413,0.936568361317385,-0.0607305761220777,0.748265299273046,0.475644127753964,-0.534040850745647,0.47564412775371,0.0364528316305031,-0.554984931601094,-0.213811332599941,1.28811706683724,0.121488122365496,0.121488122364928,1.10538919804979,-1.10538919804968,-0.878933557238103,1.18555823020811,-0.462691817273293,0.889616907462702,1.69347561003264,0.295221251342679,1.52923906052302,0.0558927341202849,-0.730058581428948,-0.730058581429414,-0.391990832947605,-1.34726371780366,-0.925786522558995,0.431885360512095,-2.24772647221799,-1.14363258939748,1.1715801388689,-0.765989005776585,-0.765989005776021,0.705675391506546,-1.66203484338902,NaN
1595.6992,0.397781428118372,0.157186787343857,0.420255574741137,-0.0967252111033115,0.142668617306088,0.142668617305394,0.78547358516154,1.18650231301591,0.930262989477547,0.347808991412098,-0.0467344205804599,0.347808991410545,1.92554916598214,-1.25771232834195,1.54414617924084,0.922929269244889,-0.0659574666366872,0.735567805368975,0.466674202405943,-0.524358822986084,0.466674202405657,0.0311341674161718,-0.550778781429581,-0.215225297217665,1.27206112608104,0.116771944874607,0.116771944874044,1.09533043079009,-1.09533043078998,-0.888577724209166,1.15959427725685,-0.459156971018391,0.866486377817687,1.67813727874625,0.278467405242487,1.50792588448414,0.0463986583215695,-0.723319584115599,-0.723319584116076,-0.411562885305532,-1.33006007349491,-0.933153683881608,0.407423939691429,-2.22213264484984,-1.14921513005111,1.14528161616482,-0.749179175452988,-0.749179175452417,0.687618673734895,-1.66368065305511,NaN
1595.8016,0.387088477844111,0.176171922386001,0.417300351346782,-0.095569854451188,0.165950048693618,0.165950048692949,0.793802620193331,1.19654913627384,0.939254838742084,0.340628385779849,-0.0324422618498971,0.34062838577829,1.91145099382173,-1.26230616156137,1.52886515601118,0.908957315529026,-0.0717871962139428,0.722420394273774,0.458360471890752,-0.513421971598933,0.458360471890428,0.0257818972504114,-0.546483460040698,-0.216621606836701,1.25591647586622,0.111612879376812,0.111612879376243,1.08538173567217,-1.08538173567206,-0.89743184317582,1.13410291546587,-0.456338319756883,0.843416494388099,1.66339524729645,0.260626028510933,1.48651969043746,0.0372494164420287,-0.71732880953887,-0.717328809539361,-0.43167176684154,-1.31290447155747,-0.940962072677568,0.383126912715861,-2.19574827791961,-1.15409435673939,1.11876070009986,-0.731973433008056,-0.73197343300748,0.6693539073717,-1.66523675701363,NaN
1595.904,0.37604686903306,0.195461136232918,0.41413557296156,-0.0941634334078431,0.190473198403062,0.19047319840243,0.80221754697078,1.20651981642145,0.948277539490714,0.333721121568222,-0.0171334698232983,0.333721121566656,1.89741356195946,-1.2670918819062,1.51358900153541,0.894658659950295,-0.0782490316341293,0.708819481849473,0.450736632467682,-0.501194847401911,0.450736632467316,0.0203962774170573,-0.542118744701937,-0.2180085082684,1.23969976364233,0.106006595778857,0.106006595778285,1.07558346883719,-1.07558346883707,-0.905481327930234,1.10915445210454,-0.45426782171247,0.820457515828563,1.64930804108408,0.241676320429765,1.46505689604733,0.0284324408548985,-0.712107658774369,-0.712107658774872,-0.452329760826212,-1.29582874331028,-0.949235921470829,0.359047295153603,-2.16861171568704,-1.1582463244921,1.09204299456018,-0.714400316361817,-0.714400316361224,0.650904735198209,-1.66671300756994,NaN
1596.0064,0.364654920739614,0.215061274848823,0.41076216283423,-0.0924978169414922,0.216234066260387,0.216234066259775,0.810730969257464,1.21642872978261,0.957344413849986,0.327104345829827,-0.000791903229973577,0.327104345828249,1.88347890781237,-1.27208124451984,1.49835594928978,0.880040289171088,-0.0853700759431027,0.694762797909084,0.443835625516222,-0.487644634212404,0.443835625515813,0.0149784056539491,-0.537703955179056,-0.219393547615487,1.22342645197921,0.0999508774006335,0.0999508774000446,1.06597642176043,-1.06597642176031,-0.912714064032738,1.08481651025164,-0.452977208324117,0.797657232873647,1.63593068353928,0.221599466254396,1.44357213276662,0.0199340752664866,-0.707673707372214,-0.707673707372736,-0.473548646852825,-1.27886613526474,-0.957999720528458,0.335237959998643,-2.1407648188605,-1.16164965640669,1.06515519294301,-0.696490497059821,-0.696490497059218,0.632295547192164,-1.6681196635896,NaN
1596.1088,0.352911263120224,0.234977981936308,0.407180896617243,-0.0905652085369095,0.243225117608391,0.24322511760782,0.819353971570094,1.2262887888588,0.966467270737181,0.32079376744712,0.0165958916979456,0.32079376744553,1.86968859980157,-1.2772857178374,1.48320385099817,0.865110020492874,-0.093175111498572,0.680249435534882,0.437689466624681,-0.47274139802289,0.437689466624229,0.00953027159487712,-0.533257950502245,-0.220783538543468,1.20711091065063,0.093445535907561,0.0934455359069574,1.05660180503639,-1.05660180503626,-0.919120498173325,1.06115387623212,-0.452497822422357,0.775060910403518,1.62331468314162,0.200378827368986,1.42209833609742,0.0117396999295618,-0.704040734790805,-0.704040734791354,-0.495339504419078,-1.26205124204256,-0.967278033649797,0.311751475917018,-2.11225300828892,-1.16428572785083,1.03812507478224,-0.678276772578577,-0.678276772577953,0.61355150539823,-1.66946742280583,NaN
1596.2112,0.340814922168001,0.255215684977912,0.403392474838101,-0.0883581851883243,0.271435152936686,0.271435152936165,0.828096032172659,1.23611132466033,0.975656307552425,0.314803559582954,0.0350404651699059,0.31480355958136,1.85608359895954,-1.28271649258958,1.4681700370231,0.849876500646325,-0.101686455624074,0.665279892618673,0.432329076387387,-0.456458339553974,0.432329076386884,0.00405480516848993,-0.528799127044493,-0.222184532338869,1.19076649387407,0.0864923073498823,0.0864923073492603,1.04750122909193,-1.0475012290918,-0.924693724579926,1.03822833817189,-0.452860443971511,0.752711227802538,1.61150800431248,0.178000120493439,1.40066681697571,0.00383385383810972,-0.701218764722955,-0.701218764723515,-0.517712514251359,-1.24541993529345,-0.977095310353088,0.288639935077881,-2.08312528568768,-1.16613884469387,1.01098147337363,-0.659794066095145,-0.659794066094492,0.59469855881978,-1.6707674703733,NaN
1596.3136,0.328365404534938,0.27577757334888,0.399397592601195,-0.0858697487597605,0.300849183992007,0.300849183991525,0.836964938991888,1.2459059767648,0.984920016471573,0.309146273475295,0.0545492491112674,0.30914627347369,1.8427041145058,-1.28838448091677,1.45329117363329,0.834349204562394,-0.11092382856876,0.64985610976068,0.427784116631945,-0.438772048803416,0.427784116631386,-0.00144407686007243,-0.52434541757521,-0.223601789499428,1.17440560536,0.0790947392663694,0.0790947392657243,1.03871667128316,-1.03871667128304,-0.929429562535932,1.01609851541816,-0.454095100706104,0.730648218843799,1.60055501842015,0.154451598098898,1.37930731767531,-0.00379964575822869,-0.699214116198443,-0.699214116199012,-0.540676759106567,-1.22900928255113,-0.987475693025793,0.265954771130341,-2.05343422651318,-1.16719641165413,0.983754221140588,-0.641079423666892,-0.641079423666205,0.57576344769044,-1.67203153516001,NaN
1596.416,0.315562778969856,0.296665568820348,0.395197003459943,-0.0830933832029729,0.331448320854402,0.331448320853938,0.845966708952579,1.25568059094491,0.994265095616677,0.303832761784716,0.0751263463194072,0.3038327617831,1.82958945536039,-1.2943002931332,1.43860312268694,0.818538438209292,-0.120904231765233,0.633981508460365,0.424082831295508,-0.419662758584588,0.424082831294896,-0.0069614272095197,-0.519914289927349,-0.225039752882373,1.15803976049095,0.0712580787709673,0.0712580787702966,1.03029040937681,-1.03029040937668,-0.933326613817219,0.994819684301774,-0.456230865804219,0.708909215206008,1.59049644111726,0.129724240007631,1.35804806256041,-0.0111775837794691,-0.698029464508082,-0.698029464508666,-0.564240024813925,-1.21285744618138,-0.998442815104665,0.243746568741569,-2.02323594013129,-1.16744908605644,0.956474084677207,-0.622171996489228,-0.622171996488506,0.556773694230676,-1.67327193834342,NaN
1596.5184,0.302407752604938,0.317880291097192,0.390791576793511,-0.0800231097586458,0.363209677319076,0.363209677318647,0.855105512109143,1.26544112360138,1.00369636575539,0.29887210678355,0.0967723258845797,0.298872106781922,1.8167778801178,-1.30047418746751,1.42414080757388,0.802455347245383,-0.131641832707032,0.617661032114524,0.421251888426997,-0.399114593013863,0.421251888426335,-0.0124912297541608,-0.51552274326857,-0.226502023055325,1.14167965862253,0.0629891657327952,0.062989165732099,1.02226490972521,-1.02226490972508,-0.936386289805025,0.974443608496109,-0.459295645149465,0.687528800187168,1.58136926976497,0.103811960480488,1.33691581711676,-0.0183172245053968,-0.697663909527956,-0.697663909528548,-0.588408600227906,-1.19700355113368,-1.0100195840553,0.222064868123133,-1.99258999349046,-1.16689091111644,0.929172702977132,-0.603112996391971,-0.603112996391209,0.537757578214375,-1.67450161868487,NaN
1596.6208,0.288901742742366,0.339421023385193,0.386182351079028,-0.0766535339528176,0.396106303816568,0.396106303816176,0.864383601623983,1.27519155132385,1.01321669264993,0.294271547689411,0.119484026920881,0.294271547687774,1.80430644720785,-1.30691599490569,1.40993808651395,0.78611193005322,-0.143147853270124,0.600901189584625,0.419316218826642,-0.377115808430243,0.419316218825926,-0.0180263691860944,-0.511187301362342,-0.227991337177067,1.12533527677186,0.0542963286506371,0.054296328649913,1.01468267772875,-1.01468267772862,-0.938612806490341,0.955018382724248,-0.463315954298766,0.666538781005513,1.57320673524564,0.0767118342783623,1.31593596870273,-0.0252361825987499,-0.6981130515869,-0.698113051587512,-0.613187072918996,-1.18148751387648,-1.02222794316854,0.200957968811127,-1.96155929708428,-1.16551942385089,0.901882537255984,-0.583945615980409,-0.583945615979625,0.518744097968944,-1.67573412505743,NaN
1596.7232,0.275046946420844,0.361285682041035,0.381370586600904,-0.0729798838858449,0.430107154211755,0.430107154211403,0.873801249651306,1.28493378427639,1.02282691464586,0.290036404806631,0.14325437150352,0.290036404804987,1.79221086437435,-1.31363502535369,1.39602763056013,0.769521050949755,-0.155430461743333,0.583710097815483,0.418298847395474,-0.35365902704669,0.418298847394712,-0.0235586102338732,-0.506924003084887,-0.229509552463499,1.1090159855502,0.0451892789764223,0.0451892789756605,1.00758608645068,-1.00758608645055,-0.940013153544779,0.936588295343746,-0.4683166869877,0.645968184017185,1.56603827388305,0.0484243422727986,1.2951326339612,-0.0319522868345351,-0.699369079464668,-0.699369079465298,-0.638578119228076,-1.1663498348064,-1.03508861215431,0.180472734343076,-1.93020995513527,-1.16333573738574,0.874636828402435,-0.564714915042053,-0.564714915041242,0.499762915754837,-1.67698357554901,NaN
1596.8256,0.26084640990002,0.383470789889073,0.376357819402918,-0.0689980462608855,0.465177085822841,0.465177085822561,0.883356688857256,1.29466758475199,1.03252577578475,0.286170004599668,0.168072186308028,0.286170004598021,1.78052533568097,-1.32063996444592,1.3824408018478,0.752696449504847,-0.168494672205266,0.566097519105767,0.418220717728417,-0.32874146488635,0.418220717727614,-0.0290785867349727,-0.502748389366904,-0.231057634064769,1.09273067484386,0.0356789983654334,0.0356789983646378,1.00101718987165,-1.00101718987152,-0.940597045990195,0.919193707449684,-0.474320881142717,0.625843267271154,1.55988951189179,0.0189536269636052,1.27452878163854,-0.0384834395960104,-0.701420875157381,-0.701420875158035,-0.664582291351878,-1.15163136529547,-1.04862081375093,0.160654396623131,-1.89861108284718,-1.16034460078219,0.847469546939628,-0.545467685512931,-0.545467685512088,0.480844283738516,-1.67826458867077,NaN
