time,S1-D1,S1-D8,S1-D9,S1-D15,S2-D1,S2-D2,S2-D3,S2-D9,S3-D1,S3-D2,S3-D16,S4-D2,S4-D3,S4-D5,S5-D3,S5-D4,S5-D5,S6-D2,S6-D5,S6-D17,S7-D6,S7-D7,S8-D6,S8-D7,S8-D18,S9-D3,S9-D4,S9-D9,S9-D11,S9-D19,S10-D8,S10-D9,S10-D10,S10-D11,S11-D8,S11-D10,S11-D20,S12-D10,S12-D11,S12-D12,S13-D4,S13-D11,S13-D12,S14-D10,S14-D12,S14-D21,S15-D13,S15-D14,S16-D13,S16-D14,S16-D22
151.6544,-0.449174625647631,-1.55527127502261,-1.26171740509119,-0.630929906569146,-1.04193003921513,-1.04193003921167,NaN,1.40476447088949,2.91419243643762,1.32335039601334,-0.89637351295645,1.32335039601259,-2.25212581987239,-1.89218099085326,NaN,-0.647627912398094,0.750273281061141,-0.142606773167879,0.311862513737788,NaN,-0.203986702042958,0.366535556092674,0.0662327153101408,0.337643954691239,0.870722334231611,0.79550423496779,NaN,0.295054104896215,-0.295054104896884,-0.302089926195338,1.05549453576511,-0.251820622343899,0.341225397757122,2.39386319166619,0.441496741378279,1.83768114128859,-0.873956763987697,0.213870012186972,0.2138700121878,0.397308272368766,-0.584699314858139,-0.00938466456221871,1.8790531573349,-0.840333754996991,1.29379330981027,-0.736353941973894,1.3279029052863,1.32790290528694,0.609172928982384,-0.609172928983028,-0.191576601087284
151.7568,-0.434723883821934,-1.56394193573384,-1.25430549212426,-0.626599934201314,-1.02062025504643,-1.02062025504298,NaN,1.40774827105948,2.94603856549801,1.38650209413928,-0.877321855841863,1.38650209413854,-2.26081683682023,-1.89910452109696,NaN,-0.604079449514906,0.738188982376645,-0.0971008327853451,0.309789903858824,NaN,-0.22945459208496,0.363383731287665,0.0301422572573772,0.300475888024949,0.871480580291041,0.822980150220668,NaN,0.284981141504553,-0.284981141505218,-0.359913923241651,1.03619236849873,-0.282559225831219,0.306608514850712,2.37624472410317,0.446533829371987,1.82962990624982,-0.877260448007103,0.275930925418898,0.275930925419699,0.340333132448179,-0.520118512747696,-0.0206280996702202,1.86330265826409,-0.88562563648175,1.22889684426425,-0.756157402459188,1.33365337060527,1.33365337060591,0.593835818416723,-0.593835818417364,-0.21408459820802
151.8592,-0.41993566665226,-1.57015076570272,-1.24521466259331,-0.620674222960039,-0.997097021248749,-0.997097021245299,NaN,1.40973227256486,2.97546363181284,1.44935991498256,-0.856500181906451,1.44935991498184,-2.2684564004431,-1.90465429948244,NaN,-0.558993082943032,0.725178209301757,-0.0504556735725214,0.307811915543304,NaN,-0.255133044713987,0.35939141359013,-0.00617259173132918,0.262463629132714,0.870640552596158,0.851163101189402,NaN,0.274766009894515,-0.274766009895177,-0.418556301549675,1.01577301659081,-0.313346714285009,0.271377215614681,2.35648307980764,0.451800661083997,1.82034629705461,-0.880304740406161,0.339708055470885,0.339708055471658,0.281360601997108,-0.453098527786819,-0.0321512466500803,1.84469125266302,-0.93008154404073,1.16157254923121,-0.775725936122866,1.33909336916423,1.33909336916486,0.577771958085708,-0.577771958086344,-0.237200791748596
151.9616,-0.404853801945975,-1.57388411157918,-1.23447454230404,-0.613150230635836,-0.97140349607006,-0.971403496066612,NaN,1.41072662197632,3.00242868954408,1.51176789890648,-0.833958329408363,1.51176789890577,-2.27507554200366,-1.90884032350076,NaN,-0.51249988883476,0.711292768844383,-0.00279381440756042,0.305926079892642,NaN,-0.281011832407877,0.35454711961634,-0.0426498521183451,0.223658388990396,0.868214583285429,0.880046719174095,NaN,0.264456131026415,-0.264456131027073,-0.477871163456536,0.99428024591168,-0.344118344541848,0.235606013334663,2.33470398858435,0.457318272565441,1.80992541023646,-0.883104856353658,0.405090498580525,0.40509049858127,0.220556498718476,-0.383750898790066,-0.043871452907861,1.82321014976857,-0.973546889608562,1.09196996853867,-0.794997011734518,1.34419552516121,1.34419552516184,0.561008386393073,-0.561008386393704,-0.260882897855089
152.064,-0.389521885429415,-1.5751393505363,-1.22212079356068,-0.604033793808657,-0.94359426942678,-0.943594269423334,NaN,1.41074402104334,3.02690344692981,1.57357133778656,-0.80975345620461,1.57357133778586,-2.28070511837926,-1.91167637806108,NaN,-0.464737063816112,0.696587781632913,0.045757342356555,0.304130288440009,NaN,-0.307079782831975,0.34884438393681,-0.0792294763509667,0.184113262665282,0.864222013764135,0.90961793143829,NaN,0.254098343876471,-0.254098343877133,-0.537708471433436,0.9717585094411,-0.374809781820873,0.199369447163053,2.31103740234541,0.46310406682945,1.79846266921492,-0.885675228123438,0.471957873058085,0.471957873058805,0.158095296149749,-0.31219697046527,-0.0557043541740288,1.79885675473463,-1.01586503828215,1.02024788780645,-0.813909101173771,1.34893322664703,1.34893322664765,0.543575139946585,-0.543575139947209,-0.285085521031294
152.1664,-0.373982904604513,-1.57392479227431,-1.20819473929672,-0.593339146833889,-0.913735246150085,-0.913735246146649,NaN,1.40979935848124,3.04886606491774,1.63461754674472,-0.783949747163393,1.63461754674402,-2.28537562027865,-1.91317996010675,NaN,-0.415847214274704,0.681121381597924,0.0950661570312002,0.302422814343912,NaN,-0.333324719305512,0.342282021321794,-0.1158537366377,0.143883051116761,0.858689053043549,0.939856897813824,NaN,0.243738696392336,-0.243738696392991,-0.597914703431856,0.948252909914764,-0.405357327060975,0.162741880363481,2.28561686581224,0.469171724289397,1.78605335871084,-0.888029454395663,0.540180846290276,0.54018084629097,0.0941593599731837,-0.238567545189916,-0.0675643632951781,1.77163490752291,-1.05687814770528,0.946573742361993,-0.832402033425383,1.35328062265468,1.35328062265529,0.525505027273119,-0.525505027273736,-0.309760367690763
152.2688,-0.358278864158294,-1.57025946547069,-1.19274292321997,-0.581088906174765,-0.881903371515401,-0.881903371511977,NaN,1.40790936138145,3.06830289678983,1.69475662360907,-0.756618102275803,1.69475662360838,-2.28911699171051,-1.91337214232824,NaN,-0.365977592820872,0.664954380714995,0.144997434947489,0.300802327304586,NaN,-0.359733403057316,0.334864296657373,-0.152467535507965,0.10302408852489,0.851648567428459,0.970737066160354,NaN,0.233422197428564,-0.233422197429218,-0.658333558294095,0.923809184104425,-0.435698134464168,0.12579731755637,2.25857886133624,0.475531177517997,1.77279218493565,-0.890180285223014,0.609621768293163,0.609621768293835,0.0289381325357539,-0.163002434666234,-0.0793651421831325,1.74155511617807,-1.09642806969505,0.871122954412668,-0.8504173123545,1.35721259257071,1.35721259257131,0.506833348945181,-0.506833348945793,-0.334856485609821
152.3712,-0.342450419321588,-1.56417280716284,-1.17581662186996,-0.567314010877101,-0.848186218784351,-0.848186218780944,NaN,1.40509225762399,3.08520817560672,1.75384220221341,-0.72783579892419,1.75384220221273,-2.29195846853349,-1.91227739823896,NaN,-0.315279271188441,0.648149898818444,0.195413159041436,0.299267894468967,NaN,-0.386291490311985,0.326600979950568,-0.189018648420432,0.0615940493437796,0.843139807969904,1.00222533853244,NaN,0.223192542619212,-0.223192542619862,-0.718806713961887,0.898473693743509,-0.46577042569591,0.0886092280698646,2.23006214546878,0.48218864976372,1.75877287256831,-0.892139642631965,0.680135408200342,0.680135408200987,-0.0373727468426026,-0.085649912643733,-0.0910200693492209,1.70863478416,-1.13435732191732,0.79407819103564,-0.867898408880302,1.36070469718611,1.3607046971867,0.487597569773317,-0.48759756977392,-0.360320536405405
152.4736,-0.326536529685588,-1.55570426451142,-1.15747132458507,-0.552053602285477,-0.812681449938052,-0.812681449934669,NaN,1.40136745505748,3.09958366679854,1.81173220782162,-0.697686113454441,1.81173220782094,-2.29392844711166,-1.90992340435491,NaN,-0.263906240013787,0.630772954494132,0.246173281406821,0.297818961209523,NaN,-0.412983512904553,0.317507277192447,-0.225457911514681,0.0196517155538935,0.833208083451948,1.0342823498646,NaN,0.213091821074052,-0.213091821074695,-0.779174636966575,0.872293408133029,-0.495513707475951,0.0512503622853124,2.20020709035607,0.48914676431655,1.74408781164992,-0.893918679202109,0.751569810103457,0.751569810104078,-0.104572402766385,-0.00666606244966465,-0.102442714873652,1.67289842396663,-1.17051013804304,0.715628525341899,-0.884791031285801,1.36373311344678,1.36373311344737,0.467836949304113,-0.46783694930471,-0.386097110156421
152.576,-0.310574146027931,-1.54490280486825,-1.13776618977032,-0.535354822036222,-0.775496145826017,-0.775496145822664,NaN,1.39675525891687,3.11143831204349,1.8682896214605,-0.666257883157231,1.86828962145982,-2.2950543925118,-1.90634082083491,NaN,-0.212014426701223,0.612890005648417,0.297136574612041,0.296455305622262,NaN,-0.439792888708608,0.307603617018483,-0.261739347591369,-0.022743304199184,0.821904390313066,1.06686287267329,NaN,0.203160196094703,-0.203160196095332,-0.839277440832846,0.845315869930244,-0.524868994874434,0.0137925547439669,2.16915502530414,0.496404734924691,1.72882775812827,-0.895527875645153,0.823767293810295,0.823767293810891,-0.172455780716691,0.0737859941881158,-0.113547327906926,1.63437784460395,-1.20473359724322,0.635968485614031,-0.901043369599005,1.3662745451804,1.36627454518099,0.447592129154048,-0.447592129154635,-0.412129089196582
152.6784,-0.294597932984473,-1.53182632876798,-1.11676347684083,-0.517272508746512,-0.736745999183686,-0.736745999180362,NaN,1.39127664671339,3.12078788705614,1.92338325121484,-0.633644992158007,1.92338325121417,-2.29536278925061,-1.9015630453335,NaN,-0.159760630655036,0.594568428432647,0.348161533122084,0.295176957645089,NaN,-0.466701969046174,0.296915265283614,-0.297820204825024,-0.0655308998099526,0.809285012418444,1.09991635694739,NaN,0.193435545977848,-0.193435545978464,-0.898955793453757,0.817589138999805,-0.553779036082816,-0.0236934852246637,2.13704756326282,0.50395863967387,1.71308157979608,-0.896977172966092,0.896565604091903,0.896565604092473,-0.240814797139237,0.155536989760286,-0.124249332178673,1.59311230688416,-1.23687882341332,0.555296995417191,-0.916606310172721,1.36830610353802,1.36830610353861,0.426904673554859,-0.426904673555437,-0.438358061250347
152.7808,-0.278640021759753,-1.51654099571922,-1.0945279544751,-0.497868786332269,-0.696554382147775,-0.696554382144483,NaN,1.38495309976494,3.12765467790416,1.97688849143654,-0.59994577852076,1.97688849143588,-2.29487912986123,-1.89562594196182,NaN,-0.10730139691997,0.575875940995463,0.399107303431002,0.293984075850354,NaN,-0.493692129832018,0.285471773183599,-0.333660897701081,-0.10865081491929,0.795411099439695,1.13338758610181,NaN,0.18395306483401,-0.183953064834607,-0.958051868925599,0.789161708948715,-0.58218853212888,-0.0611383928785369,2.1040259091362,0.511801763124794,1.69693603558171,-0.898276128261479,0.969799170084106,0.96979917008465,-0.309439550674864,0.238412499030878,-0.134465816497729,1.54914864520867,-1.26680223081233,0.473816227217527,-0.93143361773726,1.36980516022249,1.36980516022307,0.405816570356385,-0.405816570356954,-0.464724771977943
152.8832,-0.262729789132463,-1.49912049131562,-1.07112629810738,-0.47721256188743,-0.655051324860819,-0.655051324857559,NaN,1.37780647204013,3.13206716088515,2.02868803598024,-0.565262382859958,2.02868803597959,-2.29362793118323,-1.88856755848578,NaN,-0.0547918742726201,0.556880003678867,0.449834612429429,0.292876786482064,NaN,-0.520743909886367,0.27330632058963,-0.369224877519032,-0.152043012439795,0.780348227626171,1.16721739819216,NaN,0.174744849249165,-0.174744849249752,-1.01641032225449,0.760082398317818,-0.610044347390593,-0.0984743730991163,2.07023016890751,0.519924974811715,1.68047557938517,-0.899434079708581,1.043300404527,1.04330040452752,-0.378119541289913,0.322233972258177,-0.144116003149859,1.50254134829608,-1.29436677517165,0.391730403121315,-0.945482080017253,1.37074918408701,1.37074918408759,0.38436971523133,-0.38436971523189,-0.491169598236721
152.9856,-0.246893666340965,-1.47964526927822,-1.04662649871034,-0.455378974811015,-0.612372451925622,-0.612372451922392,NaN,1.36985887429621,3.13405966369739,2.07867251213823,-0.529700076958185,2.07867251213759,-2.29163276612653,-1.88042784632916,NaN,-0.00238471324650315,0.537647238170606,0.500206661415739,0.291855003124645,NaN,-0.547837191870407,0.260455044366583,-0.404478480804277,-0.195648029986299,0.764165943851247,1.20134341358854,NaN,0.165839509362805,-0.165839509363381,-1.07387925011687,0.730400233786441,-0.637295709970025,-0.135635421398177,2.03579868559115,0.528317108182769,1.66378218153183,-0.900460308336207,1.11690097254134,1.11690097254183,-0.446644845968029,0.406819763218963,-0.153121678946466,1.45335258654968,-1.31944316040122,0.309244580086371,-0.958711610479321,1.37111557451697,1.37111557451756,0.362605410162985,-0.362605410163536,-0.517633019479951
153.088,-0.231154983214623,-1.4582017906705,-1.02109730001005,-0.432448838373373,-0.568657912918062,-0.568657912914854,NaN,1.36113256314692,3.13367199509795,2.12674101790093,-0.493366608553681,2.12674101790029,-2.28891630096065,-1.8712483898698,NaN,0.0497709546010205,0.518242896769532,0.550089961022326,0.290918248793346,NaN,-0.574951410911074,0.24695641958012,-0.439390786962998,-0.239407304721527,0.746937294724858,1.23570073021177,NaN,0.15726183225541,-0.157261832255966,-1.13031110130461,0.700164348057652,-0.663894401104151,-0.172557528564429,2.00086741639815,0.536965314992634,1.64693516062755,-0.90136418865948,1.19043298787847,1.19043298787893,-0.514807221132226,0.491986121429846,-0.161407580941867,1.40165218208473,-1.34191096195605,0.226563455240863,-0.971085312724748,1.37088150437633,1.37088150437691,0.340563905780516,-0.34056390578106,-0.544056066414529
153.1904,-0.215533848795944,-1.43488176561416,-0.994607668205499,-0.408508087344613,-0.524051322617305,-0.524051322614122,NaN,1.35164984236671,3.13094905122933,2.17280156381001,-0.456371576104273,2.17280156380938,-2.28550033521562,-1.86107214411399,NaN,0.101530441456913,0.498730392418325,0.599355097821698,0.290065496826584,NaN,-0.602065771469356,0.232850706911543,-0.473933475461131,-0.283263448294268,0.728738348986501,1.2702225771937,NaN,0.149032505115296,-0.149032505115823,-1.18556350996824,0.669423901645391,-0.689794928647007,-0.209178860215771,1.96556934994749,0.545855386973151,1.6300110196615,-0.902155322510645,1.26373012673735,1.26373012673779,-0.582401125593621,0.577548138124532,-0.16890173782273,1.34751752825016,-1.36165964726262,0.143890219415512,-0.982569521399699,1.37002378301144,1.37002378301202,0.318284010108116,-0.31828401010865,-0.570380730661007
153.2928,-0.200047065168644,-1.40978139331945,-0.967226289027786,-0.383647218507496,-0.478698710599513,-0.478698710596358,NaN,1.34143299448618,3.12594042275383,2.21677143175984,-0.418825824997835,2.21677143175922,-2.28140584569395,-1.84994317646597,NaN,0.152754335319328,0.479170887987416,0.647877435451058,0.289295043321321,NaN,-0.629159456557374,0.218179430613644,-0.508080641588129,-0.327160459016914,0.709647727608109,1.30484093584724,NaN,0.141167893448851,-0.141167893449356,-1.2395000316355,0.638228024103052,-0.714954676711573,-0.245439907201508,1.93003395389786,0.554972047737168,1.61308328209233,-0.90284365065515,1.33662866458574,1.33662866458615,-0.649224669371339,0.663320645300042,-0.175535772431534,1.29103346551937,-1.3785894836706,0.0614254766449253,-0.993133838614067,1.36851874634379,1.36851874634437,0.295802775006627,-0.295802775007152,-0.596550324020299
153.3952,-0.184708069168605,-1.38300060057398,-0.939021087685035,-0.357960711254163,-0.432747478280588,-0.432747478277452,NaN,1.33050425131384,3.11870001978565,2.25857746283515,-0.380840853680765,2.25857746283454,-2.27665303224683,-1.83790640861694,NaN,0.203309243287346,0.459622941768833,0.695537752528278,0.288604418635834,NaN,-0.656211817781219,0.202984845067575,-0.541808537113546,-0.371043870105656,0.689746153291489,1.33948713495424,NaN,0.133679870118759,-0.133679870119239,-1.2919907699276,0.606625771262472,-0.73933402702567,-0.281283605051533,1.8943866473468,0.564299219384165,1.59622232721845,-0.903439537477702,1.40896843618303,1.40896843618342,-0.715080492343768,0.749119068538658,-0.181245168676891,1.23229211882641,-1.39261232767551,-0.0206337580626149,-1.00275117584999,1.36634217654652,1.3663421765471,0.273155255949488,-0.273155255950004,-0.622509782699736
153.4976,-0.169526899372204,-1.35464228964134,-0.910058775662515,-0.331546436652077,-0.38634537200838,-0.386345372005276,NaN,1.31888578972061,3.10928570709953,2.29815627502213,-0.342528233406102,2.29815627502152,-2.2712613601308,-1.82500736095291,NaN,0.253068445574704,0.440142205151937,0.742222812937524,0.287990334848017,NaN,-0.683202537282672,0.187309386883894,-0.575095242697362,-0.414860842884601,0.669116019916439,1.37409241618426,NaN,0.126575695105926,-0.126575695106398,-1.34291289991057,0.574666097661664,-0.762896452225517,-0.316655423075115,1.85874830563602,0.573820264640656,1.5794952303164,-0.903953826727812,1.48059370576988,1.48059370577024,-0.779776570181101,0.834760229390106,-0.185969503193248,1.17139270743132,-1.40365229541818,-0.102094969942148,-1.01139779858742,1.36346925055394,1.36346925055452,0.250374328796849,-0.250374328797356,-0.64820592066664
153.6,-0.154510190593952,-1.32481160986901,-0.880404434361409,-0.304505077059776,-0.339639489004166,-0.339639489001085,NaN,1.30659972881384,3.09775892807166,2.33545440147489,-0.303999059330337,2.33545440147429,-2.26524959927324,-1.81129191003835,NaN,0.301912462708069,0.420781164401352,0.78782586413105,0.287448660163382,NaN,-0.71011175760464,0.171195152437217,-0.60792031470178,-0.458560216301164,0.647840972963611,1.40858846056927,NaN,0.119857945403354,-0.119857945403809,-1.39215111215242,0.542397837785327,-0.785608581929965,-0.351503427068667,1.82323481337748,0.58351820287433,1.56296561666335,-0.904397871389163,1.55135393212709,1.55135393212744,-0.843126941724563,0.920063086299422,-0.189652643474297,1.1084413412322,-1.41164632017937,-0.182770954570657,-1.01905336751394,1.35987451617935,1.35987451617994,0.227490546080857,-0.227490546081355,-0.67358764173631
153.7024,-0.139661197896088,-1.29361526234025,-0.850121142558349,-0.276939570850966,-0.292775330746588,-0.292775330743535,NaN,1.29366811502023,3.08418430553486,2.37042834414472,-0.26536344604786,2.37042834414413,-2.2586358649637,-1.79680607070056,NaN,0.349729542196591,0.401588920950715,0.832247066419942,0.286974415255237,NaN,-0.736920181681242,0.154683445897872,-0.640264451882358,-0.502092522965803,0.626005491590439,1.44290787019248,NaN,0.113524493411319,-0.113524493411757,-1.43959800042455,0.509869688366211,-0.807440244011232,-0.385778321563122,1.78795667797588,0.59337589838807,1.54669353631905,-0.904783544288033,1.62110442535557,1.6211044253559,-0.904952355645845,1.00484940431866,-0.19224291682659,1.04355080982757,-1.41654460309665,-0.262480526027041,-1.02570097471865,1.35553189512235,1.35553189512293,0.204532021479969,-0.204532021480457,-0.698606119999852
153.8048,-0.124979848804354,-1.26116084223202,-0.819269649208104,-0.248954579941699,-0.245895912252682,-0.245895912249661,NaN,1.28011289927997,3.06862922836866,2.40304454950528,-0.226730060570829,2.40304454950469,-2.25143766066072,-1.78159580775881,NaN,0.396416065086118,0.382611017924668,0.875393861013139,0.286561794163999,NaN,-0.763609146021174,0.137814413152384,-0.672109205605032,-0.545409983030639,0.603694470494716,1.47698460211093,NaN,0.107568535915003,-0.107568535915431,-1.48515439764652,0.477130190847902,-0.828364488176005,-0.419433477785525,1.75301870862965,0.603376219277738,1.53073536175123,-0.905123233285679,1.68970690432463,1.68970690432494,-0.965080841027159,1.08894435342637,-0.193693254610965,0.976840360448166,-1.41831096255736,-0.341049133210525,-1.03132717682412,1.35041471397687,1.35041471397746,0.181524341037107,-0.181524341037586,-0.723214955464033
153.9072,-0.110462823770066,-1.22755622055843,-0.787908092572663,-0.220655966048185,-0.199140931267431,-0.199140931264429,NaN,1.26595592315525,3.05116344811199,2.4332793189918,-0.188205669286826,2.43327931899122,-2.24367191839396,-1.76570687298156,NaN,0.44187686400148,0.363889328794837,0.917181280739647,0.286204215908182,NaN,-0.790160664401744,0.120626749285169,-0.703436734189056,-0.588466485692934,0.580992809108254,1.51075435233642,NaN,0.101978677951483,-0.101978677951905,-1.52872964869963,0.444227717185712,-0.848357599714455,-0.452424952008082,1.71851975908213,0.613502164763961,1.5151437058077,-0.905429817793303,1.75702996761624,1.75702996761654,-1.02334820907916,1.17217704362512,-0.193961313202898,0.908435453910887,-1.41692308767332,-0.418309402379426,-1.03592202685262,1.344495768188,1.34449576818859,0.158490511689275,-0.158490511689746,-0.747370306244019
154.0096,-0.0961036679118049,-1.19290896338054,-0.756091767176714,-0.192150261469106,-0.152645997217269,-0.152645997214292,NaN,1.25121893099922,3.03185870977341,2.46111866435348,-0.149894678940046,2.4611186643529,-2.23535503135407,-1.74918465466986,NaN,0.486025446683397,0.345462014556685,0.957532201613249,0.285894408157196,NaN,-0.816557436508535,0.103157461929768,-0.734229589321496,-0.631217559908715,0.557985020172591,1.54415489221488,NaN,0.0967390698482139,-0.0967390698486294,-1.57024180680456,0.411210461161659,-0.86739910498691,-0.484711494424656,1.6845525253382,0.623736960928126,1.49996735431567,-0.905716620020949,1.82294948994586,1.82294948994615,-1.07959848836841,1.25438100714679,-0.193009567146675,0.838467485753455,-1.412372699449,-0.494101624413059,-1.03947910406038,1.33774742506355,1.33774742506414,0.135450962723542,-0.135450962724005,-0.771030993375461
154.112,-0.0818929334579143,-1.15732578405452,-0.723872935593602,-0.163544133608611,-0.106541917054336,-0.106541917051378,NaN,1.2359236111686,3.01078842204539,2.48655811197121,-0.111898675928861,2.48655811197063,-2.22650287629296,-1.73207402807388,NaN,0.528784132086891,0.32736354078785,0.996377536372284,0.285624517200652,NaN,-0.842782823847135,0.0854416840517998,-0.764470523752381,-0.673620328715428,0.534754864006081,1.57712636684953,NaN,0.0918295871879331,-0.091829587188347,-1.60961775108475,0.378126435998874,-0.885471764148955,-0.516254544538092,1.65120338716986,0.634064128991201,1.48525120882393,-0.90599733035349,1.88734895272222,1.88734895272248,-1.13368428904731,1.33539463546646,-0.190805365244034,0.767073464069631,-1.4046656193636,-0.568274196264002,-1.04199553858908,1.33014176846929,1.33014176846988,0.11242360630003,-0.112423606300487,-0.794158577084178
154.2144,-0.0678183459236094,-1.12091202497611,-0.69130067712448,-0.134943857658907,-0.0609540372664653,-0.0609540372635196,NaN,1.22009165243553,2.98802734992367,2.50960245430529,-0.0743159912749821,2.50960245430472,-2.21713082680739,-1.71441920562268,NaN,0.570084116840114,0.309624737596016,1.03365637731011,0.285386236493017,NaN,-0.868820804059068,0.0675125499410083,-0.794142326005009,-0.715633442405537,0.511385003152824,1.60961156493959,NaN,0.0872260424514153,-0.0872260424518163,-1.64679323804176,0.345023475956991,-0.902561547852033,-0.547018211632215,1.61855228894442,0.644467533033121,1.47103624115983,-0.906285915453372,1.95011971243912,1.95011971243936,-1.18546709175261,1.41506157442678,-0.187320943354657,0.694395644714885,-1.39382174354408,-0.640684013947134,-1.0434720274068,1.32165078305837,1.32165078305897,0.0894239466502837,-0.0894239466507335,-0.816717411363874
154.3168,-0.0538649879471639,-1.08377116877735,-0.658420768169364,-0.106454811073176,-0.0160016459442342,-0.0160016459413055,NaN,1.20374479849707,2.96365131004825,2.5302654436837,-0.0372413157116891,2.53026544368312,-2.20725375942949,-1.69626359516272,NaN,0.609865491989506,0.292272879231202,1.06931609265186,0.285170944742993,NaN,-0.894655912356708,0.0494011594341444,-0.823227703170113,-0.757216992186592,0.487956666869221,1.64155615837519,NaN,0.0829004239725019,-0.082900423972891,-1.68171290675784,0.31194923378485,-0.918657600025287,-0.576969246201553,1.58667266425923,0.654931412179575,1.45735946601762,-0.906596518453702,2.01116120620154,2.01116120620177,-1.23481746424326,1.49323107632038,-0.182533397541836,0.620581132049509,-1.37987492400255,-0.711196809191799,-1.04391283881039,1.3122465709004,1.31224657090099,0.0664652172005484,-0.0664652172009939,-0.838674685555693
154.4192,-0.0400155002317305,-1.04600438096908,-0.625275594945116,-0.0781809894980754,0.0282025601909239,0.0282025601938369,NaN,1.18690489572294,2.93773686725607,2.54856942721982,-0.000765367514723031,2.54856942721924,-2.19688605468042,-1.67764967472275,NaN,0.648077225123328,0.275331760236211,1.10331237451882,0.284969842010259,NaN,-0.920273173499811,0.0311366383009048,-0.851709226143643,-0.798332412255424,0.464549320640548,1.67290890097203,NaN,0.0788211639808792,-0.0788211639812576,-1.71433025039487,0.278951163373672,-0.933752190873253,-0.606077011144878,1.55563140938806,0.665440397736297,1.44425393512773,-0.906943353529118,2.07038109243302,2.07038109243324,-1.28161521553857,1.5697583052198,-0.176424629143395,0.545781451055057,-1.36287276156273,-0.77968742781994,-1.04332580570834,1.30190159040096,1.30190159040155,0.0435585273027058,-0.0435585273031455,-0.860000455354311
154.5216,-0.0262502995611108,-1.00771008403755,-0.591904098528129,-0.0502245345319655,0.071552942934309,0.0715529429371926,NaN,1.16959394751555,2.91036105309575,2.5645449339805,0.0350253998615351,2.56454493397993,-2.18604159743476,-1.65861888734127,NaN,0.684677112745671,0.258821763753066,1.13560924073473,0.284774077757815,NaN,-0.945658031198579,0.0127462729283742,-0.8795693303266,-0.838942379881748,0.441240346468928,1.70362178078442,NaN,0.0749534366948425,-0.0749534366952171,-1.74460754945458,0.246076482963621,-0.947840661146579,-0.634313455963881,1.52548890219353,0.675979514577823,1.43174875038837,-0.907340592789982,2.12769532977481,2.12769532977501,-1.3257495000614,1.64450459565077,-0.168981273434613,0.470152089691901,-1.3428763164343,-0.846040057306732,-1.04172231417029,1.29058890939993,1.29058890940052,0.0207130164934779,-0.0207130164939126,-0.880667658387501
154.624,-0.0125478105759919,-0.96898356111368,-0.558341748335196,-0.0226852650113769,0.113951327696955,0.113951327699813,NaN,1.15183420015593,2.88160113806331,2.57823023761593,0.0700490674826452,2.57823023761535,-2.17473378153848,-1.63921155271774,NaN,0.71963169994101,0.242759939157007,1.16617900268736,0.284574876805946,NaN,-0.970796284586979,-0.00574431844768142,-0.906790347382276,-0.879010718155114,0.41810474788143,1.73365013330714,NaN,0.0712594821993128,-0.0712594821996876,-1.77251574699136,0.21337212510706,-0.960921353825681,-0.661653087674065,1.49629905531058,0.686534169639423,1.4198690906114,-0.90780224403728,2.18302820569313,2.18302820569332,-1.36711888360024,1.71733767358184,-0.160194617100989,0.393852013886302,-1.31995974702505,-0.910148411713301,-1.03911729717418,1.27828246686043,1.27828246686103,-0.00206396723372807,0.00206396723329848,-0.90065210611725
154.7264,0.00111529234872474,-0.929916591654114,-0.524620542303169,0.00433979003097089,0.155307348519199,0.155307348522025,NaN,1.13364827511002,2.8515344780879,2.58967091405975,0.104228513812807,2.58967091405918,-2.16297551863375,-1.61946678733403,NaN,0.752916164703066,0.227160103615742,1.19500220948446,0.284363670901858,NaN,-0.995674031956624,-0.0243110146102224,-0.933354538133629,-0.918502299905384,0.395214893199549,1.76295272637734,NaN,0.0676989493635615,-0.0676989493639269,-1.79803424744305,0.180884684523508,-0.972995528357545,-0.688072928793334,1.46810939371841,0.697090132434845,1.40863624875134,-0.908342018238246,2.23631232789508,2.23631232789526,-1.40563137689231,1.78813185127663,-0.150060502418796,0.317043168347124,-1.29420989132615,-0.971915873611379,-1.03552923598082,1.26495733672417,1.26495733672477,-0.0247666506265172,0.0247666506260936,-0.919932445838649
154.8288,0.0147638353199939,-0.890597130017342,-0.49076903804875,0.0307568507114141,0.195538725384788,0.195538725387586,NaN,1.11505933184786,2.82023842419835,2.59891939489717,0.137491675515801,2.59891939489659,-2.15077924488584,-1.59942242794544,NaN,0.784514162021417,0.212032966934576,1.22206756140369,0.284132231356557,NaN,-1.02027761314445,-0.0429310403510857,-0.959244110162598,-0.957382951895181,0.372640299444048,1.79149181634452,NaN,0.0642292538797712,-0.0642292538801265,-1.82115064319259,0.148660368065365,-0.984067259393433,-0.713552461799971,1.44096115703609,0.707633509296702,1.39806768095532,-0.908973185566073,2.28748858253334,2.28748858253351,-1.44120443357139,1.8567681985179,-0.138579213449433,0.239889975140913,-1.26572579589147,-1.03125558446238,-1.03098015738635,1.25058998895086,1.25058998895146,-0.0473905874850846,0.0473905874846665,-0.938490093429545
154.9312,0.0284238912978162,-0.851109039529027,-0.456812418665621,0.0564758253597487,0.234571461135837,0.23457146113862,NaN,1.09609122254347,2.78779025848101,2.60603450235186,0.169771793064762,2.60603450235127,-2.13815691917846,-1.57911496252388,NaN,0.814417613431084,0.197386278815009,1.2473717731694,0.283872791284475,NaN,-1.0445935482178,-0.0615828277706543,-0.984441229864012,-0.995619362856683,0.350447447518243,1.81923316499496,NaN,0.0608059497735131,-0.0608059497738583,-1.84186039554305,0.116744940850668,-0.994143329131775,-0.738073570429674,1.41488943549926,0.718150709436893,1.38817707196179,-0.909708421151067,2.33650605312704,2.3365060531272,-1.47376490575652,1.9231346840365,-0.125755341970379,0.162558827445043,-1.23461818062588,-1.08809047424803,-1.02549560899053,1.23515854747122,1.23515854747181,-0.0699323999721919,0.069932399971777,-0.956309143682715
155.0336,0.0421225302394225,-0.811531886640829,-0.422772589270528,0.0814107156527426,0.272339953325323,0.272339953328089,NaN,1.07676860872384,2.75426712314598,2.61108095490033,0.201007621606614,2.61108095489974,-2.1251200117465,-1.55857947648104,NaN,0.8426264273288,0.183225005807787,1.27091937469743,0.28357815412803,NaN,-1.0686084793474,-0.0802458646697566,-1.00892805235163,-1.03317899910877,0.328699618408644,1.84614601117837,NaN,0.0573831107667542,-0.0573831107670799,-1.86016649661271,0.0851836606189324,-1.00323311946541,-0.761620486878735,1.38992334865518,0.728628401442483,1.37897442177022,-0.910559644496689,2.38332189220725,2.3833218922074,-1.50324895598536,1.98712628321082,-0.111597634497601,0.0852175682178433,-1.20100882559271,-1.14235322791482,-1.01910460188662,1.21864304354353,1.21864304354412,-0.0923895196508967,0.0923895196504874,-0.973376265277626
155.136,0.0558875787412483,-0.771940793537088,-0.388668298490672,0.105479981202851,0.30878702568547,0.308787025688227,NaN,1.0571170331821,2.71974593307427,2.61412884490469,0.23114359751781,2.6141288449041,-2.11167948681975,-1.5378496192185,NaN,0.869148150524534,0.16955153958616,1.29272245144155,0.283241791375875,NaN,-1.0923091213211,-0.0989005102633581,-1.03268678511423,-1.07003002832431,0.307456746808977,1.87220300020912,NaN,0.0539137168669571,-0.0539137168672547,-1.87607912282025,0.054021195385378,-1.01134850201842,-0.784179745911381,1.36608627352309,0.739053460187001,1.37046615792575,-0.911537856484181,2.42790114245615,2.42790114245629,-1.52960193132547,2.04864505337382,-0.096118824997351,0.00803494828194107,-1.16502988047052,-1.19398619561487,-1.01183952195983,1.20102565834791,1.20102565834851,-0.11475992779285,0.114759927792445,-0.989680584067499
155.2384,0.0697473876029027,-0.73240634620034,-0.354515284545544,0.128606870055416,0.343863887053227,0.343863887055973,NaN,1.03716295628745,2.68430328419036,2.61525309982405,0.260129962845335,2.61525309982345,-2.09784578447302,-1.516957592388,NaN,0.893997567495479,0.156365924161138,1.31280033423858,0.28285792803226,NaN,-1.11568222259381,-0.117527776727933,-1.05569978594447,-1.10614125084033,0.286775295562928,1.89738007845073,NaN,0.0503500424424367,-0.0503500424427242,-1.88961527673489,0.0233015210889263,-1.01850372085651,-0.805740143384807,1.34339612606338,0.749412904713369,1.36265527626869,-0.912652975396001,2.470216512617,2.47021651261714,-1.55277820694448,2.10760017893514,-0.0793354586743246,-0.0688199396766154,-1.12682310638739,-1.24294126081365,-1.00373601939349,1.18229095323933,1.18229095323993,-0.137041889821618,0.137041889821219,-1.00521355530747
155.3408,0.0837306017948835,-0.692994549987946,-0.320326446133115,0.150719732048132,0.377530031639057,0.377530031641796,NaN,1.01693377646131,2.6480153832491,2.61453294562777,0.287922855705601,2.61453294562717,-2.08362880688774,-1.49593415534762,NaN,0.917196268529795,0.143666087376231,1.33117925256959,0.282421614073671,NaN,-1.13871454028989,-0.136109100143858,-1.07794967777992,-1.14148203936179,0.266708160548437,1.92165636668684,NaN,0.0466440392590889,-0.0466440392593601,-1.9007984044205,-0.0069321993688874,-1.02471526416255,-0.826292695495165,1.3218656896656,0.759693831224454,1.35554150881857,-0.91391367169613,2.51024812499472,2.51024812499485,-1.57274100446846,2.16390799332932,-0.0612677072537549,-0.145178258941014,-1.08653905713938,-1.28917968241404,-0.994832888261819,1.1624260951684,1.162426095169,-0.159233675515911,0.159233675515518,-1.01996882360652
155.4432,0.0978659303242183,-0.653766821005563,-0.286112033634634,0.171752331145559,0.409753099155473,0.409753099158216,NaN,0.996457856670005,2.61095802323491,2.61205139109975,0.314484378636256,2.61205139109916,-2.06903791233213,-1.47480863765608,NaN,0.938772202382567,0.131448069387886,1.34789196479197,0.281928788638714,NaN,-1.1613928299622,-0.154626145960972,-1.09941944933053,-1.17602229073869,0.247304617043058,1.94501403058385,NaN,0.0427477045776937,-0.042747704577955,-1.9096579740967,-0.0366377482216369,-1.03000172464349,-0.845830594709798,1.301502973667,0.769883349819947,1.3491215135276,-0.915327201575917,2.54798325542465,2.54798325542478,-1.58946219106523,2.2174919939777,-0.0419391707488979,-0.220872065169112,-1.0443362019002,-1.33267192082767,-0.985171942768874,1.14142108314658,1.14142108314718,-0.181333262836505,0.181333262836118,-1.03394206974109
155.5456,0.112181918302976,-0.614780010349741,-0.251879857019562,0.191644159771543,0.44050870166242,0.440508701665167,NaN,0.975764559517999,2.57320660601828,2.6078947372369,0.339782655893194,2.60789473723631,-2.0540819164603,-1.45360895263526,NaN,0.958759218803013,0.119706243716502,1.36297736820122,0.2813763477698,NaN,-1.1837038416855,-0.173060683084246,-1.12009252317224,-1.20973239761008,0.228610310750023,1.96743815694439,NaN,0.0386134283409096,-0.0386134283411695,-1.91622901679536,-0.0657739926479413,-1.03438365172583,-0.86434916307714,1.28231158841247,0.779968532102726,1.34338908189745,-0.916899239726635,2.58341607130187,2.58341607130199,-1.60292206611675,2.26828286372809,-0.0213766633546384,-0.295734981213422,-1.0003799859366,-1.37339744421158,-0.974797887676497,1.11926897022484,1.11926897022544,-0.203338042253656,0.203338042253274,-1.04713084627527
155.648,0.126706726026543,-0.576086472791893,-0.217635512895371,0.210340741440866,0.469780204572995,0.469780204575742,NaN,0.954884265327062,2.53483618463944,2.60215209671061,0.363791879954164,2.60215209671004,-2.03876909695805,-1.43236161750859,NaN,0.977196597950172,0.108433524750955,1.37648007930437,0.280762220167355,NaN,-1.20563431014678,-0.191394517162068,-1.13995281071544,-1.24258325160366,0.210667286718546,1.98891662768306,NaN,0.0341943221515059,-0.0341943221517575,-1.92055164820615,-0.0943010382044252,-1.03788339930293,-0.881845808978928,1.26429113868982,0.789936370216782,1.3383353660146,-0.918633712148647,2.61654735219779,2.61654735219791,-1.61310913798603,2.31621849572453,0.000390012191448214,-0.369602908383006,-0.954841819024623,-1.41134450195852,-0.963758176006822,1.09596607040771,1.09596607040831,-0.225244552006612,0.225244552006235,-1.05953440700504
155.7504,0.141467920685484,-0.537734195269692,-0.1833826345952,0.22779390259634,0.497558444409097,0.497558444411837,NaN,0.933848339716636,2.49592148940102,2.59491490424016,0.386492336057279,2.5949149042396,-2.0231071962021,-1.41109179046672,NaN,0.994128563118096,0.0976215544710479,1.38844997286177,0.280085446750932,NaN,-1.22717093324914,-0.209609443507699,-1.15898479533226,-1.27454628836166,0.193514047805897,2.00943997746748,NaN,0.0294445360239763,-0.0294445360242181,-1.92267059360395,-0.122180402621109,-1.04052497202363,-0.898319993194601,1.24743764628053,0.799773743553252,1.33394912945508,-0.920532631140198,2.64738417586037,2.64738417586048,-1.62001988655598,2.36124400654204,0.0233282959257094,-0.442314778225181,-0.907897977661794,-1.44650985577077,-0.952102849322277,1.07151214853461,1.07151214853522,-0.247048271700978,0.247048271700606,-1.07115353481571
155.8528,0.156492285821611,-0.499766990250722,-0.149123163811572,0.243962005933575,0.523841377887192,0.523841377889935,NaN,0.912689035753706,2.45653692095463,2.58627641016457,0.407870393569655,2.58627641016402,-2.00710341924868,-1.38982332984432,NaN,1.00960377806858,0.087260863380959,1.39894167670367,0.279346258279264,NaN,-1.24830034394782,-0.227687188476893,-1.17717366948383,-1.30559357603527,0.177185639963686,2.02900122767689,NaN,0.0243195641469415,-0.0243195641471642,-1.92263472646484,-0.149375213266304,-1.04233387177338,-0.913773207306145,1.23174400619659,0.809467390258536,1.33021702311679,-0.922595935939069,2.67593956853902,2.67593956853913,-1.6236585052453,2.40331172405334,0.04740310471471,-0.513713351638923,-0.859728410979324,-1.47889846572747,-0.939884358980019,1.04591059823104,1.04591059823164,-0.268743488011588,0.26874348801122,-1.08199036800823
155.9552,0.171805649567687,-0.462224744718416,-0.11485763766257,0.258810151281306,0.548633671523215,0.548633671525957,NaN,0.891439340956583,2.41675651815383,2.57633116206884,0.42791846266984,2.5763311620683,-1.9907644299126,-1.36857887371278,NaN,1.02367483373589,0.0773410092186986,1.40801403187521,0.27854615063161,NaN,-1.26900908444672,-0.245609335431163,-1.19450552083487,-1.33569793952135,0.161713765932249,2.04759569958986,NaN,0.0187765365351852,-0.0187765365353968,-1.92049661919726,-0.175850430367999,-1.04333694341299,-0.928208964767344,1.21720047034825,0.81900388403049,1.32712388226095,-0.924821342032172,2.7022321309459,2.70223213094602,-1.62403662081642,2.4423811455484,0.0725770677048635,-0.583646061163427,-0.810515457975517,-1.50852313443446,-0.927157368317714,1.01916860649332,1.01916860649393,-0.290323225905464,0.2903232259051,-1.09204822270294
156.0576,0.187432725282699,-0.425143704901966,-0.080585485398463,0.272310351250123,0.571946251356188,0.57194625135894,NaN,0.870132794408668,2.37665391766721,2.5651744857655,0.446634923258297,2.56517448576497,-1.97409635098823,-1.34737993279837,NaN,1.03639773074229,0.0678507052673594,1.41572953758143,0.277687960380915,NaN,-1.28928358688269,-0.263357253305919,-1.21096753981117,-1.36483310732924,0.147126925816416,2.06522081778837,NaN,0.0127744946582823,-0.0127744946584749,-1.91631209902385,-0.201573090784309,-1.04356221745264,-0.94163280009176,1.20379514514814,0.828369618250658,1.32465303740008,-0.927204200251014,2.72628564998589,2.72628564998601,-1.6211729947775,2.47841886881984,0.0988107613718588,-0.651965871363926,-0.760442515165179,-1.53540412078369,-0.913978538260425,0.991297296314791,0.991297296315402,-0.311779218012644,0.311779218012283,-1.10133141225114
156.16,0.203396953692197,-0.38855677064986,-0.0463053292764088,0.284441680379803,0.593795838460366,0.593795838463121,NaN,0.848803300714823,2.33630231416856,2.55290197607243,0.464024033770167,2.55290197607192,-1.95710477244451,-1.32624698407915,NaN,1.04783136647192,0.0587779472514584,1.42215380075504,0.276775940030104,NaN,-1.30911015476273,-0.280912050462579,-1.22654821362293,-1.39297386427575,0.133450574109702,2.08187591778946,NaN,0.00627465047697334,-0.00627465047715195,-1.91013980670436,-0.226512552452441,-1.04303874834639,-0.954052264873842,1.19151448261526,0.837550797351127,1.32278662576697,-0.929737365574169,2.74812869968184,2.74812869968196,-1.61509320947987,2.51139849932699,0.12606294329495,-0.718532116106393,-0.709692717464608,-1.55956874079484,-0.90040630039126,0.962311841951172,0.962311841951787,-0.333101880306599,0.333101880306242,-1.10984506800866
156.2624,0.219720340017647,-0.352493774526223,-0.0120152810702413,0.295190391706105,0.614204492500417,0.614204492503174,NaN,0.827484958064528,2.29577441751841,2.53960900211021,0.480095824077907,2.5396090021097,-1.93979476579729,-1.30519955123432,NaN,1.05803703637868,0.0501101368654493,1.42735500104286,0.275815828659024,NaN,-1.32847493532987,-0.298254564380148,-1.24123747936979,-1.42009619147644,0.120707279906347,2.09756206865001,NaN,-0.00075937458724566,0.000759374587087229,-1.90204076589109,-0.250640711915409,-1.04179644642327,-0.965476904840458,1.18034373911487,0.846533432208902,1.32150588454238,-0.93241107588566,2.76779423231892,2.76779423231905,-1.60582933677046,2.54130053449417,0.154290787353364,-0.783211272557398,-0.658447688102253,-1.581050966954,-0.886500621175992,0.932231557644028,0.932231557644648,-0.35428027730284,0.354280277302485,-1.11759496409726
156.3648,0.236423288704941,-0.316981731572463,0.022286775953563,0.304549998561825,0.633199171887734,0.633199171890489,NaN,0.806211904728773,2.25514240008313,2.52539022865331,0.494865976108326,2.52539022865282,-1.92217089920437,-1.28425626516326,NaN,1.06707795658063,0.0418341931519607,1.43140337219084,0.274814913534089,NaN,-1.3473638788284,-0.315365380834724,-1.25502682624733,-1.44617737926202,0.108916886114785,2.11228191424217,NaN,-0.00836133689157692,0.00836133689144713,-1.89207797597903,-0.273932173805028,-1.03986589936503,-0.975918203774896,1.17026737800068,0.855303335840564,1.32079140805117,-0.935212841619796,2.78531916364918,2.78531916364931,-1.5934195880463,2.56811223001969,0.183450124612834,-0.845877645688005,-0.606886385782767,-1.59989102503745,-0.872322763927826,0.901079964799358,0.901079964799985,-0.37530207441542,0.375302074415066,-1.1245873448529
156.4672,0.253524441750427,-0.282045057973875,0.0566029256993934,0.312521323831316,0.650811307704633,0.650811307707381,NaN,0.785018181913235,2.21447783232419,2.51033915665327,0.508355698250403,2.51033915665279,-1.90423724937326,-1.2634349062978,NaN,1.07501881033121,0.0339366461307788,1.43437069796557,0.273782079261111,NaN,-1.36576268811436,-0.33222486561944,-1.26790935507384,-1.4711961082904,0.0980966705441302,2.12603952980137,NaN,-0.0165621864525693,0.0165621864524653,-1.88031603848668,-0.296364364031286,-1.03727818311463,-0.985389489973061,1.16126940266563,0.863846117470526,1.32062335893955,-0.938127348319548,2.80074396097978,2.80074396097991,-1.57790795590158,2.59182746103591,0.21349568873368,-0.9064139510925,-0.555184058564622,-1.61613498416849,-0.857935059061165,0.868884844916549,0.868884844917181,-0.396153477879086,0.396153477878732,-1.13082875402742
156.5696,0.271040522546938,-0.247705763601403,0.0909349773744728,0.319112518224075,0.667076387029135,0.667076387031872,NaN,0.763937611357028,2.17385160967966,2.49454768887281,0.520591598072274,2.49454768887233,-1.88599741176465,-1.24275243504779,NaN,1.08192531737711,0.0264037159360971,1.43632982437027,0.272727839952388,NaN,-1.38365676663367,-0.34881319186561,-1.27987981342166,-1.49513250384096,0.088261508567136,2.13884028540322,NaN,-0.0253899053479491,0.0253899053478559,-1.86682082008376,-0.317917591187279,-1.03406467138318,-0.993905814913849,1.1533336232272,0.872147175536638,1.32098163578941,-0.941136375799322,2.81411224598194,2.81411224598207,-1.55934386737326,2.61244659118124,0.244381355669412,-0.964711797006853,-0.503511308359632,-1.62983434516174,-0.843400689809546,0.835678281401475,0.835678281402114,-0.416819163793647,0.416819163793294,-1.13632587032317
156.672,0.288986183485754,-0.213983626626001,0.125284236953169,0.324339047143281,0.682033543365065,0.682033543367783,NaN,0.743003687213748,2.13333387647415,2.47810572808767,0.531605551618618,2.47810572808719,-1.86745451514014,-1.22222501789193,NaN,1.0878638242674,0.0192213870133563,1.43735419457136,0.271664348167789,NaN,-1.40103117705812,-0.365110354836862,-1.29093462307569,-1.51796817335115,0.0794240342687725,2.15069070805554,NaN,-0.0348693586316662,0.0348693586316059,-1.85165914708954,-0.338575071935028,-1.03025685703013,-1.00148382291834,1.14644387573133,0.880191692777333,1.32184601144228,-0.944218738888937,2.82547042164969,2.82547042164982,-1.53778186463422,2.62997635241501,0.276060364639752,-1.02067207842634,-0.452033262755282,-1.64104563858724,-0.82878349093831,0.801496681265691,0.801496681266339,-0.437282203559381,0.437282203559027,-1.14108535734571
156.7744,0.307373855552054,-0.180896356039982,0.159651287174562,0.328223642440723,0.695725155754581,0.695725155757276,NaN,0.722249483089955,2.09299395129767,2.46110081193923,0.541434562746499,2.46110081193875,-1.84861124503106,-1.20186804969768,NaN,1.09290091671056,0.0123754863610433,1.43751741637792,0.270605380089075,NaN,-1.4178706203839,-0.38109617678983,-1.30107190857268,-1.53968623757673,0.0715947965167923,2.161598340922,NaN,-0.0450221543789714,0.0450221543789293,-1.83489852122819,-0.358322939169438,-1.02588619523963,-1.00814162944233,1.14058421236709,0.887964637984509,1.3231962570046,-0.947350256655242,2.83486732902679,2.83486732902693,-1.51328131389995,2.64442973020981,0.308485516153488,-1.07420529602999,-0.400908843835376,-1.64983003651034,-0.814147749232752,0.766380756433882,0.766380756434538,-0.4575239974034,0.457523997403046,-1.14511373316044
156.8768,0.32621359933147,-0.148459739608551,0.194035776976882,0.330796209338234,0.708196464383056,0.70819646438573,NaN,0.701707574801532,2.05290024877281,2.44361777946298,0.550120603270268,2.4436177794625,-1.82946987349266,-1.18169616041053,NaN,1.09710305939461,0.00585176917625901,1.43689287248423,0.269566307456697,NaN,-1.43415943177392,-0.396750309689046,-1.31029152679134,-1.56027136116312,0.0647824016462584,2.17157160601366,NaN,-0.0558665188552037,0.0558665188551805,-1.81660684875253,-0.37715024176192,-1.02098397208208,-1.01389871541494,1.13573906626784,0.895450777261881,1.32501225571878,-0.950503758267496,2.84235393481506,2.84235393481521,-1.48590612888903,2.65582584767357,0.341609355680886,-1.12523180158634,-0.350290126021679,-1.656252971595,-0.799557991571247,0.730375445602065,0.730375445602732,-0.477524226292532,0.477524226292178,-1.14841725975007
156.9792,0.345512959144621,-0.116687770650703,0.22843622556229,0.332093675220425,0.719495210806922,0.719495210809569,NaN,0.681409973064246,2.01312018074674,2.42573845726429,0.557710422112765,2.42573845726382,-1.81003228625477,-1.16172319136233,NaN,1.10053626721538,-0.000363989229627015,1.43555337756061,0.268564068125329,NaN,-1.44988158063194,-0.412052235196316,-1.31859509355193,-1.57970977829622,0.0589936312303715,2.18061967689395,NaN,-0.0674171935990789,0.0674171935990697,-1.79685218063581,-0.395048929853296,-1.01558119510916,-1.01877583182779,1.1318933850048,0.902634693123398,1.32727410179403,-0.953649130620116,2.84798304191806,2.84798304191821,-1.45572449071373,2.66418984281314,0.375384356193053,-1.17368196900788,-0.300321778490159,-1.66038375802019,-0.785078751369949,0.693529772214136,0.693529772214814,-0.497260828226016,0.49726082822566,-1.15100184956408
157.0816,0.365276824963901,-0.0855927494140525,0.262849847451375,0.332159768020369,0.72967130473843,0.729671304741042,NaN,0.661388054913853,1.97372001806791,2.40754135552244,0.564255311064882,2.40754135552196,-1.79029999785726,-1.14196213410088,NaN,1.10326580502161,-0.00628589527941799,1.43357087838873,0.267617136967578,NaN,-1.46502066948994,-0.426981241861661,-1.32598601124539,-1.59798930231917,0.0542335260684794,2.1887523614591,NaN,-0.0796853539182552,0.0796853539182571,-1.77570246420934,-0.412013811186172,-1.00970850051689,-1.02279490271633,1.12903272836523,0.909500806737965,1.32996217824912,-0.956753408955675,2.85180901167644,2.85180901167659,-1.42280855383708,2.66955273706977,0.409763108067669,-1.21949629895892,-0.251140586024417,-1.66229521696461,-0.770774312199017,0.655896647778715,0.655896647779405,-0.516710002072724,0.516710002072367,-1.15287298410234
157.184,0.385507307512194,-0.0551853559118411,0.297272404897971,0.331044716281122,0.738776517220095,0.738776517222678,NaN,0.641672488064999,1.93476470500524,2.3891013726083,0.569810818851537,2.38910137260781,-1.77027415051474,-1.12242503153035,NaN,1.10535591174349,-0.0119278314143032,1.43101619289178,0.26674549095658,NaN,-1.47955993625096,-0.441516354001511,-1.33246951144404,-1.61509931371736,0.0505054298679102,2.19597999147512,NaN,-0.0926785431049624,0.092678543104969,-1.75322530740209,-0.428042466380139,-1.00339607564475,-1.02597891931654,1.1271433279201,0.916033400821164,1.33305721050499,-0.959780912166758,2.85388749832899,2.85388749832915,-1.38723413940825,2.67195129981108,0.444698518191515,-1.26262546615835,-0.202875046022076,-1.66206331481699,-0.756708431364033,0.617532630730731,0.617532630731432,-0.535846240699611,0.535846240699254,-1.15403563964387
157.2864,0.406203631704164,-0.0254746913634403,0.331698093677087,0.328804873712884,0.746864202301874,0.746864202304428,NaN,0.622293153461759,1.8963176338666,2.37048951476332,0.574436415158265,2.37048951476283,-1.74995550150998,-1.10312284827059,NaN,1.1068695520018,-0.0173033455926841,1.42795878949892,0.265970561495723,NaN,-1.49348226642063,-0.455636210844188,-1.33805271980929,-1.63103073246831,0.0478109898659678,2.20231332032128,NaN,-0.106400620124412,0.106400620124424,-1.72948775928751,-0.443135124013058,-0.996673597231929,-1.02835182617927,1.12621210740615,0.922216646625992,1.33654029737755,-0.962693425343057,2.85427520960682,2.85427520960699,-1.34908042390469,2.67142791327031,0.480144013757406,-1.30303030835138,-0.155645049987873,-1.65976682153882,-0.74294404862942,0.57849764531204,0.578497645312754,-0.554642393734433,0.554642393734076,-1.15449422170783
157.3888,0.427362052853609,0.00353170900734298,0.36611946445802,0.325502287011214,0.753989046457252,0.75398904645977,NaN,0.603279075161027,1.85844039808393,2.35177264108405,0.57819511756311,2.35177264108356,-1.72934441299368,-1.08406532905704,NaN,1.10786820140471,-0.0224255415424358,1.42446660975751,0.265315167076106,NaN,-1.5067702241148,-0.469318924055992,-1.34274473646365,-1.64577598916193,0.0461501233078365,2.20776343534173,NaN,-0.12085172511155,0.120851725111559,-1.70455611322216,-0.457294514480316,-0.989570182180339,-1.02993840640029,1.12622667077808,0.92803464276767,1.34039292900814,-0.965450427829537,2.85302970642594,2.85302970642612,-1.30842963378988,2.66803043419738,0.5160537382701,-1.34068175144766,-0.109561658003042,-1.65548699161693,-0.729542990403139,0.538854662337204,0.538854662337928,-0.57306975901114,0.57306975901078,-1.15425251938724
157.4912,0.448975794406112,0.0318278805419612,0.400527372333713,0.321204236408457,0.76020683757659,0.76020683757907,NaN,0.584658362075388,1.82119254495206,2.33301324377264,0.581153098512912,2.33301324377215,-1.70844086206648,-1.06526087220652,NaN,1.10841166423231,-0.0273069718406481,1.42060593055548,0.264803416376216,NaN,-1.51940611685552,-0.482541948256574,-1.34655672150611,-1.65932901078374,0.0455209703891138,2.2123416886246,NaN,-0.136028267970012,0.136028267970015,-1.67849573691097,-0.470525734657558,-0.982114346195754,-1.03076417873749,1.12717527602535,0.933471473329405,1.34459700833673,-0.968009357700155,2.85020924332311,2.8502092433233,-1.26536675818645,2.66181204174676,0.552382721660908,-1.37556067445085,-0.0647269591812483,-1.64930726455779,-0.716565682384969,0.498669344469654,0.498669344470391,-0.591098201160443,0.591098201160082,-1.15331369359527
157.5936,0.471035000598558,0.0594094385681868,0.434910941810059,0.315982775823767,0.765574245285124,0.76557424528756,NaN,0.566458162446302,1.78463134589671,2.3142692699572,0.583379286481956,2.31426926995671,-1.68724448467348,-1.04671643872808,NaN,1.10855791456869,-0.0319595341609108,1.4164412539707,0.264460570508777,NaN,-1.53137210896185,-0.495281986280222,-1.34950197720736,-1.67168522924568,0.0459198529837158,2.21605964715619,NaN,-0.151922943880625,0.151922943880616,-1.65137092903612,-0.482836152289084,-0.974333967542237,-1.03085531928563,1.12904681433173,0.938511290118832,1.34913489197908,-0.970325900154534,2.84587264312376,2.84587264312396,-1.21997928600201,2.65283106180876,0.589087012073963,-1.40765772701051,-0.0212339974281101,-1.64131297832268,-0.704070877857072,0.458009658037345,0.458009658038092,-0.608696297969981,0.608696297969618,-1.15168030742164
157.696,0.493526702614683,0.0862735896284071,0.469257544315536,0.309914283877724,0.770148614727793,0.770148614730199,NaN,0.548704632950449,1.74881159180363,2.29559398588187,0.584944969987676,2.29559398588137,-1.66575465523505,-1.02843749866926,NaN,1.1083629528084,-0.036394374854499,1.41203521031429,0.264312858864345,NaN,-1.54265038626906,-0.507514938746651,-1.351596015358,-1.68284160868866,0.0473412456622102,2.21892906782235,NaN,-0.168524782586835,0.168524782586818,-1.62324480113222,-0.494235356079973,-0.966256252029047,-1.03023860767064,1.13183079925428,0.943138421095016,1.35398945486234,-0.972354290874957,2.84007919769849,2.84007919769869,-1.17235695922545,2.64115076226514,0.626123773486239,-1.43697310952485,0.0208332567235703,-1.63159108726758,-0.692115397986124,0.416945449640114,0.416945449640874,-0.625831520820842,0.625831520820477,-1.14935439900878
157.7984,0.516434804557327,0.112419152435192,0.503552798092945,0.303079013517844,0.773987785156509,0.77398778515888,NaN,0.531422924954262,1.71378540513354,2.27703587724345,0.585923403273037,2.27703587724295,-1.64397059230367,-1.01042799790092,NaN,1.10788067646113,-0.0406218076728172,1.40744846565447,0.264387252172527,NaN,-1.55322336083642,-0.519215904112268,-1.35285659344994,-1.69279668042252,0.0497777518604427,2.22096190654268,NaN,-0.185819240317825,0.185819240317798,-1.594179185683,-0.504735127941077,-0.957907692769192,-1.02894138045127,1.13551735295406,0.947337503195458,1.35914416907466,-0.974047632445504,2.83288858709643,2.83288858709664,-1.12259152201503,2.62683911760558,0.663451367254745,-1.46351631890653,0.0613998959439431,-1.62022988017308,-0.68075387207767,0.375547983096557,0.375547983097329,-0.642470459863787,0.642470459863418,-1.14633759025304
157.9008,0.539740094869978,0.137846598632417,0.537780600968206,0.295560609963663,0.777149943614961,0.777149943617302,NaN,0.514637186716208,1.67960204920027,2.2586385749811,0.586389400083568,2.2586385749806,-1.62189147691571,-0.992690323833769,NaN,1.10716277215845,-0.0446512550750351,1.40273963586019,0.264711199306115,NaN,-1.56307390204222,-0.530359232475623,-1.35330370544759,-1.70155057420923,0.0532200717466409,2.22217036527841,NaN,-0.20378833656281,0.203788336562774,-1.56423457174316,-0.514349399579415,-0.949314020610885,-1.0269914689726,1.14009717357911,0.951093633778924,1.36458318283945,-0.97535822802148,2.82436081060504,2.82436081060526,-1.07077644717876,2.60996854440913,0.701029435831858,-1.48730586088054,0.10040002354854,-1.60731870354999,-0.670038465302609,0.333889434199659,0.333889434200443,-0.65857910135685,0.658579101356479,-1.14263121980656
158.0032,0.563420285139123,0.162558115716999,0.571923198973125,0.287445570797395,0.779693514576765,0.779693514579085,NaN,0.498370573137509,1.64630771569945,2.2404407984582,0.586418898226499,2.2404407984577,-1.59951657505129,-0.975225260922728,NaN,1.10625863870793,-0.0484912157241872,1.39796521663661,0.265312329105458,NaN,-1.57218559087528,-0.540918627642833,-1.35295952442052,-1.70910503915381,0.0576569530896175,2.22256697138063,NaN,-0.222410828190903,0.222410828190846,-1.53347006854806,-0.523094165712073,-0.940500145572981,-1.02441710766507,1.14556147846314,0.954392532784056,1.3702913909491,-0.976237937297972,2.81455612291179,2.81455612291202,-1.01700663210761,2.59061560760532,0.738818996040537,-1.50836892540977,0.137776647453225,-1.59294769776796,-0.660018591708713,0.29204234780994,0.292042347810736,-0.674123151083813,0.67412315108344,-1.13823649174602
158.1056,0.58745007481743,0.186557684544093,0.605961285295608,0.278822645868145,0.781677074211933,0.781677074214237,NaN,0.482645249327276,1.61394528201317,2.22247631226217,0.586088485413258,2.22247631226166,-1.57684536259102,-0.958031944632997,NaN,1.10521534772304,-0.0521492595866113,1.39317953674579,0.26621811485915,NaN,-1.58054300150298,-0.550867283450624,-1.35184830667227,-1.71546345303911,0.0630751274806133,2.22216467920527,NaN,-0.241662409747952,0.241662409747875,-1.5019433980126,-0.530987350321864,-0.931490089641868,-1.02124681123191,1.15190192901583,0.957220707713382,1.37625449524103,-0.976638553388796,2.80353496456991,2.80353496457015,-0.96137806656308,2.56886069451679,0.776782537697205,-1.5267410156978,0.173481510117083,-1.57720754588993,-0.650740625501616,0.250079077288493,0.250079077289301,-0.689068377660134,0.689068377659759,-1.13315463718247
158.208,0.611801235459318,0.209851160933844,0.639874118173105,0.269782198857668,0.78315927168713,0.783159271689424,NaN,0.467482377900324,1.58255404460811,2.20477389453546,0.585474890073535,2.20477389453495,-1.55387765537518,-0.941107829642891,NaN,1.10407764374707,-0.055632054081045,1.38843473368876,0.267455506057519,NaN,-1.58813200795049,-0.560178036279207,-1.34999627254104,-1.72063082124901,0.069459241615132,2.22097698447814,NaN,-0.26151593118075,0.261515931180661,-1.46971091671753,-0.538048642814585,-0.922306910387903,-1.01750922897007,1.15911054642559,0.959565614717685,1.38245905656398,-0.976512190611981,2.79135787581441,2.79135787581466,-0.903987485569364,2.54478766022211,0.814884117466649,-1.54246552551624,0.207474853658303,-1.56018923001101,-0.642247631942179,0.208071242616043,0.208071242616862,-0.703380939249238,0.70338093924886,-1.12738708469875
158.3104,0.636442706513657,0.232446355138959,0.673639647423951,0.260415565772991,0.784198745694177,0.784198745696471,NaN,0.452902092383572,1.55216944918705,2.18735731990417,0.584654456151093,2.18735731990365,-1.53061374725421,-0.924448681906747,NaN,1.10288797959602,-0.0589454216030124,1.38378074596692,0.269050545573098,NaN,-1.59494010302102,-0.568823518123678,-1.34743147760531,-1.72461376685322,0.0767917949947464,2.21901804404943,NaN,-0.281941627195987,0.28194162719588,-1.4368276646259,-0.544299326767096,-0.912972619524405,-1.01323299121605,1.16717962284298,0.961415811237941,1.38889253824877,-0.975811669158777,2.77808539271386,2.77808539271412,-0.844932029530582,2.5184834599959,0.853089437495837,-1.55559327587986,0.239725133792716,-1.54198379368641,-0.634579135580427,0.166089240905394,0.166089240906224,-0.717027670138029,0.717027670137648,-1.12093563078449
158.4128,0.66134069722068,0.254353105773662,0.707234643049361,0.250814448595905,0.784854034886005,0.784854034888296,NaN,0.438923470583356,1.52282284715024,2.17024536978087,0.583702633246702,2.17024536978035,-1.5070545553379,-0.90804859401046,NaN,1.1016865774325,-0.0620944200528503,1.37926531738021,0.271027998117459,NaN,-1.6009567101777,-0.576776312768294,-1.34418367620866,-1.72742051560033,0.085053096082458,2.21630279523142,NaN,-0.302907353319769,0.302907353319656,-1.40334743126922,-0.549762116431417,-0.903508106883817,-1.00844656413421,1.17610162689901,0.962761098277536,1.3955433390703,-0.974490883170212,2.76377793742367,2.76377793742394,-0.784308933786647,2.4900377899801,0.891365901813333,-1.56618203595804,0.270208702458051,-1.52268211856533,-0.627770933896301,0.124201824431877,0.124201824432719,-0.729976323817719,0.729976323817334,-1.11380260135704
158.5152,0.686458790908935,0.275583342152906,0.740634819330008,0.241070373793364,0.785183484503121,0.78518348450541,NaN,0.425564523026584,1.49454130713952,2.15345188777716,0.582693514576694,2.15345188777663,-1.48320176494628,-0.891900016371683,NaN,1.10051151206423,-0.0650834410078347,1.37493401380471,0.273411013154859,NaN,-1.60617346325632,-0.584009139856399,-1.34028416178652,-1.7290608793674,0.0942212483526582,2.21284706959355,NaN,-0.324378824177822,0.324378824177697,-1.36932282425432,-0.554461004706656,-0.893933078919867,-1.00317812207169,1.18586910041842,0.963592651010001,1.40240081281771,-0.972505141343987,2.74849571695004,2.74849571695033,-0.72221526168169,2.45954275341976,0.929682648618918,-1.57429605102007,0.29890947037952,-1.50237472983336,-0.621854957200793,0.0824757472715099,0.0824757472723622,-0.742195777568688,0.742195777568299,-1.10599099719784
158.6176,0.711758050495406,0.29615112580692,0.773814948178063,0.231274222437773,0.785245148209566,0.785245148211868,NaN,0.412842201696502,1.46734749617602,2.13698589084649,0.581699440144928,2.13698589084596,-1.45905796232692,-0.875993796016316,NaN,1.09939882325311,-0.067916331880025,1.37083025536685,0.276220837509913,NaN,-1.61058442731311,-0.590495083321595,-1.33576556829709,-1.72954623522165,0.104272171239303,2.2086676968264,NaN,-0.346319851234605,0.346319851234472,-1.33480532716226,-0.558421119266589,-0.884266011400774,-0.997455435506001,1.19647454502268,0.96390313438547,1.40945527142556,-0.969811474864055,2.73229863441532,2.73229863441562,-0.658747683850807,2.42709255929669,0.968010560390681,-1.58000558441768,0.325818550156689,-1.48115163792066,-0.616859170225812,0.0409754703346567,0.0409754703355191,-0.753656207056072,0.753656207055678,-1.09750461732304
158.72,0.737197128212048,0.316072665403771,0.80674896106093,0.221515809569022,0.785096682471697,0.785096682474002,NaN,0.400772421237872,1.44125962064465,2.12085173052377,0.580790654065585,2.12085173052323,-1.43462674764262,-0.860319219301724,NaN,1.09838265977717,-0.0705965446107411,1.36699536520403,0.279476581046381,NaN,-1.61418625178337,-0.5962078464293,-1.3306616388745,-1.72888949273774,0.115179649744693,2.20378259655383,NaN,-0.368692579879032,0.368692579878892,-1.2998453452151,-0.56166858164776,-0.874524108432704,-0.991305765599102,1.20791029903524,0.963686799683662,1.41669796925542,-0.966368916505307,2.7152462052322,2.71524620523251,-0.59400229536964,2.39278324725764,1.00632225565873,-1.58338646657415,0.350933880686508,-1.45910220754637,-0.61280750347545,-0.000237099164210906,-0.000237099163339007,-0.764329242169206,0.764329242168808,-1.08834815857998
158.8224,0.762732384028106,0.335366308536133,0.839410045258158,0.211883476511002,0.784795233721097,0.784795233723409,NaN,0.389370079501263,1.41629140037029,2.10504928587997,0.580034982582086,2.10504928587943,-1.40991283098177,-0.844864060430666,NaN,1.09749544365535,-0.0731272966812441,1.36346863300228,0.283195024904325,NaN,-1.61697827431289,-0.601122001556407,-1.32500698212856,-1.72710504546874,0.126915398616429,2.19821085841984,NaN,-0.391457727113911,0.39145772711376,-1.26449224650939,-0.564230363963907,-0.864723261568494,-0.98475575759796,1.22016840430285,0.962939560625986,1.42412106736246,-0.962138761415576,2.69739746832025,2.69739746832057,-0.528074456880517,2.3567124255938,1.04459206681723,-1.58451964033168,0.374259838033258,-1.43631503657108,-0.609719799179562,-0.0411028574422955,-0.0411028574414139,-0.774188109631144,0.774188109630741,-1.0785272961802
158.9248,0.788318014795887,0.354052515681375,0.871770739179674,0.202463671250931,0.784397317393453,0.784397317395764,NaN,0.37864906650236,1.39245205215736,2.0895741702109,0.579497504759038,2.08957417021035,-1.38492211862537,-0.829614640957603,NaN,1.09676803554177,-0.0755117236522304,1.36028738799013,0.287390456375101,NaN,-1.6189625970137,-0.605213221251178,-1.31883682748336,-1.7242087075088,0.139449128550528,2.19197280682708,NaN,-0.414574816972236,0.414574816972083,-1.22879440548826,-0.566134139140791,-0.854878010590299,-0.977831332243118,1.23324046356203,0.961659048408379,1.431717577731,-0.957084817655416,2.67881088446664,2.67881088446696,-0.461058649009413,2.31897900975941,1.08279600582229,-1.58349069360408,0.395806835478836,-1.41287783141961,-0.60761176349979,-0.0815657478677076,-0.0815657478668174,-0.783207760569651,0.783207760569244,-1.06804875199811
159.0272,0.813906193005692,0.372153809996821,0.903803022213794,0.193340515625338,0.783958678425284,0.783958678427607,NaN,0.368622252304673,1.36974627468096,2.07441794254877,0.579240213571326,2.07441794254821,-1.35966179239502,-0.814555908240985,NaN,1.09622988485386,-0.077753010046117,1.35748707228875,0.292074519649751,NaN,-1.62014413727706,-0.608458497879911,-1.31218677994318,-1.7202176409791,0.152748610273852,2.18509003600819,NaN,-0.438002402099473,0.438002402099322,-1.19279924864902,-0.567408125559299,-0.845001514851771,-0.970557582776472,1.2471174948181,0.95984464123486,1.43948128873675,-0.951173645987791,2.65954421603686,2.65954421603719,-0.39304833701246,2.27968295307484,1.12091171518776,-1.58038937494144,0.4155909120011,-1.38887727479695,-0.606494927362073,-0.121572985814908,-0.12157298581401,-0.791364982916125,0.791364982915713,-1.05692035403494
159.1296,0.839447212245558,0.389694689278811,0.935478388903632,0.184595377406675,0.783534120913766,0.783534120916099,NaN,0.359301449930319,1.34817424297351,2.05956832517753,0.579321685837985,2.05956832517697,-1.33414038045131,-0.799671539994784,NaN,1.09590915736074,-0.0798544974554431,1.35510130617375,0.297256077570742,NaN,-1.62053064523122,-0.610836365107602,-1.30509257533301,-1.71515028534141,0.166779740759278,2.17758539961597,NaN,-0.461698257907393,0.461698257907243,-1.15655329727318,-0.568080933604033,-0.835105546347994,-0.962958690374855,1.26178979220867,0.957497463720485,1.44740667489316,-0.944374783831119,2.63965439297829,2.63965439297864,-0.324135849265181,2.23892496924638,1.15891840064983,-1.57530909729553,0.433633310207884,-1.36439889072023,-0.606376624573963,-0.161075248918248,-0.161075248917343,-0.798638501612144,0.79863850161173,-1.04515108742409
159.232,0.864889636737931,0.40670149970703,0.966767904998924,0.176306472729695,0.783177312991367,0.783177312993721,NaN,0.350697367739776,1.32773163405942,2.04500943716222,0.57979678442939,2.04500943716165,-1.30836781955827,-0.78494407224366,NaN,1.09583284381706,-0.0818197760736378,1.35316194412576,0.302941084629079,NaN,-1.62013268971577,-0.612327134088475,-1.29758983277512,-1.70902629503188,0.181506620535729,2.16948295864536,NaN,-0.485619547633568,0.485619547633431,-1.12010219734908,-0.568181422317126,-0.825200510199387,-0.955057866796289,1.27724679549783,0.954620360620019,1.45548879521223,-0.936660951022705,2.61919738707379,2.61919738707414,-0.254412275570849,2.196806256501,1.19679674629683,-1.56834644289502,0.449960046914925,-1.33952691842479,-0.60725999599905,-0.200026826092903,-0.200026826091991,-0.80500906223273,0.805009062232309,-1.03275113805506
159.3344,0.890180454922098,0.423202290284568,0.997642256044514,0.168548517652894,0.782940592410354,0.782940592412718,NaN,0.342819579520113,1.30840970619205,2.03072205519236,0.580716407101378,2.03072205519178,-1.28235551317771,-0.770355037164724,NaN,1.09602685423333,-0.0836527624068065,1.3516991250771,0.30913247780271,NaN,-1.61896362685474,-0.612913156600827,-1.28971378818159,-1.7018664789058,0.196891651095895,2.16080791434536,NaN,-0.509722972023172,0.509722972023041,-1.08349072545025,-0.567738569399414,-0.815295486821827,-0.946877321309409,1.29347695992889,0.951217858287109,1.46372318369162,-0.928008238438499,2.59822811815875,2.59822811815911,-0.183967387357475,2.15342823484772,1.23452881774512,-1.55960068287037,0.464601484246044,-1.31434420269897,-0.60914402408793,-0.238385729254405,-0.238385729253487,-0.810459485829813,0.810459485829388,-1.01973193150846
159.4368,0.915265239627825,0.43922666724911,1.02807180156845,0.161392431866127,0.782874792597566,0.782874792599951,NaN,0.335676526003556,1.2901954338978,2.01668389977254,0.582127278443486,2.01668389977194,-1.25611639052176,-0.755885100547775,NaN,1.09651609384563,-0.08535776182067,1.35074131297794,0.315830091518168,NaN,-1.61703956374402,-0.61257911648138,-1.28149899819435,-1.69369273231133,0.212895654509732,2.15158655016557,NaN,-0.533964919894284,0.533964919894161,-1.04676277060294,-0.566781357639107,-0.805398282496814,-0.938438242824559,1.3104676184892,0.947296124472375,1.4721057338043,-0.918396280091098,2.5768003945459,2.57680039454627,-0.112889576510753,2.10889229779132,1.27209795727808,-1.54917332311038,0.477591919054337,-1.28893209547431,-0.612023595399506,-0.276113774645866,-0.276113774644943,-0.814974694779049,0.814974694778621,-1.00610617046223
159.5392,0.940088317288406,0.454805650944275,1.05802663836229,0.154905082139408,0.78302908529472,0.783029085297128,NaN,0.329275532574184,1.27307167525436,2.00286992716479,0.584071767961876,2.00286992716419,-1.22966496696478,-0.741514201733066,NaN,1.09732451516354,-0.0869395213292645,1.35031531528632,0.32303059487097,NaN,-1.61437931613595,-0.611312326754393,-1.27297903284608,-1.68452796253595,0.229478006401071,2.14184618253456,NaN,-0.558301624909429,0.558301624909315,-1.00996131022425,-0.565338684624262,-0.795515478570004,-0.929760792911016,1.32820483904272,0.942862927006638,1.48063257893691,-0.907808408707995,2.55496686832117,2.55496686832155,-0.0412658084888088,2.0632995695714,1.30948866919954,-1.53716768214213,0.488969208753347,-1.26337035665207,-0.615889583861591,-0.313176637545707,-0.313176637544779,-0.818541730010006,0.818541730009572,-0.991887873129189
159.6416,0.964592948686802,0.469971525363753,1.08747666944671,0.149149046557308,0.783450822713604,0.783450822716029,NaN,0.323622817691276,1.25701734259751,1.98925260610077,0.586587718293468,1.98925260610015,-1.20301739976502,-0.727221703834732,NaN,1.09847514858598,-0.0884032831868556,1.35044627274321,0.330727446376033,NaN,-1.6110043503105,-0.609102998264607,-1.2641861891957,-1.67439601320303,0.246596769479925,2.13161510434715,NaN,-0.582689322485844,0.58268932248574,-0.973128401104711,-0.563439297048662,-0.785652479117452,-0.92086411024554,1.34667328468032,0.937927586592738,1.48929997101459,-0.896231797124181,2.5327789873331,2.53277898733349,0.0308184139022063,2.01675066041711,1.34668649389084,-1.5236885006298,0.498774438882613,-1.23773704820143,-0.620728947164636,-0.349543881055412,-0.349543881054478,-0.821149781038266,0.821149781037825,-0.977092412878393
159.744,0.988721525968873,0.484757670590532,1.11639167722971,0.144182387656091,0.784185366351389,0.78418536635384,NaN,0.318723477459853,1.24200756371525,1.97580217376772,0.589708279623449,1.97580217376709,-1.17619153029602,-0.712986556882774,NaN,1.09999011697974,-0.0897548405020011,1.35115762633042,0.338910867482558,NaN,-1.60693870329045,-0.605944459566371,-1.25515124495394,-1.66332159083886,0.26420882156552,2.1209225069148,NaN,-0.607084396402755,0.607084396402666,-0.936305191715736,-0.561111740122922,-0.775813564246801,-0.911766327361826,1.3658560824267,0.932500919376788,1.49810415777149,-0.883657588644657,2.51028694071148,2.51028694071188,0.103279078384299,1.96934542198439,1.38367787415663,-1.5088415834147,0.507051629663737,-1.2121084254246,-0.626524831451299,-0.385188958802183,-0.385188958801245,-0.822790234836936,0.822790234836488,-0.961736555942249
159.8464,1.01241578912474,0.499198372973222,1.14474140066964,0.140058438334769,0.785275898369372,0.785275898371823,NaN,0.314581446791758,1.22801383995047,1.96248687968904,0.593461761347511,1.96248687968841,-1.14920690775512,-0.698787472696176,NaN,1.10189063426761,-0.0910005839237589,1.35247107172325,0.347567840720177,NaN,-1.6022088804902,-0.601833324127601,-1.24590325968324,-1.65133019798266,0.28226998109167,2.10979837408979,NaN,-0.63144350630917,0.631443506309102,-0.89953194817193,-0.558384313779712,-0.766001956473478,-0.902484601395507,1.38573470158778,0.926595165934595,1.50704125727334,-0.870081014719426,2.48753960249358,2.48753960249399,0.176033680658821,1.92118271067915,1.42045001694518,-1.49273347491398,0.51384747475746,-1.1865588333411,-0.633256683730856,-0.420089192317763,-0.420089192316822,-0.823456735696695,0.823456735696239,-0.945838493334537
159.9488,1.03561705729884,0.513328613614761,1.1724956128152,0.136825616153615,0.786763220068038,0.786763220070499,NaN,0.311199451596555,1.21500422113917,1.94927323229002,0.597871521229797,1.94927323228938,-1.12208479678485,-0.684603109579304,NaN,1.10419698578434,-0.0921475266267796,1.35440651027071,0.356682138043517,NaN,-1.596843728594,-0.59676961004789,-1.23646942668705,-1.63844807972766,0.300735138223085,2.09827335275012,NaN,-0.655723693542734,0.655723693542685,-0.862848079497869,-0.555285036322876,-0.756219900879957,-0.893035159727672,1.40628884129409,0.920223904993205,1.51610712829575,-0.855501492943505,2.46458447825434,2.46458447825476,0.249001225244139,1.87236016511529,1.45699074872127,-1.47547115786632,0.519211095330773,-1.16116061411872,-0.640900376313913,-0.454225724130472,-0.454225724129526,-0.823145239502785,0.823145239502322,-0.929417866143048
160.0512,1.05826646500215,0.527183839815986,1.19962419288867,0.13452728121798,0.788685548176127,0.788685548178594,NaN,0.308578970993808,1.20294351803299,1.93612626472798,0.602955908758958,1.93612626472733,-1.09484817452909,-0.670412263313422,NaN,1.10692849152977,-0.0932033030005217,1.35698200227808,0.366234380997756,NaN,-1.59087428017748,-0.590756827150168,-1.22687496872246,-1.62470218816791,0.319558398834448,2.0863786126399,NaN,-0.679882468912917,0.679882468912877,-0.826292147439698,-0.551841616399887,-0.746468754390446,-0.883433357232162,1.42749632543841,0.913401952867676,1.52529723604172,-0.839922698986719,2.44146766004288,2.4414676600433,0.322102204945943,1.82297400099322,1.4932883621799,-1.45716175674855,0.523193788799194,-1.1359840253773,-0.649428349241404,-0.487583446474782,-0.487583446473832,-0.821854047611381,0.82185404761091,-0.912495787215325
160.1536,1.08030519689867,0.540799720913392,1.22609718833422,0.133201639072115,0.791078315342184,0.79107831534466,NaN,0.306720211719741,1.19179355409902,1.92300982824964,0.608728263213681,1.92300982824897,-1.06752171843771,-0.65619406152451,NaN,1.11010345950472,-0.0941761525953044,1.36021372115222,0.376202124354959,NaN,-1.58433356852062,-0.583802043621953,-1.21714306790596,-1.61012016455531,0.338693239892339,2.07414570450855,NaN,-0.703877886705408,0.703877886705385,-0.789901857308041,-0.54808142932901,-0.736749080348881,-0.873693740022739,1.44933300549702,0.906145249823188,1.53460651431382,-0.823352610987159,2.41823378837305,2.41823378837348,0.395258560614742,1.7731188211625,1.52933145439119,-1.43791222933277,0.525848761391678,-1.11109716155706,-0.658809772838439,-0.520150907411598,-0.520150907410642,-0.819583822562691,0.819583822562212,-0.895094862423853
160.256,1.10167472061177,0.554211882691284,1.2518848630698,0.132881670286063,0.793973968460507,0.793973968462997,NaN,0.30562207321494,1.18151343350658,1.90988690055875,0.615196949019691,1.90988690055808,-1.04013178176551,-0.641928163808715,NaN,1.1137391422933,-0.095074915673351,1.36411590091831,0.386559943960984,NaN,-1.57725641372156,-0.575915922766005,-1.20729483433153,-1.59473033647539,0.358092664298447,2.06160641154048,NaN,-0.727668605765643,0.727668605765629,-0.753714043911457,-0.544031496875821,-0.72706074450662,-0.863830112107928,1.47177267802418,0.898470731952242,1.54402922759452,-0.805803528848148,2.39492600514771,2.39492600514814,0.468393630990613,1.72288742796217,1.56510875713565,-1.41782903593757,0.527230843968605,-1.08656586692207,-0.669010727128606,-0.551920199812606,-0.551920199811646,-0.816337604220353,0.816337604219866,-0.877239210293124
160.3584,1.12231701859644,0.567455613238712,1.27695772880428,0.133595061427646,0.797401751714822,0.797401751717322,NaN,0.305282077918788,1.17205979510291,1.89671988087863,0.622365408075224,1.89671988087794,-1.01270635364231,-0.627594972983556,NaN,1.11785170709347,-0.0959090633495014,1.36870076890194,0.397279508969251,NaN,-1.56967918619928,-0.567112708097506,-1.19734932849831,-1.57856172835133,0.377709341505125,2.04879258085323,NaN,-0.751213936616463,0.751213936616465,-0.717764673681906,-0.5397184764185,-0.717403006256204,-0.853855603062701,1.49478702604645,0.890396185676689,1.55355883708416,-0.787292071745162,2.3715858767771,2.37158587677753,0.541432107809492,1.67237061835529,1.60060896093212,-1.39701778663073,0.527396198449844,-1.06245363289664,-0.6799943923305,-0.5828868371595,-0.582886837158536,-0.812120842640853,0.812120842640357,-0.858954474064613
160.4608,1.14217482141632,0.580565541523161,1.30128656213154,0.135364126427409,0.801387469763012,0.801387469765523,NaN,0.305696257815252,1.16338703642244,1.88347085061606,0.630232221147928,1.88347085061536,-0.985275002186,-0.613175858094032,NaN,1.12245621658064,-0.0966887636928264,1.37397845888041,0.408329627984753,NaN,-1.56163956323833,-0.55741015309532,-1.1873236404975,-1.5616440853639,0.397495726972197,2.03573592733768,NaN,-0.774473874403583,0.774473874403596,-0.682088876069997,-0.535168664621821,-0.707774602755928,-0.843782737461957,1.51834558861058,0.881940085020135,1.56318787354014,-0.767839156641048,2.34825328144017,2.34825328144061,0.614300008038796,1.62165695085547,1.63582053670111,-1.37558288314323,0.526402030439081,-1.03882148291819,-0.69172124488436,-0.613049616650543,-0.613049616649575,-0.806941450175159,0.806941450174655,-0.840267821080782
160.5632,1.16119184529739,0.593575300763241,1.32484241667709,0.1382057281142,0.805953241401492,0.805953241404006,NaN,0.306859007265117,1.15544751136082,1.87010180053333,0.638791182897962,1.87010180053263,-0.957868802284647,-0.59865338448575,NaN,1.12756660837797,-0.0974249655215669,1.37995690585257,0.419676269329563,NaN,-1.55317629762903,-0.546829414606963,-1.17723300935322,-1.54400790895911,0.417404160646826,2.02246781409042,NaN,-0.797409118851194,0.797409118851222,-0.646721005266891,-0.530408017767498,-0.698173830850543,-0.83362351111984,1.54241575764355,0.873121416994327,1.57290781990348,-0.747469959020219,2.32496627080286,2.32496627080331,0.686924661999443,1.57083249034577,1.67073155788371,-1.353627177707,0.524306320490948,-1.01572785750521,-0.704149257071313,-0.642410470587679,-0.642410470586707,-0.80080986569883,0.800809865698317,-0.821207929692398
160.6656,1.17931303056875,0.606517193143633,1.34759663675909,0.14213122242841,0.811117260677242,0.811117260679758,NaN,0.308762925734206,1.1481917215472,1.85657483966832,0.64803140505439,1.8565748396676,-0.930520254782281,-0.584011545653263,NaN,1.13319566264666,-0.0981294796507161,1.38664172769338,0.431282566565116,NaN,-1.54432900234326,-0.535394929157376,-1.1670909613752,-1.52568449792696,0.437386949787248,2.00901902080872,NaN,-0.819981084244722,0.819981084244772,-0.611694725353348,-0.525462195790486,-0.688598632116939,-0.823389482042756,1.56696279932319,0.86395950319359,1.58270900725037,-0.726213853575354,2.30176092093321,2.30176092093367,0.759234702089514,1.51998054777174,1.70532951977566,-1.33125165637086,0.521167569091243,-0.993228513322539,-0.717234105524501,-0.670974308782417,-0.670974308781444,-0.793739119621995,0.793739119621473,-0.801804965453628
160.768,1.19648477068496,0.619421871137152,1.36952087241074,0.147146448565273,0.816893582067918,0.81689358207043,NaN,0.311398682116548,1.14156853150732,1.84285240301147,0.657937470859072,1.84285240301074,-0.903263204912798,-0.569235988335293,NaN,1.13935495514648,-0.0988150454335918,1.39403610161803,0.443108831039971,NaN,-1.53513793603731,-0.52313428878557,-1.1569094467987,-1.50670598747524,0.457396446981003,1.99541951407249,NaN,-0.842151905648985,0.842151905649061,-0.57704310468417,-0.520356636596082,-0.679046680926135,-0.813091879393771,1.59194989268159,0.854473826377723,1.59258052516847,-0.704104330348688,2.27867118896091,2.27867118896137,0.831160035942796,1.46918143300973,1.73960115287042,-1.30855513911493,0.517044538047719,-0.971376445278687,-0.730929396104828,-0.698748857682217,-0.698748857681241,-0.78574488424282,0.78574488424229,-0.782090545220947
160.8704,1.21265512370771,0.632318046565949,1.39058709513498,0.153251773817493,0.823291945005352,0.82329194500786,NaN,0.314754925385696,1.13552542944778,1.828897470922,0.668489656471558,1.82889747092126,-0.876132761670233,-0.554314216646243,NaN,1.1460547975521,-0.0994953735295619,1.40214064627437,0.455112592207868,NaN,-1.52564377558444,-0.510078135926223,-1.14669895141452,-1.48710537840201,0.47738513576721,1.98169823494531,NaN,-0.863884448993371,0.863884448993478,-0.542798700544533,-0.515116649774843,-0.669515472036175,-0.802741722067099,1.61733817379972,0.844683870043841,1.60251014432441,-0.681178884056912,2.25572879398314,2.25572879398361,0.902631802439649,1.41851223494359,1.77353223789653,-1.28563398999636,0.511995976539021,-0.95022183600845,-0.745186903262274,-0.725744506862985,-0.725744506862006,-0.776845494672379,0.776845494671839,-0.762097688640412
160.9728,1.22777400517961,0.645232230915342,1.41076761546849,0.160442177603553,0.830317646014969,0.830317646017485,NaN,0.318818239437896,1.13000882524757,1.81467380192243,0.679664206943541,1.81467380192168,-0.849165213534029,-0.539235765140372,NaN,1.15330416682861,-0.100185156781141,1.41095331941498,0.46724866912837,NaN,-1.51588737976371,-0.496260076366061,-1.1364685730669,-1.466916545878,0.497305726587097,1.96788291403933,NaN,-0.885142328829177,0.885142328829318,-0.50899362479126,-0.509767505449194,-0.660002404657922,-0.792349931924358,1.64308677939874,0.834608974701486,1.61248424967537,-0.657478879359293,2.23296313022142,2.23296313022189,0.97358232336391,1.36804663505067,1.80710743866662,-1.2625818395063,0.50608033454455,-0.929812032436036,-0.759956810572016,-0.751974173531934,-0.751974173530955,-0.767061938480424,0.767061938479875,-0.741860762573697
161.0752,1.24179336509944,0.6581885040244,1.43003510303739,0.168707343361854,0.837971455568234,0.837971455570753,NaN,0.323573115872431,1.12496435015645,1.80014616485294,0.691433629618547,1.80014616485218,-0.822397936240669,-0.523992342738265,NaN,1.16111062784975,-0.100900049489777,1.42046933633646,0.479469260156601,NaN,-1.50590955975524,-0.481716577816697,-1.12622607732517,-1.44617421739664,0.517111251726023,1.95399991263111,NaN,-0.905889932134266,0.905889932134454,-0.475659600465461,-0.504334502962305,-0.650504859390137,-0.781927430927787,1.66915289453992,0.824268209588771,1.62248778653419,-0.633049398719916,2.21040120077824,2.21040120077872,1.04394506556694,1.31785475190781,1.84031016498549,-1.23948932399377,0.499355473758944,-0.910191544570101,-0.775187937600092,-0.777453188197695,-0.777453188196716,-0.756417825505583,0.756417825505026,-0.721415425320714
161.1776,1.2546673516462,0.671208308690748,1.44836260996905,0.178031731836695,0.846249571492129,0.846249571494653,NaN,0.32900192029979,1.12033712463732,1.78528055021695,0.703766970079481,1.78528055021619,-0.795869291826287,-0.50857795523359,NaN,1.16948026057897,-0.101656629301725,1.43068111055142,0.491724037103315,NaN,-1.49575086756241,-0.466486822562159,-1.11597795415338,-1.42491391738667,0.536755143976568,1.94007408194931,NaN,-0.926092444904772,0.926092444904996,-0.442828027630324,-0.498843021304373,-0.641020261411601,-0.771485217837255,1.69549181267745,0.813680257055127,1.63250422297959,-0.607939079046685,2.18806754988432,2.1880675498848,1.11365462243139,1.26800300702351,1.8731224675959,-1.21644384159453,0.491878381449523,-0.891402060246851,-0.790827945967768,-0.802199197661231,-0.802199197660251,-0.744939347311839,0.744939347311271,-0.700798570367263
161.28,1.26635246348874,0.6843102710821,1.46572359916382,0.188394628072537,0.855143601642767,0.855143601645289,NaN,0.335084845166335,1.11607198288869,1.77004434948084,0.716630057997517,1.77004434948007,-0.769618519284971,-0.492989011520939,NaN,1.1784176094488,-0.102472363587275,1.44157821921668,0.503960239945123,NaN,-1.48545140173031,-0.450612506238792,-1.10572948778876,-1.40317188433439,0.556191290890174,1.92612863418295,NaN,-0.945715878432476,0.945715878432745,-0.410530068807721,-0.493318559270588,-0.631546125324175,-0.761034424888655,1.72205701229031,0.802863307043987,1.64251552964551,-0.582199939945874,2.16598417899545,2.16598417899593,1.18264671568737,1.21855400260822,1.90552496001514,-1.19352932211771,0.483704886904446,-0.87348247325451,-0.806823526165892,-0.826232080892486,-0.826232080891507,-0.732655230326117,0.732655230325538,-0.680048263707823
161.3824,1.27680769206185,0.697510045648388,1.48209197786529,0.199770173351239,0.864640570556788,0.86464057055931,NaN,0.341799855945399,1.11211366315892,1.75440650713277,0.729985730439672,1.754406507132,-0.743685616327795,-0.477224414126368,NaN,1.18792566959689,-0.103365592075573,1.45314740143148,0.516122780331685,NaN,-1.47505062258541,-0.434137586473147,-1.09548484382025,-1.38098496704826,0.57537406615064,1.91218502206651,NaN,-0.964727091308144,0.964727091308466,-0.378796751220621,-0.48778676948929,-0.622080086915455,-0.750586360814465,1.74880024964748,0.791834959326686,1.65250217505016,-0.555887204800186,2.14417045300109,2.14417045300157,1.25085821051052,1.16956641344096,1.93749676204057,-1.17082601607689,0.474889382035595,-0.856468929190917,-0.823120570855222,-0.84957387650032,-0.849573876499342,-0.719596687814477,0.719596687813887,-0.659203670906677
161.4848,1.28599465359597,0.710820180756335,1.49744213421223,0.212127406164476,0.874722947614578,0.874722947617093,NaN,0.349122645682306,1.10840698635794,1.73833766229232,0.743794053054003,1.73833766229154,-0.718111210902921,-0.461285630301089,NaN,1.1980059099432,-0.104355516096078,1.46537259841852,0.528154371735265,NaN,-1.46458716772095,-0.417107990250801,-1.0852471735096,-1.35839050673372,0.594258346898201,1.89826282593733,NaN,-0.983093803708153,0.983093803708525,-0.347659073584384,-0.482273488587791,-0.612619935103815,-0.740152552022259,1.77567166403835,0.7806121323035,1.66244313331363,-0.529059114994563,2.12264302125151,2.12264302125199,1.31822713122832,1.12109490725759,1.96901546246212,-1.14841031495362,0.465484550979306,-0.840394897958271,-0.839664340710082,-0.87224872129538,-0.872248721294404,-0.705797369819556,0.705797369818954,-0.638304973318069
161.5872,1.29387771050683,0.724250000302962,1.5117489737559,0.22543033978759,0.885368697358378,0.885368697360888,NaN,0.35702661279895,1.10489704787234,1.72181029862197,0.758012566229182,1.72181029862119,-0.692936418752459,-0.445176737343299,NaN,1.20865831597634,-0.105462172397107,1.47823503385788,0.539995703917011,NaN,-1.45409865858109,-0.399571304587194,-1.07501872714494,-1.33542621530979,0.612799528642241,1.88437964784943,NaN,-1.0007846029092,1.00078460290963,-0.317148102171644,-0.476804766694803,-0.603163656427469,-0.729744793503034,1.80261989100942,0.769210978285525,1.67231590132738,-0.501776734193281,2.10141577702084,2.10141577702132,1.38469266698933,1.07319010486135,2.00005709831553,-1.12635461341702,0.4555411145707,-0.825291279163253,-0.856399627632675,-0.894282795719225,-0.89428279571825,-0.691293299726775,0.691293299726162,-0.617393272900363
161.6896,1.30042408533917,0.737805497353147,1.52498795642912,0.239638091584146,0.896551353601873,0.896551353604373,NaN,0.365482863775019,1.10152943113462,1.70479891245852,0.772596573180035,1.70479891245773,-0.668202680205082,-0.42890443789605,NaN,1.21988142709699,-0.106706372812192,1.49171331909116,0.551585666662181,NaN,-1.44362149296714,-0.381576484844498,-1.06480095816057,-1.31213005799777,0.630953545227931,1.87055101177489,NaN,-1.01776893996219,1.01776893996268,-0.287295045585193,-0.471406895611603,-0.593709498008061,-0.719375213886983,1.82959218205386,0.757646804458687,1.68209652384457,-0.474103737157715,2.08049985987521,2.08049985987569,1.45019516569173,1.02589857633577,2.03059614671287,-1.10472721668549,0.445107598020364,-0.811186535486011,-0.873270916607927,-0.91570426819417,-0.915704268193197,-0.676122791403375,0.67612279140275,-0.596510485735861
161.792,1.30560397008393,0.751489238899161,1.53713513585912,0.254705055659444,0.908240116712785,0.908240116715277,NaN,0.37446022633072,1.09825042555174,1.68728019134485,0.787499461199047,1.68728019134406,-0.643951571790311,-0.412478047655437,NaN,1.23167234770547,-0.108109602441104,1.50578356290544,0.562861610347043,NaN,-1.43319062780367,-0.363173598110245,-1.0545946041618,-1.28854013981825,0.648676890915119,1.85679026758624,NaN,-1.03401711674818,1.03401711674872,-0.258131311016827,-0.46610643048665,-0.584256048649695,-0.709056351715206,1.85653453397102,0.745933997180262,1.691759627017,-0.446106181376908,2.05990368688515,2.05990368688563,1.51467612203884,0.979262860103418,2.06060552609212,-1.08359228446357,0.434230130279486,-0.798106835397949,-0.890222542972908,-0.936543229595646,-0.936543229594673,-0.66032635705278,0.660326357052143,-0.575699226768854
161.8944,1.30939062722816,0.765300286623712,1.5481672006816,0.270581097646301,0.920399971050272,0.920399971052748,NaN,0.383925256802203,1.09500721999313,1.66923317919835,0.80267303061563,1.66923317919755,-0.620224596712535,-0.395909463604089,NaN,1.24402672636655,-0.109693884887036,1.52041947050722,0.573759622229686,NaN,-1.42283936443542,-0.344413590556966,-1.04439975264825,-1.26469459523839,0.665926633618794,1.84310849732917,NaN,-1.0495002645942,1.04950026459478,-0.229688558237926,-0.460930204688903,-0.574802333106989,-0.698801238782995,1.88339183269897,0.734085947408608,1.70127846202788,-0.417852266776823,2.03963299528281,2.03963299528329,1.57807816617792,0.933321492307541,2.09005660475908,-1.0630097955173,0.422952279359025,-0.786076182489427,-0.907198843241194,-0.956831608517864,-0.956831608516891,-0.643946622897651,0.643946622897003,-0.555002688931301
161.9968,1.31176047671086,0.779234142392265,1.55806151782255,0.287211756969254,0.932991819829287,0.932991819831754,NaN,0.393842237021317,1.09174805472644,1.65063940549251,0.818067810624431,1.65063940549169,-0.597062963324485,-0.379213119548857,NaN,1.25693871788163,-0.111481638337924,1.53559242876655,0.584214802076297,NaN,-1.41259914708579,-0.325348053277097,-1.03421591700514,-1.24063148658527,0.682660410587417,1.82951442566238,NaN,-1.06419031975149,1.0641903197521,-0.201998766893514,-0.455905345102964,-0.565347911157227,-0.688623487557425,1.91010801280469,0.722114976611699,1.71062495915304,-0.389412091153615,2.01969088689281,2.01969088689329,1.6403450564183,0.888109039672638,2.11891921552876,-1.04303552087159,0.411314921255449,-0.775116520007748,-0.924144303793473,-0.976603059008736,-0.976603059007763,-0.627028261950688,0.627028261950029,-0.534464517469323
162.0992,1.31269316684749,0.793282723555263,1.56679617896908,0.304538452137065,0.945972636083278,0.945972636085724,NaN,0.404173168135448,1.08842233464507,1.63148297405935,0.833633353334247,1.63148297405853,-0.574507357562435,-0.362405929071519,NaN,1.27040095342353,-0.113495544392645,1.55127159004942,0.594161531285169,NaN,-1.40249937844827,-0.306028967617261,-1.02404214238635,-1.21638871598262,0.698836406537171,1.81601433780361,NaN,-1.0780600002026,1.07806000020326,-0.175094317254754,-0.45105929058302,-0.555892974044951,-0.678537378111588,1.93662622931673,0.710032263715261,1.71976979048004,-0.360857405368667,2.00007787166584,2.00007787166632,1.70142167715407,0.843656136375009,2.14716167786872,-1.02372100234414,0.399356131261705,-0.765247818415224,-0.941003712775512,-0.995892817610875,-0.995892817609904,-0.609617936591993,0.609617936591322,-0.5141286776548
162.2016,1.31217163073178,0.807434369550526,1.57435005235676,0.322498691457608,0.95929563315702,0.959295633159445,NaN,0.414877778090233,1.08498072216805,1.61175062500644,0.849318507317388,1.61175062500562,-0.552597711798633,-0.345507210080569,NaN,1.2844045338591,-0.115758430293969,1.56742397375324,0.603533738663338,NaN,-1.39256725715937,-0.286508433709469,-1.01387713412613,-1.19200394646971,0.714413321904256,1.80261201037751,NaN,-1.09108278519117,1.09108278519188,-0.149008068824723,-0.446419807006461,-0.546438435105237,-0.668557938634385,1.96288903419188,0.697847776699,1.72868243869066,-0.33226136861222,1.98079191324349,1.98079191324397,1.76125403990173,0.79998953298824,2.17475083085422,-1.00511354001909,0.387111084647084,-0.756488163555396,-0.957722317018421,-1.01473753347209,-1.01473753347113,-0.591764230491011,0.591764230490329,-0.494039313812724
162.304,1.31018213198976,0.821673885910363,1.58070284662519,0.341026300419807,0.972910467049431,0.972910467051849,NaN,0.425913565711215,1.08137523457771,1.59143178618456,0.865071681042917,1.59143178618373,-0.531372973358677,-0.328538582229275,NaN,1.29893904530983,-0.118293152258167,1.58401459582995,0.612265169438379,NaN,-1.38282764769148,-0.266838407476886,-1.00371937739144,-1.16751452100006,0.729350341265251,1.7893086670723,NaN,-1.10323290238501,1.10323290238577,-0.123773418179201,-0.442014995068573,-0.536986012183359,-0.658701015616651,1.98883854414679,0.685570217471811,1.73733126903813,-0.303698303857246,1.96182848700232,1.96182848700281,1.81978928204329,0.757132168564535,2.20165207908844,-0.987256193469385,0.37461196444007,-0.748853853300116,-0.974245984745944,-1.03317508173421,-1.03317508173325,-0.573517551902898,0.573517551902204,-0.474240599437828
162.4064,1.30671430463403,0.835982632237878,1.58583519449733,0.36005167746321,0.986763482331261,0.986763482333665,NaN,0.437235894153053,1.0775593581178,1.57051861966017,0.880841107540688,1.57051861965933,-0.510870873600523,-0.311523829866223,NaN,1.31399259123176,-0.1211224787155,1.60100661994572,0.620289658230369,NaN,-1.37330298988468,-0.247070472364313,-0.993567218156742,-1.1429573700653,0.743607106484099,1.776102970361,NaN,-1.11448533010787,1.11448533010868,-0.0994243284425321,-0.437873292412842,-0.527538300183041,-0.648983333195488,2.01441658864604,0.673206988422646,1.74568360282733,-0.275243455431683,1.94318066270466,1.94318066270515,1.87697565994338,0.715103271988904,2.22782945247297,-0.970187793978764,0.361887883361242,-0.742359492236659,-0.990521373047731,-1.05124437193027,-1.05124437192931,-0.554930006462188,0.554930006461483,-0.454776581392901
162.5088,1.30176118798322,0.850338648982146,1.58972875418269,0.379502072929325,1.00079799680499,1.00079799680738,NaN,0.448798120192417,1.07348816408573,1.54900605405988,0.896575107070382,1.54900605405904,-0.491127693201727,-0.294488731200497,NaN,1.32955183834797,-0.124268986975287,1.61836151414703,0.627541395670166,NaN,-1.36401324658316,-0.227255656188324,-0.9834188982136,-1.11836890867785,0.75714369020097,1.76299104604611,NaN,-1.12481581410457,1.12481581410544,-0.0759953371968186,-0.434023466173448,-0.518098836914772,-0.639422542183175,2.03956484027871,0.660764180981892,1.75370579406035,-0.246972751787934,1.9248392121364,1.9248392121369,1.93276254058685,0.673918488898376,2.25324568129533,-0.953942957500654,0.348964827723473,-0.73701806451498,-1.00649609546347,-1.06898515321773,-1.06898515321677,-0.536055251136464,0.536055251135747,-0.435691023784226
162.6112,1.29531925300285,0.864716810288029,1.59236631820811,0.399301870982679,1.01495460555654,1.01495460555891,NaN,0.460551731556061,1.06911839887919,1.52689178591084,0.912222329221482,1.52689178591,-0.472178022077879,-0.277460864769411,NaN,1.34560207327109,-0.127754983659385,1.63603919922345,0.633955176830063,NaN,-1.35497588556403,-0.207444282618412,-0.973272562493394,-1.09378493251063,0.769920563057962,1.74996652625141,NaN,-1.13420089127068,1.13420089127161,-0.0535215554969915,-0.430494589651652,-0.508672164076171,-0.630037257019251,2.06422493909486,0.648246579018921,1.76136331198156,-0.218962575369207,1.90679272630494,1.90679272630544,1.98710040042275,0.633590021635158,2.2778622865923,-0.938552090959244,0.335865631538954,-0.732840967838515,-1.02211888775229,-1.08643780647024,-1.08643780646928,-0.516948340230609,0.516948340229881,-0.417027255435528
162.7136,1.28738841704305,0.879088993481495,1.59373192176453,0.419372859606646,1.02917148459191,1.02917148459427,NaN,0.472446473966827,1.06440853296749,1.50417623707499,0.927731960559458,1.50417623707414,-0.454054520465851,-0.260469409059067,NaN,1.36212726047647,-0.131602443091253,1.65399818202354,0.639466633422234,NaN,-1.34620588855284,-0.187685824556163,-0.963126274563253,-1.06924052333865,0.78189855330973,1.73702059860444,NaN,-1.14261791608172,1.14261791608272,-0.0320386673531411,-0.427316008348716,-0.499263876089233,-0.6208470774935,2.08833862028657,0.635657668514803,1.76862082992804,-0.191289537849566,1.88902772209746,1.88902772209795,2.03994083572418,0.594126766774516,2.3016396797304,-0.924041390468064,0.322609986716483,-0.72983800088317,-1.03733977694769,-1.10364311895263,-1.10364311895168,-0.497665563965191,0.497665563964452,-0.398828020221548
162.816,1.27797204622691,0.893424258402013,1.59381094609707,0.439634489801613,1.04338468067799,1.04338468068034,NaN,0.484430466150915,1.05931877463226,1.48086246686837,0.943053904167049,1.48086246686751,-0.436787689608941,-0.243544948213993,NaN,1.37911009089022,-0.135832948239804,1.67219567413411,0.644012464137797,NaN,-1.33771577228157,-0.168028721178854,-0.952978074392888,-1.04476996811848,0.793038802910879,1.72414205480036,NaN,-1.15004509036372,1.15004509036478,-0.011582932147713,-0.424517309628143,-0.489880647671728,-0.611872595263486,2.11184785185262,0.622999647208268,1.77544232061005,-0.164030255731352,1.87152872789563,1.87152872789614,2.09123658038954,0.555534440303767,2.32453726089726,-0.910432832629471,0.309214483550954,-0.728017311471072,-1.05211026002357,-1.12064205389403,-1.12064205389308,-0.478264272244463,0.478264272243712,-0.381135327398259
162.9184,1.26707694334093,0.907689031689482,1.59259021234285,0.460004136882853,1.05752838398103,1.05752838398336,NaN,0.496450314584189,1.05381106828925,1.45695604984312,0.958138951648486,1.45695604984226,-0.420405657292847,-0.226719289045934,NaN,1.39653202061172,-0.140467623961032,1.69058770489818,0.647530674182123,NaN,-1.32951560888873,-0.148520147963209,-0.942826085471944,-1.02040669055545,0.803302728168085,1.71131733690374,NaN,-1.1564614971375,1.15646149713863,0.00780881690298924,-0.422128304502578,-0.480530239299703,-0.603135388863515,2.13469498803778,0.61027343229501,1.78179116029334,-0.137261121063325,1.85427835364988,1.85427835365038,2.14094152369653,0.517815691916972,2.3465135104366,-0.897744164948333,0.295692665274734,-0.727385329202348,-1.06638349514069,-1.13747552970073,-1.13747552969978,-0.458802675545795,0.458802675545034,-0.363990300747016
163.0208,1.25471331721412,0.921847295275194,1.59005806197255,0.480397380926169,1.07153519134933,1.07153519135166,NaN,0.508451245995718,1.04784910110215,1.43246493889515,0.972938967181086,1.43246493889428,-0.404933979397844,-0.210025285947842,NaN,1.41437330603509,-0.145527059397774,1.70912923988411,0.649960826009368,NaN,-1.32161304108261,-0.129205764296125,-0.932668647634704,-0.996183190729356,0.812651996469265,1.69853058479578,NaN,-1.16184713677408,1.16184713677527,0.0260991944956163,-0.420179016557038,-0.471221487139217,-0.594658009918303,2.15682293939968,0.597478669576568,1.7876302446777,-0.111058063016001,1.83725736177771,1.83725736177823,2.18901072423209,0.480970218662466,2.36752607617354,-0.885988904102131,0.282055082986572,-0.727946706735067,-1.08011450449328,-1.15418421255289,-1.15418421255194,-0.439339619941103,0.439339619940333,-0.347433027696708
163.1232,1.24089473102786,0.935860778542385,1.58620442135452,0.500728317287163,1.08533637120075,1.08533637120306,NaN,0.520377265897205,1.04139832917066,1.40739933046804,0.987407090661891,1.40739933046718,-0.39039545359674,-0.193496666140062,NaN,1.43261303446478,-0.151031217733576,1.72777430531428,0.651244299709189,NaN,-1.31401328571032,-0.110129468753023,-0.922504445588186,-0.972130986302202,0.821048528527041,1.68576368815384,NaN,-1.1661829614062,1.16618296140744,0.0432503206559842,-0.418699662747959,-0.461964285500274,-0.586463959170228,2.17817535512021,0.584613749746487,1.79292211739821,-0.085496296397845,1.82044475221379,1.82044475221431,2.23540042348343,0.444994886282299,2.38753186544796,-0.875176344271802,0.26830934894596,-0.729704274327317,-1.09326038032304,-1.17080832147627,-1.17080832147534,-0.419934344529827,0.419934344529047,-0.331502411581893
163.2256,1.22563802922285,0.949689150317507,1.58102084798744,0.520909891041078,1.09886213362677,1.09886213362907,NaN,0.532171330267569,1.03442600871337,1.38177153165878,1.00149794839729,1.38177153165791,-0.376809940874842,-0.177167851960839,NaN,1.45122914399474,-0.156999335341079,1.74647610841407,0.65132455748754,NaN,-1.3067191185052,-0.0913331702841973,-0.912332621473643,-0.948280550205266,0.828454524948995,1.67299634268191,NaN,-1.16945090351618,1.16945090351747,0.0592239139098972,-0.417720610742675,-0.452769566963567,-0.578577648560283,2.19869681448254,0.571675835109905,1.79762911133798,-0.0606500560184762,1.80381786054378,1.8038178605443,2.28006806771121,0.409883856416046,2.40648714874836,-0.86531157047087,0.254460196782993,-0.732658992987098,-1.10578047843811,-1.18738744739548,-1.18738744739455,-0.400646243187094,0.400646243186305,-0.31623603282406
163.328,1.20896324459016,0.963290205246876,1.57450055667584,0.540854233165302,1.11204189883672,1.11204189883901,NaN,0.543775503794419,1.02690120053137,1.35559581350677,1.01516784695557,1.3555958135059,-0.364194195857175,-0.161073785157089,NaN,1.47019843064581,-0.163449816843874,1.76518714496194,0.650147399795871,NaN,-1.29973084502485,-0.0728565659796619,-0.902152879801758,-0.924661245882789,0.834832505758906,1.66020610759769,NaN,-1.17163389630734,1.17163389630869,0.0739814049497319,-0.417272304700545,-0.443649281023591,-0.571024345870465,2.21833302922764,0.558660895154665,1.80171350281436,-0.0365923213993779,1.78735245601097,1.7873524560115,2.322972345686,0.375628712235711,2.42434767719986,-0.856395472028743,0.240509559586135,-0.736809889335472,-1.11763658601336,-1.203960384998,-1.20396038499708,-0.381534652473846,0.381534652473048,-0.301670024911576
163.4304,1.19089349123473,0.976620042166211,1.56663842914342,0.560472974863053,1.12480455431871,1.12480455432099,NaN,0.55513108544198,1.01879472480266,1.32888823611383,1.02837492917117,1.32888823611296,-0.3525617102162,-0.145249759370972,NaN,1.48949654630626,-0.170400130599912,1.78385929444549,0.647661199585216,NaN,-1.2930462760603,-0.0547369163663326,-0.891965595849178,-0.901301264031604,0.840145352328745,1.64736846306209,NaN,-1.17271588720412,1.17271588720551,0.087484056745182,-0.417385155885351,-0.434616367611278,-0.563830097148869,2.23703105820538,0.545563746597548,1.80513767666152,-0.0133945393802692,1.77102282581582,1.77102282581635,2.36407324531131,0.34221858036647,2.44106881534078,-0.848424759183148,0.226456671603185,-0.74215396965905,-1.12879306082074,-1.22056497110685,-1.22056497110594,-0.362658667652159,0.362658667651352,-0.287838965068133
163.5328,1.17145485299676,0.989633242299722,1.55743101967975,0.579677528649452,1.1370787026513,1.13707870265357,NaN,0.566178706558801,1.010079068957,1.30166644510625,1.04107928379634,1.30166644510538,-0.341922574758439,-0.129731260088144,NaN,1.50909799814532,-0.177866707749002,1.80244391380295,0.643817106785734,NaN,-1.2866607311123,-0.037008817436457,-0.881771926526914,-0.878227559283882,0.844356349851882,1.6344568760891,NaN,-1.17268185311488,1.1726818531163,0.0996930899857364,-0.418089396311559,-0.425684717023815,-0.557021619189869,2.254739529479,0.532378096862987,1.80786429839423,0.00887364838329762,1.75480184156234,1.75480184156288,2.40333212816044,0.309640255471861,2.45660569244281,-0.841391997111582,0.212298193390153,-0.748686129807761,-1.13921694746297,-1.23723792600986,-1.23723792600896,-0.344076970068605,0.34407697006779,-0.274775773255721
163.6352,1.15067627563902,1.00228306442787,1.5468765735862,0.598379342425813,1.148792916179,1.14879291618126,NaN,0.576858427573963,1.00072827293663,1.27394945388437,1.05324301038849,1.27394945388349,-0.332283368094656,-0.114553806251554,NaN,1.52897616557441,-0.185864848625961,1.82089194716407,0.63856922112819,NaN,-1.28056709235384,-0.0197039808735813,-0.871573909903786,-0.855465782068598,0.847429236303587,1.62144289365113,NaN,-1.17151783041292,1.17151783041436,0.110569823159793,-0.41941489788059,-0.416869108242828,-0.550626156895729,2.27140886101393,0.519096596306723,1.80985649123385,0.0301446672950564,1.7386610190757,1.73866101907625,2.44071181786855,0.27787833782984,2.47091337531581,-0.835285676500077,0.198028358010776,-0.756399085384601,-1.1488780785197,-1.25401470065636,-1.25401470065547,-0.325847649113013,0.325847649112189,-0.262511614223127
163.7376,1.12858946524897,1.01452166953972,1.53497506758107,0.616490149896041,1.15987601392918,1.15987601393144,NaN,0.587109861600354,0.990717824291761,1.24575743543913,1.0648302518932,1.24575743543825,-0.323647077527715,-0.0997527880134804,NaN,1.54910334355671,-0.19440863504204,1.83915406447482,0.631874738207921,NaN,-1.27475591850699,-0.00285104791824131,-0.861374535936175,-0.833040207822099,0.849328269328296,1.60829627730678,NaN,-1.1692109665984,1.16921096659988,0.12007584037281,-0.42139096334804,-0.408185127431218,-0.544671310221587,2.28699147307399,0.505710906237399,1.81107801821458,0.0503532594089926,1.72257059655994,1.72257059656049,2.47617669557419,0.246915393639826,2.48394706257752,-0.830090332120562,0.183639135562992,-0.765283338237087,-1.15774916623922,-1.27092933482552,-1.27092933482463,-0.30802801246172,0.308028012460889,-0.251075801285875
163.84,1.10522879003586,1.02630037289294,1.52172826858761,0.633922248672668,1.17025736264081,1.17025736264307,NaN,0.596872342378745,0.980024592490838,1.21711154593827,1.0758072218646,1.2171115459374,-0.316013048976873,-0.0853632959899716,NaN,1.56945080646664,-0.203510842226723,1.85718082725181,0.623694081850849,NaN,-1.2692156026395,0.0135245386919883,-0.851177779481704,-0.810973673190324,0.850018325341258,1.59498517736581,NaN,-1.16574958992518,1.16574958992671,0.128173198776644,-0.424046096381719,-0.39964907731948,-0.539184843040979,2.30144198888454,0.492211785658908,1.81149346907847,0.0694367275544473,1.70649965406104,1.70649965406159,2.5096927939946,0.216732143919756,2.49566229632305,-0.82578670672545,0.169120412746371,-0.775327179547923,-1.1658058856667,-1.28801433228174,-1.28801433228086,-0.290674389439234,0.290674389438395,-0.240495699409493
163.9424,1.08063118212673,1.03756991239113,1.50713980174339,0.650588825981567,1.17986719454855,1.17986719455082,NaN,0.606085138753997,0.968626816297877,1.18803378840355,1.0861422534769,1.18803378840268,-0.309376956577848,-0.071419939150948,NaN,1.58998888086186,-0.213182849859975,1.87492286681671,0.613991036698444,NaN,-1.26393254130064,0.0294006019294162,-0.840988600108326,-0.789287525649959,0.849465040663092,1.58147633518697,NaN,-1.16112328928978,1.16112328929134,0.134824680712847,-0.427407757433908,-0.391277884803702,-0.534194483272182,2.31471742258551,0.478589195407989,1.81106845045275,0.0873351852274327,1.69041627842504,1.6904162784256,2.54122788504636,0.187307679459033,2.50601518476535,-0.822351945668668,0.154460184612121,-0.786516715691629,-1.17302694611049,-1.30530055795387,-1.305300557953,-0.273841941912813,0.273841941911966,-0.230796623155033
164.0448,1.05483603928341,1.0482807266797,1.491215223835,0.666404324639661,1.18863693726673,1.188636937269,NaN,0.614687703465183,0.95650413208518,1.15854690544594,1.09580587087776,1.15854690544507,-0.303730787832942,-0.0579566536814405,NaN,1.61068702145275,-0.223434558608654,1.89233106154962,0.60273288356533,NaN,-1.25889129679382,0.0447582538774476,-0.830812918154666,-0.768001582937832,0.847634992513887,1.56773530877814,NaN,-1.15532300255537,1.15532300255697,0.139994083883173,-0.431502111542352,-0.38308900253907,-0.52972771402829,2.3267773554803,0.464832418033222,1.80976977886647,0.103991816178493,1.67428775954979,1.67428775955036,2.57075156491461,0.158619689870734,2.51496263169525,-0.819759804354637,0.139644757940519,-0.798835896839912,-1.17939414752548,-1.32281715470167,-1.32281715470081,-0.257584496762363,0.257584496761509,-0.222001729969558
164.1472,1.02788512990267,1.05838324678756,1.47396210718602,0.681284820913291,1.19649955692063,1.1964995569229,NaN,0.622619938282224,0.943637612953263,1.12867427769994,1.1047708555741,1.12867427769906,-0.299062850898661,-0.0450065095005572,NaN,1.63151389041348,-0.234274316085029,1.90935670968192,0.589890527623874,NaN,-1.2540747639178,0.0595818932222068,-0.82065757260541,-0.747134094289509,0.844495907846493,1.55372672660513,NaN,-1.14834111898542,1.14834111898706,0.143646533035247,-0.436353774412478,-0.375100293179018,-0.525811549948942,2.33758410153278,0.450930192828844,1.80756567683427,0.119353136977342,1.65808079705884,1.65808079705941,2.59823534736767,0.130644691676068,2.52246257304312,-0.817980858131821,0.124658968935961,-0.812266533592177,-1.18489242138395,-1.34059146931437,-1.34059146931352,-0.241954401608981,0.241954401608119,-0.21413191570503
164.2496,0.999822506260473,1.06782820669589,1.45539014126631,0.695148388015509,1.20338991326423,1.2033899132665,NaN,0.629822460951797,0.930009793083888,1.09843980770068,1.11301228109388,1.0984398076998,-0.295357812490558,-0.0326015208803777,NaN,1.65243743738015,-0.245708849757922,1.92595169647675,0.575438610429141,NaN,-1.24946435947015,0.073859189777911,-0.81053026619363,-0.72670169904066,0.840016888204709,1.53941457174975,NaN,-1.14017160052965,1.14017160053132,0.145748796739945,-0.441985563342337,-0.367329888100054,-0.522472295540295,2.34710286219739,0.43687086381336,1.804425970602,0.133369254277063,1.64176169873861,1.64176169873919,2.62365277454236,0.10335824352524,2.5284742214225,-0.816982716963722,0.109486422417397,-0.826788296901933,-1.18950985888468,-1.35864897729472,-1.35864897729387,-0.227002396313492,0.227002396312625,-0.207205717615653
164.352,0.970694430372835,1.07656697089945,1.43551125465487,0.707915437060969,1.20924511879738,1.20924511879964,NaN,0.636236866847807,0.91560467060223,1.06786778297138,1.12050750923207,1.06786778297051,-0.292596767502962,-0.0207724653707209,NaN,1.67342497300837,-0.257743201571056,1.9420686514083,0.559355610286291,NaN,-1.24504023535239,0.0875810725604744,-0.800439507389682,-0.706719379575039,0.834168645021852,1.52476248900924,NaN,-1.13081011928465,1.13081011928635,0.146269600407482,-0.4484182590093,-0.359796021161359,-0.519735289062956,2.35530187107146,0.422642535854331,1.80032228670043,0.145994113439253,1.62529656073234,1.62529656073293,2.64697954671714,0.0767351425456066,2.53295831615212,-0.816730252805647,0.0941097603926859,-0.842378702272581,-1.19323773019567,-1.37701320312915,-1.37701320312831,-0.212777490954453,0.212777490953581,-0.20123922335865
164.4544,0.940549312922088,1.0845518730755,1.41433975441255,0.719509044172372,1.21400489360809,1.21400489361034,NaN,0.641805989427389,0.900407701041925,1.03698272673657,1.12723615860939,1.0369827267357,-0.29075733606841,-0.00954871223447276,NaN,1.69444323366399,-0.270380659756404,1.95766109639798,0.541623945401797,NaN,-1.24078150258517,0.100741735448783,-0.790394554938362,-0.687200403594939,0.826923745062631,1.50973410564422,NaN,-1.12025420413745,1.12025420413917,0.145179934379005,-0.455670383349573,-0.352516844880293,-0.517624640587135,2.36215252783667,0.408233234170481,1.79522824381242,0.157185738223609,1.60865143387232,1.60865143387291,2.66819366482223,0.0507496036339555,2.53587737408045,-0.817185840203831,0.0785109555933346,-0.859013083385581,-1.1960704974098,-1.3957056403144,-1.39570564031357,-0.199326836455074,0.199326836454197,-0.196245980987702
164.5568,0.909437659994252,1.09173656094142,1.39189247560774,0.729855280954434,1.21761191333852,1.21761191334077,NaN,0.646474174799554,0.88440580606102,1.00580925490853,1.13318006584592,1.00580925490767,-0.289813783740073,0.0010419430925723,NaN,1.71545844692218,-0.283622688469368,1.97268359714462,0.522230091001295,NaN,-1.23666645339099,0.113338652362952,-0.780405357680221,-0.668156254734638,0.818256868933179,1.49429336165531,NaN,-1.10850339133507,1.10850339133679,0.142453362421968,-0.463757996435136,-0.345510239063337,-0.516162973771016,2.3676295167283,0.393631064557126,1.78911963512541,0.166906461764409,1.59179249349541,1.59179249349602,2.68727557474951,0.0253754311552295,2.5371959371366,-0.818309599995582,0.062671608006723,-0.876664566200272,-1.19800582394639,-1.41474567669012,-1.41474567668929,-0.186695572303437,0.186695572302554,-0.192236905649561
164.6592,0.87741202126186,1.09807634287708,1.36818893307107,0.738883564971989,1.22001215312136,1.22001215312358,NaN,0.650187587111025,0.867587423172103,0.974371960367845,1.13832326225681,0.97437196036698,-0.289737160731499,0.0109734459203385,NaN,1.73643641324104,-0.29746886314021,1.98709193020651,0.501164713040061,NaN,-1.23267277214594,0.125372576422362,-0.770482476483225,-0.649596557881924,0.808145085537254,1.47840484953484,NaN,-1.09555937793527,1.095559377937,0.138066339608675,-0.472694511982722,-0.338793621031676,-0.515371178511868,2.37171090103791,0.378824374320943,1.78197459567412,0.175123148236109,1.57468623304823,1.57468623304884,2.70420830076905,0.000586197128441176,2.53688081390236,-0.820059632556419,0.046573219713858,-0.895304053434259,-1.1990445836185,-1.43415052709662,-1.43415052709581,-0.174926647541443,0.174926647540556,-0.189220180676576
164.7616,0.84452693740916,1.10352853020454,1.34325147005013,0.746527034375139,1.22115523042905,1.22115523043125,NaN,0.652894547499324,0.849942605416097,0.942695335391748,1.14265198120429,0.94269533539089,-0.290495453685082,0.0202216570824984,NaN,1.75734260879466,-0.311916819708604,2.00084326469399,0.478422813998408,NaN,-1.22877772882513,0.13684750946889,-0.760636985676215,-0.631529006859552,0.796568139034409,1.46203416193717,NaN,-1.08142617825344,1.08142617825516,0.13199854316288,-0.48249052903829,-0.33238376398741,-0.515268178460859,2.37437818856705,0.363801914957245,1.77377375207342,0.181807402278126,1.55729969167121,1.55729969167183,2.71897755898448,-0.0236445626058566,2.53490131421037,-0.822392227468053,0.0301974352213633,-0.914900217555277,-1.19919086847912,-1.45393517422168,-1.45393517422087,-0.164060626853269,0.164060626852378,-0.187201153630844
164.864,0.810838885857838,1.10805276612105,1.317105397873,0.752722930216647,1.22099474204808,1.22099474205027,NaN,0.65454588845819,0.831463152605768,0.910803724672429,1.14615469344973,0.910803724671576,-0.292053741496099,0.0287645360087657,NaN,1.77814229758204,-0.326962217980342,2.01389634284406,0.454003878197107,NaN,-1.22495835331387,0.147770650289859,-0.750880366776927,-0.613959300582405,0.783508736470065,1.4451482386283,NaN,-1.06611027874659,1.06611027874831,0.124233207009992,-0.493153675160553,-0.326296628745137,-0.51587071518878,2.37561637334441,0.348553005130573,1.76450035712172,0.186935761563848,1.53960070866274,1.53960070866337,2.73157185207221,-0.0473431346591775,2.53122947766027,-0.825262036798753,0.0135262447813207,-0.935419490138136,-1.19845198639671,-1.47411232004351,-1.47411232004272,-0.154135498087206,0.154135498086312,-0.186182231447787
164.9664,0.776406221317677,1.11161133366747,1.28977911935361,0.757412959610571,1.21948858331358,1.21948858331575,NaN,0.655095298268866,0.812142742512513,0.878721289111565,1.14882215401151,0.878721289110717,-0.29437435040077,0.0365823261872619,NaN,1.79880063408181,-0.342598712476726,2.02621164124564,0.427911999783974,NaN,-1.22119159601418,0.158152333820381,-0.741224410543919,-0.596891093981276,0.768952823290657,1.42771569935092,NaN,-1.04962078295047,1.04962078295218,0.114757442806086,-0.50468845596849,-0.320547213150261,-0.517193149828522,2.37541396430476,0.333067689890225,1.75414041349667,0.1904898688215,1.52155818692419,1.52155818692483,2.74198255473866,-0.0705354089279329,2.52584029698365,-0.828622205036575,-0.00345784664235544,-0.956826036834574,-1.19683843663007,-1.49469234868322,-1.49469234868244,-0.145186490663663,0.145186490662765,-0.186162780841025
165.0688,0.741289108666992,1.11416944202072,1.26130423341113,0.760543624245276,1.21659924073623,1.21659924073838,NaN,0.654499642478164,0.791977041514462,0.846471962897073,1.15064744760226,0.84647196289623,-0.297417010324152,0.0436577350528683,NaN,1.81928274431833,-0.358817925242399,2.03775150206414,0.400155982590289,NaN,-1.21745448247646,0.168005963404053,-0.73168113496571,-0.580325969484729,0.752889840832991,1.4097071532547,NaN,-1.03196954144825,1.03196954144995,0.103562533959701,-0.517096111033467,-0.315149421325317,-0.519247283903509,2.37376300678931,0.317336893172825,1.74268278838034,0.192456622295935,1.50314234970411,1.50314234970476,2.75020399712953,-0.0932466671234884,2.5187119344584,-0.832424461416223,-0.0207716779017132,-0.979081717476051,-1.19436385903195,-1.51568329575226,-1.51568329575149,-0.137245907194511,0.137245907193609,-0.18713904006809
165.1712,0.705549448746132,1.11569549359499,1.2317156228045,0.762066519937597,1.21229405609441,1.21229405609654,NaN,0.652719263563452,0.770963793499863,0.814079397803733,1.15162603310561,0.814079397802896,-0.301139017261149,0.049976101706276,NaN,1.83955378364744,-0.375609420318343,2.04848023233299,0.370749412965963,NaN,-1.21372426291452,0.177347932182352,-0.722262720630384,-0.564263433386225,0.735312966844846,1.39109548165112,NaN,-1.01317126663178,1.01317126663347,0.0906441987311301,-0.530374483340767,-0.310115954168854,-0.522042204205418,2.37065909858923,0.301352563048883,1.73011931976692,0.1928283065665,1.48432498390586,1.48432498390651,2.75623354646737,-0.115501386589968,2.50982592667213,-0.836619190987128,-0.0384313080188912,-1.00214604013109,-1.19104496229102,-1.53709081470626,-1.53709081470551,-0.130342969326303,0.130342969325399,-0.189104046830418
165.2736,0.669250796807986,1.11616133155982,1.20105152454264,0.761938626962559,1.20654546224718,1.2065454622493,NaN,0.649718265889287,0.749102899481284,0.781566899626349,1.15175579617812,0.781566899625522,-0.305495405208377,0.0555255483583392,NaN,1.85957897068613,-0.392960676552685,2.05836417367555,0.339710718146739,NaN,-1.20997854938648,0.186197531053739,-0.712981463810846,-0.548700939330953,0.716219344807467,1.3718560931262,NaN,-0.993243632693262,0.993243632694954,0.0760028274674704,-0.5445179138606,-0.305458222255764,-0.525584158584863,2.36610140289736,0.28510780938537,1.71644491576407,0.191602707881365,1.46507967199025,1.46507967199092,2.76007168465739,-0.137323063022754,2.49916737315371,-0.841155501281713,-0.0564518991136773,-1.02597611688998,-1.18690144111152,-1.55891813245938,-1.55891813245864,-0.1245036755525,0.124503675551594,-0.192047583086604
165.376,0.632458271592007,1.11554246731879,1.16935358097968,0.760122610001257,1.19933119208798,1.19933119209007,NaN,0.645464794429425,0.726396504849495,0.748957366668047,1.1510371189532,0.748957366667231,-0.310439130112665,0.0602971153018502,NaN,1.87932359030442,-0.410857045867766,2.06737174527688,0.307063227812167,NaN,-1.20619543309398,0.194576837696498,-0.703849741625856,-0.533633937594268,0.695610309955479,1.35196715325732,NaN,-0.972207361995533,0.972207361997211,0.0596437039962494,-0.559517171315547,-0.30118627777972,-0.529876465151026,2.36009265760225,0.268597033078421,1.70165764596316,0.18878321816707,1.44538201811837,1.44538201811906,2.76172208215425,-0.158734055137042,2.48672510715525,-0.845981290345792,-0.0748475971010735,-1.05052661891339,-1.1819558903656,-1.58116599567528,-1.58116599567455,-0.119750660453305,0.119750660452397,-0.195956132885779
165.4784,0.595238454252755,1.11381828932029,1.1366668717153,0.756587129668283,1.19063446331478,1.19063446331684,NaN,0.63993130829646,0.702849099542893,0.716273236387922,1.1494729679855,0.716273236387115,-0.315921266886612,0.0642848813924557,NaN,1.89875296005328,-0.429281687251918,2.07547346187513,0.272835249837221,NaN,-1.20235357668321,0.202510578183527,-0.694879978759683,-0.519055946333825,0.673491614264532,1.33140979410321,NaN,-0.950086300436691,0.950086300438361,0.0415772154533601,-0.575359419687027,-0.297308757612766,-0.534919449826456,2.35263917678537,0.251816046213646,1.68575882178122,0.18437892889302,1.42520986742807,1.42520986742876,2.76119167207851,-0.17975545898154,2.47249184729747,-0.851043306892517,-0.0936314108795817,-1.07574972086106,-1.17623371742136,-1.60383262054762,-1.60383262054691,-0.116103045840805,0.116103045839895,-0.200812850759937
165.5808,0.557659277450388,1.11097225055499,1.10303992506696,0.751307145369486,1.18044413608226,1.1804441360843,NaN,0.633094834224698,0.678467614120446,0.683536435678129,1.14706898968873,0.683536435677333,-0.321891217209329,0.067486068362495,NaN,1.9178323650923,-0.448215483161111,2.08264192712071,0.237060158578196,NaN,-1.19843227564039,0.210025965062525,-0.686084614904904,-0.504958641116533,0.649873642145049,1.31016830355384,NaN,-0.926907482187829,0.926907482189482,0.0218190410465241,-0.592028218205435,-0.293832830963591,-0.540710404317857,2.34375084491572,0.234762181269093,1.66875306484845,0.178404712251571,1.40454350522693,1.40454350522764,2.75849073036778,-0.200407025525137,2.45646432660039,-0.856287192458936,-0.112815096846047,-1.10159503011736,-1.169763046613,-1.62691366107346,-1.62691366107277,-0.113576288959551,0.11357628895864,-0.206597543806406
