time,S1-D1,S1-D8,S1-D9,S1-D15,S2-D1,S2-D2,S2-D3,S2-D9,S3-D1,S3-D2,S3-D16,S4-D2,S4-D3,S4-D5,S5-D3,S5-D4,S5-D5,S6-D2,S6-D5,S6-D17,S7-D6,S7-D7,S8-D6,S8-D7,S8-D18,S9-D3,S9-D4,S9-D9,S9-D11,S9-D19,S10-D8,S10-D9,S10-D10,S10-D11,S11-D8,S11-D10,S11-D20,S12-D10,S12-D11,S12-D12,S13-D4,S13-D11,S13-D12,S14-D10,S14-D12,S14-D21,S15-D13,S15-D14,S16-D13,S16-D14,S16-D22
742.7072,-0.816580812506974,-0.345059378571193,-0.73362277888079,-1.15725087402178,0.60468291238276,0.604682912384691,-0.0873633692991665,NaN,-0.101389894810885,0.398746090863952,-0.580130027717448,0.39874609086372,-0.275782022535024,-0.202270040323216,-0.86087688896698,0.220542032101859,NaN,-0.915921190367013,0.14805717160549,-0.367837310425655,0.148057171605076,NaN,0.250385122629737,NaN,-1.07053621857629,2.27233724307473,2.27233724307258,-2.13270434380471,2.13270434380259,0.829096545784562,-0.791545574039576,-0.160084104213511,NaN,-0.00664879336941979,1.9078361641832,1.50584993470989,-1.97586796515045,0.203725344366217,0.203725344367989,-0.804419560004215,1.41841201510983,0.0973217832110061,-2.58792270523759,1.49518562530343,-1.03568983792915,-1.24971922084654,NaN,-0.706393161438545,NaN,2.62009076492509,-1.07540809350652
742.8096,-0.839115382377928,-0.35183100490169,-0.752204034056794,-1.16352429690069,0.590674649210315,0.590674649212227,-0.106157866388024,NaN,-0.122999243901235,0.386924018162951,-0.593573773541365,0.386924018162734,-0.263826470419068,-0.198069584147914,-0.830992138181224,0.265483404391875,NaN,-0.876106535035029,0.201460235470089,-0.422563698885658,0.201460235469695,NaN,0.249153495895349,NaN,-1.05483012544075,2.2660036902578,2.26600369025565,-2.16067028396265,2.16067028396053,0.853072828418964,-0.799117665425974,-0.162254659551402,NaN,0.0129689319860133,1.85762766499755,1.47855041162739,-1.97320165332942,0.15809909226046,0.158099092262236,-0.829073241759991,1.44492865192046,0.0902608316719563,-2.63482244739846,1.49130772587289,-1.08348586084071,-1.24286056433539,NaN,-0.714193019362034,NaN,2.61595583772872,-1.07357494169529
742.912,-0.860797567008858,-0.358185720251122,-0.769985186889397,-1.1694584615296,0.57616245152984,0.576162451531731,-0.124609359605309,NaN,-0.144187704572855,0.375051081006018,-0.606649018967965,0.375051081005815,-0.251800086798966,-0.193539868301054,-0.800434918305082,0.309315395928997,NaN,-0.837214602806039,0.254694140799027,-0.475955273532249,0.254694140798655,NaN,0.247137385706626,NaN,-1.03872081786743,2.25857842323578,2.25857842323363,-2.18806861975402,2.18806861975189,0.877160116804222,-0.805921408247166,-0.164543134686429,NaN,0.0331337193471917,1.80639911583223,1.45079043902078,-1.96928992822621,0.112535142927101,0.11253514292888,-0.854288051704188,1.47065251617463,0.082212019333668,-2.68105717298991,1.48840735927546,-1.1297396250832,-1.23618832048547,NaN,-0.721515425471724,NaN,2.61132678393509,-1.07130620662451
743.0144,-0.881611790279822,-0.364103800816464,-0.78694429380157,-1.17506652390304,0.561174319191345,0.561174319193216,-0.142695242853965,NaN,-0.164928141688801,0.363130889881411,-0.619312020399871,0.363130889881223,-0.239722008033022,-0.188682284363666,-0.769244385346441,0.351956444502338,NaN,-0.799334912188075,0.307692251356852,-0.527927046562001,0.307692251356502,NaN,0.244313957428868,NaN,-1.02225265296048,2.25005143754943,2.25005143754729,-2.2148615254508,2.21486152544865,0.901350841727625,-0.811939190043308,-0.166964970571068,NaN,0.0538114803257482,1.75425433933861,1.42263057562212,-1.96420795739281,0.0671205554222692,0.0671205554240436,-0.880017872292783,1.49556952947248,0.0732095984614663,-2.72659857376948,1.48645313139834,-1.17445389484885,-1.22972078518322,NaN,-0.728385617353589,NaN,2.60619869397584,-1.06861871327246
743.1168,-0.901543820599524,-0.369567376433978,-0.803061396777264,-1.1803599526917,0.545736475786204,0.545736475788056,-0.160393236181326,NaN,-0.185194138961994,0.35117034231021,-0.631523817483301,0.351170342310036,-0.227610318746899,-0.183499487057627,-0.737459723741699,0.393329609364268,NaN,-0.762551302265625,0.360387773643699,-0.578399173994544,0.360387773643369,NaN,0.240663102922738,NaN,-1.00546983047534,2.24041542238772,2.24041542238557,-2.24101250438827,2.24101250438611,0.925635636556766,-0.817155591611952,-0.169534256386491,NaN,0.0749650205035725,1.70129995979134,1.39413162793373,-1.95803187784226,0.0219415245659717,0.0219415245677543,-0.906214212463399,1.51966824886318,0.0632915746011303,-2.77141855377156,1.48541258776964,-1.21763262789532,-1.22347426896729,NaN,-0.734829295799185,NaN,2.60056720701592,-1.06553015683796
743.2192,-0.920580799779192,-0.374560385797111,-0.81831851483126,-1.18534846746246,0.529873316309299,0.529873316311132,-0.177681447728319,NaN,-0.20496007609455,0.339179544981904,-0.643250477420862,0.33917954498174,-0.215481953486695,-0.177995459618514,-0.705120063167218,0.433362708969887,NaN,-0.726941672712535,0.412713964745013,-0.627297422221717,0.412713964744704,NaN,0.236167534357099,NaN,-0.988416169799431,2.22966582222285,2.22966582222071,-2.26648642979087,2.2664864297887,0.950003443832697,-0.821557359024966,-0.172263759960392,NaN,0.0965542302704837,1.647645032431,1.3653544778728,-1.95083851409786,-0.0229168599983178,-0.0229168599965219,-0.93282647906183,1.54293974045769,0.0524993810313541,-2.81548911612887,1.48525206259232,-1.25928101044673,-1.21746286842811,NaN,-0.740872518599739,NaN,2.59442849711462,-1.06205893430622
743.3216,-0.938711248734006,-0.379068533067152,-0.832699621426584,-1.19003998049567,0.513607372211077,0.513607372212893,-0.194538430470301,NaN,-0.224201201084276,0.327171726149005,-0.654463294606287,0.327171726148851,-0.203352625685385,-0.172175539826927,-0.672264383971091,0.471988477046306,NaN,-0.692577729907152,0.464604348427092,-0.674553574732567,0.464604348426808,NaN,0.230812902058769,NaN,-0.971134881372581,2.21780087338587,2.21780087338373,-2.29124960146965,2.29124960146747,0.974441613538139,-0.825133396522605,-0.175164940073,NaN,0.118536319743124,1.59340066020234,1.33635992839415,-1.94270509350455,-0.0673708594318326,-0.067370859430019,-0.95980222901111,1.56537744752002,0.0408775677306082,-2.85878227272049,1.48593653585405,-1.29940550602074,-1.21169829072153,NaN,-0.746541564118011,NaN,2.58777924916221,-1.05822398112605
743.424,-0.955925060906004,-0.383079252443989,-0.846190618814745,-1.19444054810244,0.496959278498544,0.496959278500342,-0.210943231893416,NaN,-0.242893694779525,0.315163131701532,-0.66513893970355,0.315163131701389,-0.191236788457142,-0.166046405010087,-0.638931417180369,0.509144725998383,NaN,-0.659524755166188,0.51599294345073,-0.720105759165998,0.515992943450466,NaN,0.224587926664536,NaN,-0.953668346339845,2.20482161896274,2.2048216189606,-2.31526982136454,2.31526982136235,0.998935987522507,-0.827874779123275,-0.178247940458562,NaN,0.14086609729167,1.53867959922237,1.30720856784718,-1.93370896130681,-0.111338326648556,-0.111338326646739,-0.987087407563952,1.58697704559727,0.0284734955187606,-2.90126997194787,1.48742949007851,-1.33801392166131,-1.20618974229681,NaN,-0.751862772916746,NaN,2.58061662539215,-1.05404462460155
743.5264,-0.972213491593439,-0.386581681964513,-0.858779315326733,-1.1985543360787,0.479947731577441,0.479947731579226,-0.22687543418545,NaN,-0.261014724042343,0.3031729005277,-0.675259557533139,0.303172900527567,-0.179147625620508,-0.159616024220195,-0.605159549358573,0.544774507451596,NaN,-0.627841407091196,0.566814508129175,-0.763898687578945,0.566814508128933,NaN,0.217484531533389,NaN,-0.936057915961866,2.19073191041514,2.190731910413,-2.33851647848501,2.3385164784828,1.02347097016536,-0.829774777728924,-0.181521572935423,NaN,0.163496283304353,1.48359585594019,1.27796065010348,-1.9239273010118,-0.154738923057847,-0.154738923056005,-1.01462657519498,1.60773628247323,0.0153370317001747,-2.94292403713136,1.48969276684439,-1.37511548438983,-1.20094388311507,NaN,-0.756862374335545,NaN,2.5729382242222,-1.04954045966375
743.6288,-0.987569145270799,-0.389566642494935,-0.870455404514397,-1.20238360277928,0.462589438598027,0.4625894385998,-0.242315181985406,NaN,-0.278542479924224,0.291222917308446,-0.684812816760135,0.291222917308321,-0.16709706189448,-0.152893597235702,-0.570986742976883,0.578826259751744,NaN,-0.597579566286257,0.617004802424565,-0.805883810755682,0.617004802424341,NaN,0.209497959298371,NaN,-0.918343735686759,2.17553840078979,2.17553840078766,-2.36096062688751,2.3609606268853,1.04802959171044,-0.830828884250953,-0.184993304620512,NaN,0.186377847902767,1.4282642798451,1.24867598634934,-1.91343686599913,-0.197494291745646,-0.197494291743796,-1.04236312267924,1.6276548073237,0.00152025022064765,-2.98371610724798,1.49268643104966,-1.41072091260246,-1.19596483751465,NaN,-0.761566301010562,NaN,2.56474203348547,-1.04473124603819
743.7312,-1.0019859597299,-0.392026614983543,-0.881210441196127,-1.20592870236823,0.444899069279564,0.444899069281325,-0.257243194978273,NaN,-0.295456197939866,0.279337642248227,-0.69379191570598,0.279337642248115,-0.155095774800903,-0.145889503998526,-0.536450477060913,0.611253932653052,NaN,-0.568784228636113,0.666500862341669,-0.846019390040568,0.666500862341469,NaN,0.200626857398081,NaN,-0.900564593197209,2.15925052829667,2.15925052829454,-2.38257504013452,2.3825750401323,1.07259357323145,-0.831034819520947,-0.188669267014533,NaN,0.209460362845039,1.37280015417804,1.21941384429566,-1.90231372606996,-0.239528180757695,-0.239528180755841,-1.07023947386617,1.64673399613263,-0.0129228590267238,-3.02361757472887,1.49636865526883,-1.44484246586941,-1.19125424837781,NaN,-0.765999995328158,NaN,2.55602638207025,-1.03963682176584
743.8336,-1.01545918507356,-0.393955708011367,-0.891037808324812,-1.20918810546099,0.426889219203752,0.4268892192055,-0.271640762038838,NaN,-0.311736157379613,0.267543919099076,-0.702195550195284,0.267543919098973,-0.143153192620698,-0.138615281201053,-0.501587705142485,0.642017082598314,NaN,-0.541493450687348,0.715241277893424,-0.884270494796161,0.715241277893249,NaN,0.190873320792491,NaN,-0.882757783942021,2.14188049027172,2.14188049026959,-2.40333423052767,2.40333423052544,1.09714340202857,-0.830392507538732,-0.192554300319913,NaN,0.232692357932088,1.31731878633846,1.19023285000221,-1.89063302892648,-0.280766524657581,-0.280766524655705,-1.0981972755653,1.66497678055449,-0.0279366669511463,-3.06259952050761,1.50069563428243,-1.47749396387066,-1.18681136323048,NaN,-0.770188215097526,NaN,2.54678989554016,-1.03427702306667
743.936,-1.02798535596731,-0.395349609216927,-0.899932669767131,-1.21215842779592,0.408570383886765,0.408570383888497,-0.285489714810566,NaN,-0.327363658484447,0.255870765131393,-0.710027851431073,0.255870765131302,-0.131277473406812,-0.131083629557639,-0.466434826636347,0.671080936047689,NaN,-0.515738346452694,0.763166466701715,-0.920608941940078,0.763166466701568,NaN,0.180242886272194,NaN,-0.864958983281852,2.12344321228996,2.12344321228783,-2.42321442874462,2.42321442874238,1.12165842397602,-0.828904009320268,-0.196652036850654,NaN,0.256021670414666,1.26193510136147,1.16119088769356,-1.87846877375504,-0.321137499603532,-0.321137499601658,-1.12617757310251,1.68238748649271,-0.0434641630241073,-3.10063264991399,1.50562153058455,-1.5086907770977,-1.18263314459457,NaN,-0.774154848803379,NaN,2.53703146021609,-1.02867159733076
744.0384,-1.03956225732998,-0.396205518389746,-0.907891907776396,-1.21483445778602,0.389950939380485,0.389950939382203,-0.298772385379249,NaN,-0.342320983390721,0.244349149446822,-0.717298303205388,0.244349149446741,-0.119475471280283,-0.123308444825245,-0.4310276723567,0.698416419976666,NaN,-0.491543130652792,0.810218935171911,-0.955013202302432,0.810218935171792,NaN,0.168744481920277,NaN,-0.84720211591656,2.10395631752929,2.10395631752715,-2.44219352547065,2.44219352546839,1.14611695414502,-0.826573421296529,-0.200965018825626,NaN,0.279395778380376,1.20676324429232,1.13234499645786,-1.86589359358628,-0.360571567383429,-0.360571567381562,-1.15412097097634,1.69897168569115,-0.0594471915695358,-3.1376872334272,1.51109844453497,-1.53844979903618,-1.17871440049501,NaN,-0.777922751129272,NaN,2.52675019977468,-1.02284010025467
744.1408,-1.05018888583358,-0.396522065532746,-0.914914048678948,-1.21720917980198,0.371037130947309,0.371037130949013,-0.311471562864176,NaN,-0.356591356130361,0.233011768430795,-0.724021645228892,0.233011768430722,-0.107752702457683,-0.115304859432071,-0.395401506781979,0.724000159643164,NaN,-0.468925200386586,0.856343517983728,-0.987468303281631,0.856343517983642,NaN,0.156390345458431,NaN,-0.829519218906124,2.0834400986814,2.08344009867927,-2.4602509837941,2.46025098379183,1.17049640122314,-0.823406751547813,-0.205494839912041,NaN,0.302762117468663,1.1519161970135,1.10375126781226,-1.85297854320685,-0.399001523680419,-0.399001523678554,-1.18196778137303,1.7147360591289,-0.0758266698487923,-3.17373305858598,1.51707640447202,-1.5667894101487,-1.17504793454989,NaN,-0.781513604334632,NaN,2.51594547037727,-1.01680177752757
744.2432,-1.05986541167158,-0.396299222345402,-0.92099918475309,-1.2192737963709,0.351833077885221,0.351833077886912,-0.323570469357856,NaN,-0.370158921115668,0.22189282517706,-0.730217761012129,0.221892825176997,-0.0961133262726289,-0.10708927659169,-0.359591046994158,0.747814446263635,NaN,-0.447895247337828,0.9014875878507,-1.01796575194469,0.901487587850641,NaN,0.143195930508518,NaN,-0.811940300838075,2.06191749113352,2.06191749113139,-2.47736774189287,2.47736774189059,1.19477339815358,-0.819411792226903,-0.210242294693377,NaN,0.326068387710855,1.0975054105588,1.07546474926397,-1.83979288919948,-0.436362567419542,-0.436362567417671,-1.20965816824187,1.72968826675785,-0.0925427982880165,-3.2087394048966,1.52350337738231,-1.59372944424876,-1.1716247151114,NaN,-0.7849478062368,NaN,2.50461687946213,-1.01057544028973
744.3456,-1.06859314777564,-0.395538217933937,-0.926148903452892,-1.22101775917232,0.332340803835599,0.332340803837281,-0.33505277116377,NaN,-0.383008754006646,0.211027813945365,-0.735911541277042,0.21102781394531,-0.0845601530488296,-0.0986793799882167,-0.32363049362047,0.769847179332663,NaN,-0.428457396076635,0.945601231326816,-1.04650348387184,0.945601231326787,NaN,0.129179815913636,NaN,-0.794493208151666,2.03941403959995,2.03941403959783,-2.49352612740305,2.49352612740075,1.21892393138387,-0.814598002687098,-0.215207520322737,NaN,0.349262858267703,1.04364044635966,1.04753935360792,-1.82640390210576,-0.472592404201077,-0.472592404199218,-1.23713229887605,1.74383681502628,-0.109535278948633,-3.2426750530836,1.5303252995769,-1.61929116846432,-1.16843405587842,NaN,-0.788244389211631,NaN,2.49276432529623,-1.0041793501612
744.448,-1.0763745344212,-0.394241467448159,-0.930366234343319,-1.22242882422721,0.312560298795823,0.312560298797493,-0.345902628732676,NaN,-0.39512690639822,0.200453307088812,-0.741132714814985,0.200453307088763,-0.0730946794579988,-0.090094112980086,-0.287553565147235,0.790091788885254,NaN,-0.410609366348405,0.98863739245448,-1.07308581991981,0.988637392454477,NaN,0.11436362497928,NaN,-0.777203517582046,2.01595784429237,2.01595784429025,-2.50870978856805,2.50870978856573,1.2429234631919,-0.808976404207401,-0.22039012380919,NaN,0.372294673650737,0.990428613196468,1.02002776576596,-1.81287665794475,-0.507631383369471,-0.507631383367617,-1.26433051286477,1.75719091375526,-0.126743556348551,-3.27550832733233,1.53748611873921,-1.64349728361062,-1.16546379220567,NaN,-0.79142098104712,NaN,2.48038804457083,-0.997631131447252
744.5504,-1.08321314359306,-0.392412517662848,-0.933655618987146,-1.22349314555449,0.292489614077033,0.292489614078692,-0.356104776544401,NaN,-0.406500474540129,0.190206740862987,-0.745915642885242,0.190206740862945,-0.0617171442044651,-0.0813536303352321,-0.251393526710065,0.808547141492631,NaN,-0.394342657681974,1.03055199153412,-1.09772340052688,1.03055199153414,NaN,0.0987719537480058,NaN,-0.760094473051227,1.99157947424228,1.99157947424018,-2.52290363001541,2.52290363001308,1.2667470456379,-0.802559478176192,-0.225789297416884,NaN,0.395114159377318,0.93797458696444,0.992981335664425,-1.79927386032046,-0.541422653861642,-0.541422653859782,-1.29119350929132,1.76976031850919,-0.144107083727522,-3.30720715538251,1.54492783457743,-1.66637194267983,-1.16270043832666,NaN,-0.794493815240609,NaN,2.46748865347306,-0.990947722105413
744.6528,-1.0891137024288,-0.390056009114789,-0.936022903109719,-1.22419541338062,0.272124985478167,0.272124985479817,-0.365644619408816,NaN,-0.417117678488537,0.180326194747304,-0.750299072798343,0.180326194747266,-0.050426600215992,-0.072479221990692,-0.215183205170159,0.825217428513774,NaN,-0.379642758683321,1.07130402560874,-1.12043307103782,1.07130402560879,NaN,0.0824322968768446,NaN,-0.743186975334962,1.96631184248776,1.96631184248567,-2.53609374336276,2.53609374336042,1.29036943012647,-0.795361063138192,-0.231403923204946,NaN,0.417673120147817,0.886380008609305,0.966449949090787,-1.78565569183227,-0.573912319982761,-0.573912319980907,-1.31766254542584,1.78155516045201,-0.161565607341875,-3.33773913246552,1.55259053389187,-1.68794077818373,-1.16012932164574,NaN,-0.797477786113689,NaN,2.4540671740461,-0.984145364375725
744.7552,-1.09408213059068,-0.387177650723913,-0.937475345268749,-1.22451903135963,0.251460973297384,0.251460973299023,-0.37450833098402,NaN,-0.426967938296081,0.170850157636208,-0.754325845483018,0.170850157636174,-0.0392210034243785,-0.0634932024506066,-0.178954980243559,0.840112030460365,NaN,-0.366489388579709,1.1108556532801,-1.14123770261144,1.11085565328018,NaN,0.0653749490647398,NaN,-0.726499619087016,1.94019004369652,1.94019004369443,-2.54826733552418,2.54826733552183,1.3137651801557,-0.787396252277104,-0.237232661014829,NaN,0.439925121607392,0.835743065159852,0.94048187476128,-1.77207969728615,-0.605049584585124,-0.605049584583287,-1.34367963711955,1.79258577053064,-0.179059455691036,-3.36707159082234,1.5604124350357,-1.70823092594865,-1.15773470288788,NaN,-0.800386532674325,NaN,2.44012504434295,-0.977239625474665
744.8576,-1.09812558314659,-0.383784199955658,-0.938021632417295,-1.22444631667683,0.230490604632095,0.230490604633722,-0.382682938424001,NaN,-0.436041932840656,0.16181727661775,-0.758042557821854,0.161817276617719,-0.0280973125859533,-0.0544187677043278,-0.142740744047086,0.853245353727567,NaN,-0.354856775591368,1.14917226673834,-1.16016594074498,1.14917226673845,NaN,0.0476328623193324,NaN,-0.71004875986556,1.91325115859967,1.91325115859759,-2.55941265870293,2.55941265870057,1.3369087933786,-0.7786812914947,-0.24327401578966,NaN,0.461825749744991,0.786158064409582,0.915123592180056,-1.7586006938953,-0.634786874516774,-0.634786874514953,-1.36918774905288,1.80286250935865,-0.196529815996879,-3.39517168983094,1.56832997276642,-1.72727103046604,-1.15549989519806,NaN,-0.803232530668739,NaN,2.42566411441174,-0.970245430856189
744.96,-1.10125249081694,-0.379883441103295,-0.937671892636324,-1.22395870360224,0.209205508659685,0.209205508661298,-0.390156378337982,NaN,-0.444331628436435,0.153266089610878,-0.761499188711147,0.153266089610849,-0.0170515869022449,-0.0452798363324818,-0.106571830666943,0.864636642153632,NaN,-0.344713967844281,1.18622255563171,-1.17725187964732,1.18622255563185,NaN,0.0292414544536876,NaN,-0.693848589130449,1.88553403276925,1.88553403276718,-2.56951893920905,2.56951893920668,1.35977483524554,-0.769233472458641,-0.249526389519201,NaN,0.483332847274778,0.737715015475655,0.890419609553309,-1.74527069818305,-0.663079947198992,-0.66307994719721,-1.39413096336863,1.81239561611934,-0.213918979453626,-3.42200654061739,1.57627795211872,-1.74509121803251,-1.15340738893533,NaN,-0.806027176352026,NaN,2.41068663130085,-0.963177090403205
745.0624,-1.10347259268563,-0.375484156927696,-0.936437699004988,-1.2230369364462,0.187596044741828,0.187596044743425,-0.396917518501069,NaN,-0.451830273082684,0.145234748252585,-0.764748699276104,0.145234748252556,-0.00607906994740331,-0.0361008917688424,-0.070478921210784,0.874309768421074,NaN,-0.336025168795095,1.22197856571695,-1.19253467189799,1.22197856571712,NaN,0.0102383768084705,NaN,-0.677911199094022,1.85707903959432,1.85707903959225,-2.57857630610006,2.57857630609769,1.38233808522865,-0.759071015530215,-0.255988125677344,NaN,0.504406728041808,0.690499227569137,0.866412282181529,-1.73213885862649,-0.689887981372921,-0.689887981371183,-1.41845462087885,1.82119508592343,-0.231170544291843,-3.44754336940588,1.58418978036409,-1.76172303319122,-1.15143898232367,NaN,-0.808780854979135,NaN,2.39519521502697,-0.956048302686179
745.1648,-1.10479695985962,-0.370596092675651,-0.934332063042422,-1.22166124473664,0.165651426661761,0.165651426663342,-0.402956151255007,NaN,-0.458532362982482,0.137760739021823,-0.767846614613593,0.137760739021794,0.00482574229991678,-0.0269068308527667,-0.0344919284552769,0.882293007902963,NaN,-0.328750092203247,1.25641575260383,-1.20605809529129,1.25641575260403,NaN,-0.00933674682167449,NaN,-0.662246626912825,1.82792783940221,1.82792783940014,-2.586575732148,2.58657573214563,1.40457369617985,-0.748212944646945,-0.262657548515499,NaN,0.525010369338498,0.644590940426631,0.843141641903783,-1.71925138617633,-0.715173659459004,-0.715173659457314,-1.44210543696738,1.82927057782333,-0.24822957731203,-3.47174971671548,1.59199776557158,-1.77719934651415,-1.14957591912248,NaN,-0.811502996762687,NaN,2.37919282566762,-0.948872130630606
745.2672,-1.10523801317902,-0.365229914542065,-0.931369420964208,-1.21981149832313,0.143359843026962,0.143359843028528,-0.408262970780734,NaN,-0.464433593521128,0.130880609373244,-0.770850593379476,0.130880609373215,0.0156690454191054,-0.0177228185249556,0.0013601316299475,0.888618793550359,NaN,-0.322844335246336,1.28951302835892,-1.21787010237136,1.28951302835915,NaN,-0.0294425991938774,NaN,-0.646862877210494,1.79812314543384,1.79812314543177,-2.59350899917703,2.59350899917465,1.42645736336496,-0.73667895787864,-0.269532998900337,NaN,0.545109583154127,0.600064998997673,0.820645248210833,-1.70665147994813,-0.73890324909034,-0.738903249088698,-1.46503160115485,1.83663134883124,-0.265042744925184,-3.49459366768536,1.59963346036257,-1.79155424934398,-1.14779903659643,NaN,-0.814202131375782,NaN,2.36268272105706,-0.941660952127778
745.3696,-1.10480954480658,-0.359397167717729,-0.92756562218175,-1.21746734882393,0.120708571998942,0.120708572000492,-0.412829548846357,NaN,-0.46953080821819,0.124629703920414,-0.773819990072251,0.124629703920386,0.0264576796743614,-0.00857415035347796,0.0370492732801429,0.89332344988033,NaN,-0.318259768607156,1.32125279680918,-1.22802237099832,1.32125279680944,NaN,-0.0500364600014874,NaN,-0.631765936033707,1.76770849756227,1.76770849756021,-2.59936868590615,2.59936868590376,1.44796549488526,-0.724489291326172,-0.276612871586873,NaN,0.564673169190695,0.556990574584667,0.798958064562619,-1.69437925361966,-0.761046688957412,-0.76104668895582,-1.48718287410142,1.84328620286003,-0.281558432986999,-3.51604410885408,1.60702802798021,-1.80482295253401,-1.14608892091043,NaN,-0.81688595754422,NaN,2.34566840230173,-0.934426401594522
745.472,-1.10352675651456,-0.353110241420016,-0.922937932758735,-1.21460837390605,0.097684093414278,0.0976840934158153,-0.416648325365814,NaN,-0.473821959886359,0.11904191355242,-0.776815411106208,0.119041913552392,0.0371990908011091,0.000513877532958207,0.0725486770431157,0.896446909419733,NaN,-0.314944938919564,1.35162097570669,-1.23656986864433,1.35162097570696,NaN,-0.0710745031854922,NaN,-0.616959800412526,1.7367280335898,1.73672803358775,-2.60414816728755,2.60414816728514,1.46907537474088,-0.711664572690051,-0.283895656273225,NaN,0.583673049571797,0.515430919306849,0.778112349472343,-1.68247167578209,-0.781577683106046,-0.781577683104507,-1.50851069579391,1.84924344044536,-0.297726876498577,-3.53607100302023,1.61411260724312,-1.81704170325978,-1.14442605552334,NaN,-0.819561442538598,NaN,2.32815354204171,-0.927179325274288
745.5744,-1.10140632208298,-0.346382346313641,-0.917505061861054,-1.21121424005818,0.0742722077354618,0.0742722077369868,-0.419712628626918,NaN,-0.477306097150424,0.114149438059577,-0.779898267500204,0.114149438059548,0.0479012929613159,0.00951609491304792,0.107832824210687,0.898032419830527,NaN,-0.312845474833367,1.38060700623189,-1.24357044801885,1.38060700623219,NaN,-0.0925120896047638,NaN,-0.602446543573317,1.70522624970961,1.70522624970757,-2.60784161590296,2.60784161590054,1.48976531218576,-0.698225667999374,-0.291379980314027,NaN,0.6020843795659,0.475443137091887,0.758137545461423,-1.67096253727135,-0.800473805973048,-0.800473805971554,-1.52896831205828,1.85451079944136,-0.313500311578866,-3.55464566329819,1.6208186504384,-1.82824772643161,-1.14279094503425,NaN,-0.822234955792602,NaN,2.31014189647524,-0.919929766571629
745.6768,-1.09846647279317,-0.339227504498265,-0.911287210654152,-1.20726488918444,0.0504581718293527,0.0504581718308674,-0.422016733965103,NaN,-0.479983384942122,0.10998256183309,-0.783130334083328,0.109982561833063,0.0585728230797927,0.0184075837434477,0.14287761431299,0.898126247920326,NaN,-0.311904488388058,1.40820384648891,-1.2490844966752,1.40820384648923,NaN,-0.114304034313406,NaN,-0.588226422267117,1.67324775267351,1.67324775267149,-2.6104439989407,2.61044399893827,1.51001477340326,-0.684193531335721,-0.29906465008452,NaN,0.619885626196771,0.437077964380346,0.739060155337496,-1.65988245201308,-0.817716615672242,-0.817716615670805,-1.54851091813774,1.85909538449528,-0.328833149845264,-3.57174099864835,1.62707820923348,-1.83847918795936,-1.14116420658497,NaN,-0.824912427951557,NaN,2.29163721405914,-0.912686985428341
745.7792,-1.09472710025333,-0.331660548786829,-0.904306137961347,-1.20274074684555,0.0262268562814002,0.0262268562829017,-0.423555960458204,NaN,-0.481855159506833,0.106569441310885,-0.786573324122545,0.106569441310858,0.0692226752846543,0.0271638091977731,0.17766045201903,0.896777381446903,NaN,-0.312062969346841,1.43440794227573,-1.25317465193039,1.43440794227608,NaN,-0.13640483189565,NaN,-0.574298023265576,1.64083701057978,1.64083701057776,-2.6119510684277,2.61195106842526,1.52980449559443,-0.669589068062988,-0.306948685606652,NaN,0.637058608135668,0.400379562526801,0.720903603176534,-1.64925889256165,-0.833291768340378,-0.833291768339,-1.56709581283356,1.86300358840587,-0.343682167357493,-3.58733171014558,1.63282415592959,-1.84777517222341,-1.13952663148601,NaN,-0.827599522317166,NaN,2.27264315591532,-0.905459507699168
745.8816,-1.09020986873285,-0.323697127763618,-0.89658523553057,-1.19762294720785,0.00156292216922531,0.00156292217071605,-0.424326794240352,NaN,-0.482924007798554,0.1039359002333,-0.790288477190308,0.103935900233275,0.0798602089169379,0.0357607640063775,0.212160304733017,0.894037227162401,NaN,-0.313260176748573,1.45921917226112,-1.25590556621973,1.45921917226149,NaN,-0.158768839093534,NaN,-0.560658441403731,1.6080381052085,1.60803810520649,-2.61235935102811,2.61235935102567,1.54911658813946,-0.654433019546806,-0.315031338645584,NaN,0.653588494168763,0.365385326334184,0.703688081804502,-1.6391162578362,-0.847189124521236,-0.847189124519913,-1.58468255312921,1.86624101186582,-0.358006694965037,-3.60139443665537,1.63799034663337,-1.85617566633613,-1.13785922546908,NaN,-0.830301810810738,NaN,2.25316323219964,-0.898255195763902
745.984,-1.08493832679042,-0.315353713728164,-0.888149604592885,-1.19189356683942,-0.0235489877675593,-0.0235489877660817,-0.42432701899965,NaN,-0.483193853282836,0.102105226855772,-0.794336150745538,0.102105226855748,0.0904950303678869,0.0441751323307757,0.246357741531372,0.889959304382327,NaN,-0.315434033785742,1.48264077078986,-1.25734368821284,1.48264077079026,NaN,-0.181350426442663,NaN,-0.547303476528324,1.57489448700393,1.57489448700191,-2.6116661482496,2.61166614824715,1.56793462622439,-0.638745872672227,-0.323312085942912,NaN,0.669463762528989,0.332125715861299,0.687430393881456,-1.62947596583051,-0.859402839163434,-0.859402839162169,-1.6012330957586,1.86881239060105,-0.371768792215017,-3.6139078624519,1.64251174767957,-1.863721543005,-1.13614324148955,NaN,-0.833024947898948,NaN,2.23320074978372,-0.891081327483764
746.0864,-1.07893800608158,-0.306647609980312,-0.879026123781575,-1.18553585559261,-0.049124047776269,-0.0491240477748036,-0.423555832992382,NaN,-0.482670029239427,0.101097970169623,-0.798775410361948,0.101097970169601,0.101136856364666,0.0523844703039762,0.28023496346244,0.884598936009142,NaN,-0.31852152677048,1.50467923336764,-1.25755702623734,1.50467923336807,NaN,-0.204104115711719,NaN,-0.534227831801357,1.54144873704574,1.54144873704373,-2.60986955213674,2.60986955213428,1.58624374021607,-0.622547790215806,-0.331790598784121,NaN,0.684676128119786,0.300624121881376,0.672143799258818,-1.62035655947421,-0.869931428666916,-0.869931428665716,-1.61671191129171,1.87072154047635,-0.384933385235309,-3.6248527999027,1.64632455086999,-1.87045453039822,-1.13436021998256,NaN,-0.835774829443171,NaN,2.21275876829551,-0.883944668392716
746.1888,-1.07223649589571,-0.297596952113322,-0.86924349782575,-1.17853444917895,-0.0751770432415248,-0.0751770432400708,-0.422013935451041,NaN,-0.481359324500965,0.10093173893456,-0.803663624339929,0.10093173893454,0.111795372043969,0.0603673906748739,0.31377583047827,0.878012941954325,NaN,-0.322459099647476,1.52534420706439,-1.25661487623849,1.52534420706484,NaN,-0.226984719576587,NaN,-0.521425293681788,1.50774234374909,1.50774234374709,-2.60696847404018,2.60696847403772,1.6040307021568,-0.605858552738462,-0.340466699545933,NaN,0.699220448270432,0.270896775545131,0.657837883710402,-1.61177381148764,-0.878777811664824,-0.878777811663687,-1.63108605976688,1.87197133164254,-0.397468351899984,-3.6342122537339,1.64936629520393,-1.87641715858277,-1.13249204280775,NaN,-0.838557722512456,NaN,2.19184006733624,-0.876851522821206
746.2912,-1.06486348640214,-0.288220698348024,-0.858832279501216,-1.17087554801968,-0.101722169140401,-0.101722169138957,-0.419703574351581,NaN,-0.479269995507208,0.101621011360756,-0.80905607491338,0.101621011360737,0.122480094676121,0.0681037371529503,0.346965882495085,0.870259340519655,NaN,-0.327183031447052,1.54464836412349,-1.25458751732695,1.54464836412397,NaN,-0.249947492299598,NaN,-0.508888877526317,1.4738155034652,1.47381550346322,-2.60296268296287,2.60296268296042,1.62128400831301,-0.588697506462942,-0.349340315282109,NaN,0.713094617487448,0.242952711634399,0.644518463102379,-1.60374081531228,-0.885949324916483,-0.885949324915424,-1.64432522589849,1.87256369867423,-0.409344548340161,-3.64197146956707,1.6515759993182,-1.88165268111634,-1.13052099947705,NaN,-0.841380360574519,NaN,2.17044712980464,-0.869807755574548
746.3936,-1.05685078213844,-0.278538608669797,-0.847824865679994,-1.16254705566047,-0.1287728401418,-0.128772840140365,-0.416628563114598,NaN,-0.47641175296357,0.103176961480339,-0.815005596468098,0.103176961480321,0.133200243922846,0.0755747410872963,0.379792344295763,0.86139706122334,NaN,-0.332629788827418,1.56260725592745,-1.25154589720536,1.56260725592796,NaN,-0.27294828862005,NaN,-0.496610935912812,1.43970695139004,1.43970695138806,-2.59785284891604,2.5978528489136,1.63799395258082,-0.571083519745149,-0.358411431221293,NaN,0.726299456815168,0.216793791245149,0.63218753118344,-1.59626805656635,-0.891457720713879,-0.891457720712899,-1.6564017248053,1.87249968223897,-0.420535789550148,-3.64811797050736,1.65289429887336,-1.88620498075253,-1.12842986391297,NaN,-0.844250006594589,NaN,2.14858214339102,-0.862818789108951
746.496,-1.04823229626328,-0.268571217338468,-0.836255477006597,-1.15353868493836,-0.156341514815924,-0.156341514814499,-0.412794284844849,NaN,-0.472795740519238,0.105607305576749,-0.82156224853329,0.105607305576732,0.143964615241959,0.0827631567156186,0.412244101618283,0.851485670815446,NaN,-0.338736350268805,1.57923914667897,-1.24756133413804,1.5792391466795,NaN,-0.295943720262871,NaN,-0.484583245741666,1.40545381834548,1.40545381834353,-2.59164057821262,2.59164057821018,1.65415268182429,-0.55303494838583,-0.367680047726951,NaN,0.738838599059574,0.192414778901403,0.620843247833995,-1.58936347247359,-0.895319154261706,-0.895319154260805,-1.667290495904,1.8717794869883,-0.431018809453956,-3.65264158239255,1.65326357403117,-1.89011847375493,-1.12620197503022,NaN,-0.847174493331059,NaN,2.12624701582663,-0.855889595189875
746.5984,-1.03904403888501,-0.258339802457098,-0.824160131987169,-1.14384204901412,-0.184439533266159,-0.184439533264744,-0.408207698742496,NaN,-0.468434517797165,0.108916172791557,-0.828773033445062,0.10891617279154,0.154781459862038,0.0896533656781788,0.444311639883767,0.840585112482778,NaN,-0.345440496712718,1.59456482786422,-1.24270524911343,1.59456482786477,NaN,-0.318891298315382,NaN,-0.472797100233032,1.37109149702523,1.3710914970233,-2.58432841953252,2.58432841953009,1.66975422547248,-0.534569597738318,-0.377146153331273,NaN,0.750718370253603,0.169803456951049,0.610479954440751,-1.58303251657003,-0.897554165114016,-0.897554165113178,-1.67696909701766,1.87040254057846,-0.440773220501056,-3.65553443996878,1.65262804313587,-1.89343802792188,-1.12382130139967,NaN,-0.850162259953158,NaN,2.10344339317576,-0.849024702756323
746.7008,-1.02932410767348,-0.247866351464627,-0.811576620080461,-1.13345075100269,-0.21307696683839,-0.213076966836986,-0.402877351695406,NaN,-0.463342048969993,0.113104005107707,-0.83668166880729,0.113104005107689,0.165658381536771,0.096231438924189,0.475986945922026,0.828755455072129,NaN,-0.352681062741823,1.60860741443409,-1.23704892776187,1.60860741443467,NaN,-0.341749554471275,NaN,-0.461243425108089,1.33665350203008,1.33665350202817,-2.57591982360886,2.57591982360644,1.68479449894122,-0.515704664391608,-0.386809728492136,NaN,0.761947667297059,0.148940758417075,0.601088201452968,-1.57727824453721,-0.898187649816346,-0.898187649815556,-1.68541770153165,1.86836754751983,-0.449781479140017,-3.65679096417997,1.65093379981402,-1.89620890643488,-1.12127246475152,NaN,-0.853222410390672,NaN,2.08017266989639,-0.842228233878738
746.8032,-1.01911268017229,-0.237173519404439,-0.798544471511778,-1.12236047756491,-0.242262477888563,-0.242262477887172,-0.396813390958929,NaN,-0.457533692206782,0.118167488682451,-0.845328415711079,0.118167488682431,0.176602257837177,0.102485153731365,0.507263383940917,0.816056648103418,NaN,-0.360398148007559,1.62139212557778,-1.23066330557446,1.62139212557839,NaN,-0.364478141802157,NaN,-0.449912923729826,1.30217132029055,1.30217132028867,-2.56641905382345,2.56641905382104,1.69927128770983,-0.496456650504427,-0.396670782704965,NaN,0.772537829591846,0.129800907658657,0.59265477831233,-1.57210142768626,-0.897248820099738,-0.89724882009899,-1.69261909618996,1.86567253897296,-0.458028854284831,-3.65640780717972,1.64812878588201,-1.89847674146911,-1.11854070852736,NaN,-0.856364809168343,NaN,2.05643598566054,-0.835503966751857
746.9056,-1.00845199937299,-0.226284579160626,-0.78510491789684,-1.1105690958708,-0.272003185416651,-0.272003185415272,-0.390027572274006,NaN,-0.451026184682913,0.124099512297761,-0.854749950488396,0.124099512297739,0.187619185052721,0.108403978541885,0.538135564625147,0.802548280730538,NaN,-0.368533296209135,1.63294605702638,-1.22361876709829,1.63294605702702,NaN,-0.387037921156351,NaN,-0.438796244234169,1.26767425868648,1.26767425868463,-2.55583105982264,2.55583105982025,1.71318422103108,-0.476841260425323,-0.406729410919397,NaN,0.782502499702393,0.112351568070037,0.585162741993379,-1.56750069158689,-0.89477114061548,-0.894771140614777,-1.69855867372684,1.86231492269248,-0.465503390923687,-3.65438376990733,1.64416271387145,-1.90028752918381,-1.11561181855395,NaN,-0.859600207737821,NaN,2.03223421213644,-0.828855415560439
747.008,-0.997386340211018,-0.215223365205534,-0.771300836677243,-1.09807674886832,-0.302304531047497,-0.30230453104613,-0.382533256728034,NaN,-0.443837617293779,0.130889145045738,-0.864979261343335,0.130889145045714,0.198714439038116,0.113979046655379,0.568599226838216,0.788289344882596,NaN,-0.377029653136954,1.64329795295001,-1.2159849466182,1.64329795295067,NaN,-0.409391040816418,NaN,-0.427884153828131,1.23318929797056,1.23318929796873,-2.54416133558332,2.54416133558094,1.72653474293701,-0.456873297897211,-0.416985847054241,NaN,0.791857467582155,0.0965540026161844,0.578591445282621,-1.56347267090127,-0.890792240259664,-0.890792240258991,-1.70322441187389,1.85829153872651,-0.472195857735295,-3.65071970414117,1.63898696861698,-1.90168762971686,-1.11247201876765,NaN,-0.862940378261951,NaN,2.00756793712448,-0.822285912307752
747.1104,-0.985961945673392,-0.204014212222656,-0.757176672922639,-1.08488593851309,-0.333170143052467,-0.333170143051111,-0.374345387333626,NaN,-0.435987391205811,0.138521627113484,-0.876045554163902,0.138521627113459,0.209892444449321,0.119203136083663,0.59865114552618,0.773338003653237,NaN,-0.385832113887201,1.65247798247086,-1.2078305159895,1.65247798247154,NaN,-0.431501016323936,NaN,-0.417167700606471,1.19874096087531,1.1987409608735,-2.53141578572952,2.53141578572715,1.73932608643451,-0.436566579409063,-0.427440496384253,NaN,0.800620497147939,0.0823632551402977,0.572916570304246,-1.56001216660474,-0.885353795543823,-0.885353795543198,-1.70660683061226,1.85359872745565,-0.478099667303545,-3.64541841358544,1.63255451916103,-1.90272375660116,-1.10910786549301,NaN,-0.86639823238945,NaN,1.98243745147183,-0.815798674074697
747.2128,-0.974226925782763,-0.192681888105312,-0.74277833386819,-1.07100158233104,-0.364601703454775,-0.364601703453431,-0.365480435829105,NaN,-0.427496148087033,0.146978372739281,-0.887974161079357,0.146978372739256,0.221156750652874,0.124070659473569,0.628289068873634,0.757751366597833,NaN,-0.39488746395242,1.6605175221442,-1.19922294904071,1.6605175221449,NaN,-0.453332813776006,NaN,-0.406638342875236,1.16435120204577,1.16435120204398,-2.51760061675378,2.51760061675142,1.75156325401328,-0.41593387166916,-0.4380939393792,NaN,0.808811139867418,0.0697283618245768,0.568110177676622,-1.55711228964783,-0.878501390299011,-0.878501390298428,-1.70869892330934,1.84823241577263,-0.483210761466765,-3.63848456380235,1.62481986353332,-1.90344294370252,-1.10550615573096,NaN,-0.869987909359887,NaN,1.95684274026474,-0.809396841542329
747.3152,-0.962231119348835,-0.181251519289771,-0.728153054882235,-1.05643103132574,-0.39659882951204,-0.396598829510708,-0.355956316002041,NaN,-0.418385671327551,0.156236988991181,-0.900786457760517,0.156236988991155,0.232510019597657,0.128577651727975,0.657511674774298,0.741585273258116,NaN,-0.404144514281236,1.6674489453305,-1.19022826282151,1.66744894533121,NaN,-0.474852932767628,NaN,-0.39628803404311,1.13003932693705,1.13003932693528,-2.50272225247999,2.50272225247765,1.76325300171174,-0.394986852176115,-0.448946912597889,NaN,0.816450542708232,0.0585926041583728,0.564140784946521,-1.55476457945254,-0.870284355959636,-0.870284355959091,-1.70949606364187,1.84218822143831,-0.487527463536907,-3.62992460357069,1.61573901758015,-1.90389248163721,-1.10165386347163,NaN,-0.873724822521822,NaN,1.93078347910296,-0.803083484015279
747.4176,-0.950025926430886,-0.169748507754729,-0.713349241566236,-1.04118404998289,-0.429158980270381,-0.429158980269061,-0.345792272381206,NaN,-0.408678766808923,0.166271315057771,-0.914499804586433,0.166271315057744,0.243954032929026,0.132721734694293,0.686318527070706,0.724894085810413,NaN,-0.413554228240366,1.67330542169861,-1.18091075034797,1.67330542169933,NaN,-0.496029477234055,NaN,-0.386109269522566,1.09582194275641,1.09582194275466,-2.48678725542755,2.48678725542523,1.77440381660078,-0.373736084027936,-0.460000281855703,NaN,0.823561256466825,0.0488938100495685,0.560973483369841,-1.55295909782361,-0.86075559494773,-0.860755594947226,-1.70899589795669,1.83546156479812,-0.491050312709469,-3.61974669727328,1.60526954823574,-1.90411982292711,-1.09753811845301,NaN,-0.877625658536363,NaN,1.90425903754255,-0.796861581663523
747.52,-0.937664125671321,-0.158198442821729,-0.698416298984949,-1.02527277301713,-0.462277390731627,-0.462277390730317,-0.335008765323744,NaN,-0.398399142366371,0.177051485404143,-0.929127525967371,0.177051485404114,0.255489719287929,0.136502046485145,0.714710013139959,0.707730492875266,NaN,-0.42306983602461,1.67812072956778,-1.17133273353459,1.67812072956852,NaN,-0.516832198341955,NaN,-0.376095119628776,1.06171293911384,1.06171293911212,-2.46980223208333,2.46980223208102,1.78502587587688,-0.352190996067206,-0.471255021963104,NaN,0.8301670463263,0.0405646961928018,0.558570088761021,-1.5516845118971,-0.849971392663137,-0.849971392662675,-1.70719823893469,1.82804776955416,-0.493781906160174,-3.60796066806663,1.5933706421097,-1.90417246421239,-1.09314622701004,NaN,-0.881708331585593,NaN,1.87726849150766,-0.790734006627089
747.6224,-0.925199689868089,-0.146627012757855,-0.683404459644971,-1.00871165647228,-0.495947027069717,-0.495947027068419,-0.32362737519742,NaN,-0.387571306374709,0.188544019023932,-0.944678934363289,0.1885440190239,0.267117194057847,0.13991913928583,0.742687254183773,0.690145328524156,NaN,-0.432646929134526,1.68192907916748,-1.16155437126504,1.68192907916823,NaN,-0.537232497139497,NaN,-0.366239273858897,1.0277234940688,1.0277234940671,-2.45177371112886,2.45177371112657,1.79513098279071,-0.330359865837909,-0.482712209000605,NaN,0.83629270227708,0.0335332331027108,0.55688931019496,-1.55092818354837,-0.837991226256194,-0.837991226255757,-1.70410497624457,1.8199421382597,-0.495726771806854,-3.59457794952491,1.58000319178539,-1.9040978198466,-1.08846571106214,NaN,-0.885991906457572,NaN,1.84981064495694,-0.784703521178542
747.7248,-0.912687605619557,-0.135059919351521,-0.668364615889514,-0.991517433928651,-0.530158553232863,-0.530158553231577,-0.31167073818794,NaN,-0.37622049677758,0.200711935171116,-0.961159399058116,0.200711935171082,0.278835801029494,0.142974857072643,0.770251986517422,0.672187411604306,NaN,-0.442243527032336,1.68476494134645,-1.1516335473292,1.68476494134722,NaN,-0.557203384927327,NaN,-0.356536109050626,0.993862102091055,0.993862102089381,-2.43270799691799,2.43270799691572,1.80473248224047,-0.308249807017256,-0.494373024594477,NaN,0.841963846178799,0.027723013746112,0.555886919427525,-1.5506762763898,-0.824877575747412,-0.824877575746999,-1.6997200121249,1.81113999952841,-0.496891280849776,-3.57961153884577,1.56512987706192,-1.90394310170091,-1.08348433260015,NaN,-0.89049651475001,NaN,1.8218840598048,-0.778772798123599
747.8272,-0.900183694369791,-0.123522795663255,-0.653348155113963,-0.973709080617306,-0.564900301352704,-0.56490030135143,-0.299162512746879,NaN,-0.364372639753173,0.213514892029109,-0.978570455263718,0.21351489202907,0.290644147754089,0.145672203731851,0.79740641506712,0.653903409178555,NaN,-0.451820111979929,1.68666287638645,-1.14162584038406,1.68666287638724,NaN,-0.57671941014856,NaN,-0.346980779792566,0.960134621446573,0.960134621444921,-2.41261100910547,2.41261100910323,1.81384516103898,-0.285866764637194,-0.50623876683246,NaN,0.847206733668952,0.0230536156451955,0.555515911880308,-1.55091388212639,-0.810695738195281,-0.810695738194886,-1.69404921960893,1.80163673285956,-0.497283594483813,-3.56307594226914,1.54871522221674,-1.90375521410728,-1.07819008446604,NaN,-0.895243287901855,NaN,1.79348709332323,-0.772944457287915
747.9296,-0.887744426903397,-0.112041125272127,-0.638406791675673,-0.955307782353815,-0.600158240869809,-0.600158240868548,-0.286127366523278,NaN,-0.352054328881801,0.226909341264324,-0.996909943003642,0.226909341264281,0.302540129006402,0.148015214028041,0.824153048583296,0.635337724572569,NaN,-0.461339635413627,1.68765736092018,-1.1315845583589,1.68765736092098,NaN,-0.595756566184605,NaN,-0.337569319710821,0.926544340871392,0.926544340869768,-2.39148812541099,2.39148812540877,1.82248513875462,-0.263215525334753,-0.518310855324946,NaN,0.852048049704365,0.0194409571732883,0.555726658990902,-1.55162516018076,-0.79551364226077,-0.795513642260407,-1.68710041465619,1.79142777986102,-0.496913631512088,-3.5449871065796,1.53072562408971,-1.90358066304137,-1.07257115095761,NaN,-0.900254318487954,NaN,1.76461794517977,-0.767221105795379
748.032,-0.875426721857708,-0.100640160767062,-0.623592388073533,-0.936336901156252,-0.635915943351113,-0.635915943349863,-0.272590969109153,NaN,-0.339292811372655,0.240848691058522,-1.01617215947603,0.240848691058475,0.314520935958228,0.150008843028565,0.850494537346562,0.616532408533743,NaN,-0.470767505039509,1.68778261647891,-1.12156080957084,1.68778261647972,NaN,-0.614292195102734,NaN,-0.328298735926955,0.893092068148692,0.893092068147093,-2.36934404853796,2.36934404853575,1.83066975709087,-0.24029975356117,-0.530590813118133,NaN,0.856514697737585,0.0167976555836032,0.556467057898363,-1.5527934789084,-0.779401659093643,-0.779401659093305,-1.67888333178437,1.78050865059456,-0.495793042081799,-3.52536233742445,1.51112936152969,-1.9034654703562,-1.06661585727365,NaN,-0.90555264550108,NaN,1.73527471790587,-0.76160536683184
748.1344,-0.863287720719413,-0.089344839650325,-0.608956759446611,-0.916821925614457,-0.672154543808809,-0.672154543807568,-0.258579972516574,NaN,-0.326115964516054,0.255283472885305,-1.0363480087779,0.255283472885251,0.326583054031125,0.151658884552315,0.87643353629116,0.597527092841401,NaN,-0.480071560959532,1.6870724477879,-1.11160357646014,1.68707244778874,NaN,-0.632304903112907,NaN,-0.319167076494181,0.85977624120631,0.859776241204734,-2.34618271748802,2.34618271748584,1.8384174752237,-0.21712206148526,-0.543080213173953,NaN,0.860633587169387,0.0150333957297569,0.557682688498042,-1.55440154418073,-0.762432404329325,-0.762432404329012,-1.66940959303078,1.76887493420146,-0.493935172723878,-3.50422021004497,1.48989660384665,-1.90345508180381,-1.06031262624074,NaN,-0.911162249351949,NaN,1.70545548958203,-0.756099881747167
748.2368,-0.851384537595868,-0.0781796976208508,-0.594551460273284,-0.896790395486659,-0.708852704174192,-0.70885270417296,-0.244121961551834,NaN,-0.312552245758903,0.270161510858182,-1.05742514064352,0.270161510858123,0.338722257754904,0.152971916196817,0.901972605616403,0.578358946186556,NaN,-0.489222044032232,1.68556009966669,-1.10175975545345,1.68556009966755,NaN,-0.649774503759422,NaN,-0.310173455725075,0.826593055764377,0.826593055762832,-2.32200727564922,2.32200727564706,1.8457477727858,-0.193684110355881,-0.55578059087877,NaN,0.864431428577259,0.0140553171579229,0.559316989968951,-1.55643150361587,-0.744680525230487,-0.744680525230189,-1.65869266259283,1.75652232147562,-0.491355011089031,-3.48158047917779,1.4669994314365,-1.90359426286832,-1.0536499518945,NaN,-0.917108043410151,NaN,1.67515839087008,-0.75070727780598
748.3392,-0.839773991099088,-0.0671687826155803,-0.580427560031201,-0.87627179962277,-0.74598658717945,-0.745986587178227,-0.229245366370826,NaN,-0.298630609259938,0.285428094319503,-1.07938807993655,0.285428094319437,0.350933612344217,0.153955256551396,0.927114144183874,0.559062649628848,NaN,-0.498191557488961,1.68327813692488,-1.09207413656745,1.68327813692577,NaN,-0.666681998429887,NaN,-0.301318037804142,0.793536598644593,0.793536598643074,-2.29682009416583,2.2968200941637,1.85268105392147,-0.169986731159049,-0.56869333723932,NaN,0.867934546402231,0.0137684243668582,0.561311466710158,-1.55886502396969,-0.726222468898667,-0.7262224688984,-1.64674778606758,1.74344663952825,-0.488069109297108,-3.45746399389431,1.44241187196403,-1.90392698466891,-1.04661639570095,NaN,-0.923415855410061,NaN,1.64438167844641,-0.74543011010329
748.4416,-0.828512332687702,-0.0563355756087337,-0.566635420668522,-0.855297457787407,-0.783529849506384,-0.783529849505169,-0.213979344872074,NaN,-0.284380395801068,0.30102615467085,-1.10221835361324,0.301026154670776,0.363211487649417,0.154616918734233,0.951860340786324,0.539670385724174,NaN,-0.506955024688514,1.68025834325379,-1.08258931852241,1.6802583432547,NaN,-0.683009590432069,NaN,-0.292601997237084,0.760598978080141,0.76059897807865,-2.27062283626375,2.27062283626164,1.85923854214962,-0.146030047904251,-0.581819591807385,NaN,0.871168715872141,0.0140760185210112,0.563605926627336,-1.56168335135086,-0.707136231866688,-0.70713623186644,-1.63359192004365,1.72964388948024,-0.484095496582926,-3.43189262004368,1.41610994692113,-1.90449630729967,-1.03920061085086,NaN,-0.930112395852956,NaN,1.61312380069096,-0.74027080062683
748.544,-0.817654985408337,-0.045702922724562,-0.553224487603594,-0.833900399667088,-0.821453663887346,-0.821453663886138,-0.198353651536338,NaN,-0.269831210993404,0.316896448147023,-1.12589462133705,0.316896448146942,0.375549583914148,0.154965552736253,0.976213129958946,0.520211834850574,NaN,-0.515489647933471,1.676531630247,-1.07334557838694,1.67653163024792,NaN,-0.698740717126065,NaN,-0.284027480789249,0.727770452252558,0.727770452251093,-2.24341654313306,2.24341654313098,1.8654421606209,-0.12181358977816,-0.595160149324849,NaN,0.874159028046556,0.0148801423011612,0.566138747651544,-1.5648673697942,-0.687501094760281,-0.68750109476006,-1.61924366003792,1.71511027549768,-0.479453595541528,-3.40488917022279,1.388071721571,-1.90534426708404,-1.03139139779443,NaN,-0.9372252118706,NaN,1.58138345358408,-0.735231597133939
748.6464,-0.807256301313712,-0.0352929785658429,-0.540243099514466,-0.812115247798811,-0.859726778905698,-0.8597267789045,-0.182398508766803,NaN,-0.255012806463141,0.332977746581333,-1.15039281494614,0.332977746581244,0.387940965419381,0.155010375808218,1.00017414353254,0.500714174546581,NaN,-0.52377487257798,1.67212795155914,-1.06438072891903,1.67212795156009,NaN,-0.7138600823637,NaN,-0.275597586083293,0.695039566111836,0.695039566110394,-2.21520172374995,2.2152017237479,1.8713143998177,-0.0973363873158781,-0.608715385122735,NaN,0.876929782301665,0.0160820298345137,0.568847165679903,-1.56839766955551,-0.6673973458574,-0.667397345857202,-1.60372317305109,1.6998422186384,-0.474164151636973,-3.37647734076703,1.35827735697318,-1.90651176849023,-1.02317779137379,NaN,-0.944782624543145,NaN,1.54915962608776,-0.730314561663823
748.7488,-0.797369341021627,-0.025127156973549,-0.527738316855595,-0.789978103029256,-0.898315618969832,-0.898315618968639,-0.166144491577265,NaN,-0.239954974259291,0.349207037997426,-1.17568629206013,0.349207037997329,0.400378097904226,0.154761091037916,1.02374465024518,0.481202081599519,NaN,-0.5317923548885,1.66707622241847,-1.05572999851641,1.66707622241943,NaN,-0.728353677931659,NaN,-0.267316357210616,0.662393304504663,0.662393304503241,-2.18597843642492,2.1859784364229,1.87687817758864,-0.072597056529474,-0.62248519740312,NaN,0.879504399675409,0.0175825573923748,0.571667576352632,-1.57225462783599,-0.646905996687998,-0.646905996687823,-1.58705213794101,1.68383635773655,-0.468249177609828,-3.34668165330332,1.32670916614723,-1.90803847646411,-1.01454917138053,NaN,-0.95281364717821,NaN,1.51645163623303,-0.725521584816737
748.8512,-0.788045675349663,-0.0152260849778554,-0.51575576649504,-0.767526426105579,-0.937184416798855,-0.937184416797669,-0.149622430180673,NaN,-0.224687458923767,0.365519739658551,-1.20174600836255,0.365519739658447,0.412852886051611,0.154227795151368,1.04692547793935,0.461697741436039,NaN,-0.53952592313947,1.6614042441475,-1.04742596049564,1.66140424414848,NaN,-0.742208790462424,NaN,-0.25918878641564,0.629817260810089,0.629817260808695,-2.15574635733264,2.15574635733064,1.88215669529365,-0.0475938786852687,-0.636468961677694,NaN,0.881905348732341,0.0192826900759001,0.574535841594192,-1.57641849715072,-0.626108494034166,-0.626108494034019,-1.56925369290645,1.66708954763673,-0.461731906021502,-3.31552739516515,1.29335167327806,-1.90996270484023,-1.00549537439703,NaN,-0.961347886171702,NaN,1.48325916107149,-0.720854412918014
748.9536,-0.779335204057779,-0.00560955766172991,-0.504339497900436,-0.744798906995657,-0.976295362991128,-0.97629536298995,-0.132863328557534,NaN,-0.209239885643247,0.381849926931064,-1.2285407099035,0.381849926930953,0.425356709130652,0.153420877951823,1.06971691859476,0.442220873938544,NaN,-0.546961515928249,1.6551386310362,-1.03949852353008,1.6551386310372,NaN,-0.755413995256114,NaN,-0.251220804674227,0.597295815375521,0.597295815374155,-2.12450483742846,2.12450483742648,1.88717329255486,-0.0223248823437584,-0.650665493114499,NaN,0.884154080170792,0.0210839169487238,0.577387592554137,-1.5808694911206,-0.605086435109909,-0.605086435109772,-1.55035238533164,1.64959886935508,-0.454636736913694,-3.28304055477075,1.2581916732461,-1.91232129970562,-0.996006778558155,NaN,-0.970415432893094,NaN,1.4495822645521,-0.716314671022661
749.056,-0.771285983277602,0.00370350591166069,-0.493531845552174,-0.721835313447463,-1.0156087561249,-1.01560875612373,-0.115898292630434,NaN,-0.193641698908463,0.398130580076771,-1.25603714097431,0.398130580076653,0.437880456198916,0.152350915570351,1.09211862244016,0.422788786242188,NaN,-0.554087083013343,1.64830473602877,-1.03197497924839,1.64830473602979,NaN,-0.767959140703045,NaN,-0.243419242997798,0.564812318945168,0.564812318943829,-2.09225295165776,2.09225295165581,1.89195130263382,0.00321206975685844,-0.665073015733293,NaN,0.886270973190939,0.0228886672955927,0.580158525067402,-1.58558785452185,-0.583921294979257,-0.583921294979138,-1.53037411824246,1.63136166581429,-0.44698916718868,-3.24924775435125,1.22121829034518,-1.91514952102931,-0.9860743373489,NaN,-0.980046758725485,NaN,1.41542142593152,-0.711903866578428
749.1584,-0.763944055887264,0.0126951037876737,-0.483373295054972,-0.698676314490874,-1.05508314092073,-1.05508314091957,-0.0987584631001761,NaN,-0.177922107362442,0.414293847715671,-1.28420025764735,0.414293847715545,0.450414562613596,0.151028561203643,1.11412949049857,0.40341645854656,NaN,-0.560892441898563,1.64092657228024,-1.02488009348557,1.64092657228127,NaN,-0.779835326169543,NaN,-0.235791753929715,0.532349277315306,0.532349277313991,-2.05898954615114,2.05898954614921,1.89651390916549,0.0290191893424431,-0.679689139534687,NaN,0.888275300323587,0.0246007033664077,0.58278468820973,-1.590553907189,-0.562694175859159,-0.562694175859063,-1.50934609200082,1.61237560911791,-0.438815696908498,-3.21417618628777,1.18242303534751,-1.91848092923928,-0.975689550490678,NaN,-0.990272621255668,NaN,1.38077756846135,-0.707623368579956
749.2608,-0.757353286001663,0.0213481858662395,-0.473902355731638,-0.675363285986585,-1.09467542806201,-1.09467542806086,-0.0814749545457647,NaN,-0.162110036016034,0.430271320951504,-1.31299343517849,0.430271320951372,0.462949045279949,0.149464441944199,1.13574757461444,0.384116660727467,NaN,-0.567369096646987,1.63302673232992,-1.01823622380276,1.63302673233096,NaN,-0.791034874111801,NaN,-0.228346700201788,0.499888530509279,0.49988853050799,-2.02471329297006,2.02471329296816,1.90088400223466,0.0550986642521292,-0.694510841612638,NaN,0.890185215063629,0.0261254869747594,0.5852027666207,-1.59574806183573,-0.541485584670343,-0.541485584670265,-1.48729674625705,1.59263879160796,-0.430143721743436,-3.17785355876646,1.14179986055787,-1.92234728245764,-0.964844380279077,NaN,-1.00112397756516,NaN,1.34565208618746,-0.703474372799611
749.3632,-0.751555202881549,0.0296466787808951,-0.465155445239949,-0.651938116845104,-1.13434099649582,-1.13434099649468,-0.0640788059982822,NaN,-0.14623408964935,0.445994308935727,-1.34237865942601,0.445994308935587,0.475473530324056,0.147669073653512,1.15696999224415,0.364900091183611,NaN,-0.573510037978409,1.62462631360194,-1.01206344269689,1.624626313603,NaN,-0.801551298115232,NaN,-0.221093034126193,0.467411416874803,0.46741141687354,-1.98942276433753,1.98942276433566,1.90508403094534,0.0814525454321317,-0.709534439185086,NaN,0.892017760191532,0.0273705187740086,0.587350354320433,-1.60115082812504,-0.520375237209412,-0.520375237209359,-1.46425570875038,1.57214982223449,-0.421001428598419,-3.14030805407248,1.09934521470824,-1.92677844578653,-0.953531142018161,NaN,-1.01263189081766,NaN,1.31004686588144,-0.699457874251062
749.4656,-0.746588857233937,0.037575500510707,-0.457166788365348,-0.628443034546385,-1.17403378750379,-1.17403378750267,-0.0466009429069663,NaN,-0.130322526232593,0.461394106965218,-1.37231669676469,0.461394106965071,0.487977269837893,0.145652800363307,1.17779286010346,0.345775526716024,NaN,-0.579309548630121,1.61574486291318,-1.00637964270948,1.61574486291425,NaN,-0.811379273680635,NaN,-0.214040192747429,0.434898916615868,0.434898916614635,-1.9531165325671,1.95311653256526,1.90913585308059,0.108082614876219,-0.724755545207564,NaN,0.893788890716263,0.0282456525975423,0.5891662180618,-1.60674281979489,-0.499441876295649,-0.499441876295617,-1.44025375195654,1.55090791125137,-0.411417705402019,-3.10156830063424,1.0550581023052,-1.93180230936881,-0.941742406445991,NaN,-1.02482741614465,NaN,1.2739643000242,-0.695574664654353
749.568,-0.742490687776048,0.0451205689015207,-0.449968326095328,-0.604920458192892,-1.21370640573723,-1.21370640573613,-0.02907214167365,NaN,-0.114403231702783,0.476402249867528,-1.4027672411829,0.476402249867372,0.500449152262321,0.143425751616307,1.19821124474926,0.326749971827574,NaN,-0.584763034370109,1.60640035192849,-1.00120059977093,1.60640035192957,NaN,-0.820514623585628,NaN,-0.207198021366708,0.402331777442721,0.402331777441525,-1.91579329041111,1.91579329040929,1.91306058639395,0.13499024098246,-0.740169010424678,NaN,0.895513507847505,0.0286633913592688,0.590590553081868,-1.61250477663063,-0.478763083339515,-0.478763083339481,-1.41532275120257,1.52891293654783,-0.401422063129227,-3.06166335870209,1.00894015628248,-1.93744470681887,-0.929470949326087,NaN,-1.0377414545408,NaN,1.23740728626941,-0.691825360454363
749.6704,-0.739294393676112,0.0522688101780027,-0.443589628476933,-0.581412876493004,-1.25331024008299,-1.2533102400819,-0.0115229863993613,NaN,-0.0985036866811406,0.490950745611143,-1.43368904009006,0.490950745610979,0.512877713850409,0.140997804809274,1.21821912338617,0.307828798304015,NaN,-0.589866891862391,1.59660918930051,-0.996539982598364,1.59660918930161,NaN,-0.828954327122343,NaN,-0.200576723979126,0.369690630212851,0.369690630211685,-1.87745198235442,1.87745198235263,1.91687846690936,0.162176231526528,-0.755768861825686,NaN,0.897205504739681,0.0285391713202978,0.591565237110284,-1.61841760443365,-0.458415065241394,-0.458415065241364,-1.38949563586864,1.50616549415769,-0.391044560812679,-3.02062271933724,0.960995738147774,-1.9437293204213,-0.916709769875967,NaN,-1.05140456382584,NaN,1.2003792123183,-0.688210455858702
749.7728,-0.737030809563597,0.0590081719704628,-0.43805780639476,-0.557962740929649,-1.29279560888717,-1.29279560888609,0.0060161855752224,NaN,-0.0826509226089092,0.504972288611777,-1.46504000257317,0.504972288611606,0.525251152049412,0.138378548622978,1.2378093501409,0.289015872084705,NaN,-0.594618413672577,1.58638626635259,-0.992409319417508,1.5863862663537,NaN,-0.836696551509245,NaN,-0.19418682963555,0.336956105590806,0.336956105589668,-1.8380919449226,1.83809194492083,1.92060871859971,0.189640687338738,-0.771548241417717,NaN,0.898877824822362,0.0277916390856411,0.592034086605343,-1.62446242833084,-0.438472410614296,-0.438472410614274,-1.3628063296479,1.4826669397215,-0.38031572580764,-2.97847631745192,0.911232081488339,-1.95067755892837,-0.903452179218582,NaN,-1.0658467185886,NaN,1.16288393212767,-0.684730388240964
749.8752,-0.735727781319849,0.0653276420910605,-0.433397420372622,-0.534612360049857,-1.33211192726235,-1.3321119272613,0.0235153463102388,NaN,-0.0668714710845931,0.518400457768481,-1.49677729543512,0.518400457768303,0.537557335058283,0.135577253857668,1.25697362701747,0.270313670999863,NaN,-0.599015721131899,1.57574502791917,-0.988817951535385,1.5757450279203,NaN,-0.843740695186611,NaN,-0.188039157966273,0.30410896426207,0.304108964260959,-1.79771306029757,1.79771306029583,1.92426943690729,0.217382853794736,-0.78749934457396,NaN,0.900542530962829,0.0263429232050205,0.591943115588455,-1.63062064875239,-0.419007823189718,-0.419007823189701,-1.33528968084942,1.45841942943126,-0.369266465167847,-2.93525456155574,0.859659488034381,-1.95830840183566,-0.889691940530625,NaN,-1.08109702132213,NaN,1.12492574389644,-0.681385598924082
749.9776,-0.735410042104567,0.0712172714249165,-0.429630387037605,-0.511403779924992,-1.3712078903762,-1.37120789037515,0.0409448444545188,NaN,-0.0511913108477657,0.531169907874189,-1.52885743407215,0.531169907874004,0.549783805212078,0.132602852235891,1.27570247592002,0.251723400136617,NaN,-0.603057708783651,1.56469755855384,-0.985773003210354,1.56469755855498,NaN,-0.850087433984925,NaN,-0.18214476454346,0.271130248611791,0.271130248610714,-1.75631592176767,1.75631592176595,1.9278774852556,0.245400969419249,-0.803613362408641,NaN,0.902210884338398,0.0241188994295349,0.591240795614845,-1.63687398582758,-0.400091848904658,-0.400091848904648,-1.3069813849192,1.43342597042536,-0.35792796423603,-2.89098838292287,0.806291572166718,-1.96663821654691,-0.875423430141109,NaN,-1.0971833811021,NaN,1.08650937880616,-0.6781765719456
750.08,-0.736099090402575,0.0766681984135626,-0.426775885919477,-0.488378641234716,-1.41003166250077,-1.41003166249974,0.058275473405005,NaN,-0.0356358165122994,0.543216563563926,-1.56123637755725,0.543216563563734,0.561917782023594,0.129463910193257,1.2939852018569,0.233245111228752,NaN,-0.606743982965234,1.55325467394812,-0.983279386578098,1.55325467394928,NaN,-0.855738765763779,NaN,-0.176514850923942,0.238001454959566,0.238001454958514,-1.71390199898819,1.71390199898649,1.93144840031042,0.273692117090696,-0.819880440646726,NaN,0.903893435712301,0.0210494469362405,0.589878316461136,-1.6432044991841,-0.381792613814395,-0.381792613814388,-1.27791790177833,1.40769048828502,-0.346331570317171,-2.84570930165541,0.751145533519161,-1.97568056512071,-0.860641790145915,NaN,-1.11413218619642,NaN,1.04764000452269,-0.675103841325711
750.1824,-0.73781307598936,0.0816726720671163,-0.424850272230203,-0.465578016133534,-1.44853105792229,-1.44853105792128,0.0754785312976247,NaN,-0.0202297176434006,0.554477821661234,-1.59386963572087,0.554477821661034,0.573946170430514,0.126168584846264,1.31180983717046,0.214877830468177,NaN,-0.610074784013378,1.5414260096786,-0.981339852185598,1.54142600967976,NaN,-0.86069804947716,NaN,-0.17116063916276,0.204704718248661,0.204704718247643,-1.67047379015049,1.67047379014881,1.93499629971355,0.302252084660374,-0.83628966635419,NaN,0.905600132390403,0.0170686923168936,0.587809847072473,-1.64959457892488,-0.36417558545743,-0.364175585457414,-1.24813637508752,1.3812179093312,-0.334508669363192,-2.79944949846173,0.694242421937276,-1.98544602356157,-0.845343057267559,NaN,-1.13196799885901,NaN,1.00832324317903,-0.672167974566985
750.2848,-0.740566703863167,0.0862240685851053,-0.423867005058412,-0.443042241355708,-1.48665370243916,-1.48665370243816,0.0925258575478741,NaN,-0.00499708162045196,0.564892761977111,-1.62671238799416,0.564892761976904,0.585855570592869,0.122724565385815,1.32916306503348,0.196619696556996,NaN,-0.613050891775938,1.52922010566293,-0.979955090924551,1.52922010566411,NaN,-0.864970032203783,NaN,-0.166093230099868,0.171222996720083,0.171222996719094,-1.6260349588958,1.62603495889414,1.93853378684353,0.331075235264627,-0.852829081834436,NaN,0.907340438796638,0.0121152348463671,0.584992790328779,-1.65602691715567,-0.347303364796559,-0.347303364796537,-1.21767456527546,1.35401424386682,-0.322490574809385,-2.75224187898324,0.635607358093676,-1.99594203564931,-0.829524264977966,NaN,-1.15071329229474,NaN,0.96856520128041,-0.669369555623707
750.3872,-0.744371165842264,0.0903168962044517,-0.423836600468365,-0.420810768218073,-1.52434717347371,-1.52434717347273,0.109389834316175,NaN,0.0100386702738868,0.574402361959941,-1.65971960491023,0.574402361959727,0.597632280468492,0.119139018093375,1.34603013491959,0.178468107336432,NaN,-0.615673521930818,1.51664449214519,-0.979123884344739,1.51664449214638,NaN,-0.868560859014079,NaN,-0.161323473371229,0.137540243942227,0.137540243941269,-1.58059046393316,1.58059046393151,1.94207185282881,0.360154382249377,-0.869485712842048,NaN,0.909123462600845,0.00613234209007339,0.581388017855399,-1.66248447807559,-0.331235509639614,-0.331235509639589,-1.18657080563528,1.32608665410647,-0.31030844678641,-2.70412012416359,0.575269691230918,-2.00717281254444,-0.813183519159715,NaN,-1.17038823409225,NaN,0.928372507977188,-0.666709190796873
750.4896,-0.749234102674073,0.0939467859980889,-0.424766612710386,-0.398922044301648,-1.56155912382417,-1.56155912382321,0.126043353785551,NaN,0.024854715706267,0.582949707510758,-1.6928461585799,0.582949707510535,0.609262286628312,0.115418554920188,1.36239479375486,0.160419868998531,NaN,-0.617944226403728,1.50370578709855,-0.978843286048326,1.50370578709975,NaN,-0.871478069392272,NaN,-0.156861869055142,0.103641561600464,0.10364156159954,-1.53414669096141,1.53414669095978,1.94561978320042,0.389480665494455,-0.886245595109947,NaN,0.910958076444882,-0.000931892467523734,0.576960071981593,-1.66895048209248,-0.316028383453051,-0.316028383453028,-1.15486398187532,1.29744349783279,-0.297993247372833,-2.6551187228375,0.513263093853168,-2.01913927473759,-0.796320052878228,NaN,-1.19101050593466,NaN,0.887752357934347,-0.664187547486499
750.592,-0.755159591047364,0.0971104706322168,-0.426661638722779,-0.377413431884463,-1.59823739537479,-1.59823739537385,0.142459764016535,NaN,0.0394287657768065,0.590480189614422,-1.72604690832683,0.590480189614192,0.620731244400547,0.111569237024935,1.37823925339795,0.142471338817451,NaN,-0.619864815186611,1.49040981286449,-0.979108804231732,1.4904098128657,NaN,-0.873730593240786,NaN,-0.152718505862024,0.0695133341354992,0.0695133341346092,-1.48671159471905,1.48671159471743,1.94918507852257,0.419043428826185,-0.903093787130026,NaN,0.912853026756103,-0.0091244273295133,0.571677331384096,-1.67540841041736,-0.301735017718029,-0.301735017718,-1.1225935261649,1.26809434804802,-0.285575723454758,-2.60527298050353,0.44962560424032,-2.03183902046938,-0.778934278377229,NaN,-1.21259513964918,NaN,0.84671255424025,-0.661805420981201
750.6944,-0.762148146048852,0.0998057554040602,-0.429523337230929,-0.356321158963278,-1.6343301295123,-1.63433012951138,0.15861281154971,NaN,0.053738998192574,0.596941676992825,-1.75927675201202,0.596941676992586,0.632024449899773,0.107596615214407,1.39354420254124,0.124618553805944,NaN,-0.621437314035712,1.47676173341561,-0.979914553879834,1.47676173341682,NaN,-0.875328757166265,NaN,-0.148903028511097,0.0351433489677635,0.0351433489669065,-1.4382948581704,1.4382948581688,1.95277339474717,0.448830098221011,-0.920014363203693,NaN,0.914817023168645,-0.0184871743769123,0.565512145845185,-1.68184202855658,-0.288404973260314,-0.288404973260287,-1.08979941124198,1.23804999605292,-0.273086399460019,-2.55461900355884,0.384399639890225,-2.04526629828859,-0.761027859303163,NaN,-1.23515434761237,NaN,0.805261546194939,-0.659563815770157
750.7968,-0.770196730999117,0.102031485671354,-0.433350454772487,-0.335680291081566,-1.66978588171724,-1.66978588171633,0.174476596680778,NaN,0.0677640034094493,0.602284660428927,-1.79249064121856,0.602284660428679,0.643126806171621,0.103505802958715,1.40828886028808,0.106857343013492,NaN,-0.622663962226375,1.46276620797704,-0.981253361225232,1.46276620797827,NaN,-0.876284300503998,NaN,-0.145424619019268,0.000520905708670143,0.000520905707836196,-1.38890807213783,1.38890807213624,1.9563885045916,0.478826060328292,-0.936990386557465,NaN,0.916858803303734,-0.0290569087387971,0.558440948672535,-1.68823542173433,-0.276084187994656,-0.276084187994633,-1.05652213075473,1.20732244972909,-0.260555560220054,-2.50319366901283,0.317632011711836,-2.05941196523307,-0.742603816194702,NaN,-1.25869733456885,NaN,0.763408460671822,-0.657464024574319
750.8992,-0.779298769612698,0.10378751379462,-0.438138853511208,-0.315524707065723,-1.70455374692944,-1.70455374692855,0.190025551012098,NaN,0.0814827515438409,0.606462371293449,-1.82564356579053,0.606462371293192,0.654022787015151,0.0993015720426458,1.42245106209692,0.0891834247070178,NaN,-0.62354724548356,1.44842755503736,-0.983116822660135,1.44842755503859,NaN,-0.876610395420634,NaN,-0.142291972444886,-0.0343630784827651,-0.0343630784835692,-1.33856493036372,1.33856493036215,1.96003227853709,0.509014542427022,-0.954003867261701,NaN,0.918987170669332,-0.0408651728328466,0.550444356686466,-1.69457303093838,-0.264814806223674,-0.264814806223653,-1.02280265689001,1.1759249384951,-0.248013208901507,-2.45103459417988,0.249373960969227,-2.0742634236709,-0.723666668814527,NaN,-1.28323008896665,NaN,0.721163132295381,-0.65550768797055
751.0016,-0.789444157893172,0.105074668349003,-0.443881537507538,-0.29588706140938,-1.73858349829446,-1.73858349829358,0.20523444132823,NaN,0.0948745825230144,0.609430882529812,-1.85869051934058,0.609430882529548,0.664696406183398,0.0949884543422383,1.43600736606313,0.071592490245908,NaN,-0.62408995495363,1.4337499223946,-0.985495331146387,1.43374992239584,NaN,-0.876321668832018,NaN,-0.139513248286733,-0.0695159546007165,-0.0695159546014911,-1.28728142648337,1.28728142648182,1.96370468273527,0.539376500140272,-0.971035716671911,NaN,0.92121101094738,-0.0539381636139342,0.541507269792304,-1.70083967555195,-0.254634995310424,-0.254634995310384,-0.988682372637044,1.14387193166921,-0.23548899357012,-2.39818011694673,0.179681225318353,-2.08980454083545,-0.704222615847678,NaN,-1.3087551568172,NaN,0.678536139239299,-0.653696820749012
751.104,-0.800619276994938,0.105894727122497,-0.450568677320094,-0.276798724000786,-1.77182573459652,-1.77182573459566,0.22007839662734,NaN,0.107919215721847,0.611149203623401,-1.89158646225743,0.611149203623131,0.675131201641801,0.0905708309226226,1.44893316759284,0.0540802785002776,NaN,-0.624295259236229,1.41873746188415,-0.988378087622485,1.4187374618854,NaN,-0.875434224594513,NaN,-0.137095987998398,-0.104943208424908,-0.104943208425645,-1.2350760356687,1.23507603566716,1.9674037890669,0.569890525124315,-0.988065717443141,NaN,0.92353929834928,-0.0682966004774261,0.531618979566336,-1.70702055194315,-0.245578763649514,-0.245578763649459,-0.954202984405927,1.11117916908003,-0.223012108355746,-2.34466929027518,0.108614126067964,-2.10601556187532,-0.684279745329557,NaN,-1.33527140522939,NaN,0.635538847537634,-0.652033801996685
751.2064,-0.81280701483921,0.106250391639326,-0.458187639311621,-0.258289703135573,-1.80423202662884,-1.804232026628,0.234532943469913,NaN,0.120596765461094,0.61157937919653,-1.92428629859147,0.611579379196256,0.685310237270529,0.0860529981689889,1.46120281032288,0.0366426469987065,NaN,-0.624166774866293,1.4033945086317,-0.991753121203482,1.40339450863295,NaN,-0.873965658558932,NaN,-0.13504700801189,-0.140648309643057,-0.140648309643758,-1.18196986671274,1.18196986671122,1.97112578931327,0.60053278265536,-1.00507252554914,NaN,0.925981101192627,-0.0839555831438696,0.520773285277675,-1.71310120936461,-0.237675797061263,-0.237675797061191,-0.919406429773434,1.07786369229679,-0.210611189750066,-2.29054189088435,0.0362376600084149,-2.12287303197546,-0.663848259277533,NaN,-1.36277379025882,NaN,0.59218346315738,-0.650521342481251
751.3088,-0.825986809103448,0.10614525734488,-0.466723031317946,-0.240388570069183,-1.8357550543796,-1.83575505437878,0.248574027077878,NaN,0.132887742441096,0.610686594629197,-1.95674487585341,0.610686594628922,0.695216113292312,0.0814392152477467,1.47278968347385,0.0192756438371877,NaN,-0.623708625474727,1.3877257624991,-0.995607345706176,1.38772576250036,NaN,-0.871935054963527,NaN,-0.13337229420988,-0.176632554969096,-0.176632554969758,-1.12798677722467,1.12798677722317,1.97486500586501,0.631276978740242,-1.02203370666763,NaN,0.928545586615535,-0.100924459008154,0.508968601872033,-1.71906751727558,-0.230951329944492,-0.230951329944421,-0.884334798651774,1.04394385815217,-0.198314235790802,-2.23583844144893,-0.0373784257706461,-2.14034974714673,-0.642940690926127,NaN,-1.39125315120258,NaN,0.548483089562789,-0.649162452293237
751.4112,-0.840134721917745,0.105583773555435,-0.476156774889298,-0.223122403622424,-1.86634873058161,-1.86634873058081,0.262178001276559,NaN,0.144773026683653,0.608439285448635,-1.98891700505555,0.608439285448358,0.704830973210227,0.076733747460898,1.48366630579056,0.00197558009090766,NaN,-0.62292548747061,1.3717364673463,-0.999926670966072,1.37173646734756,NaN,-0.869362957994495,NaN,-0.132076923040963,-0.212894919574683,-0.212894919575305,-1.0731534527836,1.07315345278212,1.97861389892692,0.66209434809578,-1.03892579548832,NaN,0.931242016957556,-0.119206723123767,0.496208036839829,-1.72490564103018,-0.225426061964507,-0.225426061964426,-0.849030281145218,1.00943932132421,-0.186148568222671,-2.18060024205588,-0.112159600677852,-2.15841475273178,-0.621572090837415,NaN,-1.4206960549333,NaN,0.504451788104867,-0.647960425499297
751.5136,-0.855223548872647,0.104571189562716,-0.486468207961859,-0.20651676462704,-1.89596830741026,-1.89596830740947,0.275321584292695,NaN,0.156233810054511,0.604809242513041,-2.02075748752743,0.604809242512762,0.714136498670683,0.0719409235663206,1.49380440893647,-0.0152608990671535,NaN,-0.621822625777671,1.35543258444838,-1.00469616880515,1.35543258444965,NaN,-0.866271323536788,NaN,-0.1311650200494,-0.249431928839094,-0.249431928839669,-1.01749945978174,1.01749945978027,1.98236307855228,0.692953653413844,-1.05572436101299,NaN,0.934079729157314,-0.138799968564669,0.482499416439852,-1.73060203621188,-0.221116121543791,-0.221116121543695,-0.813535145798479,0.974370984986273,-0.174140841642833,-2.12486940062963,-0.188026578969037,-2.17703339862039,-0.599760161565175,NaN,-1.45108470405643,NaN,0.460104639632284,-0.646918844886126
751.616,-0.871222957442556,0.103113485649119,-0.497634215565193,-0.190595700567706,-1.92457046411906,-1.92457046411829,0.287981788004066,NaN,0.167251515569718,0.599771704495783,-2.05222113190771,0.599771704495503,0.723113889377951,0.067065222335509,1.50317503965892,-0.0324367460976189,NaN,-0.62040592618277,1.33882095877505,-1.00990028019529,1.33882095877633,NaN,-0.862683463994325,NaN,-0.130639752693899,-0.286237555263268,-0.286237555263796,-0.961057285992917,0.961057285991473,1.98610133208188,0.723821191184459,-1.07240406349066,NaN,0.937068092518011,-0.15969589305571,0.467855253667557,-1.73614346346233,-0.218033069026321,-0.21803306902622,-0.777891743207291,0.938760926724648,-0.162317090720865,-2.06868885103489,-0.264895413428483,-2.19616744408581,-0.577525335313591,NaN,-1.48239690575594,NaN,0.415457807457722,-0.646041599502058
751.7184,-0.888099645589065,0.101217289926924,-0.509629382076516,-0.175381774115682,-1.95211337612442,-1.95211337612367,0.300135833766138,NaN,0.177807705457965,0.593305432256987,-2.08326274933799,0.593305432256706,0.731743831161701,0.0621113957797627,1.51174869879929,-0.0495544470053728,NaN,-0.618681930469178,1.32190947967951,-1.01552304400523,1.3219094796808,NaN,-0.858624000247141,NaN,-0.130503345959656,-0.323303136752994,-0.323303136753478,-0.90386238141741,0.903862381415988,1.98981567498591,0.754660804496599,-1.08893869421946,NaN,0.940216446063398,-0.181880357544989,0.452292662168016,-1.741517018903,-0.216183929315134,-0.21618392931502,-0.742142523921502,0.90263230969156,-0.150702799365016,-2.01210235457629,-0.342677639972935,-2.21577519470772,-0.55489080471679,NaN,-1.51460608609847,NaN,0.370528601606844,-0.645332901964443
751.8208,-0.905817510442931,0.0988897833499646,-0.522426157108184,-0.160896104769853,-1.97855676896123,-1.97855676896049,0.311761071961987,NaN,0.187883993791096,0.585392761863563,-2.11383711985773,0.585392761863284,0.740006457591624,0.0570846302401466,1.51949552949234,-0.0666159611247834,NaN,-0.616657876271031,1.30470723880769,-1.02154832170632,1.30470723880899,NaN,-0.854118830878418,NaN,-0.130757104140194,-0.360617309589365,-0.360617309589802,-0.845953211602372,0.845953211600967,1.99349142959792,0.785433902974306,-1.10530119210876,NaN,0.943534020256454,-0.205333488404374,0.435833225700151,-1.74671016987806,-0.215571246420934,-0.215571246420801,-0.706330056341014,0.866009290926819,-0.139322971559116,-1.95515449037362,-0.421280450993912,-2.23581165575122,-0.53188251851142,NaN,-1.54768133284021,NaN,0.32533554277874,-0.64479728939928
751.9232,-0.924337819093198,0.0961385955661109,-0.535995028290251,-0.147158410055993,-2.00386196210486,-2.00386196210414,0.322834922577125,NaN,0.197461979570049,0.576019634494553,-2.14389892761977,0.576019634494275,0.747881308698693,0.0519907435603183,1.52638555851807,-0.0836226621654065,NaN,-0.614341737595221,1.28722468655415,-1.02795999345648,1.28722468655546,NaN,-0.849195122041615,NaN,-0.131401420089703,-0.398165951768639,-0.398165951769034,-0.787371333488313,0.787371333486923,1.99711233221834,0.81609948706586,-1.12146363282529,NaN,0.947029847746914,-0.230029813563755,0.418502833784686,-1.75171078270173,-0.216193157615376,-0.216193157615232,-0.670497031106028,0.828916939278181,-0.128202184040076,-1.89789064594566,-0.500606878025167,-2.25622869448113,-0.508529146391357,NaN,-1.58158745496572,NaN,0.279898425225107,-0.644439592201292
752.0256,-0.943619378288648,0.0929716929342617,-0.550304698093796,-0.134187034440014,-2.02799190709001,-2.02799190708931,0.333334845698335,NaN,0.206523207909967,0.565175604687258,-2.17340266966151,0.565175604686981,0.755347288226478,0.0468364126976277,1.53238898436283,-0.100575278284501,NaN,-0.611742258839253,1.26947378601477,-1.03474211640855,1.26947378601608,NaN,-0.843881314158813,NaN,-0.132435758409588,-0.435932133974599,-0.435932133974947,-0.728161493569848,0.728161493568473,2.00066066354282,0.846614173841186,-1.13739719169745,NaN,0.950712667567868,-0.255938421400249,0.400331495187037,-1.75650713105233,-0.218043489710015,-0.218043489709853,-0.634686245404016,0.791381169633867,-0.117364610764257,-1.84035701919351,-0.580555971014457,-2.27697521002801,-0.484862014798314,NaN,-1.61628505364317,NaN,0.234238380123201,-0.644264862297485
752.128,-0.963618707446989,0.0893972567004679,-0.565322268733426,-0.121998962973448,-2.05091122208872,-2.05091122208803,0.34323833660067,NaN,0.215049153855782,0.552853830579831,-2.20230254860833,0.552853830579553,0.76238261908905,0.0416294219887171,1.53747649544139,-0.117473831678034,NaN,-0.608868977080364,1.25146816035284,-1.04187905465842,1.25146816035416,NaN,-0.838207135166381,NaN,-0.133858614331254,-0.473896076734713,-0.473896076735023,-0.668371736509807,0.668371736508442,2.00411739202721,0.876932223805301,-1.15307208735519,NaN,0.954590828859945,-0.283023134301545,0.38135313948587,-1.76108788229366,-0.221111883559555,-0.221111883559388,-0.598940572577932,0.753428688228596,-0.106834027238931,-1.782600635411,-0.661022975548517,-2.29799731548617,-0.460915015511436,NaN,-1.65173060594799,NaN,0.188377940113839,-0.64427826848909
752.2304,-0.984290227108728,0.0854235478717433,-0.581013445044327,-0.110609826675155,-2.07258622399239,-2.07258622399172,0.3525229314721,NaN,0.22302121636261,0.53905105021716,-2.23055236288786,0.539051050216883,0.768964798681953,0.036378917049875,1.54161959720719,-0.13431757945527,NaN,-0.605732228627817,1.23322322536251,-1.04935559767887,1.23322322536382,NaN,-0.832203605260669,NaN,-0.135667466372443,-0.512035117259408,-0.51203511725968,-0.608053504039075,0.60805350403772,2.00746231901796,0.907005574022509,-1.16845751961667,NaN,0.958672200666573,-0.311242698246719,0.361605409813829,-1.76544207012053,-0.225383952929547,-0.225383952929381,-0.563302931519338,0.715086935058239,-0.0966338163679054,-1.72466936912508,-0.74189953219203,-2.31923854528291,-0.436724478891717,NaN,-1.68787657331262,NaN,0.142341100870855,-0.644484980828422
752.3328,-1.00558647569423,0.0810587596249607,-0.597342763092594,-0.10003390829423,-2.09298495912957,-2.09298495912892,0.361166213282489,NaN,0.230420713956236,0.523767549483815,-2.25810541207826,0.52376754948354,0.775070563094559,0.0310956418728463,1.54479092907071,-0.15110495691107,NaN,-0.60234313237566,1.21475629700449,-1.05715708137536,1.21475629700581,NaN,-0.825903016988965,NaN,-0.137858743007302,-0.550323694678134,-0.550323694678365,-0.547261698804697,0.547261698803352,2.01067421908967,0.936783891026078,-1.18352162293627,NaN,0.962964091397744,-0.340550996652598,0.341129442523301,-1.7695590667444,-0.230841478405399,-0.230841478405233,-0.527816268570375,0.676384012871822,-0.0867869938011631,-1.66661195175697,-0.823073933938147,-2.34064010365372,-0.412328989594795,NaN,-1.72467155686132,NaN,0.0961533731790115,-0.644890065522681
752.4352,-1.0274583569646,0.0763108645586414,-0.61427384164123,-0.0902841516475248,-2.11207723121294,-2.11207723121231,0.369145815068908,NaN,0.23722888043891,0.507007127548179,-2.28491443452974,0.507007127547905,0.780675870619091,0.0257921383133069,1.54696455730618,-0.167833523593634,NaN,-0.598713541714281,1.19608666623786,-1.06526952137544,1.19608666623918,NaN,-0.819338878004956,NaN,-0.140427810876706,-0.588733361639404,-0.588733361639589,-0.486054694426523,0.486054694425184,2.01373097429448,0.96621465655909,-1.19823145497675,NaN,0.967473176853438,-0.370897294708927,0.319969628148305,-1.77342856324435,-0.237462629561793,-0.23746262956163,-0.492523553727197,0.637348603690992,-0.0773162538812466,-1.60847795257256,-0.904431463084986,-2.36214116239719,-0.387769125926581,NaN,-1.76206052039434,NaN,0.0498418232493197,-0.645498397698151
752.5376,-1.04985540617061,0.0711874666849685,-0.631769642761079,-0.0813721726647785,-2.12983462087708,-2.12983462087646,0.376439422174201,NaN,0.243426862033636,0.488777062024728,-2.31093158353562,0.488777062024456,0.785755904316231,0.020482904532494,1.54811623788549,-0.184499910281961,NaN,-0.594855962408534,1.17723563765142,-1.07367976228354,1.17723563765274,NaN,-0.812545811085395,NaN,-0.143368977420301,-0.627232825979181,-0.627232825979323,-0.424494292252353,0.424494292251014,2.01660970386659,0.995243286800796,-1.21255302377806,NaN,0.972205431647643,-0.402226515537686,0.298173349333887,-1.77704055805337,-0.245222204986473,-0.245222204986313,-0.45746778146341,0.598009883507027,-0.0682440209360914,-1.55031773516461,-0.985854802147281,-2.38367920496979,-0.363087122143496,NaN,-1.79998508929022,NaN,0.00343510478741581,-0.646314584457835
752.64,-1.07272605655089,0.0656956662398801,-0.649792724912255,-0.0733082665139823,-2.14623049107237,-2.14623049107177,0.38302477841756,NaN,0.248995720022026,0.469088072428249,-2.33610843592425,0.469088072427981,0.79028508556823,0.0151845247249867,1.54822365375759,-0.201099761716009,NaN,-0.590783438292987,1.1582265307043,-1.08237563607325,1.15822653070562,NaN,-0.805559415336564,NaN,-0.146675492272813,-0.665788024121239,-0.665788024121337,-0.362645638881949,0.36264563888061,2.01928689235046,1.02381327496359,-1.22645134134572,NaN,0.977166058498776,-0.434479547244066,0.275790692961478,-1.78038534622381,-0.254091882572589,-0.254091882572422,-0.422691961044482,0.558397449941613,-0.0595924831866148,-1.4921823998056,-1.06722449823746,-2.40519040738305,-0.338326463287002,NaN,-1.83838392081664,NaN,-0.0430365126841853,-0.647342883351261
752.7424,-1.09601789198749,0.0598419416625352,-0.668305476741525,-0.0661014011426826,-2.16123997789918,-2.1612399778986,0.388879705388589,NaN,0.253916446826924,0.447954279852937,-2.36039602436545,0.447954279852672,0.794237094916841,0.00991578104249239,1.54726663719284,-0.21762767161374,NaN,-0.586509407263321,1.13908464388471,-1.09134611261176,1.13908464388603,NaN,-0.798416099662878,NaN,-0.150339529674651,-0.704362227190473,-0.70436222719053,-0.300577116869763,0.300577116868427,2.02173851874595,1.05186634750695,-1.23989048955396,NaN,0.982359414948632,-0.46759357697007,0.252874139270724,-1.78345349825144,-0.26404047971725,-0.264040479717077,-0.388239083102985,0.518541275846053,-0.0513835893642864,-1.43412372180219,-1.148419462356,-2.42661004804988,-0.313531423524454,NaN,-1.8771931350224,NaN,-0.0895411169990714,-0.648587102205787
752.8448,-1.11967788019466,0.0536320475167145,-0.687270328722978,-0.0597591889459737,-2.17483997159941,-2.17483997159886,0.393982142864312,NaN,0.258170002574274,0.425393160345913,-2.38374488866711,0.425393160345649,0.797584902170733,0.00469774917063868,1.54522738338979,-0.234077112362238,NaN,-0.582047531431525,1.11983718432764,-1.10058142286764,1.11983718432896,NaN,-0.791152897964942,NaN,-0.154352141207627,-0.742916180915331,-0.742916180915349,-0.238360214060789,0.238360214059449,2.02394018521303,1.0793426308149,-1.25283369214569,NaN,0.987788943396429,-0.501502445113229,0.229478237122827,-1.78623581966116,-0.27503422951907,-0.275034229518902,-0.35415205616238,0.478471693427476,-0.0436389994907381,-1.3761940952279,-1.22931749367123,-2.44787294611326,-0.288746563755998,NaN,-1.91634679339514,NaN,-0.136045127877621,-0.650050475306772
752.9472,-1.14365258977033,0.0470709206180413,-0.706649949461918,-0.0542878396681967,-2.18700909378827,-2.18700909378773,0.398310209570659,NaN,0.261737371450478,0.401425488300938,-2.40610514341427,0.401425488300677,0.800300807004692,-0.000446125543188707,1.54209065265182,-0.250440364402863,NaN,-0.577411508138098,1.10051316638026,-1.11007313979861,1.10051316638157,NaN,-0.783807265648491,NaN,-0.158703185576304,-0.781408282713652,-0.781408282713628,-0.176069372353919,0.176069372352579,2.02586723918719,1.10618083150351,-1.26524339404486,NaN,0.99345711142324,-0.536137015381902,0.205659273254884,-1.78872329228399,-0.287037079193295,-0.287037079193131,-0.320473614798434,0.438219400969054,-0.0363799960787512,-1.31844648779268,-1.30979582466977,-2.46891392981978,-0.26401621071285,NaN,-1.95577740985947,NaN,-0.182513275030307,-0.651735526144861
753.0496,-1.16788840086409,0.0401625850011582,-0.726407438597347,-0.0496921084700254,-2.19772767761902,-2.19772767761851,0.401842275321775,NaN,0.264599630055312,0.376075266094677,-2.42742655992237,0.376075266094418,0.802356488821706,-0.00548997379066798,1.53784395489131,-0.26670845099276,NaN,-0.572614871685649,1.08114328103879,-1.11981421211454,1.08114328104009,NaN,-0.776416849994107,NaN,-0.163381257434981,-0.819794797329396,-0.819794797329328,-0.113781814951422,0.113781814950079,2.0274948842389,1.13231843627236,-1.27708135051172,NaN,0.999365364912056,-0.5714255605031,0.181474937259703,-1.79090700765042,-0.300011010232994,-0.300011010232827,-0.287246207116862,0.397815475033857,-0.0296273729821974,-1.26093440194298,-1.38973168652728,-2.48966832970888,-0.239383941034701,NaN,-1.99541647871203,NaN,-0.228908583401293,-0.653643937306576
753.152,-1.19233171961023,0.0329100519007488,-0.746506525140742,-0.0459752506541559,-2.20697775842216,-2.20697775842168,0.404557034598749,NaN,0.266738018882266,0.349369636696073,-2.44765866443985,0.349369636695817,0.803723064331556,-0.0104054712653906,1.53247771114711,-0.282871087430028,NaN,-0.567670797349305,1.06175973664663,-1.12979896264778,1.06175973664792,NaN,-0.769019229760574,NaN,-0.168373635818454,-0.858030101827577,-0.858030101827472,-0.0515773518278656,0.0515773518265236,2.02879828159338,1.15769193415259,-1.28830872616829,NaN,1.00551409195033,-0.607294161774926,0.156983982445365,-1.79277810344108,-0.313916374971793,-0.31391637497163,-0.254511871611602,0.357291371787013,-0.0234013208845832,-1.20371183085299,-1.46900289440569,-2.51007248566485,-0.214892089828722,NaN,-2.0351950094607,NaN,-0.275192367424252,-0.655776443908581
753.2544,-1.2169292013902,0.0253152181376987,-0.766911772455117,-0.0431389847531608,-2.21474308026854,-2.21474308026808,0.406433574916424,NaN,0.268134010242121,0.32133877754171,-2.4667508624077,0.321338777541457,0.804371153143565,-0.0151618366227724,1.52598538335451,-0.298916654932083,NaN,-0.562591915648798,1.04239607265779,-1.14002307645921,1.04239607265908,NaN,-0.761651626558772,NaN,-0.17366625907115,-0.89606694318048,-0.89606694318034,0.0104618389793474,-0.0104618389806916,2.02975264605217,1.18223705867378,-1.29888620560765,NaN,1.01190259488601,-0.643667115141083,0.132245886703168,-1.79432770779836,-0.328712247330068,-0.328712247329913,-0.222312111416248,0.316678909434882,-0.0177213215660305,-1.14683320513289,-1.54748844304371,-2.53006425487382,-0.190581299547166,NaN,-2.07504405921729,NaN,-0.321324233968813,-0.658132755368869
753.3568,-1.24162798119032,0.0173787710846899,-0.787588783814674,-0.0411834621142087,-2.22100911877524,-2.2210091187748,0.407451436078958,NaN,0.268769367957238,0.292015777643521,-2.48465260370047,0.292015777643275,0.804270953181845,-0.0197258708998788,1.51836355556876,-0.314832201892067,NaN,-0.557390138065996,1.02308695300253,-1.15048360208462,1.02308695300382,NaN,-0.754350594219188,NaN,-0.179243722929658,-0.933856696831984,-0.933856696831804,0.0722514610859335,-0.072251461087278,2.030333333698,1.20588904529384,-1.30877412311368,NaN,1.01852906940061,-0.680467333128206,0.10732052110014,-1.79554689130965,-0.344356789617715,-0.344356789617575,-0.190687770760407,0.276010231014958,-0.0126060558466219,-1.09035333635527,-1.62506909004128,-2.54958350525232,-0.16649012362162,NaN,-2.11489524692194,NaN,-0.367262094481163,-0.660711504866032
753.4592,-1.26637590426224,0.00910010916221581,-0.808504398764342,-0.0401072462371846,-2.22576311491691,-2.2257631149165,0.407590658172905,NaN,0.268626196236551,0.261436502918734,-2.50131359649385,0.261436502918494,0.803392324616797,-0.0240620479316408,1.50961194860161,-0.330603463384703,NaN,-0.552076492365412,1.00386795133783,-1.16117897425392,1.00386795133912,NaN,-0.747151690959616,NaN,-0.185089298499075,-0.971349624776588,-0.971349624776374,0.133705383073777,-0.133705383075123,2.03051591197639,1.22858289820036,-1.31793261793889,NaN,1.02539058996535,-0.717616733578063,0.0822678329714745,-1.79642662600983,-0.360807636205915,-0.360807636205787,-0.159678919865793,0.235317747229355,-0.00807333114618918,-1.03432736495416,-1.70162790497387,-2.568572580972,-0.14265469369908,NaN,-2.15468123408169,NaN,-0.412962190679252,-0.663510228901715
753.5616,-1.29112174942843,0.000477282143360069,-0.829626872768758,-0.0399073116083751,-2.2289941129221,-2.2289941129217,0.406831818972233,NaN,0.267686978586753,0.229639453662229,-2.51668406138428,0.229639453661991,0.801704876507686,-0.0281326534975785,1.49973336056801,-0.346214885238179,NaN,-0.546660968471773,0.984775342653776,-1.17210904861778,0.984775342655054,NaN,-0.740089137445797,NaN,-0.19118497319977,-1.00849513558051,-1.00849513558025,0.194735948023154,-0.1947359480245,2.03027620319907,1.25025365856292,-1.32632181250329,NaN,1.03248310212266,-0.755036612071751,0.057147546249194,-1.79695775401714,-0.378022292311592,-0.37802229231149,-0.129324758025145,0.194634055095294,-0.00414004016265464,-0.978810715633992,-1.77705077665218,-2.58697673583291,-0.119108451072329,NaN,-2.19433616750009,NaN,-0.458379141975869,-0.666525384210872
753.664,-1.31581544099449,-0.00849305054953758,-0.850926038654106,-0.0405790715690472,-2.23069300188886,-2.23069300188848,0.405156067137161,NaN,0.265934613236043,0.196665612459981,-2.53071501139589,0.196665612459749,0.799178053249895,-0.0318979671547736,1.48873353757791,-0.361649648487104,NaN,-0.541152380784551,0.965845910758023,-1.18327512495209,0.965845910759296,NaN,-0.733195468237412,NaN,-0.197511523618862,-1.04524204787042,-1.04524204787013,0.25525430423312,-0.255254304234468,2.02959029953695,1.27083667125729,-1.33390200834834,NaN,1.03980142674577,-0.792648002082501,0.0320188790998553,-1.79713097168308,-0.395958543240183,-0.395958543240101,-0.0996635412373507,0.153991826356884,-0.000822160142391976,-0.923859060369334,-1.85122688055246,-2.60474453646006,-0.0958819428146333,NaN,-2.23379608899408,NaN,-0.503466024115355,-0.669752410784146
753.7664,-1.34040825075274,-0.0178156481435903,-0.872373453571926,-0.0421164372098563,-2.23085257034653,-2.23085257034618,0.402545163052718,NaN,0.263352456482856,0.162558274898473,-2.543358551142,0.162558274898246,0.795781226044805,-0.0353164872160355,1.47662098388515,-0.376889702920233,NaN,-0.535558254289435,0.94711677159814,-1.19467992741924,0.947116771599406,NaN,-0.726501192724096,NaN,-0.20404863018079,-1.0815388608149,-1.08153886081457,0.315170763851583,-0.315170763852928,2.02843455444277,1.29026785889899,-1.34063390236679,NaN,1.04733928608439,-0.83037203097175,0.00694027866829166,-1.7969368348608,-0.414574865320886,-0.414574865320832,-0.0707325301095728,0.113423663081221,0.00186520969216314,-0.869528288445941,-1.92404910745053,-2.62182823577325,-0.0730026877330183,NaN,-2.27299931794899,NaN,-0.548174487282402,-0.673185846991054
753.8688,-1.36485299505109,-0.0274967098291194,-0.893942538565603,-0.0445119013196471,-2.22946758463922,-2.22946758463889,0.398981536248875,NaN,0.259924382387909,0.127362857010807,-2.55456819014174,0.127362857010584,0.791483795236803,-0.0383451977625539,1.46340672456856,-0.391915817470715,NaN,-0.529884736633377,0.928625205220962,-1.20632751498205,0.928625205222223,NaN,-0.720034483812815,NaN,-0.210775037767293,-1.117334038337,-1.11733403833662,0.374395193869004,-0.37439519387035,2.02678555740928,1.30848401265498,-1.34647882707871,NaN,1.05508935789418,-0.868130278482623,-0.0180308283456085,-1.79636578739004,-0.43383082907498,-0.433830829074937,-0.0425679450162343,0.072961924786938,0.00390778714897776,-0.815874482783122,-1.99541445044618,-2.63818411337872,-0.050495114995282,NaN,-2.31188680619491,NaN,-0.592454915531467,-0.6768194960295
753.9712,-1.38910423137659,-0.0375438972429256,-0.915608718532328,-0.0477566379891679,-2.22653489529358,-2.22653489529328,0.394448356097561,NaN,0.255634855374839,0.0911266819552297,-2.56429915665781,0.0911266819550127,0.786255298982889,-0.0409398628604906,1.44910403614231,-0.406707644646804,NaN,-0.524136532848836,0.91040848859467,-1.21822311600921,0.910408488595933,NaN,-0.713820904599675,NaN,-0.217668756762405,-1.15257630999424,-1.15257630999381,0.432837426277484,-0.432837426278837,2.02462009729536,1.32542309316856,-1.35139900697522,NaN,1.06304335288509,-0.905845137392934,-0.0428382720313743,-1.79540820982701,-0.453687488914609,-0.453687488914567,-0.0152049154420173,0.032638536901393,0.00529204038361813,-0.762953901049524,-2.06522434328388,-2.65377277483325,-0.0283805736444078,NaN,-2.35040245579299,NaN,-0.636256616200496,-0.680646634673905
754.0736,-1.41311845646678,-0.0479663630785424,-0.937349566873506,-0.0518406085304001,-2.22205356807279,-2.22205356807251,0.388929602226546,NaN,0.250469002289723,0.0538987536244565,-2.57250869891367,0.0538987536242479,0.780065515012957,-0.0430553264976945,1.43372815453619,-0.421243795306877,NaN,-0.518316861549977,0.89250372553447,-1.23037290888931,0.892503725535731,NaN,-0.707883171960946,NaN,-0.224707292373579,-1.18721498178897,-1.18721498178849,0.490407665296986,-0.490407665298342,2.02191511835441,1.34102452405039,-1.355357814629,NaN,1.07119210243613,-0.943440167081528,-0.0674273634926815,-1.79405448070025,-0.474107756011452,-0.474107756011409,0.0113225827852065,-0.00751520925209617,0.0060051273833035,-0.710822958834504,-2.13338493848114,-2.66855939643661,-0.00667741068820216,NaN,-2.38849338479008,NaN,-0.67952801677762,-0.68466024949443
754.176,-1.43685430634222,-0.0587747829929052,-0.959144953374176,-0.0567526654095417,-2.21602503128615,-2.2160250312859,0.382410122239261,NaN,0.244412671401516,0.0157295249276162,-2.57915637534851,0.0157295249274168,0.772884547429229,-0.0446458074478944,1.4172959624908,-0.435501928516235,NaN,-0.512427434423245,0.874947673844407,-1.24278378748919,0.874947673845663,NaN,-0.702240947119674,NaN,-0.231867888599844,-1.22120024479815,-1.22120024479763,0.547016880688519,-0.547016880689876,2.01864767432289,1.35522946919921,-1.35832001724377,NaN,1.07952564410496,-0.980840426735305,-0.0917451043559939,-1.79229504101291,-0.495056749786566,-0.49505674978652,0.0369818019923439,-0.0474688569486073,0.00603484599976866,-0.659538210739887,-2.19980731679669,-2.68251390372322,0.0145988895115601,NaN,-2.42611012813502,NaN,-0.722216848032275,-0.68885328322913
754.2784,-1.46027275658609,-0.0699813812469775,-0.980977188450703,-0.0624806475378086,-2.20845322827545,-2.20845322827523,0.374875673701786,NaN,0.237452474908888,-0.0233293298706313,-2.58420434654506,-0.0233293298708184,0.764682904551772,-0.0456651942503498,1.39982565950332,-0.449458863271662,NaN,-0.506468457446227,0.857776571467006,-1.25546314536059,0.857776571468261,NaN,-0.696910641975724,NaN,-0.239127773587487,-1.25448347145665,-1.25448347145609,0.602577191786907,-0.602577191788267,2.01479488598434,1.3679810998649,-1.3602520179234,NaN,1.08803329853851,-1.01797277677206,-0.11574037657494,-1.79012045461233,-0.516502120808158,-0.516502120808095,0.0617413047958296,-0.0871929786134107,0.00536959455545014,-0.609156323762836,-2.26440763239019,-2.69561108243039,0.0354355227615847,NaN,-2.46320677011621,NaN,-0.764270304790918,-0.693218874929942
754.3808,-1.48333731720094,-0.0815999378891652,-1.00283115274754,-0.0690114638969088,-2.19934476576429,-2.19934476576408,0.366312954145985,NaN,0.229575818662992,-0.0632251267867998,-2.58761767609759,-0.0632251267869761,0.755431579728548,-0.0460673498936868,1.38133642169339,-0.463090711454059,NaN,-0.500438649826781,0.841025963613335,-1.26841869449897,0.841025963614583,NaN,-0.691905238470034,NaN,-0.246464395452437,-1.28701749131296,-1.28701749131236,0.657002247177476,-0.657002247178841,2.01033390355207,1.37922485880746,-1.36112210053196,NaN,1.09670373613122,-1.05476613963731,-0.13936410658059,-1.78752146070013,-0.538414336127288,-0.53841433612721,0.0855710454006668,-0.126659360777338,0.00399833736262429,-0.559734036766073,-2.32710721080357,-2.70783063215435,0.0558221617875814,NaN,-2.49974101484523,NaN,-0.805635189238901,-0.697750583642486
754.4832,-1.50601421321134,-0.0936457679362438,-1.02469440063212,-0.0763311676392137,-2.18870905435415,-2.18870905435397,0.356709620810415,NaN,0.220770921738752,-0.10390435696801,-2.58936463271472,-0.103904356968172,0.745102139182168,-0.045806425146034,1.36184806116108,-0.476373021581048,NaN,-0.494335278184554,0.824730532581185,-1.28165832353802,0.824730532582421,NaN,-0.687234126401827,NaN,-0.253855644003514,-1.31875683716673,-1.31875683716608,0.710207592016994,-0.710207592018366,2.00524187124895,1.38890871728834,-1.36090067797911,NaN,1.10552503141312,-1.09115171616649,-0.162569402042713,-1.78448902010742,-0.560766920737666,-0.560766920737577,0.108442438419313,-0.16584118006171,0.00191056403038866,-0.511328102180843,-2.38783262004967,-2.71915717807471,0.0757507483288758,NaN,-2.53567420612187,NaN,-0.846258048128364,-0.702442593935424
754.5856,-1.52827254150543,-0.106135669006239,-1.04655722933221,-0.0844250261769883,-2.17655844092462,-2.17655844092447,0.346054297643555,NaN,0.211026824693725,-0.145312838360192,-2.58941697599106,-0.145312838360341,0.733666812978012,-0.044837167389992,1.34138069867884,-0.489280916835204,NaN,-0.488154202948076,0.808923933063154,-1.29518999734178,0.80892393306438,NaN,-0.68290296390597,NaN,-0.261280060016566,-1.34965795472447,-1.34965795472379,0.762111009295967,-0.762111009297344,1.99949589295934,1.39698341336298,-1.3595605331812,NaN,1.11448470023182,-1.12706316388544,-0.185311669416449,-1.78101436194086,-0.583536654215422,-0.583536654215328,0.130328408986722,-0.204713171408055,-0.000903763908294174,-0.463995209056226,-2.4465157288363,-2.72958025305846,0.0952152880340535,NaN,-2.57097130728604,NaN,-0.886085314947011,-0.707289905488498
754.688,-1.55008439493637,-0.119087837691425,-1.06841270811845,-0.0932775925555762,-2.16290833029856,-2.16290833029842,0.334336570331201,NaN,0.200333387892456,-0.187395832202174,-2.58775020959091,-0.187395832202308,0.721098588395225,-0.0431152121128132,1.31995446924694,-0.501789213257954,NaN,-0.481889932400889,0.793638638262051,-1.30902169122543,0.793638638263268,NaN,-0.678913558177671,NaN,-0.268717033952268,-1.37967937629937,-1.37967937629866,0.812632830778421,-0.812632830779796,1.99307300281075,1.40340266762827,-1.35707704221125,NaN,1.12356971366101,-1.16243674981179,-0.207548726065372,-1.77708903783622,-0.606703722086904,-0.6067037220868,0.151203428771401,-0.243251784831665,-0.00445427259707439,-0.41779188664262,-2.50309375691265,-2.7390942540522,0.114211650782149,NaN,-2.60560084942465,NaN,-0.925063465516226,-0.712288506128914
754.7904,-1.57142494719704,-0.132521755387252,-1.09025666379548,-0.102872781275229,-2.14777728959946,-2.14777728959936,0.321546978409714,NaN,0.188681288569961,-0.23009812559033,-2.58434379141645,-0.230098125590448,0.707371313120151,-0.0405973526915779,1.29758928191281,-0.513872513483907,NaN,-0.475535681890193,0.77890580356563,-1.32316134009494,0.778905803566841,NaN,-0.675263761560218,NaN,-0.276146992062506,-1.40878186504565,-1.4087818650449,0.861696223372604,-0.861696223373979,1.98595014787314,1.40812338331826,-1.35342837475219,NaN,1.13276648477721,-1.19721148569636,-0.229240915691864,-1.77270498795253,-0.63025181626837,-0.630251816268253,0.171043548354656,-0.281435322015076,-0.00875022686828519,-0.372774386496457,-2.55750931724527,-2.7476983705928,0.132737379268372,NaN,-2.6395348547556,NaN,-0.963139192634729,-0.717435522761014
754.8928,-1.5922724967914,-0.146458044711429,-1.11208762211021,-0.113193949361615,-2.13118712831743,-2.13118712831736,0.307677017956386,NaN,0.17606202917544,-0.273364085358187,-2.57918129399953,-0.273364085358292,0.692459816174511,-0.0372417871076246,1.27430465133051,-0.525505280412805,NaN,-0.4690834406413,0.764755153589658,-1.33761677553963,0.764755153590863,NaN,-0.671947385109094,NaN,-0.283551564812268,-1.43692853723135,-1.43692853723057,0.909227453906934,-0.909227453908312,1.97810419028581,1.41110583533677,-1.34859566636906,NaN,1.14206082985485,-1.23132924627571,-0.250351226543507,-1.76785461870117,-0.654168175980505,-0.654168175980378,0.189826436230671,-0.31924404342426,-0.0138005576783948,-0.328998540633535,-2.6097104496156,-2.75539648272579,0.150791508941433,NaN,-2.67274874081859,NaN,-1.00025960147885,-0.722729342229768
754.9952,-1.61260847284387,-0.160918298751067,-1.13390670819303,-0.124223980169154,-2.1131629507337,-2.11316295073365,0.292719167468022,NaN,0.162467968536338,-0.317137694057042,-2.5722505132417,-0.317137694057132,0.676340048231767,-0.0330083394191412,1.25011960778159,-0.536661901227848,NaN,-0.462524053260174,0.75121489372411,-1.35239562291383,0.751214893725312,NaN,-0.668954141887098,NaN,-0.290913731423746,-1.46408496978345,-1.46408496978264,0.955156128160909,-0.955156128162292,1.96951193412354,1.41231384444242,-1.34256315530134,NaN,1.15143791179518,-1.2647348693082,-0.270845406467842,-1.76253088710156,-0.678443564290937,-0.678443564290805,0.207531433705821,-0.356660238886763,-0.0196138532149534,-0.286519595760778,-2.65965064322965,-2.76219702610176,0.168374398215957,NaN,-2.70522120955764,NaN,-1.03637242373231,-0.728169695100001
755.0976,-1.63241740838563,-0.175924885711859,-1.15571751121364,-0.135945362709368,-2.09373318480656,-2.09373318480654,0.276666948205623,NaN,0.147892386128461,-0.361362582808462,-2.56354353516902,-0.361362582808537,0.658989242543144,-0.0278586631176349,1.22505267641399,-0.547316759061429,NaN,-0.455847325466394,0.738311639395734,-1.36750513312054,0.738311639396932,NaN,-0.666269636418181,NaN,-0.298217934907296,-1.49021930018929,-1.49021930018845,0.999415406175411,-0.999415406176802,1.96015017952216,1.41171493674968,-1.33531828529752,NaN,1.16088217828811,-1.29737623757646,-0.290692067033491,-1.7567273814004,-0.703072182055882,-0.703072182055738,0.224139633788659,-0.393668258187041,-0.0261983041615654,-0.245392030309707,-2.70728883833865,-2.76811282120916,0.185487561357208,NaN,-2.73693412400949,NaN,-1.07142624647725,-0.733757698754752
755.2,-1.65168688921691,-0.191500731904549,-1.17752592023308,-0.14834025654844,-2.07292959872115,-2.07292959872115,0.259515027245866,NaN,0.132329586942035,-0.40598207558412,-2.55305678156811,-0.405982075584181,0.640386102295234,-0.0217564475833956,1.19912190239147,-0.557444335250024,NaN,-0.449042163223939,0.726070352604199,-1.38295193427169,0.726070352605392,NaN,-0.663875414374949,NaN,-0.305450164904127,-1.5153023217583,-1.51530232175742,1.04194220873813,-1.04194220873953,1.94999580329884,1.40928049971158,-1.32685178856993,NaN,1.17037730996606,-1.32920434191811,-0.309862766298411,-1.75043838554647,-0.728051526391664,-0.728051526391531,0.239633985614532,-0.430254504160725,-0.0335616031650819,-0.205669364359722,-2.75258939515163,-2.77316086526074,0.202133493265327,NaN,-2.76787237432291,NaN,-1.10537074912233,-0.739495862190216
755.3024,-1.67040748809153,-0.207669087408496,-1.19933994014211,-0.161390535540747,-2.05078731431662,-2.05078731431665,0.241259361072754,NaN,0.115775044595712,-0.450939252229101,-2.54079105335878,-0.450939252229145,0.620511017653374,-0.0146676479236123,1.17234489521239,-0.567019358691864,NaN,-0.442096748988149,0.71451428118608,-1.39874171150089,0.71451428118727,NaN,-0.661749077534404,NaN,-0.312598010058054,-1.53930756927035,-1.53930756926944,1.08267742737774,-1.08267742737914,1.93902586095017,1.40498594514738,-1.31715776370326,NaN,1.17990619130892,-1.36017331974972,-0.328332057752987,-1.74365891889616,-0.753382203629,-0.753382203628861,0.253999412873635,-0.466407397711714,-0.0417108147373012,-0.167403968636179,-2.79552202777885,-2.77736209043864,0.218315482889686,NaN,-2.79802373148492,NaN,-1.13815693802922,-0.745388061249468
755.4048,-1.68857269330594,-0.224453280013463,-1.22116949691194,-0.175077811103799,-2.0273448178018,-2.02734481780186,0.221897365396403,NaN,0.0982255688714741,-0.496177023985936,-2.52675157819326,-0.496177023985962,0.599346309268987,-0.00656074462997795,1.14473887550977,-0.576016999081811,NaN,-0.43499874684869,0.703664904172531,-1.41487884625401,0.70366490417372,NaN,-0.659864455556965,NaN,-0.319650685993581,-1.56221138749399,-1.56221138749306,1.12156613782764,-1.12156613782905,1.92721770117884,1.39881088074334,-1.30623375534928,NaN,1.18945090704491,-1.39024046271987,-0.346077498659945,-1.73638475140711,-0.77906770619595,-0.779067706195806,0.267222926546104,-0.50211732735243,-0.0506522412461759,-0.130646876998327,-2.83606170748265,-2.78074109666305,0.234037427516382,NaN,-2.82737868281271,NaN,-1.16973737158678,-0.751439495551886
755.5072,-1.70617883785973,-0.241876462928712,-1.24302623944204,-0.189383441122767,-2.00264396489605,-2.00264396489614,0.201428094729561,NaN,0.0796794819573751,-0.541638207944938,-2.51094806060377,-0.541638207944946,0.576876494660369,0.00259296880137771,1.11632072043385,-0.584413084644283,NaN,-0.427735517415755,0.693541885626488,-1.43136604965075,0.693541885627678,NaN,-0.658191820097658,NaN,-0.326599047563586,-1.58399298295109,-1.58399298295012,1.15855781598574,-1.15855781598715,1.9145490843734,1.39073928624796,-1.29408083812204,NaN,1.19899275694078,-1.41936619636638,-0.363079624573441,-1.72861240376588,-0.805114161594342,-0.805114161594204,0.27929371876687,-0.5373765923831,-0.0603913025665706,-0.0954476090203902,-2.87418853828404,-2.78332586795896,0.249303667082034,NaN,-2.85593024589109,NaN,-1.20006637867168,-0.757656636920393
755.6096,-1.72322503169458,-0.259961360252075,-1.26492334203169,-0.204288530707842,-1.97672997891656,-1.97672997891668,0.179852420672222,NaN,0.0601367930571369,-0.587265593452422,-2.49339473305783,-0.587265593452411,0.553088574802463,0.0128190732970159,1.08710700737861,-0.59218432528715,NaN,-0.420294323355493,0.684163030947165,-1.44820401511362,0.684163030948356,NaN,-0.656698131441117,NaN,-0.333435592242656,-1.60463446735381,-1.60463446735282,1.19360656210304,-1.19360656210444,1.9009983008729,1.38075968811204,-1.28070370606198,NaN,1.20851227948964,-1.44751404549141,-0.379321906911202,-1.72033914544877,-0.831530062173418,-0.831530062173273,0.290203236923089,-0.572179341737992,-0.070932431420509,-0.0618540049010494,-2.90988761101729,-2.78514748023484,0.264118850208235,NaN,-2.88367376582042,NaN,-1.22910027822223,-0.764047175471658
755.712,-1.73971309601189,-0.278730012655202,-1.28687530831837,-0.219773927881686,-1.94965143541013,-1.94965143541028,0.157173199753661,NaN,0.0395993628393192,-0.633002000824123,-2.47411040754405,-0.63300200082409,0.527972334179755,0.0241396950099463,1.05711405660545,-0.599308530312245,NaN,-0.412662514184777,0.675544235439118,-1.46539111523939,0.675544235440307,NaN,-0.65534731060056,NaN,-0.340154455527818,-1.6241208982371,-1.62412089823608,1.22667133839468,-1.22667133839608,1.88654429012435,1.36886532332565,-1.26611076479462,NaN,1.2179892765714,-1.47465059948058,-0.394790709865606,-1.71156300038056,-0.858325984434452,-0.858325984434314,0.299945242478836,-0.606521504986581,-0.0822789781753121,-0.0299120657879852,-2.94314884942018,-2.78623980669692,0.278487835598301,NaN,-2.91060670322963,NaN,-1.25679760168196,-0.770619963002112
755.8144,-1.75564749536021,-0.298203525686297,-1.30889777536609,-0.235820214570795,-1.92146021776633,-1.92146021776652,0.133395419945991,NaN,0.0180710472730861,-0.678790331347412,-2.45311852549104,-0.678790331347357,0.501520643441835,0.0365731764629732,1.02635797943697,-0.605764813051487,NaN,-0.404827684097284,0.667699419518914,-1.48292317217872,0.667699419520102,NaN,-0.654100526127356,NaN,-0.346751392557274,-1.64244031310862,-1.64244031310759,1.25771621838044,-1.25771621838184,1.87116676495921,1.35505428062852,-1.25031421560043,NaN,1.22740283220906,-1.50074548536245,-0.409475257185459,-1.70228276346039,-0.885514305589301,-0.885514305589156,0.308515858997609,-0.640400708938865,-0.0944331170902825,0.000334210330298242,-2.97396686183227,-2.78663922434466,0.292415631414202,NaN,-2.93672841581073,NaN,-1.28311931297491,-0.777384946447905
755.9168,-1.77103526032726,-0.318401823720469,-1.3310073151308,-0.252407693442747,-1.89221142564871,-1.89221142564893,0.108526319151546,NaN,-0.00444218578747405,-0.724573608262931,-2.43044720045178,-0.724573608262854,0.473729755166487,0.0501337662419877,0.994854743356389,-0.611533774245941,NaN,-0.396777797750638,0.660640450846066,-1.50079331498158,0.660640450847252,NaN,-0.652916484839341,NaN,-0.353223736688219,-1.65958375230008,-1.65958375229903,1.28671064052851,-1.28671064052989,1.85484634506357,1.33932960580888,-1.23333011400811,NaN,1.23673132101643,-1.52577135332982,-0.423367615358727,-1.69249802539982,-0.913108924312199,-0.913108924312029,0.315913616909264,-0.673816170623191,-0.107395741573447,0.0288430047597629,-3.00234080385726,-2.78638431941601,0.305907374142302,NaN,-2.96203993243672,NaN,-1.30802902173901,-0.784353082435513
756.0192,-1.78588589288627,-0.339343412399471,-1.35322122991175,-0.269516372748195,-1.86196322430113,-1.86196322430138,0.0825754810130706,NaN,-0.0279321622674064,-0.770295017056773,-2.40612924647372,-0.770295017056676,0.444599588772065,0.0648313379248074,0.962620263774257,-0.616597659204697,NaN,-0.388501280312803,0.654377054427408,-1.51899190237914,0.654377054428598,NaN,-0.651751724347009,NaN,-0.359570326686016,-1.67554527587713,-1.67554527587607,1.31362965622509,-1.31362965622646,1.83756470157248,1.321699359663,-1.21517838435417,NaN,1.24595240767538,-1.54970388036566,-0.43646269681405,-1.68220919896546,-0.941124989886637,-0.941124989886451,0.322139509120897,-0.706768555749424,-0.121166328977338,0.0555748708024398,-3.02827424839669,-2.78551558414112,0.318968343118205,NaN,-2.98654372028787,NaN,-1.33149319330863,-0.791536226891782
756.1216,-1.80021124997771,-0.361045150760533,-1.375557339674,-0.287125951147067,-1.83077663286196,-1.83077663286223,0.055554922679548,NaN,-0.052388415624004,-0.815897961688807,-2.38020218780049,-0.815897961688686,0.414134004139076,0.0806711414818061,0.929670526881657,-0.620940493858483,NaN,-0.379987074609574,0.648916709596134,-1.53750646737927,0.648916709597332,NaN,-0.650560919265806,NaN,-0.365791398075266,-1.69032198694366,-1.69032198694259,1.33845416204506,-1.33845416204642,1.8193047128066,1.30217662200905,-1.19588277515032,NaN,1.25504304476366,-1.57252179502629,-0.448758280914271,-1.67141753637926,-0.969578637953729,-0.969578637953531,0.327197070128675,-0.739259795758882,-0.135742759157663,0.0804929431800868,-3.05177505192916,-2.78407509423172,0.331603999532633,NaN,-3.01024344787917,NaN,-1.3534813637817,-0.798946998605928
756.224,-1.8140254071699,-0.383522030889298,-1.39803376111746,-0.305215802431994,-1.7987152588175,-1.7987152588178,0.0274791881248741,NaN,-0.0777980953581112,-0.861326153985808,-2.35270825007065,-0.861326153985664,0.382341061572537,0.0976535881236024,0.896021740611402,-0.624548216164223,NaN,-0.371224680463958,0.644264534675824,-1.55632164796013,0.644264534677028,NaN,-0.649297223773455,NaN,-0.371888440341399,-1.70391406633222,-1.70391406633114,1.36117110764812,-1.36117110764946,1.80005063031422,1.28077944239108,-1.17547074822415,NaN,1.26397947760197,-1.59420691706676,-0.460255042246423,-1.6601251263857,-0.998486722997207,-0.998486722996986,0.331092476579358,-0.771292867705398,-0.151121091203681,0.103563160528794,-3.07285520059845,-2.78210615514134,0.343820033258359,NaN,-3.03314374572541,NaN,-1.37396636417938,-0.806598621182675
756.3264,-1.82734450799807,-0.406786960553308,-1.42066867934319,-0.323764958359626,-1.76584499123563,-1.76584499123596,-0.00163454572407949,NaN,-0.104145862946928,-0.906523743326774,-2.3236943328371,-0.906523743326607,0.349233263310717,0.115774070628945,0.861690507773824,-0.627408818739613,NaN,-0.362204197089436,0.640423168823153,-1.57541908950908,0.640423168824357,NaN,-0.647912666352117,NaN,-0.377864029654791,-1.71632481002918,-1.7163248100281,1.38177367109274,-1.38177367109408,1.77978825402321,1.25753075028397,-1.15397330898017,NaN,1.27273725988256,-1.6147441965502,-0.470956571665933,-1.64833486349375,-1.02786653067688,-1.02786653067663,0.333834653589291,-0.802871552622843,-0.167295322106912,0.124754494393673,-3.09153062019953,-2.7796529083727,0.355622404903918,NaN,-3.05524996338377,NaN,-1.39292455024752,-0.814504749684336
756.4288,-1.84018660373383,-0.430850546057057,-1.44348011350266,-0.342752087952956,-1.73223366831897,-1.73223366831933,-0.0317663468552725,NaN,-0.131413771559828,-0.951435478246206,-2.29321195725444,-0.951435478246013,0.314827773972602,0.135022821831619,0.826694020700389,-0.629512503835562,NaN,-0.352916380494968,0.637392669296102,-1.59477731729234,0.637392669297315,NaN,-0.646358590922481,NaN,-0.383721653189798,-1.72756065511099,-1.72756065510989,1.40026139329114,-1.40026139329246,1.75850511468782,1.23245824804927,-1.13142479764979,NaN,1.28129127699813,-1.63412173669996,-0.480869379589874,-1.6360503907612,-1.05773545180857,-1.05773545180832,0.335435371888015,-0.834000191405341,-0.18425715243034,0.144039176842538,-3.10782094279687,-2.77675989844519,0.367017384561944,NaN,-3.07656792138062,NaN,-1.41033603270558,-0.822679285381216
756.5312,-1.85257148538742,-0.455720875462972,-1.46648567767556,-0.362155472868508,-1.6979507353269,-1.69795073532728,-0.0628933876543252,NaN,-0.159581126776714,-0.996006882790607,-2.26131717936414,-0.996006882790391,0.279146622604352,0.155384809178151,0.791050279124628,-0.630851839397482,NaN,-0.343352716020724,0.635170443722409,-1.61437157604844,0.635170443723624,NaN,-0.644586126859687,NaN,-0.389465541041394,-1.737631184859,-1.7376311848579,1.41664026790278,-1.41664026790408,1.73619066063923,1.20559430773065,-1.10786266286735,NaN,1.28961577228426,-1.65233079057365,-0.490002876722466,-1.62327602436519,-1.08811060435434,-1.08811060435408,0.335909329846174,-0.864683451862347,-0.201995772557696,0.161392923715161,-3.12174923510975,-2.77347160814301,0.378011600768085,NaN,-3.09710365773189,NaN,-1.42618490536612,-0.831136179704446
756.6336,-1.86452050778833,-0.48140330234302,-1.48970233697676,-0.38195297785057,-1.66306690615622,-1.66306690615663,-0.0949897856937791,NaN,-0.1886243282685,-1.04018443083599,-2.22807046378924,-1.04018443083575,0.242216891909782,0.176839653657815,0.754778323026145,-0.631421906057833,NaN,-0.333505502245789,0.633751230228398,-1.63417363219649,0.633751230229617,NaN,-0.642546675957427,NaN,-0.39510051485646,-1.74654910934427,-1.74654910934317,1.43092279339098,-1.43092279339228,1.7128364440918,1.17697588132132,-1.08332723363355,NaN,1.29768437592336,-1.66936572607872,-0.498369328034718,-1.61001666800172,-1.11900839785597,-1.1190083978557,0.335274220340829,-0.894926112285306,-0.220497672727421,0.176795156762572,-3.13334169946415,-2.76983196910029,0.388612115533554,NaN,-3.11686316822548,NaN,-1.44045946838407,-0.83988922806007
756.736,-1.87605640563803,-0.507900229829102,-1.51314615868379,-0.402122013687695,-1.62765383919608,-1.62765383919651,-0.128026431719274,NaN,-0.218516698989302,-1.08391570671217,-2.19353651989366,-1.08391570671191,0.204070896022428,0.199361558815288,0.717898459796165,-0.631220432424398,NaN,-0.323367943984887,0.633127126197191,-1.65415154438652,0.633127126198412,NaN,-0.640192411753467,NaN,-0.40063185432951,-1.75433021795018,-1.75433021794907,1.44312800142494,-1.44312800142622,1.68843630063386,1.14664442419507,-1.05786150070045,NaN,1.30547014039082,-1.68522395692236,-0.505983775632097,-1.59627772190283,-1.15044404638924,-1.15044404638897,0.333550783337505,-0.924732861387887,-0.239746475957554,0.190229227811564,-3.14262735683395,-2.76588385369476,0.39882653358598,NaN,-3.13585214223564,NaN,-1.45315243907223,-0.848951854642278
756.8384,-1.88720310164944,-0.535210896284079,-1.53683205925813,-0.42263949250874,-1.59178383841725,-1.5917838384177,-0.161970817009447,NaN,-0.249228314146361,-1.12714954941838,-2.15778410685065,-1.1271495494181,0.164746339743376,0.222919246143115,0.680432466056963,-0.630247921452209,NaN,-0.312934255658751,0.633287654834033,-1.67426942249185,0.633287654835254,NaN,-0.637476788516506,NaN,-0.406065178736604,-1.76099329956621,-1.76099329956509,1.45328147252955,-1.45328147253082,1.66298651589846,1.11464582784836,-1.03151091469662,NaN,1.3129455857999,-1.69990584264288,-0.512863930872493,-1.58206499123069,-1.18243104852755,-1.18243104852726,0.330762843997885,-0.954108113428451,-0.2597227933322,0.201682647867385,-3.14963772658008,-2.76166855919707,0.408663137617856,NaN,-3.15407570555631,NaN,-1.46426113806851,-0.858336892748261
756.9408,-1.89798550615697,-0.563331164731949,-1.5607735481579,-0.443481779851286,-1.55552958924809,-1.55552958924857,-0.196786874042288,NaN,-0.280725843290122,-1.16983618440637,-2.1208858174735,-1.16983618440606,0.1242864487941,0.247475904605135,0.642403756604465,-0.628507772564862,NaN,-0.302199778435378,0.634219854331667,-1.69448720262057,0.634219854332893,NaN,-0.634355054029156,NaN,-0.411406339704872,-1.76656002892125,-1.76656002892013,1.46141534061,-1.46141534061125,1.63648597604512,1.08103035976023,-1.00432320680068,NaN,1.32008275533339,-1.71341456593235,-0.519030042113338,-1.56738460035882,-1.21498066021592,-1.21498066021561,0.32693733566273,-0.983055838166951,-0.280404102044318,0.21114732645293,-3.15440652738572,-2.75722530214442,0.418131028057268,NaN,-3.17153818760613,NaN,-1.47378763897985,-0.868056368261069
757.0432,-1.90842930811302,-0.592253317380419,-1.58498246919447,-0.464624646055877,-1.51896393125306,-1.51896393125356,-0.232434842451198,NaN,-0.312972417173742,-1.21192734401096,-2.08291785420429,-1.21192734401063,0.0827400653105014,0.272989162384131,0.603837522516264,-0.626006402501174,NaN,-0.291161109524037,0.635908375779762,-1.71476046887801,0.635908375780991,NaN,-0.630784750983064,NaN,-0.416661319542887,-1.7710548210903,-1.77105482108917,1.4675682815249,-1.46756828152612,1.60893630153469,1.04585260982892,-0.976348236908572,NaN,1.32685327701501,-1.72575599379765,-0.52450474564634,-1.55224291770619,-1.24810138748397,-1.24810138748365,0.322104308703376,-1.01157940472559,-0.301764644726039,0.218619821480244,-3.15696942119471,-2.75259074309562,0.427240250354641,NaN,-3.18824292227859,NaN,-1.48173887449878,-0.878121289746983
757.1456,-1.91856076041612,-0.621965857818872,-1.60946874288851,-0.486043212323714,-1.48215965977833,-1.48215965977886,-0.268871169742586,NaN,-0.34592752929091,-1.25337637091489,-2.04395980937677,-1.25337637091453,0.0401617090583547,0.299411083556422,0.564760843749917,-0.622753362459214,NaN,-0.279816232140681,0.63833557779574,-1.73504035543759,0.638335577796976,NaN,-0.626726182388999,NaN,-0.421836126487616,-1.77450465718826,-1.77450465718713,1.47178547800122,-1.47178547800242,1.58034196514223,1.0091714405633,-0.947637870012587,NaN,1.33322842508666,-1.73693852292369,-0.529312904377983,-1.53664649075842,-1.28179852396306,-1.28179852396274,0.316296927220987,-1.03968143665396,-0.323775346639634,0.224101588949665,-3.15736380763656,-2.74779855886038,0.436001910206919,NaN,-3.20419208022287,NaN,-1.48812669686251,-0.888541440091471
