time,S1-D1,S1-D8,S1-D9,S1-D15,S2-D1,S2-D2,S2-D3,S2-D9,S3-D1,S3-D2,S3-D16,S4-D2,S4-D3,S4-D5,S5-D3,S5-D4,S5-D5,S6-D2,S6-D5,S6-D17,S7-D6,S7-D7,S8-D6,S8-D7,S8-D18,S9-D3,S9-D4,S9-D9,S9-D11,S9-D19,S10-D8,S10-D9,S10-D10,S10-D11,S11-D8,S11-D10,S11-D20,S12-D10,S12-D11,S12-D12,S13-D4,S13-D11,S13-D12,S14-D10,S14-D12,S14-D21,S15-D13,S15-D14,S16-D13,S16-D14,S16-D22
197.9392,0.634554871574873,0.0679442530425678,0.780965443474845,1.7683054514868,-0.499206086513028,-0.4992060865141,1.42115549443856,0.0801796541352973,0.984349747646231,1.11560138944913,0.800844702395774,1.1156013894496,1.65647035260013,-1.87027538055135,1.23353136843875,0.680865822830972,NaN,1.44781555824937,0.877263320973669,0.114059059613072,NaN,0.348045491917009,NaN,-0.272165599305802,NaN,-0.128459525794502,NaN,NaN,-0.559185811680923,2.22337249121817,1.89255116022158,-0.674108011071136,1.2852198330449,0.801833315069634,-0.0130558531407679,0.672104918669976,1.85198340551412,0.9935245793823,0.993524579386068,NaN,NaN,1.19989899843672,NaN,0.616858077276582,0.963623232640432,1.37922553910312,-0.164041577023762,-0.164041577023724,NaN,1.21655151594116,NaN
198.0416,0.644266561330206,0.0686314681368971,0.792630939900617,1.75868430616647,-0.499884591923388,-0.499884591924459,1.4299764674399,0.0770621523201771,0.988501449991444,1.11217789123177,0.800105330960814,1.11217789123223,1.65203435273202,-1.86783383886543,1.2292475515667,0.678599681637839,NaN,1.44206044202849,0.860613626826941,0.117378226613861,NaN,0.345057629092014,NaN,-0.27512302136259,NaN,-0.137076497189432,NaN,NaN,-0.560320519084004,2.22033705663221,1.90027775441335,-0.676909141496093,1.29041009361939,0.803049907023841,-0.020088837958271,0.669590452010451,1.83730161915699,0.992677694960453,0.992677694964214,NaN,NaN,1.19666131607089,NaN,0.616406254188127,0.958850066954939,1.37500851407728,-0.172280673627902,-0.17228067362787,NaN,1.21878422413601,NaN
198.144,0.654262031524079,0.0693353612614936,0.804634539036448,1.74737134504441,-0.499876998076172,-0.499876998077243,1.43746266293995,0.0734394216678213,0.991495775387922,1.1081082501172,0.798973660651909,1.10810825011767,1.64631093981129,-1.86377093040414,1.22406911372472,0.676016134087746,NaN,1.43565036179684,0.843523854551192,0.120677766412101,NaN,0.341597022634688,NaN,-0.277887792148929,NaN,-0.145828507077657,NaN,NaN,-0.561057827067956,2.21551427962591,1.9069945159395,-0.679477237841349,1.29476768799488,0.803507542318446,-0.0274207331851181,0.666282959325841,1.82077215283849,0.991572780558696,0.991572780562441,NaN,NaN,1.19221590150884,NaN,0.615822624842851,0.953733859760213,1.36933202608869,-0.180165880973809,-0.180165880973782,NaN,1.22027256201361,NaN
198.2464,0.664536926052557,0.0700627351023588,0.816976794848043,1.73444267246504,-0.499191959332632,-0.499191959333698,1.4436188093132,0.069332052876504,0.993347006814895,1.10343394822205,0.797479237162019,1.10343394822253,1.63934032850409,-1.85810249102854,1.21803729539491,0.673133270237675,NaN,1.42862741103736,0.826056535991486,0.123964762560805,NaN,0.337677705520455,NaN,-0.280445977723157,NaN,-0.154681544248464,NaN,NaN,-0.561418276776271,2.20896883903683,1.91273301783237,-0.681813203235221,1.2983260526205,0.803229781997359,-0.0350221492303954,0.66221719367226,1.80246208939835,0.990228919636614,0.99022891964036,NaN,NaN,1.18656864059561,NaN,0.615120553337144,0.94828669920942,1.36221513813222,-0.187685588587966,-0.187685588587943,NaN,1.22105564863701,NaN
198.3488,0.675085489915653,0.0708192846152938,0.829655760122191,1.71997655600623,-0.497840832626188,-0.497840832627252,1.44845333370881,0.064761788409452,0.99407249996944,1.09819732939925,0.795651519117692,1.09819732939973,1.63116469632841,-1.85084791810307,1.2111942849257,0.669968990551383,NaN,1.42103413726895,0.808273586076949,0.12724571861959,NaN,0.333314462091891,NaN,-0.282784825987567,NaN,-0.16360154323881,NaN,NaN,-0.561422598308797,2.20076747954782,1.91752527272637,-0.68391765237205,1.30111943859434,0.802240727245857,-0.0428633173682115,0.657428556351588,1.78244059114569,0.988665793376505,0.988665793380263,NaN,NaN,1.17972837005532,NaN,0.614313799063811,0.942520895535647,1.3536795512696,-0.194829220778233,-0.194829220778211,NaN,1.22117278903955,NaN
198.4512,0.685900579232028,0.0716095392541911,0.8426669509085,1.7040530345081,-0.495837567586086,-0.495837567587143,1.45197827378699,0.0597514250674859,0.993692572059712,1.09244149081375,0.793519803068475,1.09244149081424,1.62182799161753,-1.84203019967139,1.20358298157086,0.666540883994057,NaN,1.41291343313997,0.790236033707513,0.130526739026987,NaN,0.328522805739415,NaN,-0.284892833325914,NaN,-0.172554491692076,NaN,NaN,-0.56109156136121,2.19097871270625,1.92140359245917,-0.685790934023965,1.30318273221217,0.800564902554119,-0.050914210881799,0.651952936969804,1.76077859264625,0.98690354076576,0.986903540769517,NaN,NaN,1.17170684739369,NaN,0.613416486993195,0.936448914076885,1.34374949052843,-0.201587255346377,-0.201587255346357,NaN,1.22066332082452,NaN
198.5536,0.696973694443185,0.0724368173717767,0.856003347385881,1.68675355108126,-0.493198523409865,-0.493198523410913,1.45420918324563,0.0543247106586697,0.992230383289617,1.08621016357778,0.791113158468081,1.08621016357828,1.61137575954486,-1.83167590620767,1.19524679406124,0.662866147774112,NaN,1.40430844332506,0.772003807628222,0.133813667401322,NaN,0.32331895261459,NaN,-0.286759795577992,NaN,-0.181506519614239,NaN,NaN,-0.560445827943819,2.17967254511584,1.92440044130152,-0.687433140113426,1.30455128414387,0.798227200026239,-0.0591446480593036,0.645826614395425,1.73754853153556,0.984962619213276,0.98496261921704,NaN,NaN,1.16251871785541,NaN,0.612443075028384,0.93008331324966,1.33245161430311,-0.207951234479481,-0.207951234479463,NaN,1.21956649656888,NaN
198.656,0.708295027316641,0.0733031898613816,0.869655418029255,1.66816060908543,-0.489942235301618,-0.489942235302656,1.45516502685499,0.0485062326566445,0.989711807057822,1.07954757360548,0.788460355305435,1.07954757360599,1.59985497213421,-1.81981513885269,1.18622946048278,0.658961550684568,NaN,1.39526247170182,0.753635564055261,0.137112138502099,NaN,0.317719787325882,NaN,-0.28837683794252,NaN,-0.19042396809647,NaN,NaN,-0.559505816286229,2.16692022800985,1.92654827742646,-0.68884410240905,1.30526074011909,0.795252870894148,-0.0675243731877444,0.639086208760623,1.71282411771975,0.982863657004768,0.982863657008533,NaN,NaN,1.15218147113252,NaN,0.611408312440724,0.923436676458171,1.3198149403309,-0.213913771999105,-0.213913771999089,NaN,1.21792139741837,NaN
198.7584,0.719853511282206,0.0742094473043977,0.883611150440751,1.64835743290175,-0.48608915879263,-0.486089158793658,1.45486806052226,0.042321296558476,0.986165284666369,1.07249827665227,0.785589767446028,1.07249827665277,1.58731384517873,-1.80648144137584,1.17657486661487,0.654843424237129,NaN,1.38581887298467,0.735188527428626,0.140427538536592,NaN,0.311742819027208,NaN,-0.289736423463264,NaN,-0.199273445136436,NaN,NaN,-0.558291572361466,2.1527940069997,1.92787938182038,-0.690023384418005,1.30534686346806,0.791667527122037,-0.0760231211483757,0.631768650266953,1.6866801186124,0.980627298030541,0.980627298034315,NaN,NaN,1.14071538642859,NaN,0.610327183295348,0.916521528709763,1.30587077003017,-0.219468562231137,-0.219468562231123,NaN,1.2157668596012,NaN
198.8608,0.731636866080191,0.0751550676709583,0.897856076126182,1.62742762158786,-0.481661415771481,-0.481661415772497,1.45334369339878,0.035795795456284,0.981621663381153,1.06510696664425,0.78252924331749,1.06510696664476,1.57380163618627,-1.79171168749096,1.16632685137077,0.650527662236477,NaN,1.37602092345673,0.716718327184496,0.143764893032027,NaN,0.305406122967519,NaN,-0.290832346428702,NaN,-0.208021881750634,NaN,NaN,-0.556822636442325,2.13736685030602,1.92842567699263,-0.69097027905598,1.30484533981951,0.787497121499484,-0.0846106765357173,0.623911132543376,1.65919213505553,0.978274047726647,0.978274047730437,NaN,NaN,1.12814347157296,NaN,0.609214830623876,0.909350236483269,1.29065259601425,-0.224610393357052,-0.224610393357038,NaN,1.21314139993075,NaN
198.9632,0.743631627343777,0.0761381884361821,0.912373281635358,1.60545480286817,-0.476682560607017,-0.476682560608027,1.45062033195155,0.0289560731127128,0.976114019032827,1.05741826346674,0.779305942185289,1.05741826346726,1.55936843148309,-1.77554595647139,1.15552900395809,0.64602971231707,NaN,1.36591167044823,0.698278829398961,0.147128709510362,NaN,0.298728261198566,NaN,-0.291659718090913,NaN,-0.216636598557785,NaN,NaN,-0.55511790524937,2.12071214561851,1.92821854273217,-0.69168381980463,1.30379156293116,0.782767893429424,-0.093256939515213,0.615551033571969,1.6304363554534,0.97582412710775,0.97582412711155,NaN,NaN,1.11449140465924,NaN,0.608086463433124,0.901934898314691,1.274195986774,-0.229335162031837,-0.229335162031824,NaN,1.21008314719146,NaN
199.0656,0.755823154615002,0.0771555906582276,0.927143404772866,1.58252230422534,-0.471177378912746,-0.471177378913745,1.44672921184989,0.0218287772197738,0.969677465233426,1.04947649393967,0.775946139851194,1.0494764939402,1.54406493671937,-1.75802740777795,1.14422446541663,0.641364547442835,NaN,1.35553376086352,0.679921967114227,0.150522804342014,NaN,0.291728183375771,NaN,-0.292214948447995,NaN,-0.225085386491223,NaN,NaN,-0.553195509794183,2.10290337143751,1.92728864181464,-0.692162805558562,1.30222041551114,0.777506279567225,-0.101932007520384,0.606725798880903,1.60048928914204,0.973297339721851,0.973297339725654,NaN,NaN,1.09978748288946,NaN,0.60695725630475,0.894287238826657,1.25653845014846,-0.233639881541714,-0.233639881541699,NaN,1.20662980145841,NaN
199.168,0.768195620103982,0.0782027014377704,0.942144623744511,1.55871285612839,-0.465171724975775,-0.465171724976767,1.44170422634216,0.0144406997284985,0.962348953266337,1.04132548073912,0.77247502173515,1.04132548073965,1.52794228408023,-1.73920215584041,1.13245574974162,0.6365466123727,NaN,1.34492925426491,0.661697576625319,0.15395014367693,NaN,0.284425120965453,NaN,-0.292495726879609,NaN,-0.233336599036337,NaN,NaN,-0.551072726228307,2.08401376480685,1.92566576689439,-0.692405831649312,1.30016606601357,0.77173879806648,-0.110606272534474,0.597472794544064,1.56942749049651,0.970712966210661,0.970712966214462,NaN,NaN,1.08406257417789,NaN,0.60584225193459,0.886418517252729,1.23771928554691,-0.237522680123409,-0.237522680123393,NaN,1.20281863371378,NaN
199.2704,0.780731989107505,0.0792736184562483,0.957352654731702,1.53410833817233,-0.458692397510656,-0.458692397511642,1.43558175649295,0.00681860969037612,0.954167069152298,1.03300834701343,0.768916493626584,1.03300834701397,1.51105186641494,-1.71911913831429,1.12026459915239,0.631589749986368,NaN,1.33413943196604,0.643653252645347,0.157412724344457,NaN,0.276838495692244,NaN,-0.292501004156131,NaN,-0.241359249132862,NaN,NaN,-0.548765916592008,2.06411601629285,1.92337871132674,-0.692411317528007,1.29766179544579,0.765491928719318,-0.119250524073624,0.587829153832448,1.53732729394476,0.968089704764958,0.96808970476875,NaN,NaN,1.06735005771654,NaN,0.604756273321573,0.878339455377358,1.21777944029425,-0.240982792242966,-0.240982792242949,NaN,1.19868650838972,NaN
199.3728,0.793414005073219,0.0803611559144844,0.972740772192903,1.50878956878883,-0.451767049118344,-0.451767049119323,1.4284005041943,-0.00101091394032324,0.94517183253082,1.02456733493827,0.765293034544507,1.02456733493882,1.49344520140665,-1.69782997073767,1.10769187988021,0.62650712412105,NaN,1.32320461648588,0.625834234932359,0.160911508792745,NaN,0.268987857434941,NaN,-0.292230972624466,NaN,-0.249123103419532,NaN,NaN,-0.546290480801998,2.04328201407905,1.92045515795268,-0.692177525466433,1.29473985421071,0.758792015410041,-0.127836047635364,0.577831645037218,1.50426457964359,0.965445653812473,0.965445653816265,NaN,NaN,1.04968573564899,NaN,0.603713848805576,0.870060182951059,1.19676137873159,-0.244020545352661,-0.244020545352642,NaN,1.19426989545456,NaN
199.4752,0.806222188022394,0.0814569046270472,0.988279855960929,1.48283612172936,-0.444424123068063,-0.444424123069036,1.42020132759047,-0.00902165080899889,0.935404496432881,1.01604362972586,0.76162559929546,1.01604362972641,1.47517381749066,-1.67538878217322,1.09477751079297,0.621311159209936,NaN,1.31216401361059,0.608283329731075,0.164446416754043,NaN,0.260892851736602,NaN,-0.291687035976128,NaN,-0.256598770324329,NaN,NaN,-0.543660799260946,2.02158263384705,1.91692157656855,-0.691702570385733,1.29143133872466,0.751665201934883,-0.13633471679489,0.567516570735425,1.47031457400201,0.962798306479973,0.962798306483753,NaN,NaN,1.03110770206263,NaN,0.602729147723014,0.861590192841524,1.17470895696268,-0.246637342049715,-0.246637342049694,NaN,1.18960485626297,NaN
199.5776,0.819135851282961,0.0825512946733067,1.00393846136041,1.45632614051408,-0.436692805553091,-0.436692805554059,1.41102708004277,-0.0171879166260302,0.92490734454297,1.00747718468071,0.757933568347262,1.00747718468128,1.45628914903035,-1.65185202982043,1.08156041093795,0.616013504774722,NaN,1.30105557956269,0.591040858696961,0.168016374477869,NaN,0.252573206245823,NaN,-0.290871762950137,NaN,-0.263757786852598,NaN,NaN,-0.540890156721827,1.99908755202099,1.91280312915891,-0.690984426683049,1.28776607999604,0.744137391371352,-0.144719083526928,0.556919687882686,1.43555167079821,0.96016452614962,0.960164526153392,NaN,NaN,1.01165616545965,NaN,0.601815920694069,0.852938297775079,1.15166728762646,-0.248835636482724,-0.248835636482704,NaN,1.18472701210972,NaN
199.68,0.832133142007392,0.0836336509422865,1.01968291074298,1.42933612677799,-0.428602971941645,-0.428602971942606,1.40092245313191,-0.0254847516689225,0.913723485156481,0.998906556621807,0.754234741182486,0.998906556622377,1.4368424356994,-1.6272782971397,1.06807845832833,0.610625018056104,NaN,1.28991590746233,0.574144623865482,0.171619419418941,NaN,0.244048724141782,NaN,-0.289788826234027,NaN,-0.270572716509452,NaN,NaN,-0.537990653079464,1.97586506388981,1.90812359406458,-0.69002094043704,1.2837725466464,0.736234212856618,-0.152962469419,0.546076133727817,1.40004925476215,0.957560496769329,0.957560496773094,NaN,NaN,0.991373230553633,NaN,0.60098743817767,0.844112585077087,1.12768258633668,-0.250618905362764,-0.250618905362746,NaN,1.17967150531709,NaN
199.7824,0.84519110922738,0.0846922385474706,1.0354774082703,1.40194069572166,-0.420185104160282,-0.420185104161239,1.38993381702575,-0.0338881066683053,0.901896644809695,0.990368765701155,0.750545365836556,0.990368765701732,1.416884627377,-1.60172808244117,1.05436845885426,0.605155756310736,NaN,1.27878012712447,0.55762987934161,0.175252841313198,NaN,0.2353392740544,NaN,-0.28844293222963,NaN,-0.277017267247759,NaN,NaN,-0.534973110684782,1.95198190151357,1.90290531847363,-0.688809851960497,1.27947776686551,0.727980987534066,-0.161039055159678,0.535020351892635,1.36387951783348,0.955001666764898,0.955001666768654,NaN,NaN,0.970302651849196,NaN,0.600256416488494,0.835120366707957,1.10280200476322,-0.251991620339022,-0.251991620339004,NaN,1.17447294729374,NaN
199.8848,0.858285796648117,0.0857143020584678,1.05128417795785,1.37421231058652,-0.411470165266345,-0.411470165267296,1.37810904450022,-0.0423749997378816,0.889470966770201,0.981899183561717,0.746880190862939,0.981899183562303,1.39646629721731,-1.57526357910604,1.04046612800202,0.599614979832997,NaN,1.26768181369245,0.541529307996821,0.178913320044534,NaN,0.226464767793792,NaN,-0.286839749422936,NaN,-0.283066425284809,NaN,NaN,-0.531846984878383,1.9275030521619,1.8971691997695,-0.687348829778713,1.27490726863258,0.719402695081265,-0.168923962345873,0.523786022814676,1.32711326896902,0.952502712024468,0.952502712028218,NaN,NaN,0.948489575019331,NaN,0.599634916436632,0.825968120057723,1.07707346354407,-0.252959233006903,-0.252959233006888,NaN,1.1691653451621,NaN
199.9872,0.87139235395133,0.0866861073677452,1.06706362502958,1.34622102241453,-0.402489426167152,-0.402489426168102,1.36549731049108,-0.0509236234521439,0.876490820327715,0.973531446736001,0.743252525670388,0.973531446736593,1.37563756972817,-1.54794844152578,1.02640609567755,0.594011177288566,NaN,1.25665290450744,0.525873014951815,0.182597021139364,NaN,0.217445124647295,NaN,-0.284985842670141,NaN,-0.28869659206421,NaN,NaN,-0.528620287734792,1.9024915825463,1.89093469647851,-0.685635515565404,1.2700850395576,0.710523950183484,-0.176593320448537,0.512406010087256,1.28981975151889,0.950077529027413,0.950077529031157,NaN,NaN,0.925980280142178,NaN,0.599134209191053,0.816661420329856,1.05054550176834,-0.253528177703093,-0.253528177703079,NaN,1.1637820150679,NaN
200.0896,0.884485160493918,0.0875929978172792,1.08277452305202,1.31803424999322,-0.393274251529524,-0.39327425153047,1.35214887222971,-0.0595133981113517,0.863000626376238,0.965297395490723,0.739674302807512,0.96529739549132,1.35444807355674,-1.51984752951299,1.01222194830542,0.58835212458528,NaN,1.24572363129655,0.510688556802897,0.18629963909228,NaN,0.208300231282086,NaN,-0.28288861646449,NaN,-0.293885711711605,NaN,NaN,-0.525299539621594,1.87700848399533,1.88421986985386,-0.683667575605663,1.26503351261374,0.701369003867803,-0.184024313072299,0.500912338276539,1.25206649385367,0.947739251480416,0.947739251484152,NaN,NaN,0.902821932991238,NaN,0.598764618183745,0.807204872179792,1.02326715968301,-0.253705889975358,-0.253705889975345,NaN,1.15835549654066,NaN
200.192,0.89753795189873,0.0884194740944297,1.09837422371768,1.28971662906125,-0.383855871527807,-0.38385587152875,1.33811483768226,-0.0681249762567883,0.849044701656051,0.957227039284851,0.736156140719222,0.957227039285454,1.33294691978597,-1.49102663115189,0.997946309161115,0.582644976730822,NaN,1.23492247370026,0.496001012037612,0.190016407025237,NaN,0.199049907282742,NaN,-0.280556263921113,NaN,-0.298613379098167,NaN,NaN,-0.52188976121639,1.85111255661708,1.87704145178743,-0.681442754763915,1.25977357771949,0.691961778534617,-0.191195202054742,0.489336210428155,1.21391921448923,0.945500277112676,0.945500277116405,NaN,NaN,0.879062342196378,NaN,0.598535348814569,0.797602042999666,0.995287901044795,-0.253500839935752,-0.253500839935741,NaN,1.15291745560038,NaN
200.2944,0.910523937088672,0.0891492973108524,1.11381887456447,1.26132993165003,-0.374265174737961,-0.3742651747389,1.32344692502267,-0.0767402065431396,0.83466711907249,0.949348542744013,0.732707398722567,0.949348542744621,1.31118269214009,-1.46155217752061,0.983610935811467,0.576896382369477,NaN,1.22427612876724,0.481833074034731,0.193742087522597,NaN,0.189713875260475,NaN,-0.277997714400113,NaN,-0.302860925492405,NaN,NaN,-0.518394512999663,1.82486033363622,1.86941493677844,-0.678958939905355,1.25432460863182,0.682325925415319,-0.19808533458253,0.47770805311416,1.17544177833557,0.943372292450971,0.943372292454686,NaN,NaN,0.854749719110329,NaN,0.598454316057485,0.787855391681483,0.966657562165674,-0.252922578293416,-0.252922578293405,NaN,1.14749853554756,NaN
200.3968,0.923415898089874,0.0897656047263423,1.12906362727941,1.23293302748934,-0.364532542043461,-0.364532542044395,1.30819721929737,-0.085342073261277,0.819911579343715,0.941688220542685,0.729336206650946,0.941688220543297,1.28920343358212,-1.43149097035974,0.969246808367953,0.571112606650634,NaN,1.21380948350386,0.468205140155758,0.197470944304251,NaN,0.180311723531832,NaN,-0.275222574641081,NaN,-0.306611489838071,NaN,NaN,-0.514815982134095,1.79830602229756,1.86135470143729,-0.676214242472589,1.24870449769723,0.672484877493591,-0.204675143843126,0.46605756089804,1.13669617617633,0.941366288216972,0.941366288220672,NaN,NaN,0.829932445712327,NaN,0.598527983895334,0.777966192593572,0.937426303034876,-0.251981781981928,-0.25198178198192,NaN,1.14212813137199,NaN
200.4992,0.936186272370853,0.09025102744673,1.14406282763691,1.2045818580852,-0.354687720321672,-0.354687720322609,1.29241793510384,-0.093914630201275,0.804821289695619,0.934270534445186,0.726049459644405,0.934270534445803,1.26705662564039,-1.4009099369192,0.954884198809489,0.565299647529284,NaN,1.20354558010542,0.455135385319615,0.201196698236736,NaN,0.170862849723904,NaN,-0.272241062646826,NaN,-0.309850087134287,NaN,NaN,-0.511155107933544,1.77150143162183,1.8528741505185,-0.673207096175395,1.24292970205002,0.662461876087587,-0.210946151972442,0.454413717348828,1.09774249764327,0.939492562123048,0.939492562126737,NaN,NaN,0.804658861997003,NaN,0.598761233493998,0.767934467229956,0.907644541273452,-0.250690278915394,-0.250690278915386,NaN,1.13683411385673,NaN
200.6016,0.948807222011467,0.090587804766922,1.15877018764561,1.17632941012251,-0.344759729389805,-0.344759729390743,1.27616118277957,-0.102442933286283,0.789438845546633,0.927118095391779,0.722852791757095,0.927118095392399,1.24478916555094,-1.369875913701,0.940552726700556,0.559463337507196,NaN,1.19350557279655,0.442639825265053,0.204912486424416,NaN,0.161386384842686,NaN,-0.269063935062957,NaN,-0.312563678922459,NaN,NaN,-0.507411730135911,1.74449587508041,1.84398587713281,-0.669936355691794,1.237015304124,0.652279965121161,-0.216880976418724,0.442804786985182,1.05863888429722,0.937760704763812,0.937760704767489,NaN,NaN,0.778977077962745,NaN,0.599157271562248,0.757758936875485,0.877362861777504,-0.249061036940018,-0.249061036940011,NaN,1.13164255450661,NaN
200.704,0.961250697210497,0.0907578943046457,1.17313894779566,1.14822568678999,-0.334776801217547,-0.334776801218484,1.25947872884719,-0.110912963354167,0.773806113725823,0.920251676319663,0.719750554401134,0.920251676320287,1.22244734580032,-1.33845545180273,0.926281409481817,0.553609430472885,NaN,1.18370868360416,0.43073237839285,0.208610852154201,NaN,0.15190110867734,NaN,-0.265702408768839,NaN,-0.314741245312397,NaN,NaN,-0.503584741216438,1.71733605834576,1.83470181553193,-0.66640138117745,1.23097508051125,0.641961955706253,-0.222463335171711,0.431258282662137,1.01944146534265,0.936179565720677,0.936179565724334,NaN,NaN,0.752934806936973,NaN,0.599717580739126,0.747437001732108,0.846631905169385,-0.247108113927238,-0.247108113927233,NaN,1.12657748873428,NaN
200.8064,0.973488503203639,0.0907430812033007,1.18712204244859,1.12031768527718,-0.324766347400378,-0.324766347401312,1.24242175408137,-0.119311535616142,0.757964121332527,0.9136902370569,0.716745816960133,0.913690237057527,1.20007683986036,-1.30671463010496,0.912098717046063,0.547743673166558,NaN,1.17417216619214,0.419424934625951,0.212283784600285,NaN,0.142425367179995,NaN,-0.262168078836892,NaN,-0.316373853439173,NaN,NaN,-0.49967222429485,1.69006597452634,1.82503336446894,-0.662602091908681,1.22482157448182,0.631530368054201,-0.22767804489289,0.419800917346199,0.980204289352355,0.934757205386325,0.934757205389968,NaN,NaN,0.726579218058736,NaN,0.600441910028877,0.736964748301155,0.815502247230178,-0.244846572055835,-0.244846572055831,NaN,1.12166073928944,NaN
200.9088,0.985492380733629,0.0905250915515586,1.20067228415672,1.09264939612791,-0.314754935206162,-0.314754935207094,1.22504062659076,-0.127626203189609,0.741952957746627,0.907450960106859,0.71384039349486,0.90745096010749,1.17772270092356,-1.2747188644081,0.898032643148777,0.541871862153985,NaN,1.16491128717124,0.408727443030621,0.215922806886447,NaN,0.132976995592901,NaN,-0.258472835747519,NaN,-0.317454710920703,NaN,NaN,-0.495671566226754,1.66272683162704,1.81499147367565,-0.658538978541001,1.21856617621664,0.621007370771038,-0.232511007407853,0.408458559540983,0.940979274137583,0.933500842342302,0.933500842345933,NaN,NaN,0.699956809097472,NaN,0.601328305053601,0.726336987626642,0.784024287482511,-0.24229235851993,-0.242292358519928,NaN,1.11691181651745,NaN
201.0112,0.997234111113032,0.0900857123925437,1.21374258146899,1.06526183505498,-0.304768246305406,-0.304768246306334,1.20738470464049,-0.135845163643417,0.725811694698041,0.901549296208139,0.711034894954643,0.901549296208771,1.15542937767343,-1.24253271475149,0.884110797544519,0.535999892735574,NaN,1.1559393340265,0.398648023450741,0.219519105627856,NaN,0.12357325077069,NaN,-0.254628782802021,NaN,-0.317979192999807,NaN,NaN,-0.491579555400769,1.63535703231046,1.80458670622696,-0.65421308209762,1.21221921529013,0.610414749590355,-0.236949183025509,0.397256220267744,0.901816197913029,0.93241680206649,0.932416802070108,NaN,NaN,0.673113295696006,NaN,0.60237317406878,0.715547323887193,0.752248162704768,-0.239462159566485,-0.239462159566484,NaN,1.11234789868988,NaN
201.1136,1.00868564933164,0.0894069153331154,1.22628619173801,1.0381931006937,-0.29483101097249,-0.294831010973413,1.18950216938432,-0.143957175056876,0.709578320985931,0.895999015621696,0.708328806843169,0.89599901562233,1.13324073483806,-1.21021970179013,0.870360500288432,0.530133803454671,NaN,1.14726765123559,0.389193086223266,0.223063695028809,NaN,0.11423075650696,NaN,-0.250648152470335,NaN,-0.317944839549671,NaN,NaN,-0.487392489996592,1.60799221346186,1.79382929606302,-0.64962596144009,1.20579006122216,0.599773923084751,-0.240980550986966,0.386218086295246,0.862762739910019,0.931510467553341,0.931510467556951,NaN,NaN,0.646093504307841,NaN,0.603571372706495,0.704588239343174,0.720223687662386,-0.236373248284957,-0.236373248284956,NaN,1.10798387454325,NaN
201.216,1.01981927494923,0.0884709750671079,1.23825699012788,1.01147843452105,-0.28496693023968,-0.2849669302406,1.17143987683483,-0.151951487123665,0.693289681786488,0.890812257135353,0.705720588486947,0.890812257135986,1.11120005262053,-1.17784213441585,0.856808846904303,0.524279812934343,NaN,1.13890569920567,0.380367435989294,0.226547585287638,NaN,0.104965456706396,NaN,-0.246543221034773,NaN,-0.317351323688244,NaN,NaN,-0.483106312385427,1.58066533113393,1.78272921027216,-0.644779668995802,1.19928721965384,0.589105987358365,-0.244594058617325,0.375367583592702,0.823864553212407,0.930786228934575,0.930786228938182,NaN,NaN,0.618941258774935,NaN,0.60491628064539,0.693451166889125,0.688000308819971,-0.233043352039311,-0.233043352039311,NaN,1.10383241297113,NaN
201.3184,1.03060774631277,0.0872605717763312,1.2496097293044,0.985150255535682,-0.275198594049028,-0.275198594049949,1.15324321967383,-0.159817788292967,0.676981415789543,0.885999566801265,0.703207782509921,0.885999566801898,1.08934998720222,-1.14546094209355,0.84348272597694,0.518444348144954,NaN,1.13086113376261,0.372174354158746,0.229961904456321,NaN,0.0957925638170136,NaN,-0.242326225203766,NaN,-0.316200395973166,NaN,NaN,-0.478716756664173,1.55340675738761,1.77129621251225,-0.639676744410628,1.1927184089773,0.578431754025939,-0.247779563400169,0.364727438666886,0.785165337339344,0.930247427971608,0.930247427975203,NaN,NaN,0.591699266161992,NaN,0.606399850265604,0.682126526513811,0.655627052200582,-0.229490551605123,-0.229490551605124,NaN,1.09990402042543,NaN
201.4208,1.04102444953712,0.0857588706421866,1.26030027451104,0.959238155612257,-0.265547390121213,-0.265547390122132,1.13495599821711,-0.167546164271608,0.660687892242799,0.881569922620354,0.700787120269338,0.881569922620986,1.06773249320214,-1.11313551139865,0.830408790403756,0.512634066860648,NaN,1.12313990411619,0.364615669651329,0.233297940393966,NaN,0.0867264942896412,NaN,-0.238009288766915,NaN,-0.314495810080175,NaN,NaN,-0.474219479709601,1.52624435769557,1.7595399164653,-0.634320224837173,1.18609060678654,0.567771760012136,-0.250527775359482,0.354319715892545,0.746706884038603,0.929896297346041,0.929896297349634,NaN,NaN,0.564409018652303,NaN,0.60801262607081,0.670603725402138,0.623152455053328,-0.225733204414812,-0.225733204414815,NaN,1.09620706569452,NaN
201.5232,1.05104353762581,0.0839495792620611,1.27028580938923,0.933768860337119,-0.256033400340097,-0.256033400341016,1.11662030723775,-0.175127064026238,0.644442154433471,0.877530747619549,0.698454612899507,0.877530747620177,1.0463887185465,-1.08092353597091,0.817613391079101,0.506855870847057,NaN,1.11574635633983,0.357691821110471,0.236547102805503,NaN,0.0777807899718063,NaN,-0.233604367985378,NaN,-0.312243235314728,NaN,NaN,-0.469610155393325,1.49920353755002,1.74746981985982,-0.62871366299001,1.17941006609643,0.557146246633587,-0.252830209798531,0.344165823623927,0.708529085792674,0.929733903581606,0.929733903585202,NaN,NaN,0.537110726491729,NaN,0.609743746805958,0.658871138089275,0.590624481890464,-0.221789877770329,-0.221789877770334,NaN,1.0927477845952,NaN
201.6256,1.060640054019,0.0818169909525648,1.27952501250524,0.908766177365246,-0.246675295528793,-0.246675295529713,1.09827644646642,-0.182551271553732,0.628275875721923,0.873887917802489,0.696205621982843,0.873887917803115,1.02535888363359,-1.04888088814965,0.805122483830428,0.501116899206093,NaN,1.10868332288973,0.351401906615172,0.239700824299053,NaN,0.0689680260111677,NaN,-0.229123222382246,NaN,-0.309450156887734,NaN,NaN,-0.464884535892915,1.47230726510244,1.73509531595414,-0.62286114172339,1.17268231097781,0.546575110723333,-0.25467915852125,0.334286487328468,0.670669911351731,0.929760109244063,0.929760109247658,NaN,NaN,0.509843291988245,NaN,0.611580943086034,0.646916083472109,0.558090435171392,-0.217679285324504,-0.217679285324511,NaN,1.08953029390896,NaN
201.728,1.06979003436714,0.0793460277110712,1.28797820869792,0.884250968303185,-0.23749024627773,-0.23749024627865,1.07996285713935,-0.189809877263111,0.612219333031383,0.87064577107009,0.694034905403962,0.870645771070713,1.00468215884125,-1.0170615113131,0.792961526497717,0.495424495801711,NaN,1.10195218858571,0.345743725273171,0.242750423522445,NaN,0.0602997058723906,NaN,-0.224577411379364,NaN,-0.306125758864826,NaN,NaN,-0.460038503255429,1.4455760850478,1.72242568500009,-0.616767275981931,1.1659121249719,0.536077834622375,-0.256067677809682,0.324701696389203,0.633165366687366,0.929973565729137,0.929973565732728,NaN,NaN,0.482644331738001,NaN,0.6135105402609,0.634724811794518,0.52559687835638,-0.21342022606837,-0.213420226068379,NaN,1.08655663569632,NaN
201.8304,1.07847058452146,0.0765222964042301,1.29560750399133,0.860241180108287,-0.228493860459285,-0.228493860460204,1.06171607832891,-0.196894237070147,0.596301400090475,0.867807121606819,0.691936637426306,0.867807121607438,0.984396555683469,-0.98551732294363,0.781155387966603,0.489786160839067,NaN,1.09555294426656,0.340713829759221,0.245686944344689,NaN,0.0517861469677604,NaN,-0.21997830572107,NaN,-0.302280779649382,NaN,NaN,-0.455068133409632,1.41902814248647,1.70947007417221,-0.610437200143416,1.15910354384855,0.525673414903991,-0.25698958113643,0.315430647448394,0.596049470395457,0.930371733084812,0.930371733088389,NaN,NaN,0.45555024729635,NaN,0.615517476821483,0.622282514077682,0.493189587596222,-0.209031519616999,-0.209031519617011,NaN,1.08382685912235,NaN
201.9328,1.08665993770838,0.0733321629943903,1.30237691138021,0.836751950783967,-0.219700149318507,-0.219700149319427,1.04357071088325,-0.203795910080947,0.580549557310333,0.865373282642703,0.689904409336479,0.865373282643318,0.964538838334443,-0.954298114614741,0.769728282327312,0.484209509892287,NaN,1.08948425230829,0.336307608870232,0.248500970250443,NaN,0.0434363655944998,NaN,-0.215337096421311,NaN,-0.297927330390853,NaN,NaN,-0.449969779182332,1.39267923374249,1.69623747783895,-0.603876547191077,1.15225985821401,0.515380318381285,-0.257439423850393,0.306491714889136,0.559354268722205,0.930950909977652,0.930950909981208,NaN,NaN,0.428596332061681,NaN,0.617585349707612,0.60957336195011,0.460913534821509,-0.204531925453345,-0.20453192545336,NaN,1.08133914133715,NaN
202.0352,1.09433749197766,0.0697628388316688,1.30825246387484,0.813795774689695,-0.211121526051673,-0.211121526052591,1.0255593801161,-0.210506577761252,0.564989910861922,0.863344099755792,0.687931221181735,0.863344099756402,0.945144445923796,-0.92345144327909,0.758703719022015,0.478702255547889,NaN,1.08374353545559,0.332519395221224,0.2511824135245,NaN,0.0352579716920371,NaN,-0.210664791191294,NaN,-0.293078676673709,NaN,NaN,-0.444740167994937,1.36654288879259,1.68273672641618,-0.597091429009675,1.14538362418892,0.505216478138094,-0.257412474653635,0.297902461849797,0.523109892773908,0.93170625745897,0.931706257462512,NaN,NaN,0.401816893959832,NaN,0.619696491019516,0.596580572471222,0.428812886763698,-0.199940041851394,-0.199940041851413,NaN,1.07908994308043,NaN
202.1376,1.10148382267948,0.0658024685047447,1.31320230025724,0.791382697476898,-0.202768851689468,-0.202768851690388,1.00771269895089,-0.217017957457498,0.549647215113446,0.861717998603074,0.686009474806546,0.86171799860368,0.92624740966666,-0.893022526181615,0.7481044455339,0.473272204093283,NaN,1.07832707656109,0.329342570063169,0.253720298189153,NaN,0.0272570781507674,NaN,-0.205972201284191,NaN,-0.287748997805124,NaN,NaN,-0.439376510164738,1.34063047429035,1.6689764838612,-0.590088422961448,1.13847667624015,0.495199308644686,-0.256904676320234,0.289679672813592,0.48734463427227,0.932631818042312,0.932631818045843,NaN,NaN,0.375245377641224,NaN,0.621832068154249,0.583286481054299,0.396930995800386,-0.195274196781554,-0.195274196781576,NaN,1.0770741829392,NaN
202.24,1.10808066548541,0.0614402116622485,1.31719671224526,0.769520515936338,-0.194651545413527,-0.19465154541445,0.990059239098266,-0.22332172233235,0.534544896912251,0.860492048417911,0.684130978703864,0.860492048418511,0.907880259502642,-0.863054159311854,0.73795236874916,0.467927249056588,NaN,1.07323011346833,0.326769643394017,0.25610257584561,NaN,0.0194382244010134,NaN,-0.201269927986897,NaN,-0.281953145251636,NaN,NaN,-0.433876614985558,1.31495129990392,1.65496524649081,-0.582874562063318,1.13154013728208,0.485345705238751,-0.255912602782452,0.281839374795307,0.45208500850473,0.933720549788879,0.933720549792401,NaN,NaN,0.348914480952007,NaN,0.623972195766192,0.569672610257868,0.365310365996228,-0.190552347768324,-0.190552347768349,NaN,1.07528541619083,NaN
202.3424,1.11411087585773,0.0566663165175897,1.32020815795531,0.748214968270725,-0.186777756940495,-0.186777756941423,0.972625515764835,-0.229409436629024,0.519705080523101,0.859662033583135,0.682286972647656,0.859662033583728,0.890073928064314,-0.83358666892565,0.728268460548329,0.462675348937212,NaN,1.0684469250972,0.324792309214351,0.258316019272457,NaN,0.0118043183544039,NaN,-0.196568353046222,NaN,-0.275706419784407,NaN,NaN,-0.428239007331229,1.28951271326301,1.64071133712573,-0.575457322438083,1.12457442683503,0.475672014205123,-0.254433423451008,0.274396829996789,0.417355786019942,0.93496438964503,0.934964389648541,NaN,NaN,0.322856267316192,NaN,0.626096057847505,0.55571973845094,0.333992590899844,-0.185791994188047,-0.185791994188075,NaN,1.07371602301929,NaN
202.4448,1.11955838060891,0.0514721861010679,1.32221126041769,0.727469905351717,-0.179154572306244,-0.17915457230718,0.955435989544755,-0.235272516098759,0.505148610313984,0.859222523333528,0.680468171808392,0.859222523334114,0.872857664964993,-0.804657894234081,0.719072663628274,0.457524482925399,NaN,1.06397090776075,0.323401485989373,0.260346227695071,NaN,0.00435660601242129,NaN,-0.191877628975369,NaN,-0.269024380954563,NaN,NaN,-0.422463030356445,1.2643201756375,1.62622289850562,-0.567844607601108,1.11757927205702,0.46619398321546,-0.252464886010026,0.267366502528635,0.383179992001679,0.936354339895,0.936354339898504,NaN,NaN,0.297102276097651,NaN,0.628182046422262,0.541407982086081,0.303018268616673,-0.181010091709825,-0.181010091709857,NaN,1.07235741063466,NaN
202.5472,1.12440813948311,0.0458504397117199,1.3231828136469,0.70728744105575,-0.171788215126208,-0.171788215127151,0.938513088869494,-0.240902219372662,0.490895070292922,0.859166937470674,0.678664825063084,0.859166937471252,0.856258974261718,-0.776303195937837,0.710383814704769,0.452482583282722,NaN,1.05979463959258,0.322587352891509,0.262177757204234,NaN,-0.00290532365177291,NaN,-0.187207664420294,NaN,-0.261922694010692,NaN,NaN,-0.416548916315587,1.23937732246623,1.61150789517723,-0.560044737254177,1.1105537228026,0.456926706675527,-0.250005322541916,0.260762009064706,0.349578885175911,0.937880565574087,0.937880565577582,NaN,NaN,0.271683631182826,NaN,0.630207918221639,0.526716902501068,0.27242690765651,-0.176222960674733,-0.176222960674768,NaN,1.07120020921394,NaN
202.6496,1.12864613241228,0.0397949723965398,1.32310181646824,0.687668091351682,-0.164684213314802,-0.164684213315758,0.921877255082072,-0.246289667982075,0.476962803107338,0.859487611459106,0.676866784248549,0.859487611459678,0.840303584765568,-0.748555484554467,0.702219598780927,0.447557449985109,NaN,1.05590993730015,0.322339391919303,0.263794370084144,NaN,-0.00998349189692667,NaN,-0.182568104709309,NaN,-0.254417008833016,NaN,NaN,-0.410497814987954,1.21468602661296,1.59657413035602,-0.552066449231399,1.10349616778222,0.447884581219827,-0.247053675806574,0.25459606792892,0.316571938072507,0.939532499463027,0.939532499466518,NaN,NaN,0.246631144433392,NaN,0.632150963286435,0.51162564242578,0.242256844315838,-0.171446190030225,-0.171446190030262,NaN,1.07023443974004,NaN
202.752,1.13225938316031,0.0333010136355951,1.32194954731154,0.668610914436543,-0.157847514903401,-0.157847514904366,0.905547011370916,-0.251425892953691,0.463368930446988,0.860175863919428,0.675063582970109,0.860175863919991,0.825015454540124,-0.721445263378409,0.694596538028977,0.442756658275124,NaN,1.0523079156306,0.322646439216521,0.265179384237399,NaN,-0.0168814334957049,NaN,-0.177968308066408,NaN,-0.246522861539103,NaN,NaN,-0.404311785605254,1.19024648852722,1.58142928133878,-0.543918917637038,1.0964043522039,0.43908129064014,-0.243609539006233,0.248880466299387,0.284176843881741,0.941298953281507,0.941298953284981,NaN,NaN,0.221975403303493,NaN,0.633988183291279,0.496113093627647,0.212545188210046,-0.16669454076179,-0.166694540761832,NaN,1.06944965979004,NaN
202.8544,1.13523602072562,0.0263651813542911,1.31970967838298,0.650113650893571,-0.151282551877476,-0.151282551878451,0.889539054324497,-0.256301911317579,0.450129372222159,0.861222067032704,0.67324452273847,0.861222067033259,0.810416797366668,-0.695000682446225,0.687530002299624,0.438087468688333,NaN,1.04897905902823,0.323496736090459,0.266316093908408,NaN,-0.0236040506262805,NaN,-0.173417313078743,NaN,-0.238255596599852,NaN,NaN,-0.397993767908055,1.16605736828799,1.56608095132786,-0.535611783054623,1.08927539933951,0.430529831497165,-0.239673202584843,0.243626058302387,0.252409563283553,0.943168226777607,0.943168226781073,NaN,NaN,0.197746825490956,NaN,0.635696482102441,0.480158088776452,0.183327795231077,-0.161981851456023,-0.161981851456068,NaN,1.06883510149881,NaN
202.9568,1.13756536873836,0.0189855217140269,1.3163684102788,0.632172847399579,-0.144993265172958,-0.144993265173945,0.87386836112246,-0.26090883349902,0.437258859367142,0.862615717143898,0.671398764387075,0.862615717144446,0.79652810946659,-0.669247597447508,0.681034218044928,0.433556745469265,NaN,1.04591330844783,0.324877965200849,0.267188218978745,NaN,-0.0301574347544849,NaN,-0.168923792923365,NaN,-0.229630315145679,NaN,NaN,-0.391547544447808,1.14211595297179,1.55053672639587,-0.527155186237564,1.0821058336679,0.422242564175144,-0.235245703698108,0.238842783295812,0.2212844014864,0.945128207165875,0.945128207169321,NaN,NaN,0.173975668169055,NaN,0.637252859567747,0.463739597162615,0.154639253494816,-0.157320955386503,-0.157320955386552,NaN,1.0683797945738,NaN
203.0592,1.13923804655376,0.0111615256015549,1.3119146010137,0.614783949648667,-0.138983116296831,-0.138983116297831,0.858548300909631,-0.265237991941774,0.424770937913669,0.864345503326405,0.669515425135522,0.864345503326943,0.783368179205829,-0.644209625186848,0.675122258546893,0.429170887888147,NaN,1.04310015524242,0.326777264033298,0.267780334175087,NaN,-0.0365486798696306,NaN,-0.164495999814669,NaN,-0.22066185383715,NaN,NaN,-0.384977699125149,1.11841833890953,1.53480422621191,-0.518559797925035,1.07489160169797,0.414231252039378,-0.230328877181376,0.234539673327908,0.190814092039396,0.947166463046062,0.947166463049489,NaN,NaN,0.150691993213732,NaN,0.638634583031508,0.446836898454267,0.126512870304032,-0.152723628119242,-0.152723628119294,NaN,1.06807265676436,NaN
203.1616,1.14024606686487,0.0028941203403648,1.30633987090591,0.597941366341306,-0.133255118020476,-0.133255118021486,0.84359073988555,-0.2692810757278,0.412677965655703,0.866399376227911,0.667583682596553,0.86639937622844,0.770954074964889,-0.619908191140356,0.669806011490134,0.424935775130005,NaN,1.0405287256143,0.329181215424719,0.268078245705342,NaN,-0.0427857004464661,NaN,-0.160141709105236,NaN,-0.211364791705606,NaN,NaN,-0.378289571800904,1.09495961295801,1.51889114546174,-0.509836841990721,1.0676280903603,0.406507057833118,-0.224925408459079,0.230724823424307,0.161009870511485,0.949270344050976,0.949270344054375,NaN,NaN,0.127925599195907,NaN,0.639819314749895,0.429429719160442,0.0989806584005055,-0.14820058204531,-0.148200582045367,NaN,1.06790255007145,NaN
203.264,1.14058292135171,-0.00581435766964463,1.29963867826136,0.58163851698708,-0.127811904858143,-0.127811904859164,0.829006136930798,-0.273030262737535,0.400991103880874,0.868764622998907,0.665592882859619,0.868764622999426,0.759301116182148,-0.596362567168117,0.66509613050769,0.420856718446076,NaN,1.03818784266383,0.332075821976282,0.268069303812004,NaN,-0.0488770569037255,NaN,-0.155868170320697,NaN,-0.201753477015689,NaN,NaN,-0.371489203994322,1.0717340251462,1.50280528474583,-0.500998108783281,1.0603101452818,0.39908049294087,-0.219038887250715,0.22740532157905,0.131881535472633,0.951427091694022,0.951427091697402,NaN,NaN,0.105705932682278,NaN,0.640785193341021,0.411498333363492,0.0720733261865741,-0.143761508707332,-0.143761508707393,NaN,1.06785832023968,NaN
203.3664,1.14024365421362,-0.0149602024140117,1.2918083713537,0.565867877927188,-0.122655834466286,-0.122655834467319,0.814803633889544,-0.276478347080858,0.389720308125401,0.871427955920253,0.663532643335788,0.871427955920762,0.748422839166583,-0.573589891921271,0.661001987185691,0.416938417514359,NaN,1.03606606540685,0.335446482408699,0.26774263641337,NaN,-0.0548317905468653,NaN,-0.151682068350457,NaN,-0.191842062616494,NaN,NaN,-0.36458326854304,1.04873514903973,1.48655456771112,-0.492055949834691,1.05293209563413,0.39196133756661,-0.212673857415473,0.224587156073431,0.103437505370211,0.953623957774848,0.953623957778203,NaN,NaN,0.0840619915941599,NaN,0.641510880183996,0.393023639380224,0.045820280263989,-0.139415154472224,-0.139415154472288,NaN,1.06792883803272,NaN
203.4688,1.13922493007031,-0.0245383848821206,1.28284922814062,0.550621042014921,-0.11778908803265,-0.117789088033694,0.800991143669514,-0.279618854151324,0.378874324187514,0.874375619770719,0.661392935622108,0.874375619771218,0.73833097267442,-0.55160516307718,0.65753164530941,0.413184934255134,NaN,1.03415171584028,0.339277995171148,0.267089269249454,NaN,-0.0606592736534242,NaN,-0.147589496494133,NaN,-0.181644533961617,NaN,NaN,-0.35757898025069,1.02595603383062,1.47014704753128,-0.483023245999605,1.04548779816245,0.385158561001962,-0.205835854608671,0.2222751290131,0.0756848893396423,0.955848322832141,0.955848322835473,NaN,NaN,0.0630222320530896,NaN,0.641975585682644,0.373987227173317,0.0202496526352011,-0.135169407598471,-0.13516940759854,NaN,1.06810304928538,NaN
203.5712,1.13752510208613,-0.0345426017946338,1.27276449451949,0.535888809644427,-0.113213740530179,-0.113213740531235,0.7875754336636,-0.282446131725524,0.36846069401791,0.877593512614491,0.659164130332505,0.877593512614981,0.729035433501867,-0.530421198149292,0.654691870648857,0.409599705276642,NaN,1.03243290753459,0.343554604366206,0.266102102189157,NaN,-0.0663690780464481,NaN,-0.143595940960881,NaN,-0.171174712887089,NaN,NaN,-0.350483992322674,1.00338935937117,1.45359091446429,-0.473913351223301,1.03797071065638,0.378680273635191,-0.198531421962735,0.220472807805442,0.0486295951092851,0.958087803381138,0.958087803384444,NaN,NaN,0.042614484297712,NaN,0.642159094628731,0.354371451905817,-0.00461163713621173,-0.131031376368538,-0.131031376368612,NaN,1.06837003379361,NaN
203.6736,1.13514427471431,-0.0449653202747632,1.2615604197309,0.521661324405701,-0.108931800187796,-0.108931800188865,0.774562199713838,-0.284955415156865,0.358485769379553,0.881067306467133,0.656836990857631,0.881067306467613,0.720544339021494,-0.510048573982589,0.652488168809331,0.406185595698534,NaN,1.030897577429,0.348260077571232,0.264775750083966,NaN,-0.0719708578809368,NaN,-0.139706272623193,NaN,-0.160446228081262,NaN,NaN,-0.343306288649911,0.98102760022082,1.43689451498605,-0.464740021761016,1.03037399493704,0.372533728624612,-0.190768098073619,0.21918253263011,0.0222764872085703,0.960330330424322,0.960330330427595,NaN,NaN,0.0228658745768854,NaN,0.642041806976117,0.334159521975009,-0.0287377891145353,-0.127007449831272,-0.127007449831349,NaN,1.06871906886135,NaN
203.776,1.1320843445167,-0.0557978162162661,1.24924627181853,0.507928249007892,-0.104945246217038,-0.104945246218118,0.761956128852678,-0.287142877694801,0.34895472613351,0.884782556935632,0.654402616121591,0.884782556936101,0.712864022241919,-0.490495564796453,0.650924826603915,0.40294496898896,NaN,1.02953350812549,0.353377787261497,0.263106289156701,NaN,-0.0774742421713614,NaN,-0.135924740747058,NaN,-0.149472457956193,NaN,NaN,-0.336054081449264,0.958863189254046,1.42006638402079,-0.455517341228562,1.02269063898337,0.366725359299672,-0.18255438125392,0.218405466110199,-0.00337041695498495,0.962564184617528,0.962564184620773,NaN,NaN,0.00380274718689193,NaN,0.641604798003486,0.313335596559014,-0.052104021188823,-0.123103345055854,-0.123103345055936,NaN,1.06913968630043,NaN
203.8784,1.12834900668623,-0.0670302103370882,1.2358343157501,0.494678957435582,-0.101256090995546,-0.10125609099664,0.749760955121489,-0.289005679154143,0.339871574834999,0.888724797649474,0.651852340495842,0.888724797649932,0.705999037936097,-0.471768101279788,0.650004934882872,0.399879742610964,NaN,1.02832832714969,0.35889077313694,0.261090950704517,NaN,-0.0828887406633836,NaN,-0.132254967107564,NaN,-0.138266463665129,NaN,NaN,-0.328735721088378,0.93688866027129,1.40311528702226,-0.446259652491404,1.0149135818862,0.361260816467309,-0.173899682544925,0.218141648568106,-0.0283077466164289,0.964777990371319,0.964777990374537,NaN,NaN,-0.0145494111752307,NaN,0.640829895809704,0.291884883958953,-0.0746864829716994,-0.119324143808555,-0.119324143808641,NaN,1.06962171252019,NaN
203.9808,1.12394372741307,-0.0786515056991714,1.22133975128397,0.481902717019129,-0.0978664648198367,-0.0978664648209414,0.737979516081306,-0.290542016936006,0.33123917051403,0.892879619741168,0.649177599989545,0.892879619741617,0.699952162270933,-0.453869771021393,0.64973038793371,0.3969914190528,NaN,1.02726948196406,0.364781779472102,0.25872779776528,NaN,-0.0882236682421679,NaN,-0.128699941638789,NaN,-0.126840931084533,NaN,NaN,-0.32135962621153,0.915096753346919,1.38605027466913,-0.436981510952599,1.0070358277617,0.356144981230862,-0.164814279446511,0.21839003219304,-0.0525326048285559,0.966960687722895,0.966960687726089,NaN,NaN,-0.0321660347610913,NaN,0.639699779762302,0.269793741470685,-0.0964622000944594,-0.115674312040693,-0.115674312040782,NaN,1.07015529564536,NaN
204.0832,1.11887568806842,-0.0906496251764023,1.20578061864872,0.469588849081108,-0.0947787086223365,-0.0947787086234552,0.726613817390844,-0.291751175706527,0.323059228524242,0.897232737930926,0.646369779285917,0.897232737931366,0.69472439739745,-0.436801871169358,0.650101868766265,0.394281099386471,NaN,1.02634420560956,0.371033273696144,0.256015428262162,NaN,-0.0934880848055123,NaN,-0.125262019361363,NaN,-0.115208133501353,NaN,NaN,-0.313934242679202,0.893480480473344,1.3688807569129,-0.427697670228258,0.999050543239252,0.35138195323881,-0.155309274345283,0.219148492044334,-0.0760424386732528,0.969101503663796,0.969101503666973,NaN,NaN,-0.0490235226905638,NaN,0.638198106378067,0.247049784853451,-0.117409053048955,-0.112157694316851,-0.112157694316946,NaN,1.07073093974441,NaN
204.1856,1.11315370767279,-0.103011444591009,1.1891776829135,0.457726873519745,-0.0919954675554593,-0.0919954675565882,0.71566511355617,-0.292633575493289,0.315332351955729,0.901770042523538,0.643420064616752,0.901770042523969,0.690314990088786,-0.420563503656195,0.651118834659316,0.391749490247597,NaN,1.02553949596226,0.377627459161246,0.252952750327112,NaN,-0.0986907402681065,NaN,-0.121942919305652,NaN,-0.103379918768492,NaN,NaN,-0.306468029964166,0.872033161367629,1.35161658985045,-0.418423091870313,0.990951141066922,0.346975025959777,-0.145396555018854,0.220413825027352,-0.0988349501066716,0.971189936638014,0.971189936641171,NaN,NaN,-0.0650992650123017,NaN,0.636309658863924,0.223642011034977,-0.137505784612132,-0.108777486863522,-0.10877748686362,NaN,1.07133956901713,NaN
204.288,1.10678815282376,-0.115722817867093,1.17155431051312,0.446306652247341,-0.0895197789534446,-0.0895197789545828,0.705134010790614,-0.293190821454445,0.30805807278068,0.906477638050109,0.640319330333608,0.90647763805053,0.686721467538717,-0.405151685029764,0.652779517307939,0.389396915894197,NaN,1.02484212466401,0.384546298685397,0.249538852088402,NaN,-0.103840013593418,NaN,-0.118743730705959,NaN,-0.0913677162557812,NaN,NaN,-0.298969460481077,0.850748449942251,1.33426815142222,-0.409172949099252,0.982731358459419,0.342926663308605,-0.135088752414933,0.222181751386257,-0.120908029813836,0.973215760926371,0.973215760929515,NaN,NaN,-0.0803716587840481,NaN,0.634020505143527,0.199560928670078,-0.156732018028638,-0.105536204522804,-0.105536204522906,NaN,1.07197262939756,NaN
204.3904,1.09979084785535,-0.12876859125917,1.15293635492805,0.435318548065884,-0.0873551415734038,-0.0873551415745531,0.695020590449603,-0.29342575146257,0.301234907804938,0.91134187759654,0.637058075574276,0.91134187759695,0.683939690833909,-0.390561445724964,0.655080947786501,0.387223349847003,NaN,1.02423868070206,0.391771563919483,0.245772961446423,NaN,-0.108943836632176,NaN,-0.115664930795002,NaN,-0.0791825511259233,NaN,NaN,-0.291447014784414,0.829620379862671,1.31684638341459,-0.399962594270387,0.974385340704627,0.339238493478165,-0.124399190556711,0.224446934727898,-0.142259686839366,0.975169054672405,0.975169054675541,NaN,NaN,-0.0948201240192723,NaN,0.631318151335806,0.174798688906425,-0.175068262167711,-0.10243565701871,-0.102435657018816,NaN,1.07262221217398,NaN
204.4928,1.09217499669404,-0.142132605528482,1.13335206554805,0.424753606330875,-0.0855055587788093,-0.0855055587799696,0.685324545672286,-0.29334247079823,0.294860430345212,0.916349402021416,0.633626411385526,0.916349402021816,0.681963921953083,-0.376785911316337,0.658019004300226,0.38522847285883,NaN,1.02371564802526,0.399284913095167,0.241654490382114,NaN,-0.114009595402679,NaN,-0.112706411287549,NaN,-0.0668350517155852,NaN,NaN,-0.283909160275032,0.808643452797728,1.29936279172822,-0.390807480536401,0.965907732310441,0.335911332691254,-0.113341826133263,0.227203032568651,-0.162887950796463,0.977040247476754,0.977040247479887,NaN,NaN,-0.108425130541518,NaN,0.628191685648252,0.149349211145553,-0.192495888645387,-0.0994769433166131,-0.0994769433167233,NaN,1.07328117026838,NaN
204.5952,1.08395512131626,-0.155797691564606,1.11283202085503,0.414603743391592,-0.0839755618287738,-0.083975561829946,0.676045320937952,-0.292946367593405,0.28893135426247,0.921487180237333,0.630014092608794,0.921487180237723,0.680786888903073,-0.363816371072418,0.661588462595833,0.383411742404444,NaN,1.02325951015886,0.407067977931017,0.23718316499277,NaN,-0.119044007686577,NaN,-0.109867506589312,NaN,-0.0543354417757976,NaN,NaN,-0.276364304210388,0.787812772919684,1.28182940389133,-0.381723046206226,0.957293764718589,0.33294523941657,-0.101931182455727,0.230442775505866,-0.182790744051046,0.978820170947367,0.978820170950499,NaN,NaN,-0.121168249193542,NaN,0.624631907686458,0.123208295494087,-0.20899708639692,-0.0966604694895544,-0.0966604694896692,NaN,1.0739431998104,NaN
204.6976,1.07514701752997,-0.16974567343866,1.09140907537041,0.404861901898543,-0.0827702198746235,-0.0827702198758061,0.667182243293335,-0.292244112505168,0.283443621022003,0.926742538859544,0.626210590742833,0.926742538859923,0.680399828508887,-0.351642340161875,0.665783022519954,0.381772447148559,NaN,1.02285686847793,0.415102431170048,0.232359225371068,NaN,-0.124052988999565,NaN,-0.107147019122445,NaN,-0.0416935200632751,NaN,NaN,-0.268820719083166,0.767124208238468,1.26425868431058,-0.37272457584124,0.948539324839211,0.330339583589974,-0.0901822870478189,0.234158057258521,-0.201965745300463,0.980500092882066,0.980500092885213,NaN,NaN,-0.133032236921314,NaN,0.620631433248839,0.0963737091950757,-0.224554813452972,-0.093985995933316,-0.0939859959334353,NaN,1.07460287091078,NaN
204.8,1.06576772846751,-0.183957393899096,1.06911830859467,0.395522134289182,-0.0818951325731371,-0.081895132574332,0.658734637119294,-0.291243649359806,0.278392480745841,0.932103172914574,0.622205203294302,0.932103172914942,0.680792495860063,-0.340251615336724,0.670595297859714,0.380309730348948,NaN,1.02249456058151,0.423370020912981,0.227183652604,NaN,-0.129041529453682,NaN,-0.104543241186592,NaN,-0.0289186373556828,NaN,NaN,-0.261286448999577,0.746574548969274,1.24666341277981,-0.363827051334951,0.939640995072818,0.328093108242755,-0.0781106172585863,0.238340014238315,-0.2204102735449,0.982071726520691,0.982071726523849,NaN,NaN,-0.144001151912789,NaN,0.616184765693092,0.068845240014214,-0.239152761384356,-0.0914527176779782,-0.091452717678102,NaN,1.07525560452243,NaN
204.9024,1.05583553247742,-0.198412768682016,1.04599696696601,0.386579602619492,-0.0813563981645042,-0.0813563981657129,0.650701917005847,-0.289954176638214,0.27377256373165,0.937557133808069,0.617987192669139,0.937557133808425,0.681953141813774,-0.329630318849719,0.676016773114794,0.379022580626346,NaN,1.02215976581663,0.431852575026508,0.221658381093152,NaN,-0.134013598069171,NaN,-0.102053974754081,NaN,-0.0160196802204777,NaN,NaN,-0.253769206381679,0.726161640659968,1.22905653627614,-0.355045000457959,0.93059606709642,0.326203965831764,-0.0657320502984709,0.242979081478941,-0.238121210487568,0.983527215860398,0.983527215863567,NaN,NaN,-0.154060484812928,NaN,0.611288334291056,0.0406247211897372,-0.252775336876531,-0.0890593728911942,-0.0890593728913229,NaN,1.07589760748474,NaN
205.0048,1.04536993943451,-0.213090866793904,1.0220843943115,0.378030506943214,-0.081160551695828,-0.081160551697051,0.643083653887802,-0.288386112423171,0.269577943225374,0.9430927965449,0.613545947055001,0.943092796545244,0.683868467653342,-0.319762928675024,0.682037738637592,0.377909795335106,NaN,1.0218400875289,0.440531983212801,0.215786483444331,NaN,-0.138972073261641,NaN,-0.0996765500714837,NaN,-0.00300506701951822,NaN,NaN,-0.246276263131137,0.705884486040059,1.21145100834093,-0.346392344547979,0.921402543081699,0.324669722342914,-0.0530628136115414,0.248065021118819,-0.255094964129975,0.984859099022572,0.984859099025761,NaN,NaN,-0.163197292288869,NaN,0.605940508181492,0.01171603929577,-0.265407659716933,-0.086804364675712,-0.0868043646758447,NaN,1.07652578924252,NaN
205.1072,1.03439169523016,-0.227970010787072,0.99742195538425,0.369871962273632,-0.0813144614189945,-0.0813144614202305,0.635879614697793,-0.286551035953319,0.265802193330559,0.94869881593855,0.608871154205069,0.948698815938884,0.68652357026087,-0.310632296986693,0.688647219103642,0.376969924949587,NaN,1.02152361005063,0.449390165293464,0.209572328911443,NaN,-0.143918690933504,NaN,-0.0974078436459219,NaN,0.0101172448919777,NaN,NaN,-0.238814339237337,0.685743322695996,1.1938596323445,-0.337882246483404,0.912059140825876,0.323487336222533,-0.0401194355614385,0.253586929419635,-0.27132746446977,0.986060255686746,0.986060255689953,NaN,NaN,-0.171400322247104,NaN,0.600141591705761,-0.017874864152288,-0.277035570383217,-0.0846858806723183,-0.0846858806724545,NaN,1.07713768389169,NaN
205.2096,1.02292279806642,-0.243027889701138,0.972052962592527,0.362101849753607,-0.0818251693001281,-0.08182516930138,0.629089784308374,-0.284461604431488,0.262438448594398,0.954364082157617,0.603952976186387,0.954364082157939,0.689901890451206,-0.302219655535731,0.69583291070337,0.37620120686823,NaN,1.02119893370498,0.458409037444675,0.203021698875228,NaN,-0.148854009687354,NaN,-0.0952442990322858,NaN,0.0233397530680109,NaN,NaN,-0.231389490321848,0.665739691697821,1.17629491540671,-0.329526958454467,0.902565310755871,0.322653132715102,-0.0269186961048536,0.259533239903039,-0.286814172540868,0.987123856320722,0.987123856323944,NaN,NaN,-0.178660121492992,NaN,0.593893798598103,-0.0481399906388432,-0.287645630386096,-0.0827020037830318,-0.0827020037831718,NaN,1.07773139857955,NaN
205.312,1.01098652391645,-0.258241673917367,0.946022611654967,0.354718675702424,-0.0826996798224883,-0.0826996798237549,0.622714380344956,-0.282131449941097,0.259479469647593,0.960077677079312,0.598782212134361,0.960077677079622,0.6939851738902,-0.294504604674101,0.703581139377672,0.375601495785886,NaN,1.02085519099847,0.467570489656443,0.19614183508678,NaN,-0.153777397300545,NaN,-0.0931819556585928,NaN,0.036655420673353,NaN,NaN,-0.224006994258884,0.645876514759427,1.15876892836871,-0.321337667182583,0.892921262500772,0.322162801010979,-0.0134775739073821,0.265891747586944,-0.301550078230275,0.98804333001482,0.988043330018055,NaN,NaN,-0.184969121071657,NaN,0.587201203070922,-0.07906927792958,-0.297225097369876,-0.0808508130977803,-0.0808508130979245,NaN,1.07830560565495,NaN
205.4144,0.998607450171447,-0.273588121936618,0.919377921753962,0.347721465316869,-0.0839447238975295,-0.0839447238988129,0.616753860859693,-0.279575063312752,0.256917711185694,0.965828823436475,0.593350437646938,0.965828823436773,0.698753448468197,-0.287465087617076,0.711876844041348,0.375168197589746,NaN,1.02048204616642,0.476856381528281,0.188941412098321,NaN,-0.158687040268262,NaN,-0.0912164867183548,NaN,0.0500577083526311,NaN,NaN,-0.216671241631474,0.626158187726377,1.14129316711615,-0.313324340210784,0.883127991698357,0.322011434483965,0.000186813564957633,0.272649673233556,-0.3155296683045,0.988812344616572,0.988812344619824,NaN,NaN,-0.190321703139285,NaN,0.5800696734603,-0.110650587275913,-0.305761871117972,-0.0791304735504312,-0.0791304735505795,NaN,1.07885957929886,NaN
205.5168,0.985811463937447,-0.289043677983387,0.8921676655997,0.341109689749785,-0.0855665288399096,-0.0855665288412068,0.611208911382134,-0.276807668143056,0.254745381629901,0.97160681925946,0.587650110467831,0.971606819259744,0.704185010558965,-0.281077358249617,0.72070357272078,0.374898209635745,NaN,1.0200696752873,0.486248546145103,0.181430431358228,NaN,-0.163579979651755,NaN,-0.0893432426053647,NaN,0.0635406181994622,NaN,NaN,-0.209385641736823,0.606590678313114,1.12387841491342,-0.305495585421289,0.873187292565249,0.3221936068226,0.0140572764186105,0.279793761236128,-0.328746867716083,0.989424777287709,0.989424777290976,NaN,NaN,-0.194714257741579,NaN,0.572506794608483,-0.142869691051683,-0.313244424339777,-0.0775393137912225,-0.0775393137913753,NaN,1.07939325270489,NaN
205.6192,0.972625746076086,-0.304584566876239,0.864442273979562,0.334883201084558,-0.0875706110616104,-0.0875706110629227,0.606080400767664,-0.273845089194946,0.252954485172545,0.977400959286813,0.581674629932522,0.977400959287084,0.710256406930387,-0.275315957403215,0.730043470343304,0.374787865156703,NaN,1.01960872119631,0.495728778765685,0.173620034981434,NaN,-0.168452175559779,NaN,-0.0875572986355211,NaN,0.0770987347612318,NaN,NaN,-0.202152556177287,0.587181602477641,1.10653460914521,-0.297858537827636,0.863101743648393,0.322703447203771,0.0281166202052933,0.287310377450956,-0.341194979364932,0.989874667137422,0.989874667140706,NaN,NaN,-0.198145231277146,NaN,0.564521780342367,-0.175710269983603,-0.319661738335785,-0.0760758926496273,-0.0760758926497842,NaN,1.07990726078104,NaN
205.7216,0.959078727966349,-0.320186890104322,0.836253708129756,0.329042154774696,-0.0899615965088847,-0.0899615965102096,0.601369312627318,-0.27070362616532,0.251536844748344,0.983200448416751,0.5754183395808,0.98320044841701,0.716942408290577,-0.270153713808441,0.739877247266035,0.374832880514077,NaN,1.01909022377169,0.505278795108278,0.16552225763522,NaN,-0.173298594191461,NaN,-0.0858535111797527,NaN,0.0907272498041665,NaN,NaN,-0.19497326114239,0.567940256012384,1.08927071986802,-0.29041878220566,0.852874664910368,0.323534677438511,0.0423477091218203,0.295185572487149,-0.352866650234605,0.990156163496717,0.99015616350002,NaN,NaN,-0.200615158594586,NaN,0.556125378342179,-0.209153918585014,-0.325003257027934,-0.0747390516110387,-0.0747390516111995,NaN,1.08040294648716,NaN
205.824,0.94520001759791,-0.33582672023583,0.807655298391945,0.323586922402394,-0.0927430784548187,-0.0927430784561556,0.597076666729226,-0.267399942031914,0.25048411046961,0.988994309811496,0.568876476934275,0.988994309811742,0.724215981074653,-0.265561778331447,0.750184133023521,0.375028301929494,NaN,1.01850553048797,0.514880159162414,0.157149758940603,NaN,-0.178113306378198,NaN,-0.0842265873835941,NaN,0.10442196371516,NaN,NaN,-0.18784792824974,0.548877591105644,1.07209464865582,-0.283180310955708,0.842510056119567,0.32468059707553,0.0567335200411883,0.303405096326511,-0.363753878680754,0.99026349046237,0.990263490465689,NaN,NaN,-0.202126671050171,NaN,0.547329772393006,-0.243180149966622,-0.329258863875358,-0.0735279520548788,-0.0735279520550437,NaN,1.08088233301122,NaN
205.9264,0.931020292114863,-0.351480188237078,0.778701550271469,0.3185180101473,-0.0959175246689372,-0.095917524670285,0.593203437694725,-0.263950965120965,0.249787758838784,0.994771295788128,0.562045091982491,0.994771295788361,0.73204826876353,-0.261509693731318,0.760941827717462,0.375368439369481,NaN,1.01784618774498,0.524514187135963,0.148515583883182,NaN,-0.182889587245527,NaN,-0.0826711687576119,NaN,0.118179259308213,NaN,NaN,-0.180775617299624,0.530006143893021,1.05501315524424,-0.276145509163535,0.832012534057367,0.326134021853499,0.0712571847363406,0.31195436750687,-0.373848063172007,0.990190939386468,0.990190939389787,NaN,NaN,-0.202684481918955,NaN,0.538148485033327,-0.277766396327021,-0.332418880320933,-0.0724421021390025,-0.0724421021391719,NaN,1.08134807858129,NaN
206.0288,0.916571162057641,-0.367123558417257,0.749447928199075,0.313835996898918,-0.0994862314877558,-0.0994862314891149,0.589750473194417,-0.260373798815731,0.249439087491434,1.0005198168969,0.554920958567112,1.00051981689712,0.74040859883022,-0.257965499589937,0.772126470108377,0.375846776624606,NaN,1.01710381207675,0.534161841875476,0.139632985097303,NaN,-0.187620007424439,NaN,-0.0811819221918434,NaN,0.131996045069499,NaN,NaN,-0.173754285051911,0.511339930459365,1.03803181741562,-0.269315155899634,0.821387287197907,0.327887194855747,0.085902020267784,0.320818413235581,-0.383140079816653,0.989932884743633,0.989932884746949,NaN,NaN,-0.20229535549578,NaN,0.52859628584968,-0.312888002830528,-0.334474079273453,-0.071481374354307,-0.0714813743544805,NaN,1.08180343846609,NaN
206.1312,0.901885017172601,-0.382733284841715,0.719950633293214,0.30954150552012,-0.10344931117573,-0.103449311177102,0.586718415562787,-0.256685634730901,0.249429210325409,1.00622790033509,0.547501491452502,1.0062279003353,0.749264532130481,-0.254895865122956,0.783712644969123,0.376455862893623,NaN,1.01626994773753,0.543803643011189,0.130515316260225,NaN,-0.192296508037753,NaN,-0.0797536288923845,NaN,0.145869673538785,NaN,NaN,-0.1667808172015,0.492894332323185,1.02115502421805,-0.262688432386664,0.810640058829629,0.329931701608317,0.10065155178018,0.329981809015321,-0.391620365744408,0.989483808182927,0.989483808186235,NaN,NaN,-0.200968063997283,NaN,0.518689121764781,-0.348518203800153,-0.335415704957714,-0.0706459995919947,-0.0706459995921711,NaN,1.08225226553313,NaN
206.2336,0.88699485821354,-0.398286044741817,0.690266383821475,0.305635217828975,-0.107805707864525,-0.107805707865907,0.584107629960947,-0.252903668741621,0.249749055419285,1.01188317781591,0.539784674291475,1.01188317781611,0.758581959485273,-0.252266237616147,0.795673439963785,0.377187205188884,NaN,1.01533592597615,0.553419615118222,0.121175989644665,NaN,-0.196910454796192,NaN,-0.0783812631056166,NaN,0.159797850240138,NaN,NaN,-0.159851087715474,0.474685990058596,1.00438599530749,-0.256262933838469,0.79977715444999,0.332258419504849,0.115489534326808,0.33942864683477,-0.399278987082086,0.988838316267545,0.988838316270852,NaN,NaN,-0.19871333731085,NaN,0.508444089063589,-0.384628070320935,-0.335235497308381,-0.0699365190331311,-0.06993651903331,NaN,1.08269906713991,NaN
206.336,0.871934113155203,-0.413758751659252,0.660452194326411,0.302117926309549,-0.112553251286176,-0.112553251287571,0.581918135878025,-0.249045021691336,0.250389362627094,1.01747289278616,0.531769006442639,1.01747289278634,0.768325231477177,-0.250041000615174,0.807980537857955,0.37803118097359,NaN,1.01429274502947,0.562989276653077,0.111628494855447,NaN,-0.201452669698853,NaN,-0.0770600557550057,NaN,0.173778544916591,NaN,NaN,-0.152960045549558,0.456732712802622,0.987726813605436,-0.250034689242601,0.788805454490735,0.334857512828683,0.130399977304266,0.349142543268872,-0.40610568767875,0.987991142381934,0.987991142385244,NaN,NaN,-0.195543817771354,NaN,0.497879450800957,-0.421186435616109,-0.33392573170368,-0.0693536920154908,-0.069353692015672,NaN,1.08314910326119,NaN
206.4384,0.85673643739394,-0.429128557926636,0.630565145116563,0.298990595846609,-0.117688755905884,-0.117688755907293,0.580149536045669,-0.245126668021715,0.251340675169553,1.02298391643001,0.52345347723709,1.02298391643019,0.778457301227382,-0.248183646177834,0.820604318622004,0.378976978366172,NaN,1.01313098440653,0.572491656298939,0.101886484374893,NaN,-0.205913442228281,NaN,-0.0757855424403706,NaN,0.187809901978881,NaN,NaN,-0.146101824415414,0.439053394500844,0.971178463471164,-0.243998198677449,0.777732412729938,0.33771845817286,0.145367168907381,0.359106673318569,-0.412089934582281,0.986937128083151,0.986937128086457,NaN,NaN,-0.191474033020884,NaN,0.487014684252706,-0.458159818521465,-0.331479290211671,-0.0688983762098601,-0.0688983762100432,NaN,1.08360849760115,NaN
206.5408,0.841435503036688,-0.444372856047809,0.600662140174242,0.296254407809194,-0.123208159631119,-0.123208159632539,0.578800941407514,-0.241165375341808,0.252593322688386,1.02840277643313,0.514837569281629,1.02840277643329,0.788939871759783,-0.246656967155114,0.833513959278646,0.380012557280189,NaN,1.01184075279564,0.581905322789306,0.091963929263782,NaN,-0.210282525423999,NaN,-0.074553597115115,NaN,0.201890137259398,NaN,NaN,-0.139269870233997,0.421667919672909,0.954740884279931,-0.238146499560511,0.766566037976757,0.340830072920848,0.160375695188811,0.369303804122233,-0.417220980933226,0.985671183638181,0.985671183641483,NaN,NaN,-0.186520390055329,NaN,0.475870542232784,-0.495512360947304,-0.327889772936731,-0.0685713964002403,-0.0685713964004242,NaN,1.08408434750896,NaN
206.6432,0.82606478660895,-0.459469284050477,0.570799660022839,0.293910771434671,-0.129106687281951,-0.129106687283382,0.577870894865447,-0.237177655360773,0.254137397336032,1.03371571153748,0.505921288446965,1.03371571153763,0.799733550380497,-0.24542326569001,0.84667753580583,0.38112462002088,NaN,1.01041165904069,0.591208421624787,0.0818753392311447,NaN,-0.214549125619082,NaN,-0.0733604496699939,NaN,0.216017411967614,NaN,NaN,-0.132457082690334,0.404597047786529,0.938413056969563,-0.23247126780094,0.755314871282989,0.344180531314479,0.175410451198497,0.379716314169467,-0.421487957061773,0.984188229767012,0.984188229770311,NaN,NaN,-0.180701185495884,NaN,0.46446912362611,-0.533205783183903,-0.323151646228022,-0.0683734079452135,-0.0683734079453981,NaN,1.08458482767863,NaN
206.7456,0.810657366396189,-0.474395736392131,0.541033521091987,0.29196129767338,-0.135379019007283,-0.135379019008726,0.577357299351072,-0.233179724548263,0.255962727460255,1.03890875225573,0.496705223073036,1.03890875225587,0.810798011755801,-0.244444561950786,0.860062135178649,0.382298584414316,NaN,1.00883280015043,0.600378720040883,0.0716360355610807,NaN,-0.218701896032533,NaN,-0.0722026850544406,NaN,0.230189684595387,NaN,NaN,-0.125655967110405,0.387862276430184,0.922193124308675,-0.226962947532042,0.743987966838883,0.347757373162805,0.190456645281651,0.39032620283833,-0.424879989523104,0.982483126082386,0.982483126085673,NaN,NaN,-0.174036627515585,NaN,0.452833950594477,-0.571199355787827,-0.317260415933495,-0.0683047575844252,-0.068304757584609,NaN,1.08511928015064,NaN
206.848,0.79524574187785,-0.489130380304226,0.511418655922523,0.290407738798028,-0.142019436909155,-0.142019436910611,0.577257359119359,-0.229187470728704,0.258058856828999,1.04396781223226,0.487190639119116,1.04396781223238,0.822092170464783,-0.243682783151111,0.873633986081796,0.383518562618062,NaN,1.00709277171477,0.609393670692303,0.0612624603725631,NaN,-0.222728941377779,NaN,-0.0710772283739458,NaN,0.244404547920956,NaN,NaN,-0.118858789787975,0.371485692589827,0.906078526486362,-0.221610893325854,0.732594875126594,0.351547523964896,0.205499798702228,0.401115107237846,-0.427386339193359,0.980550598558115,0.98055059856139,NaN,NaN,-0.166548866414396,NaN,0.440990039178173,-0.609449887840183,-0.310212806735352,-0.0683653473843964,-0.068365347384579,NaN,1.08569828236441,NaN
206.9504,0.779861688335456,-0.503651676654086,0.482008929920253,0.289251906397172,-0.149021921522194,-0.149021921523662,0.577567539176129,-0.225216416300559,0.260415037689332,1.04887877378141,0.477379612065335,1.04887877378153,0.833574366432962,-0.243099916962975,0.887358618368582,0.384767360102701,NaN,1.00517971332066,0.618230510281459,0.0507724966259098,NaN,-0.226617833151913,NaN,-0.0699813253628444,NaN,0.25865906139878,NaN,NaN,-0.112057725364833,0.355489827623598,0.890066130571488,-0.216403508318364,0.721145624120769,0.3555373523976,0.220525744089809,0.412064350083878,-0.428996539638614,0.978385178165656,0.97838517816892,NaN,NaN,-0.158262030556401,NaN,0.428963945855406,-0.64791173083733,-0.302006923669638,-0.0685545063054158,-0.0685545063055969,NaN,1.08633368158198,NaN
207.0528,0.764536156669393,-0.517938404647903,0.452857006684714,0.288495581470086,-0.156380180160441,-0.156380180161924,0.578283536460494,-0.221281668204468,0.263020238786267,1.05362755945198,0.467275186677432,1.05362755945209,0.845202562356819,-0.242658121830821,0.901201053081154,0.386026507305772,NaN,1.00308139650905,0.626866399469022,0.0401857745601565,NaN,-0.230355626849139,NaN,-0.0689125218829631,NaN,0.272949591249856,NaN,NaN,-0.105244983357145,0.339897533766542,0.874152338051125,-0.211328368557834,0.709650692525407,0.35971279038747,0.235520628630321,0.423155042937809,-0.429700511460141,0.975981147941866,0.975981147945122,NaN,NaN,-0.149202269064434,NaN,0.416783783470507,-0.686536797372813,-0.292642378288355,-0.0688708683719723,-0.0688708683721507,NaN,1.08703857780095,NaN
207.1552,0.749299219600313,-0.531969692256011,0.424014261726926,0.288140415627632,-0.164087607174559,-0.164087607176057,0.579400250960525,-0.217397857270035,0.265863159090134,1.05820018960793,0.456881554339749,1.05820018960802,0.85693454000289,-0.242319799358257,0.915126005633182,0.387276318080104,NaN,1.00078534668051,0.635278585837546,0.0295239560394958,NaN,-0.233928872056917,NaN,-0.0678686358277231,NaN,0.287271667375144,NaN,NaN,-0.0984129089558347,0.324731893373832,0.858333164973173,-0.206372334212577,0.698120968329244,0.364059523047668,0.250470927113214,0.434368253547133,-0.429488639395378,0.97333247835143,0.97333247835468,NaN,NaN,-0.139397811787181,NaN,0.404479208591175,-0.725274603225628,-0.282120381744645,-0.0693122583100427,-0.0693122583102183,NaN,1.08782724134486,NaN
207.2576,0.734180055114489,-0.545725058668299,0.395530728989923,0.288187804478096,-0.172137191647855,-0.172137191649371,0.580911750605353,-0.213579082074317,0.268932234959804,1.06258282864212,0.446204242160226,1.0625828286422,0.868728076152555,-0.242047645273717,0.929098073239224,0.388495959128934,NaN,0.998278979978694,0.643444558488078,0.0188109920930157,NaN,-0.237323618227469,NaN,-0.0668477133205469,NaN,0.301619855501117,NaN,NaN,-0.0915540663866189,0.310016153604362,0.842604302182582,-0.201521656887477,0.686567690132453,0.368563224768961,0.265363463779449,0.445685216686674,-0.428351824280629,0.970432730815958,0.97043273081921,NaN,NaN,-0.128879055665443,NaN,0.392081377788443,-0.764072353961717,-0.270443823836713,-0.0698755957441385,-0.0698755957443114,NaN,1.08871496609084,NaN
207.36,0.719206951248452,-0.559184475717169,0.367455056338274,0.288638715784322,-0.180521397264815,-0.180521397266349,0.582811230515621,-0.209838867349828,0.272215635690313,1.06676181690341,0.435250309140521,1.06676181690348,0.880541085310716,-0.241804695763935,0.943081885030646,0.389663524191256,NaN,0.995549738376611,0.651342174908521,0.00807333261976911,NaN,-0.240525430706014,NaN,-0.0658479713801157,NaN,0.315987635268211,NaN,NaN,-0.084661318445163,0.295773663268311,0.82696116628804,-0.196762093069923,0.675002371240498,0.373209798362037,0.280185436174106,0.457087548592705,-0.426281539360321,0.967274929339307,0.96727492934256,NaN,NaN,-0.117678670721482,NaN,0.379622864914344,-0.802875094721364,-0.2576173558324,-0.0705568344751817,-0.0705568344753516,NaN,1.08971787475017,NaN
207.4624,0.70440731498127,-0.572328449737544,0.339834449114684,0.289493474380776,-0.189232042942274,-0.189232042943822,0.585090965618261,-0.206190130078265,0.275701250504361,1.07072367842472,0.424028543387915,1.07072367842478,0.892331724538745,-0.241554376086014,0.957042206762886,0.390756115661787,NaN,0.992585212107747,0.658949756597589,-0.0026599389738737,NaN,-0.243519431622148,NaN,-0.0648677395115465,NaN,0.330367280180191,NaN,NaN,-0.0777279089778828,0.282027793214722,0.811398942275555,-0.192079025150314,0.663436705849978,0.377985580729681,0.294924433843476,0.468557430469326,-0.423269915774434,0.963851422354311,0.963851422357562,NaN,NaN,-0.10583170687677,NaN,0.367137532331321,-0.841625926922393,-0.243647483152495,-0.0713509494861392,-0.0713509494863062,NaN,1.09085269772897,NaN
207.5648,0.689807674931795,-0.585138120277863,0.312714592899679,0.290751519011711,-0.198260201587982,-0.198260201589544,0.587742251248893,-0.202645137645093,0.279376671890626,1.07445509528137,0.412549653031833,1.07445509528142,0.904058460273034,-0.241260548641469,0.970944001026726,0.391749933556083,NaN,0.989373245613311,0.66624615464926,-0.0133570573304314,NaN,-0.246290370811756,NaN,-0.0639054126434548,NaN,0.34474974522794,NaN,NaN,-0.0707475420645471,0.268801838141975,0.795912608145411,-0.187457579127647,0.651882459445059,0.382877497315709,0.309568445693501,0.480077742924682,-0.419309866101173,0.960153765497236,0.960153765500495,NaN,NaN,-0.0933756842261104,NaN,0.354660349976351,-0.880266284089443,-0.228542664155612,-0.0722519782369845,-0.0722519782371486,NaN,1.09213653469229,NaN
207.6672,0.675433679018851,-0.597595370410878,0.286139561071726,0.292411147881546,-0.207596107647436,-0.207596107649011,0.590755330851179,-0.199215449205834,0.28322917949216,1.07794285006956,0.400826437688679,1.0779428500696,0.915680103974316,-0.240887554948927,0.984752453137728,0.392620367540713,NaN,0.985902026066873,0.673210789756372,-0.0239836123397641,NaN,-0.248822719798408,NaN,-0.0629594223485618,NaN,0.359124572299481,NaN,NaN,-0.0637144463479853,0.25611890748778,0.78049693464805,-0.182882725090689,0.640351351973536,0.387873162554333,0.324105850696917,0.491632146309848,-0.414395239984208,0.956172650177988,0.956172650181246,NaN,NaN,-0.0803506535342529,NaN,0.342227160795018,-0.918736251514197,-0.212313403932933,-0.0732531150326569,-0.0732531150328181,NaN,1.09358659042753,NaN
207.7696,0.661310093318048,-0.609682941208122,0.260151720347649,0.29446927376089,-0.217229047563199,-0.21722904756479,0.594119323735151,-0.195911846037431,0.287245729999729,1.08117375430125,0.388873920281754,1.08117375430128,0.927155833347263,-0.24040024900843,0.998432983345512,0.393342090489196,NaN,0.982160147794859,0.679823678002975,-0.0345026774844004,NaN,-0.251100775175386,NaN,-0.0620282302615577,NaN,0.373479824661023,NaN,NaN,-0.0566234239488708,0.244001816490628,0.76514646974188,-0.178339358259568,0.62885494688182,0.392960936606985,0.338525393540348,0.50320511646932,-0.408520992574598,0.951897887719575,0.951897887722829,NaN,NaN,-0.066799215874916,NaN,0.329874404438181,-0.956974907075833,-0.194972327254748,-0.0743468451510588,-0.074346845151217,NaN,1.09521987286476,NaN
207.872,0.6474608051142,-0.621384540993259,0.234791645369785,0.296921214336067,-0.227147216499964,-0.227147216501567,0.597822175238579,-0.192744267339691,0.291412958925973,1.08413458773861,0.376709422612085,1.08413458773863,0.938445218687237,-0.239764021831091,1.01195126844634,0.393889160543049,NaN,0.978136646013929,0.686065458209413,-0.0448750387928897,NaN,-0.25310876188389,NaN,-0.0611103440005193,NaN,0.387802062041821,NaN,NaN,-0.0494698922841057,0.232472990741528,0.749855524507626,-0.173812367864277,0.617404555847151,0.398129963129947,0.352816157435994,0.514781963006838,-0.401683338173068,0.947318440751452,0.947318440754692,NaN,NaN,-0.0527664975588867,NaN,0.317638820314647,-0.994920661760098,-0.176534217345842,-0.0755250979183207,-0.0755250979184753,NaN,1.09705285110422,NaN
207.9744,0.633908828487753,-0.632684943702908,0.210098045054675,0.299760532941591,-0.237337545554372,-0.23733754555599,0.601850642953147,-0.18972176599835,0.295717195445744,1.08681206019135,0.364352579883039,1.08681206019136,0.949508262237462,-0.238944817659605,1.02527328186836,0.394235142907925,NaN,0.973821004175909,0.691917429664939,-0.0550595244020312,NaN,-0.254830934648236,NaN,-0.0602043482182084,NaN,0.402076363375449,NaN,NaN,-0.0422499182540083,0.221554392013304,0.734618162317849,-0.169286697033147,0.606011157491527,0.403370214451897,0.366967548142556,0.526348859471858,-0.393879868757256,0.94242248035771,0.942422480360945,NaN,NaN,-0.0383000879793774,NaN,0.305557144095839,-1.03251159372554,-0.157016018569291,-0.0767794048671971,-0.0767794048673481,NaN,1.09910108565401,NaN
208.0768,0.620676307171371,-0.643570079049876,0.186107692490606,0.302978919368126,-0.247785518246728,-0.247785518248359,0.606190312686755,-0.186852486863437,0.300144484729426,1.08919278756636,0.351825293807217,1.08919278756636,0.960305441066894,-0.237909149549247,1.03836533814111,0.394353253842128,NaN,0.969203144992574,0.697361591351097,-0.0650134255691419,NaN,-0.256251679772418,NaN,-0.0593089380791165,NaN,0.416286394341984,NaN,NaN,-0.0349602380705198,0.211267455966495,0.719428181922412,-0.164747394749183,0.59468531865013,0.40867254678354,0.380969293362728,0.537892889786209,-0.385109641202419,0.937197445050929,0.937197445054158,NaN,NaN,-0.0234499514224049,NaN,0.293665798051452,-1.06968578653407,-0.13643681660128,-0.0781010615891469,-0.0781010615892937,NaN,1.10137885223546,NaN
208.1792,0.607784505348811,-0.65402712161479,0.162855341917967,0.306566085886436,-0.258475000200778,-0.25847500020242,0.610825627734633,-0.184143660421467,0.304680610750115,1.09126326869918,0.339151621068991,1.09126326869917,0.970797738673825,-0.236624131453772,1.0511941178037,0.394216518367267,NaN,0.964273411964766,0.702380664095181,-0.0746929998919859,NaN,-0.257355623572465,NaN,-0.0584229454941859,NaN,0.430414507658752,NaN,NaN,-0.0275982659994365,0.201633018014182,0.704279095967892,-0.160179669855804,0.583437108275893,0.41402873909804,0.394811451549759,0.549402085591106,-0.375373259174597,0.931630088634673,0.931630088637899,NaN,NaN,-0.00826831479270741,NaN,0.282000572553314,-1.10638168168597,-0.114817818563576,-0.0794812938245629,-0.079481293824706,NaN,1.10389877826165,NaN
208.2816,0.595253772794947,-0.664044581997798,0.140373614689807,0.310509666274177,-0.269388106351784,-0.269388106353438,0.615739919762714,-0.181601602920456,0.30931111666326,1.09300985711091,0.326357599057233,1.09300985711089,0.980946658317831,-0.23505753999209,1.06372665949102,0.393797932542279,NaN,0.959022540796354,0.706958084906754,-0.0840540480977313,NaN,-0.258127759195324,NaN,-0.0575453556533158,NaN,0.444441863118438,NaN,NaN,-0.0201621030759615,0.192671208436818,0.689164119682743,-0.15556896117258,0.572276003763095,0.419431484837342,0.408484422139482,0.560865424383581,-0.364672977326742,0.925706523525205,0.925706523528414,NaN,NaN,0.00719047595165258,NaN,0.270596305246628,-1.14253843872355,-0.0921823511724554,-0.0809114213232086,-0.0809114213233481,NaN,1.10667150744922,NaN
208.384,0.583103469661928,-0.673612396921499,0.118692839937135,0.314795126326533,-0.280505127100479,-0.280505127102146,0.620915434556217,-0.179231712899234,0.31402132373416,1.09441873012711,0.313471024057887,1.09441873012708,0.990714217908847,-0.233177902395681,1.07593032033339,0.393070624075857,NaN,0.953441610536525,0.711077974168178,-0.0930525555226016,NaN,-0.258553605312105,NaN,-0.0566753158979948,NaN,0.45834856143912,NaN,NaN,-0.0126505519979378,0.184401314284186,0.674076180379917,-0.150901026720505,0.561210797844892,0.424874322350374,0.421978953553327,0.572272774671326,-0.353012841985724,0.919412280615788,0.919412280618982,NaN,NaN,0.0228701371396386,NaN,0.25948657116302,-1.17809628413144,-0.0685558834662094,-0.0823830106829585,-0.0823830106830944,NaN,1.1097054107358,NaN
208.4864,0.571351843277351,-0.682722013172233,0.0978408453691663,0.319405701168784,-0.291804527419037,-0.291804527420715,0.626333346280376,-0.177038451054107,0.318796351684441,1.0954758611063,0.30052120305718,1.09547586110625,1.00006292915557,-0.230954594653897,1.08777271395175,0.39200800552167,NaN,0.947521963872982,0.714725084419474,-0.101645393501963,NaN,-0.258619406417188,NaN,-0.0558121412625561,NaN,0.472113792678711,NaN,NaN,-0.00506313645663011,0.176841616522565,0.659007944082365,-0.146162041087057,0.55024951475206,0.43035150732549,0.43528615159586,0.58361479222939,-0.340398867972872,0.912732406668153,0.912732406671334,NaN,NaN,0.0387126680953604,NaN,0.248703391208276,-1.21299683499767,-0.043966068930781,-0.0838880147636756,-0.0838880147638076,NaN,1.11300635704702,NaN
208.5888,0.560015863347666,-0.691366459251821,0.0778427105062742,0.324322374041473,-0.30326302211991,-0.303263022121601,0.63197375954321,-0.175025294402423,0.323621144883862,1.09616700079869,0.287538693788749,1.09616700079865,1.00895577016148,-0.228357936883105,1.09922164180809,0.390583913907038,NaN,0.941255098109464,0.71788474556612,-0.109791068755432,NaN,-0.258312372652953,NaN,-0.054955323136991,NaN,0.485716001037061,NaN,NaN,0.00259987887119318,0.170009215166491,0.643951850871937,-0.141338688871879,0.539399340444955,0.435857842965802,0.448397494538168,0.594882783959032,-0.326839237112581,0.905651606653239,0.905651606656407,NaN,NaN,0.0546586108974136,NaN,0.238276956166525,-1.24718339371358,-0.0184427905178282,-0.0854189026041899,-0.0854189026043179,NaN,1.11657754106059,NaN
208.6912,0.549111034282656,-0.699540395482096,0.0587205112824072,0.329523911960176,-0.314855716323674,-0.314855716325378,0.637815708734232,-0.173194667255446,0.328480509299181,1.09647767473589,0.27455503855217,1.09647767473583,1.01735616911636,-0.225359289739276,1.11024503720467,0.388772729280388,NaN,0.93463253782921,0.720542818827124,-0.117450478781129,NaN,-0.257620937665055,NaN,-0.0541045453768542,NaN,0.499133066038406,NaN,NaN,0.0103374657997199,0.163919860096488,0.628900161828251,-0.136418253068508,0.528666571377015,0.441388494818222,0.461304859601929,0.606068564502542,-0.312344491296545,0.898154421164246,0.898154421167405,NaN,NaN,0.0706473467185342,NaN,0.228235363727768,-1.28060121244151,0.00798181375767925,-0.0869687821824026,-0.0869687821825262,NaN,1.12041935854548,NaN
208.7936,0.538651207256598,-0.707240134578573,0.0404930883767537,0.334986964999964,-0.326556285793783,-0.326556285795498,0.643837164577314,-0.171547859895789,0.333359160878918,1.09639320077255,0.261602494458805,1.09639320077249,1.02522801486696,-0.221931171323606,1.12081093306368,0.386549465109262,NaN,0.927645701660465,0.722685660077817,-0.124587611705562,NaN,-0.256535002188043,NaN,-0.0532597047817296,NaN,0.512342498793002,NaN,NaN,0.0181477993356125,0.158587807698631,0.613845028959604,-0.131388705662689,0.518056585799303,0.446938824358646,0.474000561369036,0.617164334743298,-0.296927691467404,0.890225416751876,0.890225416755028,NaN,NaN,0.086617417810104,NaN,0.218604375915914,-1.31319772474746,0.0352733591016575,-0.08853151167773,-0.0885315116778494,NaN,1.12452932979154,NaN
208.896,0.528648407415833,-0.714463633850662,0.0231758559553817,0.340686214427323,-0.338337170239395,-0.338337170241122,0.650015045066054,-0.170084947332496,0.338241776797606,1.0958987206718,0.248713764393465,1.09589872067173,1.0325356936231,-0.21804741066318,1.13088744647027,0.383889828191527,NaN,0.92028577419576,0.724300083349721,-0.131170152988696,NaN,-0.255046142372628,NaN,-0.0524209273912309,NaN,0.525321651388574,NaN,NaN,0.0260282082472869,0.154025712233897,0.598778588303952,-0.126238803645848,0.507573834090888,0.452504267596724,0.486477398563638,0.628162602630342,-0.280604529519181,0.881849360921085,0.881849360924242,NaN,NaN,0.10250685444557,NaN,0.209407208997447,-1.34492274719582,0.0633952512623532,-0.0901017911424354,-0.0901017911425507,NaN,1.128902072712,NaN
208.9984,0.519112677451878,-0.721210468709016,0.00678064433961996,0.346594540543255,-0.350169769080581,-0.350169769082318,0.656325218673329,-0.168804718312608,0.343113036029785,1.09497923434849,0.235921733387606,1.09497923434841,1.03924413596253,-0.213683333829422,1.14044276286067,0.380770249335871,NaN,0.912543588241365,0.725373314606917,-0.137170000315986,NaN,-0.253147780958963,NaN,-0.0515885725865398,NaN,0.538047935501221,NaN,NaN,0.0339751163319844,0.150244540698822,0.583693059624737,-0.120958182852599,0.497221838815693,0.458080256205686,0.498728701322067,0.639056140242668,-0.263393403475015,0.873011358230917,0.873011358234077,NaN,NaN,0.118253488423469,NaN,0.200664363825399,-1.3757286601492,0.0923087321798535,-0.0916752280703775,-0.0916752280704879,NaN,1.13352931046818,NaN
209.1008,0.510051930512149,-0.727481797411085,-0.00868443951729121,0.352683187199676,-0.362024647542414,-0.362024647544159,0.662742494853377,-0.167704620258993,0.347957642884556,1.0936196331527,0.223259214095388,1.09361963315261,1.04531886008707,-0.208815963349144,1.14944511072501,0.377167885797638,NaN,0.90440951605237,0.725892932200496,-0.142563696091565,NaN,-0.250835325063983,NaN,-0.0507632211715702,NaN,0.550499041723281,NaN,NaN,0.0419839931924359,0.147253492572431,0.568580835502352,-0.115537437274065,0.487003200042134,0.463662149904962,0.51074836815983,0.649837945186003,-0.245315478553208,0.863696943011281,0.863696943014446,NaN,NaN,0.133795248326385,NaN,0.192393499432322,-1.40557057311191,0.121972913732393,-0.0932483756626096,-0.0932483756627152,NaN,1.13839988888963,NaN
209.2032,0.501471807444181,-0.733280321136596,-0.0232151427975329,0.358921915825294,-0.373871766012453,-0.373871766014209,0.669240608173852,-0.16678071817072,0.352760338760197,1.09180473460934,0.210758704767507,1.09180473460925,1.05072600798778,-0.203424211251041,1.15786273040271,0.37306059709653,NaN,0.895873368909733,0.725846796241678,-0.147332772206699,NaN,-0.248106270965459,NaN,-0.0499456486875695,NaN,0.562653146716368,NaN,NaN,0.0500493337986004,0.145059914325168,0.553434550943504,-0.109968174933087,0.476919606567402,0.469245148271853,0.522530884118322,0.660501175093679,-0.226394751093457,0.853892144958389,0.85389214496156,NaN,NaN,0.14907044145188,NaN,0.184609348034246,-1.43440647296501,0.152344792200743,-0.0948187506813706,-0.0948187506814711,NaN,1.14349979025193,NaN
209.3056,0.493375537282291,-0.738610237503491,-0.0368111885402503,0.365279154121824,-0.385680738518424,-0.385680738520192,0.675792202392487,-0.166027658936946,0.357505910930045,1.0895193165971,0.198452160634433,1.08951931659699,1.05543237933417,-0.197489054180496,1.16566384705048,0.368426898120367,NaN,0.886924306723828,0.72522297238053,-0.151463998404173,NaN,-0.244960277493892,NaN,-0.0491367885237547,NaN,0.57448909538315,NaN,NaN,0.058164670565859,0.143669205880364,0.538247129917893,-0.104243049342156,0.466971850260452,0.474824171261459,0.534071318524681,0.67103904536793,-0.206658119678254,0.843583552035652,0.843583552038827,NaN,NaN,0.164018028481761,NaN,0.177323665048196,-1.46219735254983,0.183379247783905,-0.0963848408201532,-0.0963848408202485,NaN,1.14881215063801,NaN
209.408,0.485763803292178,-0.743477182655475,-0.0494763817073044,0.371722150871511,-0.397421113649165,-0.397421113650941,0.682368817105258,-0.16543863683621,0.362179202388845,1.08674814654464,0.18637077444643,1.08674814654453,1.05940547549093,-0.19099368821138,1.17281666327353,0.363245897559136,NaN,0.877550760235019,0.724009661506848,-0.15494953675944,NaN,-0.241399212160972,NaN,-0.0483376909032662,NaN,0.585986551408742,NaN,NaN,0.0663226038635463,0.1430847200918,0.523011813941227,-0.0983557757864383,0.457159838395573,0.480393716362552,0.545365307725476,0.681444699573195,-0.186135456195973,0.832758389820862,0.83275838982404,NaN,NaN,0.178577895230498,NaN,0.170545209706028,-1.48890731469948,0.215029039356626,-0.0979461012227959,-0.0979461012228863,NaN,1.15431730327262,NaN
209.5104,0.478634623051319,-0.747888157432628,-0.0612186862455054,0.378217148035013,-0.409062659051345,-0.409062659053131,0.688940884815474,-0.165005370277942,0.366765122509606,1.08347600770264,0.174544761591577,1.08347600770252,1.06261357081839,-0.183923666397096,1.17928939043275,0.357497237406689,NaN,0.867740373742087,0.722195153997248,-0.157787012449618,NaN,-0.237427171173152,NaN,-0.0475494855111597,NaN,0.597126118120864,NaN,NaN,0.0745148355452016,0.143307664282882,0.507722184610211,-0.0923011435943388,0.44748260403387,0.485947712401662,0.556409031033592,0.691711073572234,-0.164859659420995,0.821404623569653,0.821404623572842,NaN,NaN,0.192691120891507,NaN,0.164279760651425,-1.51450364122909,0.247244807875075,-0.0995029268340272,-0.0995029268341125,NaN,1.15999286689965,NaN
209.6128,0.471983256974072,-0.75185143776438,-0.0720502567806113,0.384729570068242,-0.420575626122464,-0.420575626124261,0.695477751686506,-0.164718108559176,0.371248657124019,1.07968773026762,0.163003151585202,1.0796877302675,1.06502582059963,-0.176267023183047,1.18505032803941,0.3511610502486,NaN,0.857479980540593,0.719767821196772,-0.159979506092862,NaN,-0.233050469406426,NaN,-0.0467733530453266,NaN,0.607889432901952,NaN,NaN,0.082732200932477,0.144337018311028,0.492372184793799,-0.086075025235698,0.437938318616377,0.491479395126006,0.567199185538963,0.701830777523666,-0.142866671570567,0.80951107461761,0.809511074620809,NaN,NaN,0.206300232225544,NaN,0.158530174476669,-1.5389568203264,0.279975099568331,-0.101056588542217,-0.101056588542297,NaN,1.16581387566031,NaN
209.7152,0.465802158397787,-0.755376477480609,-0.0819874166125253,0.39122421145712,-0.43193098048983,-0.431930980491637,0.70194772574346,-0.164565679835929,0.375614874453544,1.07536823321229,0.151773592990506,1.07536823321216,1.06661239745807,-0.168014390184039,1.19006797995018,0.344217938366657,NaN,0.84675561724387,0.71671613659802,-0.161535465201701,NaN,-0.228277595765264,NaN,-0.0460105018606334,NaN,0.618259230194837,NaN,NaN,0.0909647022577866,0.146169475726637,0.476956134357316,-0.079674376774246,0.428524308613109,0.49698121747806,0.577732959423305,0.711796006489174,-0.120195451471053,0.797067532573224,0.797067532576437,NaN,NaN,0.219349425384224,NaN,0.153296485211176,-1.56224054128406,0.313166408589351,-0.102609135792526,-0.102609135792601,NaN,1.17175292766582,NaN
209.8176,0.460080967552429,-0.758473815523497,-0.0910505891064018,0.397665397257621,-0.443100603333099,-0.443100603334916,0.708318141365718,-0.164535575528786,0.379848922092766,1.07050257859544,0.140882179640593,1.0705025785953,1.06734463800547,-0.15915910559317,1.19431118502454,0.336648963976769,NaN,0.835552569627363,0.713028706272824,-0.162468533376739,NaN,-0.223119136299394,NaN,-0.0452621410038482,NaN,0.6282193638461,NaN,NaN,0.0992015491368172,0.148799399452397,0.461468737377581,-0.0730972276231551,0.419237075284603,0.502444783992624,0.588007998597005,0.72159846809309,-0.0968879171512527,0.784064847783598,0.78406484778682,NaN,NaN,0.231784741979484,NaN,0.148576028115533,-1.58433167605537,0.346763228148735,-0.104163283738549,-0.104163283738618,NaN,1.17778033563079,NaN
209.92,0.454806538125129,-0.761154992817565,-0.099264199667422,0.404017109361515,-0.45405748517876,-0.454057485180586,0.714555429355811,-0.164614059127216,0.38393601446982,1.06507603938294,0.130353304926498,1.0650760393828,1.06719518692241,-0.149697314583422,1.19774924820324,0.328435632603098,NaN,0.823855430638768,0.708694293135231,-0.162797297537245,NaN,-0.2175876752682,NaN,-0.0445294477947364,NaN,0.637754787093758,NaN,NaN,0.107431209076684,0.152218778104781,0.44590508256801,-0.0663426595538873,0.410072319491221,0.507860787785071,0.598022360901579,0.731229306109025,-0.0729888779207679,0.770495003969501,0.770495003972741,NaN,NaN,0.2435542006734,NaN,0.144363568608997,-1.6052102609463,0.380708099591944,-0.105722306521111,-0.105722306521175,NaN,1.18386428402782,NaN
210.0224,0.449962978556767,-0.763432473503703,-0.106656564419186,0.410243093200929,-0.464775933716811,-0.464775933718642,0.720625191842873,-0.164786290224026,0.387861415258721,1.05907418263104,0.12020954593642,1.05907418263089,1.06613813660668,-0.139628057474246,1.200352071048,0.31955985472614,NaN,0.811648151910305,0.703701831381849,-0.162544954208628,NaN,-0.21169768444892,NaN,-0.043813536846613,NaN,0.646851498170807,NaN,NaN,0.115641463499157,0.156417175725778,0.43026064359748,-0.0594107752232606,0.401024978542908,0.513218937486401,0.60777445556435,0.740679008105275,-0.0485459682627868,0.756351181493401,0.756351181496663,NaN,NaN,0.254607896335099,NaN,0.140651429431359,-1.62485947716472,0.414941654981665,-0.107289945091543,-0.107289945091602,NaN,1.18997100171051,NaN
210.1248,0.445531693564171,-0.765319561352751,-0.113259774701507,0.416306966467118,-0.475231800787216,-0.47523180078905,0.726492282482955,-0.165036453654973,0.391610420533574,1.05248297023226,0.110471569613041,1.0524829702321,1.06414916654577,-0.128953342952069,1.20209028766526,0.310003886571562,NaN,0.798914084267328,0.698040439248614,-0.161738912939729,NaN,-0.205465408140547,NaN,-0.0431154383188593,NaN,0.655496463050576,NaN,NaN,0.123819466496032,0.161381674224397,0.414531286393744,-0.052302657199128,0.392089281696885,0.518507875467821,0.617262972228791,0.749937300464302,-0.0236095840018999,0.741627820070284,0.741627820073563,NaN,NaN,0.264898081685359,NaN,0.137429621653642,-1.64326562013079,0.449402654870209,-0.10887032001684,-0.108870320016893,NaN,1.19606494385038,NaN
210.2272,0.441491421670505,-0.766830305025538,-0.119109577057171,0.4221723490773,-0.485402714137464,-0.485402714139301,0.73212089074861,-0.165347880646936,0.395168348958568,1.04528887855956,0.101158049895779,1.04528887855939,1.06120568850116,-0.117678197628092,1.20293541650169,0.299750267195225,NaN,0.785636014718666,0.691699448508533,-0.160410374070024,NaN,-0.198908748531557,NaN,-0.0424360899063211,NaN,0.663677528645469,NaN,NaN,0.131951815694063,0.167096814390246,0.398713282178278,-0.0450203144228934,0.383258826485625,0.523715098920886,0.626486811133257,0.758993046397929,0.00176718942753942,0.726320688248602,0.726320688251891,NaN,NaN,0.274379244817244,NaN,0.134685987633532,-1.66041804793457,0.48402803154116,-0.110467833466762,-0.110467833466812,NaN,1.20210897594044,NaN
210.3296,0.437818278665466,-0.76797938956312,-0.124245235232359,0.427803027518349,-0.495268287051478,-0.495268287053317,0.73747463723245,-0.16570315887737,0.398520545276056,1.03747903384159,0.0922855929385044,1.03747903384141,1.05728700309117,-0.105810678876471,1.20286003956804,0.288781772249479,NaN,0.771796210294455,0.684668469613574,-0.158593906621035,NaN,-0.192047148037684,NaN,-0.0417763436836529,NaN,0.671383341325666,NaN,NaN,0.140024644421135,0.173544552960612,0.382803318445019,-0.0375666110988347,0.374526673180091,0.528826904436558,0.635445026870478,0.767834170696295,0.0275286763037881,0.710426967888994,0.710426967892293,NaN,NaN,0.283008189189276,NaN,0.132406358878723,-1.67630910477063,0.518752956392828,-0.11208705094804,-0.112087050948086,NaN,1.20806457420076,NaN
210.432,0.434485825527476,-0.768782014843655,-0.128709353596619,0.433163152975412,-0.504810281063884,-0.504810281065721,0.742516691708627,-0.166084241966593,0.40165239916943,1.02904135450798,0.083868673001436,1.0290413545078,1.05237446524673,-0.0933618447493781,1.20183800849043,0.277081398491259,NaN,0.757376479969531,0.676937496408269,-0.156327027682967,NaN,-0.18490145975171,NaN,-0.0411369835113382,NaN,0.678603281119934,NaN,NaN,0.148023729453311,0.18070425823131,0.366798502563225,-0.0299451818584409,0.365885447114961,0.533828377055753,0.644136789760988,0.776447630994562,0.05361675897535,0.693945352720678,0.693945352723984,NaN,NaN,0.29074411162583,NaN,0.130574723042888,-1.69093402419288,0.553510948582226,-0.113732565150605,-0.113732565150647,NaN,1.21389206474757,NaN
210.5344,0.431465171516635,-0.769253766590817,-0.132547654280458,0.438217455363356,-0.514012718774723,-0.514012718776559,0.74720991158971,-0.166472563038293,0.404549375426015,1.01996469362734,0.0759195784269094,1.01996469362715,1.04645164180625,-0.0803456884602204,1.19984465485092,0.264632382320298,NaN,0.742358264386321,0.668497032686781,-0.153649780669872,NaN,-0.177493803847971,NaN,-0.0405187439674065,NaN,0.685327412210614,NaN,NaN,0.155934601550141,0.188552753767323,0.350696360040087,-0.0221603478212931,0.357327434141487,0.538703424145842,0.652561358796118,0.784819432811361,0.079971081712976,0.676876145201342,0.676876145204658,NaN,NaN,0.297548666265387,NaN,0.129173386961495,-1.70429082800481,0.588234026254356,-0.115408856663648,-0.115408856663685,NaN,1.21955090241737,NaN
210.6368,0.428725108296794,-0.769410489911816,-0.135808720886486,0.442931444671547,-0.522861965551582,-0.522861965553417,0.751516982978502,-0.166849140841349,0.407197049846978,1.01023898201278,0.0684483642332417,1.01023898201259,1.03950444114578,-0.0667790566360163,1.19685697384304,0.251418244801102,NaN,0.726722758356868,0.659338214364611,-0.150604316645801,NaN,-0.169847416578687,NaN,-0.0399223233066011,NaN,0.691546442383617,NaN,NaN,0.16374265136662,0.197064398372596,0.334494838042594,-0.0142170502256621,0.348844661447565,0.543434827439607,0.660718056745465,0.792934661051042,0.106529291657326,0.659221335061293,0.659221335064627,NaN,NaN,0.303386006712157,NaN,0.128183125926687,-1.71638023773222,0.622852883151894,-0.117120168405124,-0.117120168405158,NaN,1.22499996679216,NaN
210.7392,0.426232265589993,-0.769268175179118,-0.138543727620722,0.44727157376963,-0.531346795533742,-0.531346795535575,0.755400552390513,-0.16719466778342,0.409581148777463,0.999855371611754,0.0614628071108623,0.999855371611555,1.03152120738263,-0.0526815710367602,1.19285376494498,0.237422854526902,NaN,0.710451068018472,0.649452912581321,-0.147234490696492,NaN,-0.161986501071052,NaN,-0.0393483888536281,NaN,0.697251682329682,NaN,NaN,0.171433228965857,0.206211178389764,0.318192327464716,-0.0061208126944792,0.340428965422335,0.548004282030349,0.66860624230633,0.800777498974681,0.133227285483483,0.640984655732223,0.640984655735567,NaN,NaN,0.308222812527788,NaN,0.127583322888965,-1.72720560144844,0.657297068445646,-0.118870396025157,-0.118870396025188,NaN,1.23019784599065,NaN
210.8416,0.423951278219242,-0.768842861026137,-0.140806169326454,0.451205353776997,-0.539458444970713,-0.539458444972542,0.758823352553874,-0.167489583858078,0.411687592355881,0.988806369016724,0.0549683597688542,0.988806369016518,1.02249278202239,-0.0380755595855483,1.18781573075291,0.22263050573157,NaN,0.693524398034058,0.638833818042835,-0.143585497298009,NaN,-0.153936090211567,NaN,-0.038797577934119,NaN,0.702435001432665,NaN,NaN,0.178991739075195,0.215962792273626,0.301787708838145,0.00212226554040169,0.332072049657938,0.552392407883277,0.676225281067945,0.808331223311197,0.159999438204541,0.622171622737837,0.622171622741192,NaN,NaN,0.312028315124377,NaN,0.127352109830893,-1.73677282614908,0.691495155697181,-0.120662982103985,-0.120662982104014,NaN,1.23510308741695,NaN
210.944,0.421844952102411,-0.768150552429757,-0.142651604994337,0.454701434184234,-0.547190658707038,-0.547190658708866,0.76174832909791,-0.16771414401354,0.413502541903747,0.977085947618966,0.0489681088809814,0.977085947618753,1.01241253708565,-0.0229859860669178,1.18172554278578,0.207026011653539,NaN,0.675924254590451,0.627474514312954,-0.139703562786858,NaN,-0.145721929794102,NaN,-0.0382704988282832,NaN,0.707088784915206,NaN,NaN,0.186403737033418,0.226286720169087,0.285280416413452,0.0105054928541411,0.323765535472842,0.556578735846577,0.683574520115334,0.815578179618746,0.186778806848071,0.602789556138578,0.602789556141937,NaN,NaN,0.31477433551086,NaN,0.12746651921519,-1.74509030685647,0.725374897359024,-0.122500804873684,-0.122500804873712,NaN,1.2396744238444,NaN
211.0464,0.41987442209455,-0.767207146191941,-0.144137416615585,0.457729671593338,-0.554539737347744,-0.554539737349574,0.764138770510136,-0.167848475212455,0.415012455063062,0.964689639583289,0.0434627479018316,0.964689639583069,1.00127638776412,-0.00744036436807047,1.17456788912219,0.190594809954547,NaN,0.65763264931334,0.615369551247598,-0.135635677792503,NaN,-0.137370377926335,NaN,-0.0377677355875893,NaN,0.711205899238305,NaN,NaN,0.193655028576271,0.237148284032449,0.268670510961131,0.0190215589605082,0.315501010959282,0.560541681269825,0.690653268294335,0.822499750009668,0.213497315902534,0.582847588155041,0.58284758815841,NaN,NaN,0.316435340881721,NaN,0.127902645688203,-1.75216884776353,0.758863371768832,-0.124386064620466,-0.124386064620493,NaN,1.24387101510371,NaN
211.1488,0.417999307747328,-0.766028353489371,-0.145322568031226,0.460261211525111,-0.561504577065089,-0.561504577066918,0.765958445967483,-0.16787261396241,0.416204156724579,0.951614620646944,0.0384505720592819,0.951614620646719,0.989082800249275,0.00853134286871492,1.16632952231447,0.173323066645923,NaN,0.63863229482487,0.602514526305617,-0.131429320853289,NaN,-0.128908299677,NaN,-0.0372898599777123,NaN,0.714779669151083,NaN,NaN,0.200731772374837,0.248510714938501,0.251958757979171,0.0276625107592266,0.307270088389476,0.564258526652621,0.697460780558019,0.829076330575531,0.240085942586057,0.562356662678855,0.562356662682223,NaN,NaN,0.316988524124126,NaN,0.128635816205573,-1.75802157060722,0.791887139229002,-0.126320177271594,-0.126320177271623,NaN,1.24765274118975,NaN
211.2512,0.41617787957256,-0.764629610992026,-0.146267342467045,0.4622686013445,-0.56808668170635,-0.568086681708181,0.76717176220673,-0.167766525866855,0.417064932299787,0.93785979841373,0.0339274910264629,0.937859798413499,0.975832808718426,0.0248968241824264,1.15699931753211,0.155197756602801,NaN,0.618906787637558,0.58890616950671,-0.127132128831217,NaN,-0.120362930699212,NaN,-0.0368374520116392,NaN,0.717803869192926,NaN,NaN,0.207620578565723,0.260335249440091,0.235146715253364,0.0364197329106639,0.29906447731948,0.567705436080921,0.703996246132224,0.835287337642414,0.266474924793003,0.541329535826676,0.541329535830055,NaN,NaN,0.316413905914388,NaN,0.129640767581856,-1.76266380693204,0.824372424141558,-0.128303681882961,-0.128303681882989,NaN,1.25098054492713,NaN
211.3536,0.414367239926612,-0.763025978342652,-0.147033052249421,0.463725938454448,-0.574290139818046,-0.574290139819879,0.767743948294618,-0.167510120562746,0.417582641963437,0.923425900594182,0.0298870484689147,0.923425900593946,0.96153003966228,0.0416215028559795,1.14656833308444,0.136206711863877,NaN,0.598440781332504,0.574542419944602,-0.122791507434126,NaN,-0.111761701023054,NaN,-0.036411125893297,NaN,0.720272735969359,NaN,NaN,0.214308592224108,0.272581264844548,0.218236828616684,0.0452839313720064,0.290876070082683,0.570857515411275,0.710258783755136,0.841111256312802,0.292594004807042,0.519780776793004,0.519780776796397,NaN,NaN,0.314694452502847,NaN,0.130891827793262,-1.76611297749928,0.856245326900873,-0.130336163896832,-0.130336163896861,NaN,1.25381679193976,NaN
211.456,0.412523507109432,-0.761232027799861,-0.147681738468168,0.464609039830409,-0.580121584573498,-0.580121584575333,0.767641265156249,-0.167083273067929,0.417745847816455,0.908315549696839,0.0263204430991161,0.908315549696596,0.946180724586257,0.058668608672798,1.13502985276258,0.11633865400135,NaN,0.577220154733566,0.559422484593434,-0.118454218241472,NaN,-0.103132039946079,NaN,-0.0360115551617435,NaN,0.722181007666147,NaN,NaN,0.22078355849099,0.28520643870072,0.201232522468236,0.0542451201643861,0.282697025306912,0.573688911423862,0.71624744616522,0.846525726651926,0.318372698911102,0.49772675732864,0.497726757332049,NaN,NaN,0.31181619994282,NaN,0.132363092954403,-1.768388469016,0.887432052105546,-0.132416194687458,-0.132416194687489,NaN,1.25612561477038,NaN
211.5584,0.410601986103781,-0.759261736712494,-0.14827588822154,0.464895607922078,-0.585590160853246,-0.58559016085508,0.766831226467995,-0.166465851509791,0.417543945116822,0.892533315855808,0.0232165542862837,0.89253331585556,0.929793680741549,0.0759992554136798,1.12237939277991,0.0955832345464049,NaN,0.555232170588828,0.543546876128825,-0.114165994432297,NaN,-0.094501198239859,NaN,-0.0356394930250527,NaN,0.723523990539688,NaN,NaN,0.227033879924449,0.298166905559501,0.184138270706748,0.0632926132447154,0.27451983596073,0.576172922476835,0.721961231352276,0.851507643017216,0.343740565727444,0.475185620405073,0.475185620408493,NaN,NaN,0.307768379641087,NaN,0.134028592106504,-1.76951151884774,0.917859133021115,-0.134541287865071,-0.134541287865104,NaN,1.25787322763909,NaN
211.6608,0.408557320007645,-0.757128392439354,-0.148878184067788,0.464565370046887,-0.590707504932425,-0.590707504934258,0.765282814488645,-0.165637744208877,0.416967290508557,0.876085747773229,0.0205619794263639,0.876085747772976,0.912380252873669,0.0935725394963229,1.10861467094766,0.073931097084714,NaN,0.532465614496707,0.526917430720214,-0.109971214377942,NaN,-0.0858961116100615,NaN,-0.035295787254856,NaN,0.7242976425395,NaN,NaN,0.233048677289458,0.311417393134227,0.166959642627753,0.0724150245074324,0.266337379484071,0.578282096340893,0.727399095796754,0.856033243538836,0.368627448785761,0.452177226670647,0.452177226674081,NaN,NaN,0.302543543705854,NaN,0.135862436324093,-1.76950511296058,0.947453638241775,-0.1367078713894,-0.136707871389433,NaN,1.25902821433039,NaN
211.7632,0.4063436294861,-0.754844514900195,-0.14955128152487,0.463600178430197,-0.595487722890545,-0.595487722892378,0.762966677155964,-0.164578879690674,0.416007321677098,0.858981381181089,0.0183410938498826,0.858981381180833,0.893954222092542,0.11134566738877,1.09373554817833,0.0513739620756522,NaN,0.50891090770816,0.509537309543486,-0.105912623773205,NaN,-0.0773433065772548,NaN,-0.0349813896910674,NaN,0.724498657631796,NaN,NaN,0.238817854206414,0.324911335462686,0.149703322165251,0.0816002814022918,0.258142954597437,0.579988312551699,0.732559966347773,0.860078185809884,0.392963683012003,0.428723080777235,0.428723080780688,NaN,NaN,0.296137686847064,NaN,0.137838953800911,-1.76839389609312,0.976143356824535,-0.138911272820628,-0.13891127282066,NaN,1.2595617932464,NaN
211.8656,0.403914653117996,-0.752421796675301,-0.15035759982681,0.461984071102981,-0.599947348826009,-0.599947348827841,0.759855300768175,-0.163269238294003,0.41465666539136,0.84123072374453,0.0165361417201603,0.84123072374427,0.874531694445438,0.129274111426351,1.07774395696982,0.0279047251487028,NaN,0.484560192084886,0.491410988087112,-0.102031075847993,NaN,-0.0688688368469223,NaN,-0.0346973592093099,NaN,0.724124536395772,NaN,NaN,0.244332159309164,0.338600972144698,0.132377098158477,0.090835658694809,0.24993030982581,0.581262857804455,0.737442749832467,0.863617615544111,0.416680269146718,0.404846241572035,0.404846241575497,NaN,NaN,0.288550360176136,NaN,0.139932816077689,-1.76620408643559,1.0038569688628,-0.141145714440066,-0.141145714440098,NaN,1.25944806304678,NaN
211.968,0.401223900196841,-0.749871053734186,-0.151359107086762,0.459703310361279,-0.604105266988531,-0.604105266990361,0.755923162040803,-0.161688858934876,0.41290923451449,0.822846220530998,0.0151273497964673,0.822846220530735,0.854130984495282,0.147311789741748,1.06064383322601,0.0035175568186571,NaN,0.459407388653908,0.472544237708415,-0.0983652624473781,NaN,-0.0604982336615961,NaN,-0.0344448557965556,NaN,0.723173638679654,NaN,NaN,0.24958324243164,0.352437447998765,0.114989824596882,0.100107838333618,0.241693669511066,0.582076501768118,0.742046341154286,0.866626234827284,0.439709033755808,0.380571222369024,0.380571222372493,NaN,NaN,0.279784776736348,NaN,0.142119157379622,-1.76296338138574,1.03052421909747,-0.143404317027774,-0.143404317027807,NaN,1.25866423590685,NaN
212.0704,0.398224821552455,-0.747202174355549,-0.152617083379675,0.456746427786799,-0.607982588072627,-0.607982588074454,0.751146867446844,-0.159817845403522,0.41076031684797,0.803842207489242,0.0140930414153333,0.803842207488975,0.832772508933967,0.165411269759098,1.0424410688776,-0.0217920001793187,NaN,0.43344823439132,0.45294410770072,-0.0949514237888771,NaN,-0.052256452415788,NaN,-0.0342251237498003,NaN,0.721645224181234,NaN,NaN,0.254563709383985,0.366370925519983,0.0975513523866715,0.109402999440064,0.233427763655424,0.582399585448743,0.746369632944076,0.869078381772936,0.461982801429213,0.355923885868117,0.355923885871583,NaN,NaN,0.26984791210801,NaN,0.144373681986929,-1.75870084278114,1.05607611437176,-0.145679113472607,-0.145679113472642,NaN,1.25719086405816,NaN
212.1728,0.394870996082369,-0.744424057278441,-0.154191857096339,0.453104295694154,-0.611602478977058,-0.611602478978883,0.745505284270826,-0.157636374857979,0.408206657299925,0.784234860275329,0.0134097350998229,0.78423486027506,0.810478698777582,0.183523997236487,1.02314349611137,-0.0480269300917055,NaN,0.406680303883935,0.432618917335894,-0.0918230484540822,NaN,-0.0441678052649179,NaN,-0.0340394626556629,NaN,0.719539491018707,NaN,NaN,0.259267180336566,0.380350716314097,0.0800724416590165,0.118706933620505,0.22512786588121,0.582202140103162,0.750411533930075,0.870948140430112,0.483435600049675,0.330931331928876,0.330931331932336,NaN,NaN,0.258750595947976,NaN,0.146672754246474,-1.75344676128156,1.08044515355101,-0.147961071252226,-0.147961071252263,NaN,1.25501205231796,NaN
212.2752,0.391116325382584,-0.741544543410652,-0.156142526792274,0.448770214894225,-0.614989955380479,-0.6149899553823,0.738979660975328,-0.155124709502123,0.405246531252641,0.764042143867821,0.0130522316802289,0.764042143867549,0.787273925460107,0.201600547445014,1.00276089639761,-0.075188629585645,NaN,0.379103023937072,0.411578260705309,-0.089010606433762,NaN,-0.0362558852664034,NaN,-0.0338891841839915,NaN,0.716857621001188,NaN,NaN,0.263688344687337,0.394325429145869,0.0625646769560272,0.12800516467793,0.216789839635952,0.581454044789828,0.754171004668975,0.872209492143253,0.504002899006987,0.305621772500801,0.305621772504255,NaN,NaN,0.246507577716817,NaN,0.148993471450912,-1.7472325134258,1.10356557840504,-0.150240120075478,-0.150240120075518,NaN,1.25211563237824,NaN
212.3776,0.386915229427524,-0.738570356938196,-0.158526689486784,0.443739986309857,-0.618171653561668,-0.618171653563491,0.731553731569077,-0.152263210427045,0.40187980616606,0.743283764575353,0.012993705860741,0.743283764575078,0.763184426211383,0.219590890916968,0.981305014240385,-0.103276768288479,NaN,0.350717689883253,0.389833020154722,-0.0865413711626264,NaN,-0.0285434966655659,NaN,-0.0337755548226968,NaN,0.71360183474311,NaN,NaN,0.267822996199288,0.408243125176419,0.0450404103063891,0.137283045490901,0.208410188377617,0.580125212028104,0.757647113538642,0.872836500914134,0.523621860332904,0.280024393446165,0.280024393449605,NaN,NaN,0.233137547468663,NaN,0.151313724649572,-1.74009042917024,1.1253736246025,-0.152505183187534,-0.152505183187577,NaN,1.24849327047511,NaN
212.48,0.382222843914809,-0.735507071274221,-0.161400187270913,0.438011936719775,-0.621175593061396,-0.621175593063216,0.723213802117802,-0.149032353380394,0.398107990314082,0.721981123960774,0.0132058155651469,0.721981123960497,0.738238217874221,0.237444669472393,0.958789561258924,-0.132289117922422,NaN,0.321527492512116,0.367395384300243,-0.0844393605366462,NaN,-0.0210525991802904,NaN,-0.033699729969827,NaN,0.709775453496977,NaN,NaN,0.271668038295415,0.422051471831305,0.0275127381989299,0.146525821815278,0.199986104420879,0.578185784158122,0.760839107496005,0.872803515261756,0.542231580686483,0.254169209463715,0.254169209467148,NaN,NaN,0.21866310230985,NaN,0.153612256527892,-1.73205367666582,1.14580775917919,-0.154744211687793,-0.154744211687839,NaN,1.24414049125676,NaN
212.5824,0.37699522817897,-0.732359106142709,-0.16481686716432,0.4315868847811,-0.624030925268418,-0.62403092527024,0.713948821651937,-0.145412750673913,0.393934267865695,0.700157272118242,0.0136588297730808,0.700157272117963,0.712464999057702,0.255111482533024,0.93523021048262,-0.162221354274991,NaN,0.29153756356468,0.344278870513649,-0.0827253875075111,NaN,-0.0138042640427866,NaN,-0.0336626866002128,NaN,0.705382962899299,NaN,NaN,0.27522146429676,0.435697891465364,0.00999549468340648,0.155718675937183,0.191515512029406,0.575606329262161,0.763746489004025,0.872085372819897,0.559773313713657,0.228086916709234,0.228086916712645,NaN,NaN,0.203110660855814,NaN,0.155868724721985,-1.72315615663886,1.1648089030491,-0.156944217795212,-0.156944217795259,NaN,1.23905661447262,NaN
212.6848,0.37118959011667,-0.729129751982943,-0.168828343749761,0.424468053867469,-0.626767658014313,-0.626767658016135,0.703750440218507,-0.141385183160608,0.389363520000551,0.677836854218438,0.0143217647116768,0.677836854218159,0.685896046285091,0.272541182310372,0.910644586973581,-0.193066848229464,NaN,0.260755039437683,0.320498352015919,-0.0814171912491534,NaN,-0.00681863817775221,NaN,-0.0336651590108123,NaN,0.700430076067986,NaN,NaN,0.278482326124422,0.449129705650119,-0.00749676197464026,0.164846767751257,0.182997100481888,0.572358030180702,0.766369093169081,0.870657599195969,0.57619067431857,0.201808748069083,0.201808748072462,NaN,NaN,0.18651033571061,NaN,0.158063768569144,-1.71343239628736,1.18232064628962,-0.159091305744174,-0.159091305744223,NaN,1.23324461417514,NaN
212.7872,0.364764523886055,-0.72582121064985,-0.17348376045964,0.416660961092208,-0.629416363282647,-0.629416363284468,0.692613057110761,-0.136930640205486,0.384402335191895,0.65504604786453,0.0151625189937739,0.655046047864249,0.658564111485419,0.289684171764468,0.885052261087416,-0.224816466872695,NaN,0.229189131695382,0.296070088162779,-0.0805296177170602,NaN,-0.000114913827119651,NaN,-0.0337075800955826,NaN,0.694923794563445,NaN,NaN,0.281450698568621,0.462294285216956,-0.0249487773623823,0.173895280008344,0.174430345892876,0.568412862935915,0.768707164061264,0.868496597452391,0.591429836603103,0.175366342915526,0.175366342918879,NaN,NaN,0.168895775681457,NaN,0.160179068063756,-1.70291743970342,1.19828946991924,-0.161170708239311,-0.16117070823936,NaN,1.22671092537819,NaN
212.8896,0.357680252342867,-0.722434641149894,-0.178829549543236,0.408173318589938,-0.632007885349335,-0.632007885351158,0.680533864712702,-0.132030363907242,0.379059014283765,0.631812495099046,0.0161480072335941,0.631812495098765,0.630503327907872,0.306491702517545,0.858474751621287,-0.257458395365921,NaN,0.196851195236283,0.27101176051409,-0.0800748294891712,NaN,0.00628869894999743,NaN,-0.033790030800272,NaN,0.68887246678737,NaN,NaN,0.284127636700064,0.475139223476639,-0.0423446398385279,0.182849467464063,0.165815525707138,0.563743775227571,0.770761435018689,0.865579839656944,0.605439744460986,0.148791641855592,0.14879164185892,NaN,NaN,0.150303983568516,NaN,0.162197386493198,-1.69164673767056,1.21266498742748,-0.163166837959122,-0.163166837959172,NaN,1.21946523180809,NaN
212.992,0.349898871104709,-0.718970207236462,-0.184909191685101,0.399014961081586,-0.634573052777424,-0.634573052779248,0.667512892549799,-0.126665897167296,0.373343573620888,0.608165228837682,0.0172442968652026,0.6081652288374,0.601749124030094,0.322916179792527,0.830935541045081,-0.290977974072701,NaN,0.163754794544354,0.245342518996886,-0.080062549721255,NaN,0.0123749936546175,NaN,-0.0339122001351426,NaN,0.682285846227624,NaN,NaN,0.286515127398351,0.487612541575621,-0.0596678272978922,0.191694710852611,0.157153730221083,0.558324888824558,0.772533220106004,0.861886084279813,0.618172348446941,0.12211680272,0.122116802723313,NaN,NaN,0.130775106545857,NaN,0.164102594759723,-1.67965604239425,1.22540020934383,-0.165063356311494,-0.165063356311546,NaN,1.2115202589456,NaN
213.0944,0.341384592284682,-0.715427131743397,-0.191762981484663,0.389197783936149,-0.637142387295637,-0.637142387297462,0.65355304963256,-0.12081913665461,0.367267744396662,0.584134586397707,0.0184167507329579,0.584134586397427,0.572338134501832,0.338911479728983,0.802460091973847,-0.325357542364474,NaN,0.12991576686416,0.219083032669884,-0.080500354519335,NaN,0.0181277737072745,NaN,-0.0340733565045378,NaN,0.675175150172128,NaN,NaN,0.288616046124021,0.499662913766606,-0.0769012632858647,0.200416578240666,0.148446872451575,0.552131736040677,0.774024517542517,0.857395628472093,0.629582862565763,0.0953741213074508,0.0953741213107447,NaN,NaN,0.110352194586504,NaN,0.165879676626775,-1.66698131373358,1.236451819978,-0.166843257161818,-0.166843257161872,NaN,1.20289157757621,NaN
213.1968,0.33210398155473,-0.711803762635897,-0.19942781009882,0.378735667188444,-0.639745813301213,-0.639745813303043,0.638660158577763,-0.11447239116143,0.360844963637383,0.559752102849641,0.0196301770736697,0.559752102849363,0.542308096118841,0.354433273047313,0.773075848461777,-0.360576290272995,NaN,0.0953522732063716,0.192255532075157,-0.0813940035076813,NaN,0.0235318378048099,NaN,-0.0342723315509745,NaN,0.667553112811782,NaN,NaN,0.29043413308455,0.511239885609871,-0.0940273897375593,0.209000899278919,0.13969769480565,0.545141516374118,0.775238116433662,0.852090579075833,0.639630016319178,0.0685959446903601,0.0685959446936367,NaN,NaN,0.0890809305065712,NaN,0.167514713922362,-1.6536586410885,1.24578044846826,-0.168488964641502,-0.168488964641556,NaN,1.19359741460867,NaN
213.2992,0.322026182101592,-0.708097651894002,-0.207936973316538,0.367644373010922,-0.642412382190647,-0.642412382192482,0.622842976551495,-0.107608443757395,0.354090354404172,0.53505038103087,0.0208489928677856,0.535050381030595,0.511697723273895,0.369439345489224,0.742812211931914,-0.396610131151829,NaN,0.0600848253094277,0.164883832103566,-0.082747773721851,NaN,0.0285729441206555,NaN,-0.0345075196514848,NaN,0.659434026280808,NaN,NaN,0.291973994353671,0.522294065882097,-0.111028272100067,0.217433861604881,0.13090976607214,0.537333352576592,0.776177696137419,0.845955119439747,0.648276276455496,0.0418145849133171,0.0418145849165796,NaN,NaN,0.0670093421313562,NaN,0.168994851126009,-1.63972418200578,1.2533509217699,-0.169982448104002,-0.169982448104055,NaN,1.1836584694994,NaN
213.4016,0.311123124950005,-0.70430564695839,-0.217320005446242,0.355941416013776,-0.645170021916829,-0.64517002191867,0.606113201342912,-0.100210612196315,0.347020697096554,0.510062942810212,0.0220374085942907,0.51006294280994,0.480546561921753,0.383889906487891,0.711700487344695,-0.433431616607863,NaN,0.0241362803530958,0.136993324921984,-0.0845647644126439,NaN,0.0332377577149243,NaN,-0.034776894160921,NaN,0.65083377023258,NaN,NaN,0.293241117152089,0.5327772973007,-0.127885748364852,0.225702132929631,0.122087460242436,0.528688527174695,0.776847912635127,0.838975753140429,0.655488025274661,0.0150622564882484,0.0150622564914961,NaN,NaN,0.0441875051564495,NaN,0.170308238453647,-1.62521411763283,1.25913249711879,-0.171305359685393,-0.171305359685447,NaN,1.17309773371418,NaN
213.504,0.299369730215069,-0.700423993591961,-0.227602532866103,0.343645910693298,-0.648045313003844,-0.648045313005689,0.588485463903153,-0.0922628024380848,0.339654395523908,0.484824074821443,0.0231596381470166,0.484824074821173,0.448894825461495,0.397747876714071,0.679773800034941,-0.471009910674021,NaN,-0.0124681936362572,0.108610935255654,-0.0868471551669292,NaN,0.0375137905560692,NaN,-0.035078037536704,NaN,0.641769833673842,NaN,NaN,0.294241880040623,0.542642829187347,-0.144581615093029,0.233793002419563,0.113235917305709,0.519190683607231,0.777254471579312,0.831141511039926,0.661235696326838,-0.0116289411926686,-0.0116289411894359,NaN,NaN,0.0206672407206105,NaN,0.17144395546839,-1.61016462115547,1.2630990780906,-0.172439195648565,-0.172439195648622,NaN,1.16194030969264,NaN
