time,S1-D1,S1-D8,S1-D9,S1-D15,S2-D1,S2-D2,S2-D3,S2-D9,S3-D1,S3-D2,S3-D16,S4-D2,S4-D3,S4-D5,S5-D3,S5-D4,S5-D5,S6-D2,S6-D5,S6-D17,S7-D6,S7-D7,S8-D6,S8-D7,S8-D18,S9-D3,S9-D4,S9-D9,S9-D11,S9-D19,S10-D8,S10-D9,S10-D10,S10-D11,S11-D8,S11-D10,S11-D20,S12-D10,S12-D11,S12-D12,S13-D4,S13-D11,S13-D12,S14-D10,S14-D12,S14-D21,S15-D13,S15-D14,S16-D13,S16-D14,S16-D22
106.2912,1.73093489887439,1.38998928326043,2.39668832513025,-0.836930849290035,0.690416670203519,0.690416670204016,0.102542072600222,-0.615000926868519,-0.441191536310736,1.15636432505363,-2.42902454302621,1.15636432505465,1.62500761601162,1.14271131572773,2.03428733831296,1.40164760059251,-0.269800385828354,1.75205243801479,1.3592159003394,-2.05720955958465,1.35921590033913,2.54970045595543,-1.01462417467791,2.36607785717295,-0.0712562618160752,1.22619969773174,1.22619969773148,-0.262980245697007,0.262980245696822,-0.0812733042201108,-2.37025946781185,-1.37286526034458,NaN,-0.495794523189754,-0.79894269748059,-0.950356149725122,-1.306096547508,-0.833455543185887,-0.833455543186268,0.316411987793997,-0.666295780960376,-0.230687679549683,1.04240973602759,-0.118912443687086,1.6082996364936,-0.710752545484103,-1.64831578524703,-1.64831578524602,0.246428701100992,-0.246428701103544,-0.124047522988727
106.3936,1.71548801352865,1.44407120195424,2.42662145558861,-0.83745708714349,0.734033086001081,0.734033086001539,0.0720696274047117,-0.586107446706532,-0.443073633676223,1.15903173376516,-2.44808899860226,1.1590317337662,1.62984431848426,1.19377650313682,2.0685675373196,1.4008108448457,-0.224026051369884,1.80125652815582,1.35050041155697,-2.06378824061808,1.3505004115567,2.58015584945362,-0.981627449240016,2.46671908537498,-0.0740186348307968,1.28198143131535,1.28198143131515,-0.283698993624677,0.28369899362453,-0.0923949932993885,-2.39721291366009,-1.34375890561832,NaN,-0.504203259454956,-0.730732201406065,-0.911250124586234,-1.31394160472051,-0.745362369326584,-0.745362369327034,0.269084405731825,-0.638588060581585,-0.254211549896487,1.01350170172531,-0.126668549036702,1.54290359492742,-0.70806063747819,-1.64048995726498,-1.64048995726396,0.226896715305992,-0.226896715308534,-0.140196173439214
106.496,1.69851616867623,1.49731233859658,2.45473935615882,-0.837221843453714,0.776515785045282,0.776515785045704,0.0424125956541777,-0.558381552208502,-0.44524627941215,1.16140670195721,-2.4646373107965,1.16140670195828,1.63323578281554,1.24472668179214,2.10157221373442,1.40043113961314,-0.178685487816555,1.85065098369903,1.340295187529,-2.06929534976565,1.34029518752874,2.60831413340066,-0.946643749742531,2.56694981937856,-0.0763293710581559,1.33739656853764,1.3373965685375,-0.304042313159775,0.304042313159669,-0.103013874706102,-2.42160962077165,-1.31237433198911,NaN,-0.511592953112283,-0.662613229570458,-0.871361734267482,-1.32070866077603,-0.65744820212626,-0.657448202126778,0.22217624171413,-0.611385788195202,-0.277736555522341,0.984692069881199,-0.135011662409491,1.47657619064264,-0.705040467648172,-1.63214046781473,-1.6321404678137,0.208125933558473,-0.208125933561003,-0.156710100738898
106.5984,1.68015705240963,1.54958884097461,2.48105172233054,-0.836249978584319,0.817746487609628,0.817746487610003,0.0137006753060625,-0.531940322518855,-0.447696364745853,1.1635306437958,-2.47861135444317,1.16353064379691,1.6352375115363,1.29543727432244,2.1332739656026,1.40065115703661,-0.133966964562783,1.90023699077604,1.32862718945061,-2.07373180915265,1.32862718945034,2.63413956792817,-0.909779360886432,2.66654356549932,-0.0782094406588845,1.3922974103462,1.39229741034612,-0.323951717495406,0.323951717495345,-0.113078244106256,-2.44337647024644,-1.27872500928224,NaN,-0.517988896502971,-0.59483001165686,-0.830876892953392,-1.3264201664288,-0.570038206771242,-0.570038206771824,0.175863673878197,-0.584792759155087,-0.301175654567011,0.956106228048953,-0.143921179301009,1.40957655029648,-0.70174300567943,-1.62338459127987,-1.62338459127884,0.190223628924778,-0.1902236289273,-0.173574808647925
106.7008,1.66055208808851,1.60078560063291,2.50557785553924,-0.834570294904726,0.857617686984711,0.857617686985041,-0.0139447444864862,-0.506885666279696,-0.450404991212688,1.16544521372835,-2.48996085951144,1.16544521372949,1.63590840942804,1.34579070805163,2.16365238135167,1.40160698268511,-0.0900501289981008,1.95001560408322,1.31552784858617,-2.07710018322323,1.31552784858591,2.65759897256861,-0.871140260607063,2.76527833121317,-0.079683324232355,1.44654351381672,1.4465435138167,-0.343376257739351,0.343376257739338,-0.122539319732535,-2.46244650762496,-1.24282904133768,NaN,-0.523424067907071,-0.527615257471402,-0.78998010097726,-1.33109998370526,-0.483442158647554,-0.483442158648208,0.130318524005774,-0.558902089754023,-0.324437414907885,0.927862002141011,-0.153371063066409,1.34216073035008,-0.698220015055856,-1.61433831678275,-1.61433831678172,0.173288075908707,-0.17328807591122,-0.190773258947313
106.8032,1.63984580679548,1.65079695488279,2.52834672513367,-0.832215458042401,0.896033242100758,0.896033242101041,-0.0404114405072955,-0.483303633601754,-0.453347631369232,1.16719227198867,-2.49864398239669,1.16719227198986,1.63531029995422,1.39567703892195,2.19269400526636,1.40342704862478,-0.0471050564593917,1.99998723360018,1.30103299574819,-2.07940477833612,1.30103299574794,2.67866182217401,-0.830831678066751,2.86293748450881,-0.0807788292814346,1.50000247394779,1.50000247394783,-0.362273091032201,0.362273091032237,-0.131351421522611,-2.47875917699819,-1.20470899433328,NaN,-0.527939103636167,-0.461188953675406,-0.748853608970753,-1.33477334458704,-0.397952806703943,-0.397952806704657,0.0857067971371689,-0.53379580065664,-0.347427093601848,0.900068715699156,-0.163330058933767,1.27457966115621,-0.694523821802559,-1.60511595611964,-1.60511595611861,0.157407722711867,-0.157407722714371,-0.20828580671398
106.9056,1.61818525599539,1.69952711539239,2.54939684697572,-0.829221891715269,0.932908772413847,0.932908772414085,-0.0655970164168363,-0.461263972104264,-0.456494327556017,1.16881391211021,-2.50462783305878,1.16881391211147,1.6335074542125,1.44499425084728,2.2203921212227,1.40623122711823,-0.00529154391269961,2.05015109765085,1.28518276815144,-2.08065177085331,1.28518276815119,2.69730040040454,-0.788957920279246,2.95931027245481,-0.0815269026664056,1.55255043184253,1.55255043184263,-0.380607879810246,0.380607879810328,-0.139472052448975,-2.49226058294101,-1.1643917688978,NaN,-0.531582297198993,-0.395757502674095,-0.707676835546226,-1.33746683614536,-0.313844717255391,-0.313844717256168,0.0421872346007587,-0.509544651678127,-0.370047906029342,0.872826379676016,-0.173762007142787,1.20707713393722,-0.6907070855145,-1.5958298617684,-1.59582986176737,0.14266051118781,-0.142660511190304,-0.226090096769357
107.008,1.59571943265268,1.74689036174985,2.56877599932578,-0.825629640434014,0.968171875297419,0.968171875297611,-0.0894094054652093,-0.440819899117878,-0.459809938049934,1.17035252403493,-2.50788893751722,1.17035252403624,1.63056612561939,1.49364827834003,2.24674637734148,1.4101300774628,0.0352413778821989,2.100504659169,1.26802149092338,-2.08084934786106,1.26802149092314,2.71348999709524,-0.74562241562703,3.05419206053876,-0.0819614366391476,1.60407234735324,1.6040723473534,-0.398355015966851,0.398355015966982,-0.146861903643806,-2.50290377238311,-1.12190851332115,NaN,-0.534409600158746,-0.331513172589667,-0.666625996498367,-1.33920839692194,-0.231373546952017,-0.231373546952864,-9.00555361131057e-05,-0.486208191435821,-0.392202393292077,0.846225025780626,-0.184626232420562,1.13988789646423,-0.68682257192374,-1.58659022066486,-1.58659022066382,0.129113353461074,-0.129113353463556,-0.244160935019825
107.1104,1.57259871173642,1.79281105700618,2.58654079778543,-0.821482202626592,1.00176219464937,1.00176219464952,-0.111767253431207,-0.42200805016821,-0.463254430023479,1.17185086474087,-2.50841363333673,1.17185086474226,1.62655408448233,1.54155282447194,2.27176228935003,1.41522422494478,0.0743557646485205,2.15104307053225,1.2495975251459,-2.08000783905417,1.24959752514566,2.72720913482127,-0.700927908619644,3.14738437510856,-0.0821190666274478,1.65446209392919,1.6544620939294,-0.415497686637907,0.415497686638088,-0.153484805642655,-2.51064904009083,-1.07729457514017,NaN,-0.536484589509169,-0.268633791716425,-0.625873871401894,-1.34002731466597,-0.150775654351371,-0.150775654352274,-0.0409848466342787,-0.463834969335873,-0.413793802887705,0.82034418406701,-0.195877981510092,1.07323591184011,-0.682922928561906,-1.57750488577604,-1.57750488577501,0.116821761000239,-0.116821761002708,-0.262470156207441
107.2128,1.54897424162128,1.83722353082179,2.60275614272595,-0.81682633854682,1.03363136439508,1.03363136439518,-0.132600195455571,-0.404848570263256,-0.466783202421753,1.17335211783314,-2.50619839794803,1.1733521178346,1.62154015373186,1.58862904336342,2.29545066469068,1.42160384790349,0.111924963209691,2.20175864904142,1.22996307486456,-2.07813982270022,1.22996307486432,2.73843981038309,-0.654976738321225,3.23869483495501,-0.0820389602524482,1.70362242929354,1.70362242929379,-0.432027807607046,0.432027807607278,-0.159307642709774,-2.51546425697842,-1.03058948939347,NaN,-0.537878369650634,-0.207282618979652,-0.585589634910799,-1.33995421662245,-0.0722679612510053,-0.0722679612519717,-0.0803678956966999,-0.442462865459846,-0.434727423011394,0.795252503605385,-0.207468885339656,1.00733282239037,-0.679060466579932,-1.56867921352837,-1.56867921352735,0.10582961977588,-0.105829619778338,-0.280986511034416
107.3152,1.52499729221578,1.88007185708245,2.61749454910468,-0.811711856972817,1.06374284021433,1.06374284021439,-0.151849025522119,-0.389345330591597,-0.470347422625385,1.17489992954148,-2.50125009816839,1.17489992954302,1.61559374370349,1.63480514290605,2.31782697859965,1.42934824486284,0.14783374497598,2.25264039110114,1.20917396027431,-2.07526020235234,1.20917396027407,2.74716774098026,-0.607871145315069,3.32793704445689,-0.0817625986579611,1.75146488332944,1.75146488332975,-0.447945849533339,0.447945849533624,-0.164300243669765,-2.51732519936526,-0.981837000509029,NaN,-0.538669383164103,-0.147608345711243,-0.545938701201127,-1.33902104376263,0.00395200350270731,0.00395200350168548,-0.118121883695595,-0.422119512245996,-0.454911833988297,0.771007515427007,-0.219347430958144,0.942376645223413,-0.675286951063083,-1.5602158821173,-1.56021588211627,0.0961691004458433,-0.0961691004482898,-0.299675589532342
107.4176,1.50081856178311,1.92130954326936,2.63083537657374,-0.806191382790597,1.09207162757825,1.09207162757826,-0.16946575526273,-0.375486264523637,-0.473894368690973,1.17653841063574,-2.49358614336577,1.17653841063735,1.60878438091819,1.68001594790257,2.33891072173238,1.43852545511821,0.181978401678632,2.3036735229648,1.18728937664062,-2.07138626208082,1.18728937664039,2.75338260948967,-0.559713573168039,3.41493049414711,-0.0813335503626915,1.79790959121829,1.79790959121865,-0.463260578953927,0.463260578954265,-0.16843525922888,-2.51621584587106,-0.931085107813844,NaN,-0.538943111841009,-0.0897452060803205,-0.507082550890377,-1.33726100358784,0.077705925209702,0.0777059252086136,-0.154142187683186,-0.402822790199908,-0.474260056375076,0.747655533177617,-0.231459436966555,0.878550703232205,-0.671653400957785,-1.55221467467154,-1.55221467467052,0.0878606854888584,-0.0878606854912962,-0.318499790765554
107.52,1.47658746463082,1.96089914466908,2.64286398694113,-0.800320100525871,1.11860391744128,1.11860391744125,-0.18541356723362,-0.363243816880633,-0.477367776488912,1.17831208858726,-2.48323454015148,1.17831208858894,1.60118122905253,1.72420244698104,2.35872473165532,1.44919192306919,0.214266814633893,2.35483908627712,1.16437164961509,-2.06653770632584,1.16437164961485,2.75707830498701,-0.510606944685634,3.49950049427087,-0.0807972329418309,1.84288508713201,1.8428850871324,-0.477988728973832,0.477988728974224,-0.171688030500377,-2.51212862717135,-0.878386126862392,NaN,-0.538791661459093,-0.0338131783908095,-0.46917852302591,-1.33470849793221,0.148834420233516,0.148834420232358,-0.188337491955597,-0.384581380883229,-0.492690589266577,0.725231685729052,-0.243748538120557,0.81602277075525,-0.668209896552119,-1.54477222709306,-1.54477222709204,0.080913298072507,-0.0809132980749333,-0.337418344172693
107.6224,1.45245142273232,1.99881180727248,2.65367084959347,-0.794155462563737,1.14333663845247,1.1433366384524,-0.199666684748236,-0.352575503437043,-0.480708208579891,1.18026577811453,-2.47023386598364,1.18026577811627,1.59285258935135,1.76731133001291,2.37729450153961,1.4613922179957,0.244618481888864,2.40611355827813,1.14048597888249,-2.06073668136766,1.14048597888226,2.75825315150497,-0.460654899137278,3.58147815253298,-0.0802006529400448,1.88632806209182,1.88632806209224,-0.492154600285743,0.49215460028619,-0.174036448838321,-2.50506463894046,-0.823796771134726,NaN,-0.53831323053881,0.0200817352976157,-0.432379563864357,-1.33139902143152,0.217196654532148,0.217196654530908,-0.220630250683822,-0.367395372461235,-0.510128347033078,0.70376008375251,-0.25615669916522,0.75494439967832,-0.665005387131181,-1.53798175746741,-1.53798175746638,0.0753245332306265,-0.0753245332330427,-0.356387382773014
107.7248,1.42855517200498,2.03502673417389,2.66335059907653,-0.787756854213153,1.16627692259281,1.16627692259271,-0.21221018818621,-0.343424589536341,-0.483853478873499,1.18244433305043,-2.45463317538662,1.18244433305225,1.58386535092761,1.8092945118622,2.39464743889407,1.47515882456377,0.272964479482248,2.45746850283489,1.11570015605357,-2.05400777160748,1.11570015605333,2.75691011231837,-0.409961980145364,3.66070039266021,-0.0795921157991536,1.92818308228447,1.92818308228492,-0.50578958073328,0.50578958073378,-0.175460806092654,-2.49503382783666,-0.767378261542309,NaN,-0.537611459805586,0.071847147890879,-0.396833931981298,-1.32736902784006,0.282669846928231,0.282669846926916,-0.250957007894993,-0.351256929211265,-0.526505509385622,0.683254127736746,-0.268624780675902,0.695450396285237,-0.662087490793029,-1.53193279766518,-1.53193279766415,0.0710810032737681,-0.0710810032761782,-0.375360064725887
107.8272,1.40504008022054,2.06953056981603,2.67200103815625,-0.781185217067296,1.1874414744941,1.18744147449396,-0.223039794315795,-0.335720903052037,-0.486739160808683,1.18489226613301,-2.43649183465887,1.1848922661349,1.57428437023664,1.85010863661816,2.41081205357001,1.49051200591959,0.299247348775267,2.5088702461558,1.09008425238527,-2.046377969164,1.09008425238504,2.75305695539118,-0.358633767168474,3.7370100026191,-0.0790209045224413,1.96840226434956,1.96840226435003,-0.518931572844529,0.518931572845087,-0.175943636350534,-2.48205514100222,-0.709196463921305,NaN,-0.536794658562783,0.121403832220324,-0.362684864742682,-1.32265576453719,0.345148640532405,0.345148640531016,-0.27926857302734,-0.336151035022284,-0.541762291136712,0.663716959595577,-0.281093165616599,0.637658436238282,-0.65950228436711,-1.52671093783154,-1.52671093783051,0.0681588030651925,-0.0681588030675963,-0.39428673967089
107.9296,1.38204346376281,2.10231669851376,2.67972207382942,-0.774502638062939,1.20685583727349,1.20685583727331,-0.232161594008711,-0.329381791940629,-0.48929918384013,1.18765325089723,-2.41587927372855,1.18765325089919,1.56417178092941,1.88971456001636,2.42581707468533,1.50745973271933,0.323420916675195,2.56027957497717,1.06371028294373,-2.03787662072114,1.06371028294349,2.74670636698873,-0.30677694746376,3.81025569712876,-0.0785369316368689,2.00694490859839,2.00694490859888,-0.531624330281732,0.531624330282349,-0.175469551105086,-2.46615661583963,-0.649322049793986,NaN,-0.53597491006386,0.168685166415852,-0.330070211802665,-1.31729707663533,0.404544341670319,0.404544341668859,-0.305530047449608,-0.322056310270223,-0.555847626692829,0.645142051403145,-0.293502439857882,0.581668819045543,-0.657294085710027,-1.52239758454051,-1.52239758453948,0.0665240881719949,-0.0665240881743916,-0.413115157132603
108.032,1.35969788837838,2.13338445651924,2.68661457435471,-0.767771913518336,1.22455355391417,1.22455355391397,-0.239591732187218,-0.324313226522913,-0.491466504106211,1.19076952789184,-2.39287464337582,1.19076952789388,1.5535862436865,1.92807681224853,2.43969050579253,1.52599767482713,0.345450057236014,2.61165146179182,1.03665185678996,-2.02853535474757,1.03665185678973,2.73787600011644,-0.254499326146309,3.88029217739673,-0.07819037152324,2.04377709561777,2.04377709561828,-0.54391671597358,0.543916715974256,-0.174025068676697,-2.44737538425767,-0.587830666903886,NaN,-0.535267060973056,0.213636484515107,-0.299122036586375,-1.31133118275584,0.460784040697068,0.460784040695529,-0.329720701448245,-0.308945896872235,-0.568719764606294,0.627513913947542,-0.305794109948845,0.527564363021526,-0.655505230336098,-1.51906972548391,-1.51906972548287,0.0661337516898585,-0.066133751692252,-0.43179071412211
108.1344,1.33813045048362,2.16273827253881,2.69277915618548,-0.761056096388295,1.2405752377494,1.24057523774917,-0.245356016370709,-0.320411027869408,-0.493173821166699,1.19428124057321,-2.36756636207131,1.19428124057534,1.5425821563824,1.96516305208413,2.45245864175992,1.5461092565308,0.365310406399592,2.66293483132064,1.00898382036684,-2.01838798894003,1.0089838203666,2.72658845120321,-0.201909766017497,3.94698019112859,-0.0780312808169842,2.07887125717813,2.07887125717866,-0.555861904700874,0.555861904701612,-0.171598440583869,-2.4257575727951,-0.524803087315558,NaN,-0.534787604630949,0.25621435378673,-0.269966179299739,-1.30479642744184,0.513809650802767,0.513809650801157,-0.351833716511015,-0.296788393359775,-0.580346771912585,0.610808889582228,-0.317911329161383,0.475410432836298,-0.654175844466231,-1.5167996830625,-1.51679968306145,0.06693617984066,-0.0669361798430472,-0.450256740550756
108.2368,1.31746205644247,2.19038677969812,2.69831494731137,-0.754418029415375,1.25496759021476,1.25496759021451,-0.249489456582559,-0.317562173392735,-0.494354300979941,1.19822573471646,-2.34005154477979,1.19822573471867,1.53120886981766,2.00094353793899,2.46414510034003,1.56776577481366,0.382988052578597,2.71407239256149,0.980781896343223,-2.00747041466961,0.980781896342995,2.7128711779747,-0.149118044226904,4.01018663384085,-0.0781092121881618,2.11220573908995,2.11220573909048,-0.567516559645221,0.56751655964602,-0.168179484622134,-2.40135810236469,-0.460325292812514,NaN,-0.534653482422674,0.296385827735492,-0.242721768520194,-1.29773101874329,0.563576931148523,0.563576931146838,-0.371875825142102,-0.285548795050223,-0.590706943267912,0.594995979567797,-0.329799593518297,0.425255084147903,-0.653343617807823,-1.51565483581248,-1.51565483581144,0.0688720615681392,-0.0688720615705175,-0.468454824860452
108.3392,1.29780673164191,2.21634195887576,2.70331839760137,-0.747919861583703,1.26778242019283,1.26778242019255,-0.252035761684013,-0.315646109981498,-0.494942266997293,1.20263685725726,-2.31043533551439,1.20263685725956,1.51950996625241,2.03539065032967,2.47476993663443,1.59092657588478,0.398479230787478,2.76500055992351,0.95212231742707,-1.99582045465197,0.952122317426843,2.69675638699388,-0.0962346197281307,4.06978474577305,-0.0784728225244045,2.14376437624944,2.14376437624999,-0.578940008833767,0.578940008834628,-0.163759440749956,-2.37424041856561,-0.394488477138573,NaN,-0.534980840705457,0.334127740517751,-0.217500668002258,-1.29017276214754,0.610054570655059,0.610054570653294,-0.389866881111866,-0.275189382088554,-0.599789100623137,0.580037661662677,-0.341407375998338,0.37712930740146,-0.653043579235055,-1.5156972989327,-1.51569729893165,0.0718752293420931,-0.0718752293444638,-0.486325184569069
108.4416,1.27927098614361,2.24061836188525,2.70788219404959,-0.741622547362478,1.27907570932809,1.27907570932779,-0.253046827848027,-0.314536017290454,-0.49487384124915,1.20754428263304,-2.27883019119483,1.2075442826354,1.50752264272214,2.06847849016542,2.48434889000724,1.61553928402176,0.411790037867992,2.81564947408382,0.923081458438108,-1.98347769415892,0.923081458437882,2.67828091890814,-0.0433703232928736,4.12565442944617,-0.0791694754959292,2.17353609358925,2.17353609358981,-0.590193433689624,0.590193433690545,-0.158330864923637,-2.34447619182509,-0.32738897391299,NaN,-0.535883778254616,0.36942609184517,-0.194406854509372,-1.28215880383392,0.653223378936424,0.65322337893459,-0.405839377911017,-0.265670515011675,-0.607592768117161,0.565890675367782,-0.352686683982096,0.331047359183388,-0.653307878104407,-1.51698357195699,-1.51698357195595,0.0758735158022295,-0.0758735158045949,-0.50380708414532
108.544,1.26195324513682,2.26323243406257,2.71209430231022,-0.735585334460074,1.2889067408533,1.28890674085298,-0.252582244500269,-0.314099999773173,-0.49408753923502,1.21297288407447,-2.24535515992431,1.21297288407691,1.49527721992046,2.10018255512753,2.49289278214423,1.64154008434146,0.422936166129154,2.86594312197599,0.893735470300433,-1.97048328720171,0.893735470300206,2.65748615084937,0.00936400049560929,4.17768267112813,-0.080244841512563,2.20151453417253,2.20151453417311,-0.601339069308514,0.601339069309501,-0.151887568202556,-2.31214501243639,-0.259128129597005,NaN,-0.537473106733328,0.402275534246359,-0.173535737298436,-1.27372539592776,0.693075582345736,0.693075582343832,-0.419837918919355,-0.256951326563717,-0.614128216501397,0.552506772384057,-0.363593538130074,0.287007180243169,-0.654165574134614,-1.51956416883852,-1.51956416883747,0.0807896178102313,-0.0807896178125923,-0.520839296653128
108.6464,1.24594334008453,2.28420193151671,2.71603712771899,-0.729865249932994,1.29733728780537,1.29733728780504,-0.250708818507608,-0.314202217077084,-0.492524827620083,1.21894215988334,-2.21013516799162,1.21894215988585,1.48279678784097,2.13047947942721,2.50040706689778,1.66885407021499,0.431942636388537,2.91579955063203,0.864159911254306,-1.95687973392203,0.864159911254079,2.63441792528891,0.0618578640971934,4.2257640243501,-0.0817425020189506,2.22769770579093,2.22769770579152,-0.612439412503995,0.612439412505046,-0.144424599906048,-2.27733408476081,-0.189812131314167,NaN,-0.5398551379947,0.432678944919457,-0.154973442696576,-1.26490769377046,0.72961419145541,0.729614191453433,-0.431918636382211,-0.248990320942271,-0.6194163832944,0.539833436441501,-0.374088374668155,0.24499090377536,-0.655642439473616,-1.5234832433538,-1.52348324335276,0.0865419633667968,-0.0865419633691504,-0.537360600063998
108.7488,1.23132205791031,2.30354541883786,2.71978678280774,-0.724516596682528,1.30443084918392,1.30443084918357,-0.24750009506368,-0.314703973198767,-0.490130643376239,1.22546572424049,-2.1733003051489,1.22546572424306,1.47009699557977,2.15934681830574,2.50689152706523,1.69739566300394,0.438843510177513,2.96513116380773,0.834429367363077,-1.94271062470862,0.834429367362848,2.60912650560685,0.114001492477462,4.26980111057436,-0.0837035678246938,2.25208763543394,2.25208763543453,-0.623556438270251,0.623556438271368,-0.135938268886283,-2.24013790895973,-0.119551788756178,NaN,-0.543130511466896,0.460647053576298,-0.138796094064343,-1.25573959237914,0.762852406071498,0.76285240606946,-0.442148556020252,-0.241745898438816,-0.6234886800771,0.52781457271585,-0.384136369988525,0.20496545639604,-0.657760778394239,-1.52877821761032,-1.52877821760927,0.0930455768734463,-0.0930455768757954,-0.553310297373643
108.8512,1.21816075123148,2.32128183469303,2.72341245390729,-0.719590471269755,1.31025192679277,1.31025192679241,-0.243035849479914,-0.315464777092529,-0.486853862608219,1.23255087238877,-2.13498509637505,1.2325508723914,1.45718598527439,2.18676286365583,2.51234011001453,1.72706909929362,0.443681569104037,3.01384508111079,0.804617058792899,-1.9280203521545,0.804617058792668,2.581666554236,0.165686146514504,4.30970510379647,-0.0861663200268693,2.27469002482241,2.274690024823,-0.634750831707655,0.634750831708842,-0.126426195033124,-2.20065793433403,-0.0484622696204731,NaN,-0.547393079919713,0.486198102052563,-0.125069118666623,-1.2462536050058,0.792813041173688,0.792813041171585,-0.450604907950778,-0.235176816272275,-0.62638669629488,0.516391164318529,-0.393707685824479,0.16688325067098,-0.660539270790094,-1.5354794207617,-1.53547942076066,0.100212936134684,-0.100212936137028,-0.568628750094704
108.9536,1.2065210176128,2.33743011709638,2.7269758665978,-0.715134306056286,1.31486534543919,1.31486534543882,-0.237401539196879,-0.316343372820496,-0.482647707995547,1.24019822089793,-2.09532776351389,1.24019822090061,1.44406446182917,2.21270648296363,2.51674089056186,1.75776897405213,0.44650795239479,3.06184353282353,0.77479442620976,-1.91285379300532,0.774794426209527,2.55209712708403,0.216804409186369,4.34539618093483,-0.0891658761813518,2.29551390326446,2.29551390326505,-0.646081241265436,0.646081241266696,-0.115887382847301,-2.1590021809644,0.0233372058170104,NaN,-0.552728877654235,0.509357521934857,-0.113846610654334,-1.236480779022,0.819527967174239,0.819527967172081,-0.457374387848566,-0.229242588966817,-0.628161806076178,0.505501896522621,-0.402777641265414,0.130682958571971,-0.66399284232517,-1.5436097530464,-1.54360975304536,0.107954815331963,-0.107954815334302,-0.583257914217231
109.056,1.19645446213261,2.35200888151363,2.73053085565568,-0.71119143010584,1.318335624935,1.31833562493462,-0.230687724206361,-0.317198732072818,-0.477470095870107,1.24840140947603,-2.05446949206836,1.24840140947876,1.4307258850483,2.23715697554772,2.52007614635702,1.78938083242633,0.447381739733116,3.10902426557015,0.745030685309373,-1.89725595858162,0.745030685309138,2.52048167603015,0.267250438330689,4.37680393124025,-0.0927338792100529,2.31457127291915,2.31457127291973,-0.657603549295256,0.657603549296591,-0.104322312337714,-2.11528484621972,0.095723701368709,NaN,-0.559215193520187,0.530157620803768,-0.105170775066733,-1.22645063936231,0.843037550909297,0.843037550907081,-0.462552369915455,-0.223903833662877,-0.628874683934522,0.495083754638788,-0.41132682760914,0.0962903461603089,-0.668132559616445,-1.55318440063263,-1.55318440063159,0.116181114364214,-0.116181114366551,-0.597141867482153
109.1584,1.18800255708035,2.36503614354312,2.73412304369178,-0.707800643966665,1.3207264068964,1.32072640689601,-0.222989471241378,-0.317891010955214,-0.471283938103624,1.2571468439513,-2.01255371777943,1.25714684395408,1.41715676602623,2.26009393971493,2.52232252683472,1.82178181315617,0.446369465545587,3.15528094793269,0.715392339848937,-1.88127161149974,0.715392339848699,2.48688805270425,0.316920191767096,4.40386772337636,-0.0968982066833114,2.3318767400887,2.33187674008929,-0.669370147879572,0.669370147880983,-0.0917330477077873,-2.06962591846635,0.168570920748569,NaN,-0.566919759260396,0.548637263224801,-0.099071470919264,-1.21619115347954,0.863390073000903,0.863390072998633,-0.466242067964546,-0.219122570929651,-0.628594734296708,0.485072605326945,-0.419341183712817,0.0636191534707495,-0.672965547883829,-1.56421062668344,-1.5642106266824,0.124801682041415,-0.124801682043747,-0.610227319162032
109.2608,1.1811965971028,2.37652907814427,2.73778962099569,-0.70499581095283,1.32209992977759,1.3220999297772,-0.214405751376506,-0.318282482261019,-0.46405741699812,1.26641346444339,-1.96972543959279,1.26641346444622,1.40333704744725,2.28149714547206,2.52345129555759,1.85484135544869,0.443544558047738,3.20050358595879,0.685942651789796,-1.86494484863595,0.685942651789553,2.45138850814823,0.36571162970735,4.42653702961313,-0.101682701224775,2.34744712911441,2.34744712911499,-0.681429208741112,0.681429208742604,-0.0781233660036348,-2.02215080704088,0.24174956628755,NaN,-0.575900051620544,0.564841531390097,-0.0955658622801184,-1.20572871841509,0.880641098709204,0.880641098706886,-0.468553641762359,-0.214862489891293,-0.627399439195371,0.475403770039563,-0.426812041068911,0.0325720175213719,-0.678494930282619,-1.57668765167735,-1.5766876516763,0.133727141786139,-0.133727141788465,-0.622464097106213
109.3632,1.17605772959693,2.38650381058121,2.74155920740669,-0.702805473024195,1.3225165420791,1.32251654207871,-0.20503883226393,-0.318238451984982,-0.455764241828559,1.27617253407656,-1.9261305586268,1.27617253407943,1.38924055237912,2.30134641043818,2.52342863167731,1.88842197785323,0.438986708142142,3.24457896666055,0.656741075070017,-1.84831865353261,0.65674107506977,2.41405967800452,0.413524904793638,4.44477170750193,-0.107106925554823,2.36130108109327,2.36130108109383,-0.693823943824314,0.693823943825882,-0.0634989064220319,-1.97298998122784,0.315127682045004,NaN,-0.586202704206615,0.578821356762317,-0.094658179849101,-1.19508817251421,0.894852790919104,0.89485279091674,-0.46960325373991,-0.211089181059116,-0.625373631815208,0.466012592444401,-0.433736135630077,0.0030414472957898,-0.68471978938369,-1.59060662278302,-1.59060662278197,0.142869722425973,-0.142869722428296,-0.633805608903847
109.4656,1.17259703497726,2.39497523606636,2.7454517744803,-0.701252501279651,1.32203424524642,1.32203424524603,-0.194993663912682,-0.317628158817647,-0.446383884984688,1.28638745470875,-1.88191524231212,1.28638745471166,1.37483549159735,2.31962148089999,2.52221598334074,1.92238011899028,0.432781183021937,3.28739113103089,0.627842669328123,-1.83143442724377,0.627842669327874,2.37498253612591,0.460262556681406,4.45854223937723,-0.113185947102592,2.37345864413675,2.37345864413731,-0.706591865723301,0.70659186572495,-0.0478673392752351,-1.92227860376474,0.388570967359236,NaN,-0.597863028401248,0.590633117726424,-0.0963395958413015,-1.18429283273513,0.906093164195296,0.906093164192886,-0.469512087090754,-0.207770340799515,-0.62260870974066,0.456834996620462,-0.44011557906898,-0.0250891411779614,-0.691635151291547,-1.60595066531192,-1.60595066531087,0.15214408776593,-0.152144087768253,-0.644209273991274
109.568,1.17081563831241,2.40195686345405,2.749478610209,-0.700353792084338,1.32070826022389,1.32070826022351,-0.184377259579825,-0.316325645362137,-0.435901789363909,1.29701362307093,-1.83722531861653,1.29701362307387,1.36008502064724,2.33630192392694,2.5197704691983,1.9565670090576,0.425018103904459,3.32882185254181,0.599297520016842,-1.81433151332987,0.599297520016592,2.33424229911509,0.505829725608876,4.46782992545488,-0.119930156691784,2.38394086473527,2.38394086473583,-0.719764071884819,0.719764071886546,-0.0312385512052949,-1.87015614439531,0.461943056103515,NaN,-0.61090464433811,0.600338196186841,-0.100588217773682,-1.17336455693479,0.914435287059882,0.914435287057435,-0.468405336898108,-0.204875955268618,-0.619201805504121,0.447808034149663,-0.445957788738688,-0.0519443315698273,-0.699231992640731,-1.62269500556695,-1.62269500556589,0.161468150230375,-0.161468150232698,-0.65363692230711
109.6704,1.17070484365867,2.40746067799964,2.75364231581758,-0.700120020473886,1.3185906161668,1.31859061616642,-0.173298073495492,-0.314210582860295,-0.424309532790631,1.30799834767905,-1.79220570890476,1.30799834768202,1.34494784027218,2.35136703841157,2.51604532734964,1.99082953244836,0.415791709153908,3.36875108655155,0.571150196156542,-1.79704673774062,0.571150196156288,2.2919282707644,0.550134392299972,4.47262702503707,-0.127345124981359,2.39276939188704,2.3927693918876,-0.733364586076805,0.733364586078611,-0.0136248401765778,-1.81676595942184,0.535105766591101,NaN,-0.625339223060204,0.60800248763,-0.107369205788626,-1.1623238292284,0.919956451128164,0.91995645112569,-0.466411187109006,-0.202378467378714,-0.61525492973263,0.438870418674064,-0.451275380419972,-0.0776555660123979,-0.707497271443505,-1.6408071496412,-1.64080714964014,0.170763846298818,-0.170763846301142,-0.662055154459801
109.7728,1.17224629371661,2.41149702356684,2.75793683693657,-0.700555461447788,1.31572976921167,1.31572976921129,-0.161865371422945,-0.311169027400002,-0.411604926898373,1.31928085748473,-1.74699990261355,1.31928085748774,1.3293788418819,2.36479579327489,2.51099041800401,2.02501104840585,0.405199626420654,3.40705736829248,0.54343927608421,-1.77961398760379,0.543439276083952,2.24813362467611,0.593087649838046,4.47293685217426,-0.13543150138032,2.39996610703145,2.39996610703201,-0.747409790191594,0.747409790193482,0.00495888770666539,-1.76225482213771,0.607919337353758,NaN,-0.641166342809804,0.613695870793645,-0.116635011808241,-1.15118986468502,0.922737341330636,0.922737341328137,-0.463659790621117,-0.200252914376064,-0.610874093610234,0.429963038290351,-0.456086019887681,-0.102359965344718,-0.716413985167768,-1.66024709760626,-1.6602470976052,0.179957845917898,-0.179957845920228,-0.669435660012585
109.8752,1.1754121721453,2.41407451261927,2.76234754884532,-0.701657884348781,1.312170272252,1.31217027225163,-0.150188584838842,-0.30709408153254,-0.397792019819517,1.33079243990355,-1.70174946868108,1.33079243990656,1.31332981286976,2.37656680069908,2.50455279688351,2.05895215219188,0.393342180361723,3.4436181630851,0.516196966700361,-1.76206385556433,0.516196966700097,2.20295512989662,0.63460401828067,4.46877385063345,-0.1441849615362,2.40555279176731,2.40555279176785,-0.761907971803411,0.761907971805378,0.0244949263142998,-1.70677239277521,0.680242672662377,NaN,-0.65837346563939,0.617491660975027,-0.128325729414546,-1.13998072641838,0.922861256226354,0.92286125622383,-0.460282272643749,-0.198477006339711,-0.606168406251634,0.421029422055091,-0.460412214655857,-0.126199117466927,-0.725961261180145,-1.68096757128471,-1.68096757128364,0.18898216864803,-0.188982168650365,-0.675755493888954
109.9776,1.18016547682884,2.41519997554324,2.76685142633633,-0.703418515939629,1.30795252326027,1.3079525232599,-0.138376644288236,-0.301886433789711,-0.382880974987013,1.34245673503826,-1.65659359782625,1.34245673504126,1.2967502225876,2.38665833031886,2.49667738026592,2.09249137468576,0.38032175991528,3.47831019214233,0.489448831155026,-1.74442337646151,0.489448831154758,2.15649282780903,0.674601813976696,4.46016368027641,-0.153596207076179,2.40955083956498,2.40955083956551,-0.776859000744703,0.776859000746749,0.0449625862860556,-1.65047062913425,0.751933621089129,NaN,-0.676936038884835,0.6194660806268,-0.142369535489946,-1.12871344532557,0.920413428512318,0.920413428509776,-0.456409771686269,-0.197031116052859,-0.601249137068144,0.41201612970145,-0.464281023649404,-0.14931784624867,-0.736114482059156,-1.70291424077403,-1.70291424077296,0.197774690407523,-0.197774690409864,-0.680997313307564
110.08,1.18646038425462,2.41487845595328,2.7714173187526,-0.705822062319277,1.30311260732779,1.30311260732742,-0.126537301564816,-0.295454762747212,-0.366887823011207,1.35419018106051,-1.6116686733096,1.35419018106349,1.27958808763323,2.39504836591499,2.48730770145746,2.12546582838325,0.366242253140446,3.51100975444156,0.463213626300974,-1.72671587183111,0.463213626300701,2.10884967594824,0.713003568367078,4.44714333101148,-0.163651015455814,2.41198100947429,2.4119810094748,-0.792254132344086,0.79225413234621,0.0663380219074638,-1.59350315128029,0.822849300387826,NaN,-0.696817713494645,0.619697768798296,-0.158683202424681,-1.11740413547762,0.915480470842278,0.91548047083972,-0.452172517818579,-0.195898177933787,-0.596228740916125,0.402873046229984,-0.467723680273742,-0.171862984699291,-0.746845442365704,-1.72602594868671,-1.72602594868563,0.206279544433404,-0.20627954443575,-0.68514957721727
110.1824,1.19424269554374,2.41311324941729,2.77600632098472,-0.708846784757233,1.29768222234687,1.29768222234651,-0.114776462172846,-0.287716020714778,-0.349834118576133,1.36590256967342,-1.56710786676241,1.36590256967638,1.26179087379758,2.40171470002499,2.47638672034633,2.15771181451525,0.351208534834943,3.54159304989451,0.437503245680252,-1.70896088891604,0.437503245679974,2.06013118115728,0.749736463953815,4.4297612475924,-0.174330334434262,2.41286321609806,2.41286321609855,-0.808075922993591,0.808075922995791,0.0885940702058264,-1.5360245770952,0.89284647220075,NaN,-0.717970656268665,0.618267326909276,-0.177172663579411,-1.10606810616624,0.908149929791301,0.908149929788733,-0.44769893499193,-0.195063531473557,-0.591219861810532,0.393553590605341,-0.470775152504953,-0.193982180614685,-0.758122529890605,-1.75023494416961,-1.75023494416853,0.214447437535284,-0.214447437537635,-0.688206707618732
110.2848,1.20345032497456,2.40990597672345,2.78057220362813,-0.712464633355999,1.29168866298185,1.2916886629815,-0.103197550279834,-0.278595630797922,-0.331746551094654,1.37749765506748,-1.5230407525535,1.37749765507041,1.24330637220263,2.40663505730559,2.4638576284199,2.18906541236001,0.335325980536103,3.56993650554881,0.412322768159661,-1.69117418815505,0.412322768159379,2.01044503835727,0.784732744885378,4.40807742248779,-0.185610417795932,2.4122163536401,2.41221635364055,-0.824298243286309,0.824298243288589,0.11170010737826,-1.47818984520469,0.961781966196585,NaN,-0.740335931861233,0.615256885677264,-0.197733622253403,-1.09471997650601,0.898509898846366,0.898509898843783,-0.443114753657958,-0.194514764071567,-0.586334346133829,0.384014867922791,-0.473473679849605,-0.215822758060561,-0.769910925684865,-1.77546714476555,-1.77546714476448,0.222235906173521,-0.222235906175875,-0.690169209243553
110.3872,1.21401378524026,2.40525668340091,2.78506186090812,-0.716641446685766,1.28515484148378,1.28515484148343,-0.0919009186942638,-0.26802762665082,-0.312656545510817,1.38887377401808,-1.47959293545724,1.38887377402098,1.2240835037401,2.40978723824264,2.44966460593041,2.21936307406749,0.318699986054902,3.59591711594367,0.387670614442927,-1.67336772297111,0.387670614442641,1.95990078020366,0.817930070231427,4.38216341385998,-0.197463003184353,2.41005815783689,2.41005815783731,-0.840886382243098,0.84088638224546,0.135621929410383,-1.42015354044501,1.02951315093824,NaN,-0.763843942311009,0.610749681040543,-0.220252202232294,-1.08337379661891,0.886648639286553,0.88664863928396,-0.438542130180702,-0.194241597933115,-0.581682297963502,0.374217791659236,-0.475860319592485,-0.237530648903996,-0.782172820789933,-1.80164244108159,-1.80164244108052,0.229609524419059,-0.229609524421415,-0.691043742384906
110.4896,1.22585664172854,2.39916396223343,2.78941575266271,-0.721337225523519,1.27809933526971,1.27809933526936,-0.080983301989566,-0.255954749210915,-0.292599863945364,1.39992446698153,-1.43688568921766,1.39992446698438,1.20407303673085,2.41114927976397,2.43375351657072,2.24844224204083,0.30143548589241,3.6194128152143,0.363538809339485,-1.65554958031589,0.363538809339197,1.90860943822762,0.84927179395787,4.35210226394035,-0.209855535354429,2.40640511272003,2.4064051127204,-0.857797245397996,0.857797245400442,0.16032166325947,-1.36206922555476,1.09589844289156,NaN,-0.788414922981472,0.604829633571307,-0.244605642709635,-1.07204317553969,0.872654184616803,0.872654184614197,-0.434098782508678,-0.194235834257141,-0.57737119636184,0.364127182979501,-0.477978509787856,-0.259249396168239,-0.79486765053318,-1.82867504758102,-1.82867504757995,0.236540056154164,-0.236540056156525,-0.690843143724996
110.592,1.23889593404433,2.39162509979738,2.79356833981897,-0.726506485834841,1.27053645947358,1.27053645947324,-0.0705373004330786,-0.242328501827082,-0.27161619852822,1.41053911756896,-1.39503560358277,1.41053911757175,1.18322822717609,2.41069963288717,2.4160725475674,2.2761419957699,0.283636476317007,3.64030289739122,0.339913344603233,-1.63772388986318,0.339913344602943,1.85668320934163,0.878707173654089,4.31798831150531,-0.222751436960565,2.40127240822589,2.40127240822621,-0.87497965559651,0.874979655599036,0.185757714567018,-1.30408876416662,1.16079783999294,NaN,-0.813959499308816,0.597580932162338,-0.270663040695267,-1.06074141275598,0.856613940544169,0.856613940541552,-0.429897162951108,-0.194491333513816,-0.573505077732304,0.353711834679522,-0.479873632962659,-0.281119220876304,-0.80795234779277,-1.85647388893366,-1.8564738889326,0.243006530419362,-0.243006530421725,-0.689586390963535
110.6944,1.25304257990292,2.38263624867328,2.79744852620466,-0.732098688352686,1.26247636654729,1.26247636654695,-0.0606508840002597,-0.227109156678915,-0.249748739831787,1.42060363158241,-1.35415423703764,1.42060363158512,1.16150539946226,2.40841735698087,2.39657280986412,2.30230372848055,0.265405550769872,3.65846849387298,0.31677463721697,-1.61989072918043,0.31677463721668,1.80423511389081,0.906191525765584,4.27992690528885,-0.236110424647671,2.39467394995699,2.39467394995726,-0.892374763636245,0.89237476363885,0.211884757410538,-1.24636161579425,1.224073470294,NaN,-0.840379310914238,0.589087629170721,-0.298286141490497,-1.04948162752546,0.838614309999053,0.838614309996428,-0.426043696196052,-0.195003995316289,-0.570183781080491,0.342944522402156,-0.481592561838157,-0.303276147733777,-0.821381614204112,-1.88494300788116,-1.88494300788012,0.248995223026078,-0.248995223028443,-0.687298508675635
110.7968,1.26820178144677,2.37219262316005,2.80098012035523,-0.738058732501156,1.25392517317833,1.253925173178,-0.0514069178698853,-0.210265706743795,-0.227043717170987,1.430001159472,-1.31434777480236,1.43000115947463,1.13886447510019,2.40428232678331,2.37520890244504,2.32677184780133,0.246843447974251,3.67379310000899,0.294098072901096,-1.60204604650285,0.294098072900807,1.7513786378624,0.931686342365384,4.23803403087785,-0.249888864084372,2.38662241416746,2.38662241416767,-0.909916563235327,0.909916563238007,0.238653767930454,-1.1890340995961,1.28559015421462,NaN,-0.867567705674341,0.579433253069546,-0.327330175291659,-1.03827688060045,0.818740360111329,0.818740360108697,-0.422638107991768,-0.195771712181197,-0.567502260087005,0.331801957829666,-0.483183185971826,-0.325851196892136,-0.83510820470669,-1.91398199106528,-1.91398199106425,0.254499547298957,-0.254499547301327,-0.684010415743105
110.8992,1.28427345416644,2.36028871008979,2.80408232626377,-0.744327496150184,1.2448851088586,1.24488510885826,-0.0428827224179275,-0.1917757701174,-0.203549928124956,1.43861285003131,-1.27571669606866,1.43861285003385,1.11526944231888,2.39827544317988,2.35193942947144,2.34939448275658,0.228048612011169,3.68616312411454,0.271854609632549,-1.58418161673102,0.271854609632261,1.69822736458696,0.95515936826993,4.19243585752836,-0.264040155696836,2.37712933223165,2.37712933223179,-0.927532488075517,0.927532488078272,0.266012098141971,-1.13224864182946,1.34521597861665,NaN,-0.895410497548556,0.568700435300834,-0.357644737018503,-1.02714028657497,0.79707552538312,0.797075525380483,-0.419772857119695,-0.196794292572521,-0.565549970517405,0.320264694583974,-0.484693936166755,-0.348969654626887,-0.849083218707705,-1.94348642069665,-1.94348642069564,0.259519873087296,-0.259519873089668,-0.679758717873416
111.0016,1.30115269527858,2.34691848391207,2.80667026760161,-0.750842399610674,1.23535467877497,1.23535467877464,-0.0351496854241995,-0.171625462630994,-0.179318286672121,1.4463186194757,-1.2383554581022,1.44631861947816,1.09068875803853,2.39037883423957,2.32672745515652,2.37002417200341,0.209116774279115,3.6954684331721,0.250011401202105,-1.56628504565286,0.250011401201817,1.64489460287351,0.976584629638364,4.14326820156164,-0.278515141472246,2.36620518537886,2.36620518537895,-0.945144058301458,0.945144058304289,0.293903584103781,-1.07614303129962,1.40282287510002,NaN,-0.923786777790946,0.556970545730912,-0.389074704556305,-1.01608511588568,0.773701331435531,0.773701331432893,-0.417532671553503,-0.19807336508031,-0.564410343394152,0.308317001862817,-0.48617332928844,-0.372750439109973,-0.863256390951399,-1.973348361478,-1.97334836147701,0.26406329436187,-0.264063294364246,-0.67458545058365
111.104,1.31873029700339,2.33207562011343,2.80865554499118,-0.757537973541181,1.22532883725656,1.22532883725624,-0.0282729441314882,-0.149809252767143,-0.154401417586758,1.45299791829476,-1.20235220202123,1.45299791829715,1.06509568022756,2.38057603384784,2.299540887213,2.38851851812941,0.190140572328282,3.70160288953461,0.228532401256741,-1.54833982845154,0.228532401256454,1.59149301772358,0.995942405564535,4.09067590234371,-0.293262522520876,2.3538594958125,2.35385949581253,-0.962667543944787,0.962667543947693,0.322268684045613,-1.02084971046794,1.45828719613598,NaN,-0.952569769776725,0.544323338720469,-0.421461185959228,-1.00512488368469,0.748697125406257,0.748697125403619,-0.415994184974596,-0.199612284423325,-0.564160356904022,0.295946714734629,-0.487669552349018,-0.397305581075186,-0.877576376737033,-2.00345688559788,-2.0034568855969,0.268143361964987,-0.268143361967361,-0.668537778972749
111.2064,1.33689329518659,2.31575370782426,2.80994681968146,-0.764346419776986,1.21479916884404,1.21479916884372,-0.0223111498234973,-0.126329809370547,-0.128853317332418,1.45853047638906,-1.16778847584981,1.45853047639136,1.03846852956455,2.36885213279277,2.2703527849264,2.40474080912279,0.171209209289035,3.70446488435418,0.207378925480899,-1.53032545667406,0.207378925480611,1.53813427865406,1.0132191298049,4.03481211376511,-0.308229280077536,2.34010091098536,2.34010091098533,-0.980014622646809,0.980014622649791,0.351044642937282,-0.966495124693795,1.51149028977511,NaN,-0.981627715893062,0.530836613005483,-0.454642483887639,-0.994273424370745,0.722139803092533,0.722139803089903,-0.415225667543308,-0.201416058135859,-0.564870216338652,0.283145064614235,-0.489230094254455,-0.422739828980495,-0.891991029505582,-2.03369862868179,-2.03369862868083,0.27177979534441,-0.271779795346783,-0.661667660790231
111.3088,1.35552553626249,2.29794646403445,2.81045041249175,-0.771198166790288,1.20375407209625,1.20375407209594,-0.0173163158872775,-0.101197852447336,-0.102729091200162,1.46279701652595,-1.13473896748225,1.46279701652817,1.01079087817475,2.35519390646299,2.23914159245339,2.4185606125657,0.152408145027861,3.70395786608314,0.186510171708788,-1.51221756667876,0.1865101717085,1.48492874665813,1.0284072067097,3.97583751860056,-0.32336109844202,2.32493728686988,2.32493728686977,-0.997093024449479,0.997093024452533,0.380165679279978,-0.913199137809557,1.56231907355387,NaN,-1.01082478298501,0.516585880875212,-0.488455069137135,-0.983544954703472,0.694103529338519,0.694103529335907,-0.415286842310199,-0.203491300870609,-0.566603139308328,0.269906491859185,-0.4909014203698,-0.449150366143806,-0.906447671989079,-2.0639583620926,-2.06395836209165,0.274998177049756,-0.274998177052125,-0.654031477692216
111.4112,1.37450824815601,2.2786479487161,2.81007090646803,-0.778022427697347,1.19217894242192,1.19217894242162,-0.0133337384027586,-0.0744320163830164,-0.0760847650991531,1.46567994120946,-1.10327125025751,1.46567994121161,0.982051664227288,2.33958992961329,2.20589130252245,2.42985434351074,0.133818811033135,3.69999085664092,0.165883709919472,-1.4939881271713,0.165883709919185,1.43198520933973,1.04150473639165,3.91391947271791,-0.338602792244178,2.30837578033407,2.30837578033389,-1.01380716991584,1.01380716991897,0.409563189933583,-0.861074509127173,1.61066659822891,NaN,-1.04002197481662,0.50164403987452,-0.522734558273893,-0.972954129311687,0.664659456998364,0.664659456995777,-0.416228776086401,-0.205846213080134,-0.569415232781646,0.256228443571923,-0.492728678756392,-0.476626613461495,-0.92089336234726,-2.09411956804243,-2.0941195680415,0.277829620123826,-0.277829620126192,-0.645689636979198
111.5136,1.39372061026989,2.25785277802666,2.80871174735791,-0.784747764686883,1.18005635539192,1.18005635539163,-0.0104019763571283,-0.046058728972789,-0.0489771635619852,1.46706399844575,-1.07344555629142,1.46706399844783,0.952245229825971,2.32203069174399,2.1705915564141,2.43850580572039,0.115518349360416,3.69247895514123,0.145455950249394,-1.47560566412496,0.145455950249108,1.37941065381352,1.05251516616699,3.84923109016255,-0.353898738968971,2.29042296041391,2.29042296041366,-1.0300588141559,1.03005881415909,0.439165970509223,-0.810226424568286,1.65643258529753,NaN,-1.06907804316244,0.486081050029511,-0.55731668640485,-0.962516088896684,0.633875460000205,0.633875459997642,-0.418093833427766,-0.208490577633199,-0.573355445758483,0.242111164141952,-0.494755432674485,-0.505250094297646,-0.935275154268293,-2.12406501209759,-2.12406501209667,0.28031039684592,-0.28031039684828,-0.636706145972642
111.616,1.41304032977731,2.23555633458585,2.80627584664892,-0.791302653142884,1.1673662568458,1.16736625684552,-0.00855288816621262,-0.0161120996534498,-0.0214638453268869,1.46683691457154,-1.04531459631561,1.46683691457354,0.921371275265015,2.30250872643188,2.13323768233023,2.44440670591004,0.0975793810154915,3.68134383457952,0.125182587529343,-1.45703552042449,0.125182587529057,1.32731005752043,1.0614469022445,3.78195029253089,-0.369193311521894,2.27108494331405,2.27108494331372,-1.04574770575372,1.04574770575696,0.468900450548492,-0.7607520824753,1.69952392816894,NaN,-1.09785038982563,0.469963633730945,-0.592038257127468,-0.952246497747845,0.601815907816963,0.601815907814436,-0.420915688987584,-0.211435764575423,-0.578465585081503,0.227557490461472,-0.497023425194416,-0.535094351563654,-0.949540347397627,-2.15367731455828,-2.15367731455738,0.282481529306549,-0.282481529308909,-0.627148165548665
111.7184,1.43234423430067,2.21175497747671,2.80266619692529,-0.797616031281683,1.15408616434694,1.15408616434666,-0.00781173137062096,0.0153661923880084,0.00639690551032106,1.46488996481352,-1.0189234369877,1.46488996481546,0.889434719437838,2.28101876289551,2.09383066852611,2.44745713453908,0.0800698100218333,3.66651422892379,0.105019019361837,-1.43824014893497,0.105019019361553,1.27578618074061,1.06831291499478,3.71225885070355,-0.384431300183175,2.25036754936417,2.25036754936376,-1.0607722578576,1.06077225786091,0.49869094244264,-0.712740342222541,1.73985515670847,NaN,-1.12619594791261,0.453355018637034,-0.626738046238529,-0.942161568198268,0.568541512633139,0.568541512630644,-0.424719400979797,-0.214694731608057,-0.584780387022183,0.212572663165314,-0.499572386206649,-0.566224916398005,-0.963636724209591,-2.18283952133646,-2.18283952133557,0.28438835557774,-0.284388355580099,-0.617085555042808
111.8208,1.451508880725,2.18644625653073,2.79778650287078,-0.803617824912516,1.14019137692909,1.14019137692882,-0.00819732911493342,0.048327009642924,0.0345460290879964,1.4611184531309,-0.994309431978127,1.46111845313277,0.856445459725053,2.25755790099521,2.05237706634011,2.44756600025924,0.0630526688546849,3.64792639802173,0.0849207416532568,-1.41917943940636,0.0849207416529733,1.22493935013625,1.07313035877542,3.64034143587964,-0.399558314476593,2.22827647822247,2.22827647822198,-1.07503021922383,1.0750302192272,0.528459900936183,-0.66627144107047,1.77734886608112,NaN,-1.15397202578545,0.436314729725209,-0.661257641327851,-0.932278075232461,0.534109267819175,0.534109267816717,-0.429521545825143,-0.218282010696143,-0.592327636978461,0.197164161500997,-0.502439885365654,-0.59869932172937,-0.977512772629026,-2.21143566705016,-2.21143566704929,0.28608008806032,-0.286080088062673,-0.60659042246213
111.9232,1.47041117117576,2.15962913426257,2.79154182365515,-0.809239447621976,1.12565518594246,1.12565518594219,-0.00972229137651834,0.082713858517129,0.0629235831740161,1.45542209405204,-0.971502193117861,1.45542209405385,0.822418037334578,2.23212580765557,2.00888882691956,2.44465140481848,0.0465860111695494,3.62552455755289,0.0648437296603356,-1.39981107873906,0.0648437296600521,1.17486722558236,1.07592021983915,3.56638468948651,-0.414521161935469,2.20481750219446,2.20481750219389,-1.08841933503887,1.08841933504229,0.558128188475835,-0.621416775309992,1.81193610693164,NaN,-1.18103709973836,0.418898418566764,-0.695442213752792,-0.922613368962165,0.498572477095935,0.498572477093523,-0.435330405128289,-0.222213673933309,-0.601128323162107,0.181341566719073,-0.505661225068676,-0.632567141031297,-0.991117898058253,-2.23935131621908,-2.23935131621823,0.287609371671373,-0.287609371673717,-0.595736690614063
112.0256,1.48892896770323,2.13130421686284,2.78383922132374,-0.814414283790506,1.11044908259186,1.1104490825916,-0.0123932668164126,0.118462978599519,0.091468598365507,1.44770531722822,-0.950523588375527,1.44770531722995,0.787371228696037,2.20472493433963,1.96338308863538,2.43864094862541,0.0307228589519789,3.59926126755663,0.0447448089495412,-1.38009094047697,0.0447448089492595,1.1256645470281,1.07670700516004,3.49057632745404,-0.429268206402019,2.17999668153285,2.17999668153221,-1.10083799735667,1.10083799736015,0.587615341996352,-0.578238734714645,1.84355673595768,NaN,-1.20725155185075,0.401157712611925,-0.729141231680847,-0.913185392133238,0.461980863467081,0.461980863464724,-0.442146192480028,-0.226507270692147,-0.611196805726733,0.165116455729838,-0.509269362368789,-0.667870028317091,-1.00440263044656,-2.26647406965856,-2.26647406965773,0.289031840089832,-0.28903184009217,-0.584599684626093
112.128,1.50694169869692,2.10147399575014,2.77458841101299,-0.819078161204302,1.09454296351016,1.0945429635099,-0.0162112013758412,0.155503428207866,0.120118924125891,1.43787753679856,-0.931387759435015,1.43787753680021,0.751327592840916,2.17536075802288,1.91588194164099,2.42947196617355,0.0155112070669277,3.56909778164594,0.0245820153641225,-1.35997349593683,0.0245820153638417,1.07742286558256,1.07551847976043,3.41310429758715,-0.443749710206001,2.15382060734109,2.15382060734037,-1.11218589295051,1.11218589295403,0.616839837975814,-0.536790577249118,1.87215973095229,NaN,-1.23247836160474,0.383140076522733,-0.762209126692696,-0.904012704930285,0.424380748414844,0.424380748412529,-0.449961310774349,-0.231181728389878,-0.622540986127118,0.148502321709322,-0.5132948465999,-0.704641740330021,-1.01731883073311,-2.2926940311475,-2.29269403114668,0.290405667526108,-0.290405667528435,-0.573255742102248
112.2304,1.52433095215424,2.0701431009142,2.7637024102145,-0.823169811893577,1.07790534217871,1.07790534217845,-0.0211715883368751,0.193757187897874,0.148811097870794,1.4258534297441,-0.914101160300103,1.42585342974564,0.714313006515218,2.14404204814103,1.86641219756354,2.41709170598767,0.00099407523433406,3.53500436735711,0.00431493848832957,-1.33941223795504,0.00431493848804956,1.03023026881782,1.07238545067963,3.33415600270709,-0.457918161348982,2.12629667555508,2.12629667555428,-1.12236465554035,1.12236465554391,0.645719354582348,-0.497116335370275,1.89770347298644,NaN,-1.25658377016797,0.364888692833751,-0.794505924686211,-0.89511451215202,0.385815297797838,0.38581529779557,-0.458760636309998,-0.236257216538329,-0.635162472827547,0.13151451565899,-0.51776576225809,-0.742908131796518,-1.02981989679072,-2.3179042399015,-2.3179042399007,0.291791119895374,-0.291791119897693,-0.561781844618863
112.3328,1.54098105873154,2.03731856308738,2.75109818703972,-0.826631307377978,1.0605035767204,1.06050357672015,-0.0272647063214707,0.233139305644218,0.177480260702155,1.41155324325691,-0.898662625335564,1.41155324325835,0.676356211334457,2.11078115582927,1.81500518245605,2.401457479072,-0.0127904135630416,3.49696060956678,-0.0160949637956449,-1.31836010743264,-0.0160949637959231,0.984171109604921,1.06734159113986,3.2539175938147,-0.471728579618975,2.09743338618214,2.09743338618127,-1.13127851851491,1.1312785185185,0.674171032547407,-0.459250756373736,1.9201559922866,NaN,-1.27943793908522,0.346442378222888,-0.825897848096332,-0.886510682396713,0.346324831615158,0.346324831612938,-0.468521829567036,-0.241754989325388,-0.649056755549479,0.114170205237268,-0.522707677115059,-0.782687130167492,-1.0418609636763,-2.34200108294582,-2.34200108294503,0.293250118093346,-0.293250118095657,-0.550255269227927
112.4352,1.55677967304363,2.00301007662306,2.73669730769077,-0.829408448568075,1.04230411738796,1.04230411738771,-0.0344758507332289,0.273558092187474,0.206060122281121,1.39490311830718,-0.885063469485616,1.39490311830853,0.637488384160867,2.07559431057292,1.76169655353941,2.38253679293185,-0.0258089464607188,3.45495570186227,-0.0366840940970792,-1.29676991412188,-0.0366840940973549,0.939325742710956,1.06042329711822,3.1725733273989,-0.485138790969026,2.06724065006203,2.06724065006109,-1.13883495033003,1.13883495033365,0.702111737661457,-0.423219287046535,1.93949517122334,NaN,-1.30091561648298,0.327835544431979,-0.856257894180564,-0.87822175083709,0.30594718599638,0.305947185994212,-0.479215671654518,-0.247697235753687,-0.664213410494136,0.0964883501836896,-0.528143605391416,-0.823988709529811,-1.0533990916043,-2.36488470017426,-2.3648847001735,0.294845828705678,-0.294845828707983,-0.538753260790056
112.5376,1.57161835576477,1.96723025311441,2.72042657739664,-0.831451098981372,1.02327276577697,1.02327276577674,-0.0427855629157778,0.314915354792154,0.234482960913028,1.37583540577334,-0.873287608761637,1.37583540577459,0.597742734878101,2.03850190121321,1.70652612956902,2.36030747421127,-0.0380329329422598,3.40898872253639,-0.0574864909984839,-1.27459474903934,-0.0574864909987568,0.895770271782722,1.05166956426414,3.09030497165475,-0.498109663234233,2.03573008221013,2.03573008220911,-1.14494524976345,1.1449452497671,0.729458326123158,-0.389038108912717,1.95570889991904,NaN,-1.3208968126294,0.309098194875436,-0.885466396949574,-0.870268905266578,0.264718104859233,0.264718104857122,-0.490806424000726,-0.254106961440159,-0.680616353625319,0.0784896928023224,-0.534093993915162,-0.866814881292178,-1.06439343971093,-2.38645938151613,-2.3864593815154,0.296642286865163,-0.296642286867461,-0.527352727002674
112.64,1.58539314691434,1.92999485579098,2.70221865977011,-0.832713463837045,1.00337493461354,1.00337493461331,-0.0521698518922269,0.357106651909482,0.262679648239323,1.35428896813526,-0.863311685914524,1.35428896813643,0.557154140128147,1.99952871953333,1.64953772908686,2.33475777665634,-0.049438417048172,3.35906888915065,-0.0785336412955767,-1.25178839141124,-0.0785336412958458,0.853576313648453,1.04112186782619,3.00729124465626,-0.510605304122199,2.00291526759401,2.00291526759291,-1.14952508533811,1.14952508534178,0.756127911913132,-0.356714222336866,1.96879518321067,NaN,-1.33926748336216,0.29025593651569,-0.913411585303865,-0.862673960699068,0.222671633984333,0.222671633982286,-0.503252208700166,-0.261007905729911,-0.6982441424527,0.0601967591912669,-0.540576728715588,-0.911159704429031,-1.07480542858211,-2.40663394382757,-2.40663394382686,0.298704042765167,-0.298704042767461,-0.51612995549248
112.7424,1.5980051117099,1.89132300326693,2.68201265152756,-0.833154324724127,0.982575899900698,0.98257589990047,-0.0626003966060548,0.4000215569709,0.290579699005614,1.33020947919558,-0.855105199806092,1.33020947919666,0.515758825512259,1.95870415312948,1.59077901913069,2.30588647200969,-0.0600059922440548,3.30521578521333,-0.0998543168628829,-1.2283057124229,-0.0998543168631491,0.812810789824571,1.02882402597187,2.9237072685004,-0.522593226868971,1.96881199285227,1.96881199285108,-1.15249497331971,1.1524949733234,0.782038135157687,-0.326245573922945,1.97876219803106,NaN,-1.35592021931629,0.271329986397528,-0.939990149582726,-0.855459327425835,0.179840488941061,0.179840488939073,-0.516505400102121,-0.268424486088538,-0.717070310709753,0.0416338679309787,-0.547607152671038,-0.957009303410733,-1.08459889403629,-2.42532207757043,-2.42532207756976,0.301095822110321,-0.301095822112608,-0.505160348032522
112.8448,1.60936083752973,1.85123732912839,2.65975458573141,-0.832737240054698,0.960841037739624,0.960841037739405,-0.0740447152270793,0.443543921251879,0.318111349051889,1.30354973862363,-0.848630650963355,1.30354973862464,0.473594101829601,1.91606232447312,1.53030137722467,2.27370291938147,-0.0697207235846268,3.2474595473517,-0.121474427372668,-1.20410307501979,-0.12147442737293,0.773535750615553,1.01482202885305,2.83972401955078,-0.534044489253353,1.9334384423812,1.93343844237994,-1.15378069607449,1.15378069607819,0.807107430952182,-0.297621217510024,1.98562829833745,NaN,-1.37075493174061,0.252337156499787,-0.965107819932454,-0.848647975117513,0.136256368365877,0.136256368363953,-0.530513007798022,-0.276381762853656,-0.737063711114704,0.022827148585103,-0.555198085615557,-1.00434187351433,-1.09374023051452,-2.44244266395655,-2.4424426639559,0.3038821961157,-0.30388219611798,-0.494518163792741
112.9472,1.61937286409577,1.80976408636774,2.63539784138925,-0.831430718938065,0.938136040592892,0.938136040592675,-0.0864662905567153,0.487552126820423,0.345201663422561,1.27427001106801,-0.843843718115302,1.27427001106895,0.430698149941497,1.87164218251466,1.46815976589033,2.23822710322486,-0.0785720793597618,3.18584099613646,-0.143416884487649,-1.17913872650978,-0.143416884487906,0.735808226638594,0.999163825471965,2.75550775393944,-0.544933809963123,1.8968153625902,1.89681536258886,-1.15331367018706,1.15331367019076,0.831255298508635,-0.270821493440823,1.9894219630117,NaN,-1.383679516813,0.233289812376964,-0.988679944566141,-0.842263392244267,0.091950193710508,0.0919501937086461,-0.545217035750216,-0.28490541125345,-0.758188840868571,0.00380457616125762,-0.563359842614854,-1.05312765464124,-1.10219851913244,-2.45792006946628,-2.45792006946565,0.307127257392952,-0.307127257395225,-0.484276263075062
113.0496,1.62796004090783,1.76693319608752,2.60890345439914,-0.829208369199731,0.914427118745789,0.914427118745569,-0.0998246513491236,0.531919334293833,0.371776678840799,1.24233838739281,-0.840693474941349,1.24233838739368,0.387109843897732,1.82548755926726,1.40441261838569,2.19948962773157,-0.0865538669552106,3.12041169854703,-0.165701483565639,-1.15337317690917,-0.165701483565891,0.699680092320589,0.981899079777643,2.67121940245865,-0.55523966243355,1.85896620279094,1.85896620278953,-1.15103127840717,1.15103127841087,0.854402571714907,-0.245818213892323,1.99018168411053,NaN,-1.39461047920087,0.214195823753877,-1.01063203969686,-0.836329534865399,0.0469522801387193,0.0469522801369109,-0.560554822943305,-0.294021674871311,-0.780406134281823,-0.0154039762006082,-0.572100251402644,-1.10332887152108,-1.10994563497091,-2.47168442344504,-2.47168442344444,0.310894296622298,-0.310894296624561,-0.474505846450912
113.152,1.63504782299603,1.72277825274611,2.58024034777758,-0.826049011320438,0.889681204078737,0.889681204078517,-0.114075428235553,0.576513749070522,0.397761584533663,1.2077311509016,-0.839122649567106,1.2077311509024,0.342868604332726,1.77764720190107,1.339121735231,2.15753165540919,-0.0936641597973522,3.05123395865005,-0.188344817215763,-1.12676955522253,-0.188344817216008,0.665197926316865,0.963078925133149,2.58701395801728,-0.564944341826515,1.81991723946815,1.81991723946668,-1.14687717236506,1.14687717236875,0.876471692924233,-0.222574857556974,1.98795579993658,NaN,-1.40347350025496,0.195058542753815,-1.03090027494011,-0.830870756638913,0.00129246861309759,0.00129246861134815,-0.576459385794971,-0.303757277155618,-0.803672223270703,-0.0347666735973716,-0.581424674208904,-1.15489966294655,-1.11695633071571,-2.48367187845994,-2.48367187845937,0.315245477710801,-0.315245477713051,-0.46527619178501
113.2544,1.64056852290619,1.67733650283137,2.54938550790521,-0.821936747044688,0.863866171076365,0.86386617107615,-0.12917041478397,0.621198931164376,0.423080936218352,1.17043312170291,-0.839067921501349,1.17043312170366,0.298014279541459,1.72817478179803,1.27235219021624,2.11240477878657,-0.0999052023278874,2.97838073471128,-0.21136022766799,-1.09929394202262,-0.211360227668228,0.632402867475005,0.942755745014214,2.50303989820175,-0.574033999903129,1.77969768290476,1.77969768290323,-1.14080153870107,1.14080153870474,0.897386989576673,-0.201046792663021,1.98280228374473,NaN,-1.41020393828045,0.175876839109184,-1.0494318639603,-0.825911716651082,-0.0449997453042207,-0.0449997453059089,-0.592859777990709,-0.314139287628852,-0.827940178206768,-0.0542496581889588,-0.591336038146315,-1.20778603142664,-1.12320829766119,-2.49382484565912,-2.49382484565858,0.320241515527535,-0.320241515529773,-0.456654398714753
113.3568,1.64446152500931,1.63064880638832,2.51632411872445,-0.816860977123109,0.8369510754787,0.836951075478486,-0.145057656003644,0.665834155349739,0.447658889386002,1.13043795675554,-0.840460243112735,1.13043795675622,0.252587055928919,1.67712887432136,1.20417224360656,2.06417082078286,-0.105283286587794,2.90193548328685,-0.234757789700509,-1.07091568238568,-0.234757789700741,0.601330478180537,0.92098298848587,2.41943867519375,-0.582498646154682,1.7383397595292,1.7383397595276,-1.13276131566739,1.13276131567104,0.917074949364953,-0.181181550608257,1.97478849902691,NaN,-1.41474724743217,0.156645197948532,-1.06618534543825,-0.821477268405662,-0.0918950705129506,-0.0918950705145772,-0.609681466241172,-0.325194958702305,-0.853159740492617,-0.0738170006005579,-0.601834871979184,-1.2619258269486,-1.12868220707742,-2.50209219364066,-2.50209219364014,0.325941364422281,-0.32594136442451,-0.448705150369748
113.4592,1.64667345396912,1.58275957945986,2.48104964614577,-0.810816371487859,0.808906400649364,0.808906400649148,-0.161681565852366,0.710274812994977,0.471419443057839,1.08774839888105,-0.843225172246895,1.08774839888166,0.206627401326917,1.62457290288617,1.13465326166668,2.01290156645061,-0.109808596421683,2.82199193865111,-0.258544309799706,-1.04160768195498,-0.258544309799931,0.572010630384495,0.897815011043985,2.3363442819091,-0.590332118807223,1.6958787653929,1.69587876539124,-1.12272035502103,1.12272035502465,0.93546448773269,-0.16291916275366,1.96399092796033,NaN,-1.41705930528715,0.137353868152723,-1.08113075423009,-0.817592335848209,-0.139364275910323,-0.139364275911885,-0.626846706615762,-0.336951554112482,-0.879277548939197,-0.0934306673753172,-0.612919342002889,-1.31724875727495,-1.13336173450286,-2.50842940121742,-2.50842940121692,0.332401922755969,-0.332401922758185,-0.441490496135675
113.5616,1.64715828975006,1.53371671167659,2.44356386238791,-0.803802801815232,0.77970430447918,0.779704304478969,-0.178983059321191,0.754372847139603,0.494286699427436,1.04237648092706,-0.847283207687076,1.04237648092761,0.160176043670968,1.57057504640385,1.06386964403777,1.95867842891779,-0.113495015384587,2.73865383600731,-0.28272333039704,-1.01134668544228,-0.282723330397257,0.544467427599476,0.87330692777797,2.25388289424414,-0.597532033587355,1.65235309266912,1.65235309266742,-1.11064953531034,1.11064953531392,0.952487202746768,-0.146192557382536,1.9504948743873,NaN,-1.41710664752191,0.117989047060861,-1.09424969101869,-0.814281781267341,-0.187378057132389,-0.187378057133885,-0.644274905183143,-0.349436181947662,-0.906237354635389,-0.113050507181207,-0.624585278682113,-1.37367641381521,-1.13723356998326,-2.51279865769965,-2.51279865769917,0.339677750930955,-0.339677750933158,-0.435069654063778
113.664,1.64587743151603,1.48357145991458,2.40387681275846,-0.795825249558931,0.749318868416914,0.749318868416698,-0.196899680633534,0.79797721893865,0.516185154039016,0.99434369557758,-0.852550121018307,0.994343695578072,0.113273985583996,1.51520811570349,0.991898762741482,1.90159204979643,-0.116359900550785,2.65203457644937,-0.307295130993823,-0.9801135370915,-0.307295130994032,0.518719171926211,0.847514472485221,2.17217259340563,-0.604099720379243,1.60780423658569,1.60780423658395,-1.09652683958808,1.09652683959161,0.968077615209538,-0.13092800142967,1.93439414137283,NaN,-1.41486661396387,0.0985330917251532,-1.1055353006147,-0.811570268372308,-0.235906918535992,-0.235906918537428,-0.6618829533069,-0.362675633649368,-0.933980216072175,-0.1326342629801,-0.636826184949695,-1.43112230862493,-1.14028741988312,-2.51516890660843,-2.51516890660797,0.347820794280549,-0.347820794282734,-0.429498830593402
113.7664,1.64279971961451,1.43237832723024,2.36200673901528,-0.786893700464384,0.717726356395541,0.717726356395319,-0.215365716335686,0.840934409582949,0.537040029943816,0.943681140426051,-0.85893728133304,0.943681140426507,0.0659625533271638,1.45854940892375,0.918820917442704,1.84174183251723,-0.118423828235806,2.56225682480001,-0.332256718708556,-0.947893425508114,-0.332256718708759,0.494778379972175,0.820493862971825,2.09132317474927,-0.610040155977541,1.56227679192059,1.56227679191882,-1.08033741363318,1.08033741363666,0.982173395294919,-0.117045569448124,1.91579068808169,NaN,-1.41032741161723,0.0789647531814975,-1.11499216593263,-0.80948212162916,-0.284921060294808,-0.284921060296176,-0.679585532662563,-0.376696223737732,-0.962444665504863,-0.152137617437866,-0.64963321922803,-1.4894919222716,-1.14251600627566,-2.51551583361622,-2.51551583361578,0.356880101143544,-0.356880101145708,-0.424831055808185
113.8688,1.63790142581674,1.38019493541244,2.31797997352467,-0.777023027564728,0.684905492108547,0.684905492108315,-0.234312299035559,0.883088967265461,0.556777659032794,0.890429637399368,-0.866351982701822,0.890429637399793,0.0182834716025723,1.40068055492199,0.844719305214408,1.77923540150722,-0.119710308789378,2.46945203310078,-0.357601803386899,-0.914676116554337,-0.357601803387092,0.472651846161543,0.792301675402318,2.01143604536881,-0.615361893289672,1.51581844366205,1.51581844366024,-1.06207361865821,1.06207361866162,0.994715580747131,-0.104459632276531,1.89479427407096,NaN,-1.4034881017078,0.0592594395915023,-1.12263611952282,-0.80804117902647,-0.334390254219889,-0.334390254221192,-0.697295390312908,-0.391523624123983,-0.99156684193064,-0.171514268989506,-0.662995158492072,-1.5486827680295,-1.14391506408664,-2.51382180769516,-2.51382180769473,0.366901531496332,-0.366901531498478,-0.421116031840238
113.9712,1.63116621906858,1.32708189174673,2.27183081022328,-0.766232853239819,0.650837759079144,0.65083775907891,-0.253667525490437,0.924284110217489,0.57532589918624,0.834639804271236,-0.874697796725757,0.834639804271635,-0.0297210541310693,1.34168734605904,0.769679990287564,1.71418797254814,-0.120245455638607,2.37375988464435,-0.383320760600428,-0.880456174082998,-0.383320760600614,0.452340745440868,0.762994732410662,1.93260420547115,-0.620076978504318,1.46847994668983,1.46847994668801,-1.04173508104463,1.04173508104798,1.00564879333753,-0.0930793740686792,1.87152209670981,NaN,-1.39435852041672,0.0393895213889233,-1.12849397179935,-0.807270632300591,-0.384283698668888,-0.384283698670124,-0.714923595606098,-0.407182688902924,-1.02128059877142,-0.190716025905877,-0.676898362107748,-1.60858448917042,-1.14448332856516,-2.51007578956554,-2.51007578956512,0.377927460389648,-0.377927460391768,-0.418399991883146
114.0736,1.62258510946532,1.27310264556085,2.22360135103888,-0.754547377298491,0.615507721285226,0.615507721284979,-0.273356617061638,0.964362389452411,0.592614565692048,0.776372041847507,-0.883874967303098,0.776372041847879,-0.0780082670116356,1.28165955219483,0.693791852926066,1.64672162514772,-0.120057597522238,2.27532765732836,-0.409400595031085,-0.845233162151582,-0.409400595031263,0.433840760241181,0.732630013387598,1.85491230332377,-0.624200845649274,1.42031508210136,1.42031508209953,-1.01932872771558,1.01932872771885,1.01492145801033,-0.0828093537185587,1.84609842257985,NaN,-1.38295914127916,0.0193246877206668,-1.13260315629638,-0.807192850294433,-0.434569857164328,-0.434569857165496,-0.732379799152082,-0.42369726961866,-1.05151760588774,-0.20969290688662,-0.691326759466435,-1.66907901249009,-1.14422250415239,-2.50427321805904,-2.50427321805864,0.389996486740943,-0.389996486743041,-0.416725568920045
114.176,1.61215637179247,1.21832332807251,2.17334132379494,-0.741995166026875,0.578903354534169,0.578903354533914,-0.293302137292126,1.00316640179124,0.60857585578122,0.715696410867018,-0.893780851973088,0.715696410867371,-0.126534807889749,1.22069070300366,0.617146503030506,1.5769644972546,-0.119176847387201,2.17430952121509,-0.435824913806217,-0.809011824166016,-0.435824913806389,0.417142207659577,0.701264601220355,1.77843674902592,-0.627752182566901,1.37138057881256,1.37138057881072,-0.99486879220332,0.994868792206512,1.02248602531589,-0.0735501138524062,1.81865420183706,NaN,-1.36932087888671,-0.000967651548488605,-1.13501129552462,-0.807829187174794,-0.48521629444018,-0.48521629444128,-0.749572507056281,-0.441090025397997,-1.08220746224081,-0.228393244760655,-0.706261871790258,-1.73004077157945,-1.14313721066357,-2.49641587481566,-2.49641587481526,0.403143158498354,-0.403143158500425,-0.416131674296728
114.2784,1.59988545260123,1.16281256757551,2.12110786848657,-0.728608908465586,0.541016374715094,0.541016374714832,-0.313424263259719,1.04053953738839,0.623144755590103,0.652692399933759,-0.904310409950037,0.65269239993408,-0.175256679108461,1.15887782764047,0.539838156235764,1.50504995284743,-0.117634665843046,2.070865802427,-0.46257390298852,-0.771802245203376,-0.462573902988686,0.40223013452064,0.668955685162446,1.70324586801589,-0.630752768213883,1.32173599589544,1.32173599589359,-0.968376783428781,0.96837678343188,1.02829919494905,-0.0651988192988921,1.7893266379851,NaN,-1.35348482710412,-0.0215219379726173,-1.13577569511293,-0.809199782365833,-0.536189522054196,-0.536189522055229,-0.766409367677232,-0.459382232189459,-1.11327781997143,-0.246763795465176,-0.72168286395415,-1.7913369958415,-1.14123490823072,-2.48651171864543,-2.48651171864505,0.41739772257483,-0.41739772257687,-0.416653385439111
114.3808,1.58578486443013,1.10664127483138,2.06696529072802,-0.714425151773995,0.501842552401766,0.501842552401487,-0.333641097242639,1.0763267525076,0.636259433419538,0.587448607297031,-0.915356736943336,0.587448607297328,-0.224129210987327,1.09632114760872,0.461963480036591,1.4311157684801,-0.115463456415641,1.96516223972546,-0.489624288481637,-0.733620010565477,-0.489624288481797,0.389084352184225,0.635760637272239,1.62940007822296,-0.633227285523547,1.27144356845115,1.2714435684493,-0.939881418549713,0.939881418552718,1.03232213672567,-0.0576498990125955,1.75825868601289,NaN,-1.33550192807225,-0.042374032648005,-1.13496277790195,-0.811323359516021,-0.587454859471747,-0.58745485947271,-0.782797458979998,-0.47859359144274,-1.14465450860493,-0.264749857015979,-0.737566614896163,-1.85282805203642,-1.13852580528963,-2.47457468001559,-2.47457468001521,0.432785904619631,-0.432785904621636,-0.418321841237774
114.4832,1.56987406657287,1.04988240050595,2.01098478333241,-0.699484027477991,0.461382010474625,0.46138201047433,-0.353869003071461,1.11037536848487,0.647861633871975,0.520062366042876,-0.926811643502578,0.52006236604315,-0.273107017957753,1.03312372589855,0.383621422663368,1.35530335361898,-0.112696207969059,1.85736923853192,-0.516949266715315,-0.694486369567285,-0.516949266715469,0.377679403480873,0.601737167930643,1.55695208777022,-0.635203116479612,1.22056802395976,1.22056802395792,-0.909418529059271,0.909418529062179,1.03452070562486,-0.0507956707620815,1.72559847219294,NaN,-1.31543257498289,-0.0635607955963431,-1.13264747077901,-0.814217029428783,-0.638976310411574,-0.638976310412468,-0.798643562986304,-0.498742039452611,-1.17626164728637,-0.282295406212653,-0.753887793682432,-1.91436782763299,-1.13502275467395,-2.46062441205753,-2.46062441205716,0.449328719831001,-0.44932871983297,-0.421164143603723
114.5856,1.55217933284363,0.992610672829852,1.9532441226824,-0.68382897766301,0.419639508192301,0.419639508191984,-0.374022954741866,1.14253590493034,0.657897090776653,0.450639340509277,-0.938566270345859,0.450639340509527,-0.322143931427648,0.969391078823137,0.304913039310255,1.27775699409007,-0.109366177627537,1.74766111411997,-0.544518401582877,-0.654428406102733,-0.544518401583025,0.367984475015868,0.566943555148339,1.48594712548304,-0.636710126148423,1.16917637654906,1.16917637654724,-0.877030953524374,0.877030953527174,1.0348656501229,-0.0445269340398043,1.69149864545597,NaN,-1.29334615547044,-0.0851196827142077,-1.12891255418441,-0.817896099054139,-0.690716446047025,-0.690716446047853,-0.81385441534004,-0.519843564228776,-1.20802173896716,-0.299343264598862,-0.770618929578639,-1.97580415429965,-1.13074114329802,-2.44468600060261,-2.44468600060225,0.467042313398806,-0.467042313400737,-0.425203264070901
114.688,1.53273361536023,0.934902327539543,1.89382735609684,-0.667506483259108,0.376624722177099,0.37662472217676,-0.39401689424714,1.17266296248138,0.6663159748179,0.379293114896743,-0.950511734883745,0.37929311489697,-0.371192896858627,0.905230756993905,0.225941329986577,1.19862309794002,-0.105506595734557,1.6362153140593,-0.572297492009829,-0.61347921332948,-0.572297492009971,0.359963273776349,0.531438941181889,1.41642322346488,-0.637780439839221,1.11733770499341,1.11733770499161,-0.842768428238333,0.842768428241016,1.03333281562816,-0.0387335252263787,1.65611567481648,NaN,-1.26932054767088,-0.107088353700215,-1.12384797982164,-0.822373884512136,-0.742636278139306,-0.742636278140068,-0.828336927233931,-0.541912035993021,-1.23985574879452,-0.315835305249188,-0.787730471172304,-2.036979282549,-1.12569878022794,-2.4267896401839,-2.42678964018354,0.485937830269844,-0.485937830271736,-0.430457955857884
114.7904,1.51157641989504,0.876834842239276,1.83282450145644,-0.650565786886191,0.332352538645437,0.332352538645075,-0.41376410429935,1.20061617210568,0.673073385563029,0.306144784328378,-0.962539804339314,0.306144784328581,-0.420205825343806,0.840751900876453,0.146811100327946,1.11804942625793,-0.101150373709585,1.52321161547935,-0.600248422407627,-0.57167806667568,-0.600248422407762,0.353573882710629,0.495283689930542,1.34841156424499,-0.638448213744309,1.06512291700894,1.06512291700716,-0.806687479294939,0.8066874792975,1.02990334372967,-0.0333048431725357,1.61960910932259,NaN,-1.24344158818297,-0.129504271440688,-1.11755015932185,-0.827661522195326,-0.794695105160838,-0.794695105161531,-0.841998392851716,-0.564959048385186,-1.27168317709906,-0.331712705564059,-0.805190841063756,-2.09773042890366,-1.11991578483035,-2.40697028599214,-2.4069702859918,0.506021316968064,-0.506021316969914,-0.436942674320066
114.8928,1.48875370391143,0.818486683189435,1.77033127377035,-0.633058599770128,0.28684336402594,0.286843364025549,-0.433177599110092,1.22626121150969,0.678129885575137,0.231322548759571,-0.974543584920495,0.231322548759754,-0.469133398368526,0.776064776980243,0.0676288500523294,1.03618430679127,-0.0963298044324915,1.40883130540897,-0.628329017180307,-0.529070583116205,-0.628329017180436,0.348768609921746,0.458539789432766,1.2819368902764,-0.638749397845652,1.01260449978474,1.012604499783,-0.768851311210811,0.768851311213239,1.02456386349391,-0.0281303616756071,1.58214081914282,NaN,-1.21580253008395,-0.152404274651584,-1.11012122660576,-0.833767773534131,-0.84685032656189,-0.846850326562523,-0.854746702932545,-0.588993762060008,-1.30342214024415,-0.346916242755061,-0.82296649802396,-2.15789041213607,-1.11341447375028,-2.38526729096052,-2.38526729096018,0.527293658616724,-0.527293658618533,-0.444667510284116
114.9952,1.46431779458255,0.759937067994864,1.70644883929778,-0.615038790263437,0.240123444495092,0.240123444494667,-0.452170525180158,1.24947085974268,0.681452058718682,0.154961302887596,-0.986418203157808,0.154961302887759,-0.517924839595847,0.711280305518369,-0.011497316086081,0.953175846184102,-0.0910762582871356,1.29325636388401,-0.656492921619718,-0.485708845751495,-0.656492921619841,0.345493852180139,0.42127127053448,1.21701796180732,-0.638721491809006,0.959856258123769,0.959856258122063,-0.729329682957033,0.729329682959326,1.01730666721944,-0.0231001403524839,1.54387423629681,NaN,-1.1865034964305,-0.175824123368177,-1.10166827816582,-0.840698826490436,-0.899057236934386,-0.899057236934959,-0.866490576661597,-0.614022747371969,-1.33498946850143,-0.361386622986883,-0.841022011924072,-2.21728837268543,-1.10621924579244,-2.36172403281245,-2.36172403281212,0.549750551534723,-0.549750551536494,-0.453638140630277
115.0976,1.43832731091003,0.701265745880407,1.64128358638068,-0.596562061736114,0.19222517114815,0.192225171147685,-0.470656555483073,1.27012603911094,0.683013063318713,0.0772022103611178,-0.998061445965149,0.0772022103612879,-0.566527681483891,0.64650959635375,-0.0904577681182775,0.869171166566725,-0.0854198892372382,1.17666867160566,-0.684689524718861,-0.441651465928424,-0.684689524718978,0.343689997995616,0.383544605580815,1.15366804466982,-0.638403296995958,0.906953045516773,0.906953045515103,-0.688198762078368,0.68819876208052,1.00812986192646,-0.0181053354798689,1.50497361138835,NaN,-1.15565092202688,-0.199798034910288,-1.09230259719556,-0.848458103936543,-0.951268823159099,-0.951268823159616,-0.877139811494533,-0.640049830954354,-1.36630082444817,-0.375064832430206,-0.859320147346985,-2.27575054691536,-1.09835646574623,-2.33638753251602,-2.3363875325157,0.573382508565711,-0.573382508567435,-0.463855799557142
115.2,1.41084706796042,0.642552796526922,1.57494689692787,-0.577685631289337,0.143187344764046,0.143187344763533,-0.48855025985227,1.2881167911887,0.682793149330058,-0.00180774794439778,-1.00937433273881,-0.00180774794423317,-0.614887555540312,0.581863510660078,-0.169141435201825,0.784315690521775,-0.0793893682185931,1.05924925823458,-0.712863934143379,-0.396963556014522,-0.712863934143489,0.343291393386114,0.345429053185753,1.09189540976959,-0.637834667514141,0.853970495877124,0.853970495875501,-0.645540949131557,0.645540949133566,0.997037488683433,-0.0130387056224596,1.46560329573224,NaN,-1.12335697495657,-0.22435823478136,-1.08213887104193,-0.857046090558574,-1.00343559121015,-1.00343559121061,-0.886605545951077,-0.667075951542423,-1.3972708413894,-0.387892497610846,-0.877821949046328,-2.33310106118486,-1.08985434836874,-2.30930806599039,-2.30930806599007,0.59817489055343,-0.598174890555108,-0.475317271900105
115.3024,1.38194794062999,0.583878446832515,1.50755490078475,-0.558467918654888,0.0930553807214003,0.0930553807208337,-0.505767440724217,1.30334314891823,0.680780116225437,-0.0819162506943803,-1.02026161611272,-0.081916250694218,-0.662948022446736,0.517452259605601,-0.24743590134751,0.698752489059534,-0.0730116560390851,0.941177599283658,-0.74095701299018,-0.351716596174296,-0.740957012990286,0.344226384858679,0.306996925479106,1.03170382915167,-0.637056260662799,0.800984763611683,0.800984763610111,-0.601444667339172,0.60144466734104,0.984039604001172,-0.00779510116236303,1.42592704276113,NaN,-1.08973895923416,-0.249534545523095,-1.07129441865384,-0.86646018615852,-1.05550544803879,-1.0555054480392,-0.894800536008582,-0.695099019068004,-1.4278132775993,-0.399812243769971,-0.89648682424026,-2.38916271646939,-1.08074284144015,-2.28053877483977,-2.28053877483946,0.624107951677379,-0.62410795167901,-0.488014905735186
115.4048,1.35170666871165,0.525322904599103,1.43922819827826,-0.538968251130994,0.0418814453322356,0.0418814453316172,-0.522225434213879,1.31571589120711,0.676969699875376,-0.162966123336002,-1.03063222956514,-0.162966123335828,-0.710650445429917,0.453385043946386,-0.325227513050802,0.61262170054723,-0.0663118233394732,0.822630964904395,-0.768905490422648,-0.30598819139291,-0.768905490422749,0.346417443571529,0.268323768404005,0.97309305973545,-0.636109285054563,0.748072277919633,0.748072277918118,-0.556004116241692,0.556004116243408,0.969152320376295,-0.00227191950428394,1.38610730997005,NaN,-1.05491871232606,-0.27535403099729,-1.05988845121769,-0.876694588037796,-1.10742365979916,-1.10742365979953,-0.901639457416024,-0.724113755312138,-1.45784118081148,-0.410768043645208,-0.91527261684455,-2.44375774098271,-1.07105350444826,-2.25013528701362,-2.25013528701332,0.651156883686273,-0.651156883687849,-0.501936637582594
115.5072,1.3202055979298,0.466966210956318,1.37009154825624,-0.519246586732603,-0.0102754734749693,-0.0102754734756433,-0.537843386194668,1.32515719032418,0.671365888799807,-0.244795818169601,-1.04039970051302,-0.244795818169416,-0.757933906898231,0.389769735030058,-0.402401498547009,0.526060029769952,-0.0593129273581741,0.703783823251408,-0.796642160391553,-0.259861720813567,-0.79664216039165,0.349781364875842,0.229488459403782,0.916059312592772,-0.635035245488767,0.695309514609703,0.695309514608233,-0.509318992438879,0.509318992440449,0.952397805794401,0.00363049622099424,1.3463045516244,NaN,-1.01902201708247,-0.301840702878145,-1.04804138675061,-0.887740201469168,-1.15913289958118,-1.15913289958149,-0.907039252848504,-0.75411149203171,-1.48726706187209,-0.420705553061502,-0.934135667934755,-2.49670849371109,-1.06081937989987,-2.21815536093994,-2.21815536093965,0.67929185111865,-0.679291851120172,-0.51706602399316
115.6096,1.28753237167215,0.408888116212339,1.30027353650546,-0.499363252584167,-0.0633495466954912,-0.0633495466962214,-0.552542515394513,1.3316011785955,0.663981182111085,-0.327239879087552,-1.04948253089518,-0.327239879087339,-0.804735166507829,0.326712597684376,-0.47884209687558,0.439200335676117,-0.0520359543517856,0.584807301178277,-0.824096176529107,-0.213425879852812,-0.8240961765292,0.354229528011708,0.190573239257903,0.860595710807,-0.633875686721786,0.64277278677065,0.642772786769235,-0.461494183375291,0.461494183376703,0.933804243652038,0.0100085299071861,1.30667651642827,NaN,-0.982178045117963,-0.329015279902431,-1.03587422638051,-0.899584574562151,-1.21057338369461,-1.21057338369487,-0.910919537314474,-0.785079918278924,-1.51600308387621,-0.429572434308419,-0.953030860138514,-2.54783811625116,-1.05007485707581,-2.18465856492667,-2.18465856492638,0.708478020975529,-0.708478020976995,-0.533382278488343
115.712,1.25377960163956,0.351167983373236,1.22990624940453,-0.479378690366535,-0.117268115795893,-0.11726811579668,-0.566246373372303,1.33499446402448,0.654836806060184,-0.410129398863787,-1.05780453141791,-0.410129398863549,-0.850988654051778,0.26431805523183,-0.554432691091261,0.352171305164091,-0.0444998204002395,0.465868706410238,-0.851193436681021,-0.166774111928046,-0.85119343668111,0.359668197822388,0.15166370096236,0.806692744236273,-0.632671940662091,0.590538054347148,0.590538054345784,-0.412639439108958,0.412639439110214,0.913405754177222,0.0169550321855227,1.26737758019749,NaN,-0.944518840351991,-0.35689497563591,-1.02350798315601,-0.912211852145693,-1.26168308042002,-1.26168308042023,-0.913203066138611,-0.817002786733412,-1.54396127889671,-0.437318675642622,-0.971911651159988,-2.5969711573929,-1.03885552957124,-2.14970599914262,-2.14970599914233,0.738675596120853,-0.738675596122262,-0.550860318951694
115.8144,1.21904453720636,0.29388472060945,1.15912496893516,-0.459353200939583,-0.171951724142149,-0.171951724142993,-0.57888111178075,1.33529660930372,0.643962892519668,-0.493292495218116,-1.06529508964248,-0.493292495217852,-0.896626497267195,0.202688494660302,-0.629055946868012,0.265097198849332,-0.036721408004237,0.34713111552529,-0.877857038262429,-0.120003924735349,-0.877857038262514,0.365998858688271,0.112848749945904,0.754338728759796,-0.631464881231872,0.538680750742268,0.538680750740966,-0.362869023051022,0.362869023052122,0.89124227709074,0.024559101665753,1.22855814588639,NaN,-0.906178837130266,-0.385493290134192,-1.01106314213388,-0.925602746141508,-1.31239797130746,-1.31239797130762,-0.913816262401279,-0.849859600493282,-1.57105380657845,-0.44389691684848,-0.990730110623882,-2.64393421459456,-1.02719804676526,-2.11336006219622,-2.11336006219594,0.76983986386129,-0.769839863862642,-0.569470833735949
115.9168,1.18342873036933,0.237116739770722,1.0880678844269,-0.439346687574956,-0.227314176904891,-0.227314176905789,-0.590375766021245,1.33248056110149,0.631398600041352,-0.576554838938038,-1.07188935621874,-0.576554838937745,-0.94157860303475,0.141924105619351,-0.702593975678717,0.178097657137557,-0.0287156254160621,0.228753025061429,-0.90400777845373,-0.0732160942208808,-0.904007778453813,0.373118579956775,0.0742205315500607,0.703520262340788,-0.630294689949018,0.487275622105535,0.487275622104304,-0.312301341587656,0.312301341588597,0.867359415446763,0.0329058744891753,1.1903641363444,NaN,-0.867294391214009,-0.414819797651393,-0.998659128456891,-0.939734527141464,-1.36265235196096,-1.36265235196107,-0.912689787875114,-0.883625309331053,-1.59719326252278,-0.449262775990204,-1.00943698321798,-2.68855662702542,-1.01513995871772,-2.07568425833254,-2.07568425833226,0.80192127408688,-0.801921274088171,-0.589180373630956
116.0192,1.14703767979669,0.180941933368449,1.01687580257348,-0.419418404836617,-0.283262649995555,-0.283262649996503,-0.600662553515551,1.32653299614822,0.617192150120007,-0.659740252231956,-1.07752834358522,-0.659740252231619,-0.985772817305513,0.082122742772932,-0.774928549916286,0.0912875650024026,-0.0204954974368919,0.110888053787624,-0.929564667403709,-0.026513777075656,-0.92956466740379,0.3809204147633,0.0358743081328357,0.654222652574865,-0.629200636016416,0.436396573488105,0.436396573486941,-0.261058555358121,0.261058555358907,0.841808241505081,0.0420762980567375,1.1529365880992,NaN,-0.828003295683487,-0.444879941435465,-0.986413767721089,-0.954581047225844,-1.41237916444071,-1.41237916444077,-0.909759127359003,-0.918270044075112,-1.62229303040398,-0.453375153775094,-1.02798180296751,-2.73067122545184,-1.0027195560733,-2.03674303681703,-2.03674303681675,0.834865560117158,-0.834865560118392,-0.60995147336521
116.1216,1.1099804396509,0.125437660075708,0.945691837084583,-0.399626722160357,-0.339697865188761,-0.339697865189766,-0.609677173403806,1.3174545504712,0.601400761201735,-0.74267137458301,-1.08215894048971,-0.74267137458266,-1.0291351778346,0.0233798009557237,-0.845941387967783,0.00477697653357876,-0.0120723022004017,-0.00631531829876203,-0.954445427181553,0.0199984421864068,-0.954445427181631,0.389293838793584,-0.00209173752558586,0.606430288569478,-0.628220875969384,0.386116516797772,0.386116516796682,-0.209266174468749,0.209266174469368,0.814645064640486,0.0521468820965834,1.11641133375859,NaN,-0.788444263915651,-0.475674854241046,-0.974442736437585,-0.970112803440193,-1.46151035818716,-1.46151035818718,-0.904965156343636,-0.953758908891238,-1.64626766462579,-0.456196490519347,-1.04631307359029,-2.77011512313765,-0.989975708409613,-1.99660165643863,-1.99660165643835,0.868613905952291,-0.868613905953466,-0.631742802633672
116.224,1.07236918512688,0.0706807302504434,0.874661065253347,-0.380028908349208,-0.396514338969229,-0.396514338970284,-0.61735909594739,1.3052599132542,0.584090474757067,-0.825170385583871,-1.08573385249677,-0.825170385583478,-1.07159026004543,-0.0342119038921784,-0.91551451367234,-0.0813289045286381,-0.00345576033858902,-0.122713986826747,-0.978566972461009,0.0662155560707008,-0.978566972461086,0.398125241653299,-0.0395767955585072,0.560126940025978,-0.627392276089576,0.336507218255085,0.336507218254075,-0.157052634694072,0.157052634694538,0.785931160956684,0.0631894357682141,1.08091874810277,NaN,-0.748756380867667,-0.507201220903953,-0.962859014648595,-0.986297046038457,-1.5099772853443,-1.50997728534426,-0.898254675604697,-0.99005184177241,-1.66903329593278,-0.457692963904331,-1.06437851530069,-2.80673052769154,-0.976947702961068,-1.95532607361371,-1.95532607361343,0.903103151658175,-0.903103151659291,-0.654509342575117
116.3264,1.03431873403342,0.016747385718741,0.803930146476826,-0.360680938348493,-0.453600704227488,-0.453600704228601,-0.623651840023518,1.28997778610389,0.565335875516277,-0.90705977191235,-1.08821148631939,-0.907059771911916,-1.11306160694657,-0.0905622521993517,-0.983530685058142,-0.166929695465552,0.00534572240638281,-0.238170447447223,-1.00184589510651,0.112033180948911,-1.00184589510658,0.407298478601819,-0.0764778319457508,0.515295975049944,-0.626750255859506,0.287639145363804,0.287639145362876,-0.104548849710284,0.10454884971059,0.755732467651136,0.0752708099449506,1.04658352901363,NaN,-0.709078540148346,-0.539451192429838,-0.95177236156469,-1.00309792829028,-1.55771113814254,-1.55771113814246,-0.889580911719936,-1.02710354171629,-1.69050805777753,-0.457834627791594,-1.08212536712199,-2.84036555375174,-0.963675081966759,-1.91298285536501,-1.91298285536472,0.938266022031941,-0.938266022032996,-0.678202579393647
116.4288,0.995946033963972,-0.0362867294423358,0.733646907513177,-0.341637317695705,-0.510840095798653,-0.510840095799823,-0.628503244210492,1.2716507245792,0.545219715589819,-0.988163117254191,-1.08955580264304,-0.988163117253708,-1.15347222415815,-0.145583940134624,-1.04987387859851,-0.25192976551094,0.0143247632025027,-0.352553016510948,-1.02419898538908,0.157348620611111,-1.02419898538916,0.416695476895756,-0.112690095288061,0.47192049691042,-0.62632864542756,0.23958131301966,0.239581313018814,-0.0518877386264594,0.0518877386266131,0.724119250040337,0.0884526683835868,1.01352448426646,NaN,-0.669548892773786,-0.572412349976015,-0.941288834580968,-1.02047668764853,-1.60464342263266,-1.60464342263254,-0.87890399696795,-1.06486344067843,-1.71061252881522,-0.456595498478501,-1.09950072794847,-2.87087501619655,-0.950197473560679,-1.86963911708119,-1.86963911708089,0.974031364301306,-0.9740313643023,-0.702770704667226
116.5312,0.957369630749029,-0.0883466077327545,0.663959906005208,-0.322950913933825,-0.568110583479862,-0.568110583481077,-0.631865740434279,1.25033488696444,0.523832456159645,-1.06830588863158,-1.08973616393092,-1.06830588863106,-1.19274511253416,-0.19919260427436,-1.11442980801332,-0.336238143170703,0.0234746791029125,-0.465736051426959,-1.04554382178283,0.202061907022366,-1.04554382178291,0.426196881222856,-0.148107704476397,0.429983412251321,-0.626159545992695,0.192401126304511,0.192401126303747,0.000796266619418922,-0.00079626661942127,0.691165752737136,0.102791305538857,0.98185430123332,NaN,-0.630304331447709,-0.606067704410913,-0.931510361752735,-1.03839184340194,-1.65070644463258,-1.65070644463243,-0.866191449659044,-1.10327568222574,-1.72927018122061,-0.453953596445509,-1.11645192070395,-2.89812118858278,-0.936554408885524,-1.82536248416261,-1.82536248416229,1.01032438734049,-1.01032438734143,-0.728158813115023
116.6336,0.918709131288456,-0.139357926985503,0.59501798204235,-0.304672782512968,-0.625285635398726,-0.625285635399987,-0.63369664170538,1.22609971247863,0.501271735762468,-1.14731620040025,-1.08872719911354,-1.14731620039968,-1.23080381072366,-0.251306955251688,-1.17708645669266,-0.41976842663834,0.0327891670495176,-0.577600172210753,-1.06579945483081,0.246076774904022,-1.06579945483089,0.435682718294436,-0.182624287199165,0.389467447753972,-0.626273181397728,0.146164216490404,0.14616421648972,0.0533677279741712,-0.0533677279743276,0.656949848418618,0.118337514598842,0.95167928850232,NaN,-0.591480019759231,-0.640395712586899,-0.922534362769955,-1.05679939623455,-1.69583377358256,-1.69583377358237,-0.851418663275367,-1.14227907428412,-1.7464078166504,-0.449890948462952,-1.13292686915455,-2.92197451572312,-0.922785118143688,-1.7802210771074,-1.78022107710708,1.04706690585672,-1.04706690585759,-0.754309092233406
116.736,0.880084669055715,-0.189247112858566,0.526969801163152,-0.28685198097157,-0.682234601235164,-0.682234601236467,-0.633958452532902,1.19902754216543,0.477641769044665,-1.22502554820404,-1.08650869594934,-1.22502554820342,-1.26757292678077,-0.301848923734957,-1.23773460827235,-0.502438723006922,0.0422620216113588,-0.688032483563712,-1.08488718824461,0.289301528294395,-1.08488718824469,0.445033057879523,-0.216133641229627,0.35035512468004,-0.6266977353262,0.100934268578525,0.100934268577922,0.105690718325519,-0.105690718325825,0.621552695563411,0.135136498973503,0.923099091082631,NaN,-0.553208958517282,-0.675370298976383,-0.914453404318627,-1.07565302122583,-1.7399606532646,-1.73996065326438,-0.834569385410522,-1.18180700603332,-1.76195596340509,-0.444393549654068,-1.1488744799507,-2.94231426572492,-0.908928303141002,-1.73428351706191,-1.73428351706158,1.08417760060571,-1.08417760060652,-0.781161003012548
116.8384,0.841616376368119,-0.2379414213261,0.459963387094566,-0.269535375452604,-0.738823211303307,-0.738823211304649,-0.632619200361456,1.16921319026853,0.45305268419289,-1.30126950835645,-1.08306551785921,-1.3012695083558,-1.30297864626816,-0.350743818252333,-1.29626836458611,-0.584171619967515,0.0518869055679663,-0.796926786232507,-1.10273142502485,0.331649771800197,-1.10273142502493,0.454128647223123,-0.248530391723647,0.312628698124193,-0.627459179590759,0.0567728428548548,0.0567728428543372,0.15762934686909,-0.157629346869545,0.585058408878017,0.153227815838249,0.896206393862521,NaN,-0.515621576132614,-0.710960881295322,-0.90735487805662,-1.09490425361657,-1.7830243455283,-1.78302434552805,-0.815636147622948,-1.22178734683208,-1.77584921152457,-0.437451286068654,-1.16424502137916,-2.95902910643875,-0.895021892506936,-1.68761894434888,-1.68761894434853,1.12157230401275,-1.1215723040135,-0.808651455790404
116.9408,0.803423858860112,-0.285369044919618,0.394145637843242,-0.252767450849859,-0.794914090013651,-0.794914090015034,-0.629652775256384,1.136763472465,0.427619815806495,-1.37588839654372,-1.07838753432692,-1.37588839654302,-1.33694921306601,-0.39792048829297,-1.35258564393917,-0.664894166597835,0.0616571625421985,-0.904183755334907,-1.1192605246243,0.373041009084442,-1.11926052462438,0.462851501554665,-0.279710617856257,0.276270076676144,-0.628581107327278,0.0137391969493046,0.0137391969488699,0.20904828853109,-0.209048288531694,0.547553738064258,0.172645336461127,0.871086635645063,NaN,-0.478845335812917,-0.747132403948071,-0.901320697800487,-1.11450267125089,-1.82496441695909,-1.8249644169588,-0.794620606751478,-1.26214236765082,-1.78802648022554,-0.429057828001018,-1.17899048685833,-2.97201760178933,-0.881102792188296,-1.64029704197346,-1.6402970419731,1.15916431416356,-1.15916431416423,-0.836714987635916
117.0432,0.765625660061979,-0.33145924150801,0.329661816821906,-0.236590138371568,-0.850367282711595,-0.850367282713015,-0.625039256925527,1.10179669457368,0.401462974767829,-1.44872787339378,-1.07246955590017,-1.44872787339303,-1.36941538178045,-0.443311482970821,-1.40658865302719,-0.744537832921825,0.0715656490398882,-1.00971106626798,-1.13440762364462,0.413401131429175,-1.1344076236447,0.471085446121762,-0.309572432698654,0.24126074116819,-0.630084585720575,-0.028109883170294,-0.0281098831706513,0.259813307825178,-0.259813307825924,0.509127748779462,0.193417212206309,0.847817747886511,NaN,-0.44300435843445,-0.783845386111585,-0.896427019586775,-1.13439607833723,-1.86572298918289,-1.86572298918255,-0.771533774460611,-1.30278872373661,-1.79843122639453,-0.419210512971832,-1.19306492729097,-2.98118863135436,-0.867206644324255,-1.59238805784785,-1.59238805784748,1.19686473239009,-1.1968647323907,-0.865283945493036
117.1456,0.728338709248042,-0.376142480157357,0.26665501799702,-0.221042673239997,-0.905040792647873,-0.905040792649334,-0.618765202709981,1.06444210424207,0.37470572051204,-1.51963947134801,-1.06531126843299,-1.5196394713472,-1.40031082976467,-0.486853196735131,-1.45818431744315,-0.823038431064813,0.0816045697195326,-1.11342346090879,-1.14811139082974,0.45266281635927,-1.14811139082982,0.478716619394486,-0.338016520515938,0.207581670909938,-0.631988038937501,-0.068720234773029,-0.0687202347733138,0.309791762990062,-0.309791762990953,0.469871503349212,0.215565850353549,0.826469918187206,NaN,-0.408219064496346,-0.821055991676848,-0.892743992304804,-1.15453069353509,-1.90524496172391,-1.90524496172354,-0.746396135208703,-1.34363750871637,-1.80701160255446,-0.407910237661635,-1.20642473497802,-2.98646173455077,-0.853367604677175,-1.5439628167007,-1.54396281670032,1.23458280834674,-1.23458280834728,-0.894288674853102
117.248,0.691677761279713,-0.419350595355251,0.205265618457757,-0.206161489162046,-0.958791117988806,-0.958791117990312,-0.610823870846224,1.02483931417617,0.347474665746393,-1.58848101070125,-1.05691716070486,-1.58848101070038,-1.42957249952286,-0.528485996222823,-1.50728464285566,-0.900335992038345,0.0917653121919914,-1.21524274946116,-1.16031669448684,0.490765849089028,-1.16031669448692,0.485633955697446,-0.364946647750911,0.175213279914057,-0.634307166809887,-0.10804044596566,-0.108040445965875,0.358853075891063,-0.358853075892096,0.429877742201067,0.239107913950648,0.807105379099899,NaN,-0.374605846039378,-0.858716119849205,-0.890335547106049,-1.17485134179738,-1.94347819673967,-1.94347819673926,-0.719237672446177,-1.3845943610932,-1.81372056814251,-0.395161374603251,-1.21902886619253,-2.98776738293868,-0.839618145052804,-1.49509270868301,-1.49509270868261,1.27222626689163,-1.2722262668921,-0.92365771131637
117.3504,0.655754851527028,-0.461016940544571,0.145630743049425,-0.191980144798049,-1.01147377310044,-1.01147377310198,-0.601215365923731,0.98313771185558,0.319898838057959,-1.65511688917361,-1.04729643928729,-1.65511688917266,-1.45714083932494,-0.568154325805638,-1.55380697853146,-0.976374595016165,0.102038286816656,-1.31509773733774,-1.17097515883824,0.527657376611222,-1.17097515883832,0.491729664417193,-0.390270158161081,0.144135373180447,-0.637054898827261,-0.146021958426504,-0.146021958426652,0.406869158954311,-0.406869158955486,0.389240566683545,0.264054354011496,0.78977823457449,NaN,-0.342276784062953,-0.896773501196956,-0.889259228184612,-1.19530164568853,-1.98037364549336,-1.98037364549291,-0.690097831642802,-1.42555959439085,-1.81851595863477,-0.380971724762829,-1.23083899978048,-2.98504719525012,-0.825988882052874,-1.4458496461924,-1.445849646192,1.30970159584314,-1.30970159584354,-0.953317974062384
117.4528,0.620678790847793,-0.501076537728052,0.0878837626742168,-0.178529268198724,-1.06294378511766,-1.06294378511924,-0.589946717094888,0.939495863812925,0.292109096088887,-1.71941826637465,-1.03646292855993,-1.71941826637363,-1.48295993811487,-0.605806795182875,-1.59767418191409,-1.05110215258835,0.112412779118928,-1.4129240737757,-1.1800455961401,0.563292097921647,-1.18004559614018,0.496899712772274,-0.413898452355693,0.114327133587724,-0.640241377711278,-0.182619152453426,-0.182619152453511,0.453714803330454,-0.453714803331763,0.348055120777755,0.290410468296909,0.774534340418662,NaN,-0.311339417044574,-0.935171781740138,-0.889566057813365,-1.21582421290769,-2.01588540652529,-2.0158854065248,-0.65902544134676,-1.46642833746209,-1.82136052219272,-0.36535250519938,-1.2418196429019,-2.97825411462522,-0.81250842793752,-1.39630599411894,-1.39630599411852,1.34691429566386,-1.3469142956642,-0.983194964237815
117.5552,0.586554710102506,-0.539466228002313,0.0321538297573359,-0.165836506712106,-1.11305617450055,-1.11305617450217,-0.577031919636899,0.894080905037342,0.264237565152068,-1.78126319448643,-1.02443495850508,-1.78126319448534,-1.5069775921991,-0.641396256924853,-1.63881472025742,-1.12447016562774,0.122876816952652,-1.50866403978005,-1.18749432639432,0.597632389993779,-1.18749432639441,0.501044308101911,-0.435747452857895,0.0857671312525246,-0.64387396554433,-0.217789425577475,-0.217789425577492,0.49926804534575,-0.499268045347189,0.30641726663103,0.318175970965098,0.761411246901399,NaN,-0.281896546733175,-0.973850593863695,-0.891300423358776,-1.2363608232198,-2.04997072934927,-2.04997072934873,-0.626078592078454,-1.50709070099576,-1.82222193657209,-0.348318354624968,-1.2519382063593,-2.96735256009482,-0.79920325721988,-1.34653449042393,-1.34653449042349,1.38376911501033,-1.38376911501061,-1.01321297363917
117.6576,0.553483643438326,-0.576124830084812,-0.021434562807771,-0.153926480054475,-1.16166643947503,-1.16166643947669,-0.562491968221221,0.847067893715785,0.236417050195514,-1.84053674117488,-1.01123524435282,-1.84053674117371,-1.52914535316969,-0.674879879503526,-1.67716275390962,-1.19643346260469,0.133417048766141,-1.60226630109758,-1.19329541235554,0.630648372217553,-1.19329541235562,0.504068371484489,-0.45573806050652,0.0584333332016476,-0.647957268526538,-0.251493272105553,-0.251493272105501,0.543410529057603,-0.543410529059168,0.26442324917466,0.347345058503862,0.750438200300486,NaN,-0.254046057647365,-1.01274562966981,-0.894499977296521,-1.2568526232926,-2.08258999024441,-2.08258999024384,-0.591324454439435,-1.54743199961078,-1.82107281194902,-0.329887334559803,-1.26116507145514,-2.95231855438534,-0.7860975858355,-1.29660817253532,-1.29660817253486,1.42017030011328,-1.42017030011349,-1.04329530803318
117.76,0.521562130570885,-0.610993310482613,-0.0727620171718265,-0.142820743918757,-1.20863106026226,-1.20863106026395,-0.546354887117695,0.798639115256005,0.208780407630965,-1.89713111929711,-0.996890761913262,-1.89713111929587,-1.54941858400019,-0.706219214399504,-1.71265822291708,-1.26694992934611,0.144018628239634,-1.69368564020048,-1.19743082866726,0.662317915593878,-1.19743082866735,0.505881994323651,-0.473796603165034,0.032303098706318,-0.652493181527134,-0.283694362719457,-0.283694362719347,0.586027872089836,-0.586027872091521,0.222169347212723,0.377906465928121,0.741636192481583,NaN,-0.227880732782487,-1.05178873488208,-0.899195547967912,-1.27724033744402,-2.11370665812312,-2.11370665812251,-0.554839014945349,-1.5873330476345,-1.8178906734298,-0.310080914581741,-1.26947365672832,-2.9331398235425,-0.773213265590936,-1.24660031390635,-1.24660031390588,1.45602187254399,-1.45602187254414,-1.07336452720863
117.8624,0.490881819480787,-0.644014965326115,-0.121714674729303,-0.13253777598106,-1.25380802799378,-1.2538080279955,-0.52865574063787,0.748983330863999,0.181459886654669,-1.95094581185732,-0.981432622095627,-1.95094581185602,-1.56775652565658,-0.735380251219876,-1.74524693531349,-1.33598022767142,0.154665101639683,-1.78288266901458,-1.19989056402438,0.692626607481555,-1.19989056402446,0.506400867001785,-0.489855268626756,0.00735315621680326,-0.657480958012611,-0.314359615991111,-0.314359615990936,0.627010029821646,-0.627010029823447,0.179751510661811,0.409843515012104,0.735018044592186,NaN,-0.203488061115644,-1.09090803420682,-0.905411064789028,-1.29746449840164,-2.14328725659632,-2.14328725659569,-0.516706715863934,-1.6266705346395,-1.8126579148463,-0.288923945458834,-1.27684047657386,-2.90981585999017,-0.760569700957846,-1.19658436624312,-1.19658436624263,1.49122793435855,-1.49122793435864,-1.10334270215883
117.9648,0.461529055242784,-0.675135610545265,-0.16818467736274,-0.123092995796621,-1.29705739269135,-1.29705739269309,-0.509436600634866,0.698294980104434,0.154586468640682,-2.00188766963122,-0.964895946701077,-2.00188766962985,-1.58412236356175,-0.762333454456974,-1.77488064441482,-1.40348750407715,0.165338299706416,-1.86982352210434,-1.20067264818939,0.721567688442162,-1.20067264818948,0.50554666624414,-0.503852511737912,-0.0164404430162336,-0.662917312309848,-0.343459249831355,-0.343459249831119,0.666251644111345,-0.666251644113257,0.137264986230735,0.443134162011439,0.730588511853267,NaN,-0.180950044829972,-1.13002808995268,-0.913163505691108,-1.31746569795049,-2.17130132290334,-2.17130132290267,-0.477019998311085,-1.66531748034601,-1.80536172279654,-0.266444633425148,-1.28324517580537,-2.88235794234117,-0.748183796487569,-1.1466338987162,-1.1466338987157,1.52569298762636,-1.52569298762639,-1.1331516881173
118.0672,0.433584449138793,-0.70430377336173,-0.212070644780953,-0.114498824329114,-1.33824181533818,-1.33824181533995,-0.488746452855941,0.646773358655605,0.128289238983571,-2.04987095681468,-0.947319746351256,-2.04987095681325,-1.59848327331143,-0.787053777740922,-1.80151709545242,-1.46943709961699,0.176018248109873,-1.95447953114911,-1.19978310449367,0.749141976220177,-1.19978310449377,0.503247390144245,-0.515733427769141,-0.039102399156085,-0.668796557936854,-0.370966801760586,-0.370966801760286,0.703652359648516,-0.70365235965053,0.0948039363857698,0.477751055916356,0.728344399747972,NaN,-0.160343021037793,-1.16907008553106,-0.92246287337742,-1.33718485270807,-2.19772135644832,-2.19772135644762,-0.435878764320686,-1.70314375536073,-1.79599397525071,-0.242674529762002,-1.2886705287439,-2.85078911537259,-0.736069941091055,-1.09682252234942,-1.09682252234891,1.55932224686587,-1.55932224686584,-1.16271341064429
118.1696,0.407122438847376,-0.731470876567653,-0.253278153113481,-0.106764778279489,-1.37722710371146,-1.37722710371325,-0.466641034769731,0.5946217930337,0.102694816713358,-2.09481732759818,-0.928746802059868,-2.09481732759668,-1.61081042035156,-0.809520654028238,-1.82512001949349,-1.53379627807827,0.186683119763847,-2.03682688005716,-1.1972358360956,0.775357777241254,-1.1972358360957,0.499437633989247,-0.525450081952953,-0.0606582604023962,-0.675110779394378,-0.396859113258552,-0.396859113258182,0.739117096773534,-0.739117096775643,0.0524610557220125,0.513661617416332,0.728274687120118,NaN,-0.141737510854962,-1.20795201674369,-0.93331219949782,-1.35656347664805,-2.22252273798763,-2.22252273798691,-0.393389782774454,-1.74001664166632,-1.78455111780476,-0.21764854461751,-1.29310240165714,-2.81514414365228,-0.724240030206932,-1.0472237885005,-1.04722378849999,1.5920219228667,-1.59202192286663,-1.19195016223365
118.272,0.382210868556249,-0.756591409850436,-0.291720188269491,-0.0998975864186636,-1.41388271741846,-1.41388271742029,-0.443182613277978,0.542046820255071,0.0779268413586733,-2.13665573650993,-0.90922355216678,-2.13665573650836,-1.62107890286989,-0.829717962510155,-1.84565906613411,-1.59653398397858,0.197309243472129,-2.11684624161943,-1.19305245303531,0.800230767122584,-1.19305245303542,0.494058805613708,-0.53296178720866,-0.0811345312134107,-0.681850030810159,-0.421116282909173,-0.421116282908733,0.772556282194422,-0.772556282196618,0.0103271825414033,0.550828144469388,0.730360658542321,NaN,-0.125198097882993,-1.24658887633947,-0.945707568638743,-1.37554395471969,-2.24568359996558,-2.24568359996483,-0.349666056804261,-1.77580141183577,-1.77103401769478,-0.191404986541996,-1.29652968351845,-2.77546945076249,-0.712703521516261,-0.997911058155016,-0.997911058154494,1.62369946763839,-1.62369946763827,-1.22078490981073
118.3744,0.358910618990125,-0.779623087654511,-0.327317550731357,-0.0939013174763366,-1.44808224339339,-1.44808224339524,-0.418439724999235,0.489257362115759,0.0541054881429498,-2.17532231025217,-0.888799984505199,-2.17532231025054,-1.62926765660171,-0.847633975979682,-1.86310969280185,-1.65762062869086,0.207871157998683,-2.19452240524702,-1.18726204227221,0.823783819927999,-1.18726204227231,0.487059287014719,-0.538235335319519,-0.100558790028053,-0.689002556541262,-0.443721598611367,-0.443721598610863,0.803886050726176,-0.803886050728453,-0.0315091031303303,0.589207943980174,0.734576053232336,NaN,-0.110783324315906,-1.28489283412246,-0.959638153908866,-1.39406982073586,-2.26718464807552,-2.26718464807475,-0.304826154464851,-1.81036192587845,-1.7554477964326,-0.163985622244805,-1.29894419155622,-2.73182304663625,-0.70146751930117,-0.948957349144531,-0.948957349144004,1.65426378732338,-1.65426378732322,-1.24914161678394
118.4768,0.337275297868595,-0.800526996351021,-0.359999205880628,-0.0887775186486438,-1.47970385467665,-1.47970385467853,-0.392486902155951,0.436463875728441,0.0313469753471053,-2.21076021876033,-0.867529532724371,-2.21076021875865,-1.63535935666496,-0.863261294280948,-1.8774530433349,-1.71702789557741,0.218341683997156,-2.26984391282603,-1.17990087646052,0.846046784540236,-1.17990087646063,0.478394548072897,-0.541245192987368,-0.118959825662248,-0.696555033200462,-0.464661455990346,-0.464661455989776,0.833028433394115,-0.833028433396465,-0.072961903448922,0.628753482003001,0.740887235412479,NaN,-0.0985455863937659,-1.3227734311449,-0.975086261496981,-1.41208604849477,-2.28700895704713,-2.28700895704634,-0.258993491701117,-1.84356126133372,-1.73780164301936,-0.135435748146125,-1.30034055748919,-2.68427443928914,-0.690536886736185,-0.90043517365051,-0.900435173649975,1.68362544175246,-1.68362544175225,-1.27694558368801
118.5792,0.317350981301222,-0.819267732963311,-0.389702588851285,-0.0845253713803627,-1.50863076400967,-1.50863076401156,-0.365404392177512,0.383877467318211,0.00976304545394726,-2.24291956714964,-0.845468977271228,-2.24291956714791,-1.63934034196006,-0.876596767387699,-1.88867583927148,-1.77472855827644,0.228691993742768,-2.34280271622294,-1.17101205615873,0.867056219933353,-1.17101205615883,0.468027205475845,-0.541973661038549,-0.136367800423701,-0.704492835287343,-0.483925263122997,-0.483925263122363,0.859911539464371,-0.859911539466787,-0.113948451211171,0.669412542452843,0.74925338256942,NaN,-0.0885310156088232,-1.36013780826014,-0.992027386635251,-1.42953936309475,-2.30514176754025,-2.30514176753946,-0.212295553416507,-1.87526239155776,-1.71810860603367,-0.105804267268901,-1.30071609696,-2.63290452432772,-0.679914389111278,-0.85241637529194,-0.852416375291398,1.71169684681635,-1.7116968468161,-1.3041238087735
118.6816,0.299175990068366,-0.835813534846625,-0.41637387572133,-0.0811418715667175,-1.53475167661865,-1.53475167662056,-0.337277865300578,0.331708968475748,-0.0105395755785032,-2.27175730469093,-0.822678352229489,-2.27175730468913,-1.64120056932901,-0.887641407125461,-1.89677028927655,-1.83069630831865,0.238891673867763,-2.41339385613863,-1.16064509441154,0.886855096243259,-1.16064509441164,0.455927017471849,-0.540410982375275,-0.15281443151457,-0.712800324349172,-0.501505328364188,-0.50150532836349,0.884469730531596,-0.88446973053407,-0.15438957812018,0.711128388781486,0.759626683946747,NaN,-0.0807793418918974,-1.39689097900854,-1.01043028457885,-1.44637857255504,-2.3215702980459,-2.3215702980451,-0.164863053276332,-1.90532890678036,-1.69638536083525,-0.0751437666384173,-1.30007066199467,-2.57780544341794,-0.669600869317284,-0.804971967348713,-0.804971967348172,1.7383924818938,-1.7383924818935,-1.33060536508408
118.784,0.2827806871066,-0.850136395831321,-0.439968228039111,-0.0786220338547641,-1.55796124078739,-1.55796124078932,-0.308198104470186,0.280167988838672,-0.0294597238189949,-2.29723713435012,-0.799220855464077,-2.29723713434823,-1.64093359397284,-0.896400283751231,-1.90173401153896,-1.88490558553384,0.248908784485841,-2.4816151490197,-1.14885546693049,0.905492462324715,-1.1488554669306,0.442070822405083,-0.536555389373274,-0.168333163348741,-0.721461151246106,-0.517396728753226,-0.517396728752467,0.906643780180468,-0.906643780182993,-0.194210186810623,0.753839931618671,0.771952547406919,NaN,-0.0753237443872958,-1.43293614419237,-1.03025705946206,-1.46255490975029,-2.33628357301061,-2.3362835730098,-0.116829061944596,-1.9336257471448,-1.67265195583863,-0.0435105906997655,-1.29840647767722,-2.51908040606024,-0.659595448376771,-0.758171966633592,-0.758171966633052,1.76362909162534,-1.763629091625,-1.35632178234296
118.8864,0.268187289987743,-0.862212161503061,-0.460450009778848,-0.0769591082325826,-1.57816048965666,-1.57816048965859,-0.278260677825993,0.229461972634649,-0.0469023241794287,-2.31932940829087,-0.775162752477991,-2.31932940828891,-1.63853656805285,-0.902882404842745,-1.90356996088451,-1.93733140982509,0.258709925528792,-2.54746686802394,-1.13570414229864,0.923023085992306,-1.13570414229875,0.426442444116914,-0.530413093772841,-0.182959299512609,-0.730458547677979,-0.53159715880116,-0.531597158800349,0.926381011964342,-0.926381011966914,-0.233339697474809,0.797481913460381,0.786169820549893,NaN,-0.0721907026542108,-1.46817503597697,-1.05146327345091,-1.47802236398057,-2.34927226222323,-2.34927226222241,-0.0683281517937754,-1.96001991122343,-1.64693155497402,-0.0109649106577226,-1.29572796578474,-2.45684347966758,-0.649895733622399,-0.712085213048922,-0.712085213048383,1.78732586749591,-1.78732586749554,-1.38120741287309
118.9888,0.255409708875187,-0.872020599584831,-0.477792965593123,-0.0761447913530325,-1.59525726203007,-1.59525726203201,-0.247565593099136,0.179795292392907,-0.0627788691632576,-2.33801100186628,-0.750573260973959,-2.33801100186426,-1.63401024617309,-0.907100579141295,-1.90228635272763,-1.98794922437988,0.268260328652173,-2.6109514125388,-1.12125708921029,0.939507079833741,-1.1212570892104,0.409032587015488,-0.521998228701387,-0.196730074114615,-0.739775583118989,-0.544106766037657,-0.544106766036803,0.943635407346995,-0.943635407349607,-0.2717124377939,0.841985115089088,0.802211033752119,NaN,-0.071399863350486,-1.50250827151138,-1.07399807515127,-1.4927379798042,-2.36052852004019,-2.36052852003937,-0.019495597100875,-1.98438112194603,-1.61925019957956,0.0224292044558663,-1.29204155841038,-2.39121936384467,-0.640498017186505,-0.666779164320647,-0.666779164320108,1.80940459942265,-1.80940459942224,-1.40519976181211
119.0912,0.244453441948467,-0.8795454523884,-0.491980341275375,-0.076169422620892,-1.60916658872175,-1.60916658872368,-0.216216928920811,0.131368405352975,-0.0770078230750993,-2.35326516915257,-0.725524411065206,-2.35326516915047,-1.62735899071368,-0.909071275005405,-1.8978965837073,-2.03673476164254,0.277523988565666,-2.67207296754588,-1.1055847611044,0.955009518331606,-1.10558476110451,0.389838737658251,-0.51133275654479,-0.209684658144679,-0.749395384989516,-0.55492799078765,-0.554927990786749,0.958367674009666,-0.958367674012314,-0.309267961558752,0.887276558713538,0.820002669146873,NaN,-0.0729639308795881,-1.53583569087217,-1.0978043372796,-1.50666211471491,-2.37004580530285,-2.37004580530202,0.0295333573773652,-2.00658245221684,-1.58963660405564,0.056603710587608,-1.28735550647516,-2.32234316581992,-0.631397462941991,-0.622319662240954,-0.62231966224041,1.82978979684192,-1.82978979684148,-1.42823977905684
119.1936,0.23531556381224,-0.884774487983803,-0.503004932122313,-0.0770221702209,-1.61981104033691,-1.61981104033883,-0.184322442079402,0.0843770750560848,-0.0895149486944829,-2.36508139802731,-0.700090892028653,-2.36508139802514,-1.6185907880342,-0.908814487727683,-1.89041916665282,-2.08366393313394,0.286463829156151,-2.73083715952169,-1.08876157740277,0.969600037036783,-1.08876157740288,0.368865082570309,-0.498446361303177,-0.221864115510548,-0.759301343801562,-0.564065432529799,-0.564065432528858,0.970545268547469,-0.970545268550143,-0.34595130367248,0.933279657586567,0.839465452061557,NaN,-0.0768885775372321,-1.56805666117912,-1.12281878763864,-1.51975866684103,-2.37781866791632,-2.37781866791548,0.0786241695562434,-2.02650091941723,-1.55812198290433,0.0914865107271054,-1.28167969179535,-2.25036018386846,-0.622588296995362,-0.578770679463297,-0.578770679462748,1.84840878727968,-1.84840878727922,-1.45027212888726
119.296,0.22798481678411,-0.887699565008955,-0.510869063147972,-0.0786912198512795,-1.62712104681529,-1.62712104681721,-0.151993158554753,0.0390116352665519,-0.100233583065306,-2.37345529148094,-0.674349904689467,-2.37345529147871,-1.60771730184935,-0.906353628175816,-1.87987770923241,-2.12871273518009,0.295041882237917,-2.78725072168718,-1.07086542847176,0.98335240116747,-1.07086542847187,0.346122443636797,-0.483376344497961,-0.23331133724362,-0.769477325435606,-0.57152575582638,-0.571525755825409,0.980142376282057,-0.980142376284752,-0.381713187073711,0.979914276466919,0.860514651970252,NaN,-0.0831723606906939,-1.59907034998852,-1.14897212516797,-1.53199529044852,-2.38384251188391,-2.38384251188305,0.127643632577115,-2.04401805659524,-1.52473989831397,0.127001391717796,-1.27502545448103,-2.17542569366074,-0.614064017218204,-0.53619406434829,-0.536194064347736,1.86519180201506,-1.86519180201458,-1.4712454529172
119.3984,0.22244178576428,-0.888316715766043,-0.515584519493589,-0.0811639725290358,-1.63103520426895,-1.63103520427087,-0.11934295598436,-0.00454373332789158,-0.109104894689016,-2.37838849083814,-0.648381030915999,-2.37838849083585,-1.59475397990918,-0.901715438093835,-1.86630095292258,-2.17185716102854,0.303219454282033,-2.84132118183961,-1.05197722008776,0.996344041641758,-1.05197722008788,0.321628228418514,-0.466167534917253,-0.244070974529839,-0.779907892456668,-0.577317634054688,-0.577317634053688,0.987139858161113,-0.987139858163824,-0.416510188365546,1.02709671056486,0.883060373201157,NaN,-0.0918066396017011,-1.62877599120434,-1.17618913064558,-1.54334360647733,-2.38811336578974,-2.38811336578887,0.176460475571351,-2.05902046267141,-1.48952612163179,0.163067993010702,-1.26740544523169,-2.09770472530966,-0.605817622916316,-0.494649297338765,-0.494649297338211,1.88007205234347,-1.88007205234297,-1.49111262516
119.5008,0.218659131450232,-0.88662624364744,-0.517172443278836,-0.0844272449419728,-1.63150057790399,-1.63150057790591,-0.0864881365757906,-0.0461117278530837,-0.11607813354029,-2.37988863236158,-0.622266117956132,-2.37988863235923,-1.57972020375538,-0.894929931034532,-1.84972286314308,-2.21307311471595,0.310957268209736,-2.89305658021529,-1.03218045860244,1.00865556327911,-1.03218045860256,0.295406388927165,-0.446872202866661,-0.254189365717449,-0.790578515374229,-0.581451722175203,-0.581451722174175,0.991525175828257,-0.991525175830977,-0.450304853636272,1.07473962529305,0.907007814746435,NaN,-0.102775496309357,-1.65707317060555,-1.20438879400235,-1.55377939939152,-2.3906276865652,-2.39062768656433,0.224945924058993,-2.07140032198981,-1.45251850923571,0.199601816483945,-1.25883350122514,-2.0173718126305,-0.597841850763841,-0.454193258719638,-0.454193258719081,1.89298579254189,-1.89298579254138,-1.50983098167633
