time,S1-D1,S1-D8,S1-D9,S1-D15,S2-D1,S2-D2,S2-D3,S2-D9,S3-D1,S3-D2,S3-D16,S4-D2,S4-D3,S4-D5,S5-D3,S5-D4,S5-D5,S6-D2,S6-D5,S6-D17,S7-D6,S7-D7,S8-D6,S8-D7,S8-D18,S9-D3,S9-D4,S9-D9,S9-D11,S9-D19,S10-D8,S10-D9,S10-D10,S10-D11,S11-D8,S11-D10,S11-D20,S12-D10,S12-D11,S12-D12,S13-D4,S13-D11,S13-D12,S14-D10,S14-D12,S14-D21,S15-D13,S15-D14,S16-D13,S16-D14,S16-D22
452.608,-0.956444693908991,1.374215781517,0.493327595552565,-0.205432163801954,0.441807413535158,0.441807413533689,NaN,NaN,-0.329280320044507,-0.602632893609583,0.892254003434102,-0.602632893609386,0.481470925347735,-1.39977329049746,-0.510049292831925,1.33460782547472,0.218476722509902,1.21408345120459,1.19181600013323,0.0245599704977376,1.19181600013377,0.318115851388339,1.01528800621369,0.604172051235824,-0.418266681114893,0.928315845295686,NaN,-0.101335432370879,0.101335432370877,-1.37488718694253,-0.69153621297801,-0.0592351874224127,NaN,NaN,0.965348419060026,2.21811337615536,-1.19116337792583,-0.387154720757198,-0.387154720756663,NaN,-1.18627229039005,-0.412280802192154,NaN,1.09561964913459,-0.420553380986209,-0.00921957418445794,0.142364552935066,0.142364552934715,-0.774291641566446,0.774291641567216,-0.263652787765386
452.7104,-0.958809757050038,1.37688388006199,0.493908927338954,-0.195386306636269,0.429580497285179,0.429580497283733,NaN,NaN,-0.326666537141737,-0.604166998757368,0.901901618264662,-0.604166998757158,0.528985247911932,-1.41396902566564,-0.47148713634767,1.32654211003674,0.200961249223177,1.20195400374612,1.19483912213443,0.0146372489954945,1.19483912213497,0.297588048636194,1.02031259083864,0.59114122245028,-0.41369848541473,0.902167577798394,NaN,-0.101328184512352,0.101328184512336,-1.345400899872,-0.68087327262359,-0.082775785652332,NaN,NaN,0.89405547267328,2.14484718240613,-1.23948029780723,-0.359117018089168,-0.359117018088628,NaN,-1.18674726838223,-0.434225075994831,NaN,1.05511599900427,-0.482143877405606,-0.0164389207037675,0.135379914838854,0.13537991483848,-0.740262633916229,0.740262633917002,-0.284403639614593
452.8128,-0.959325906415046,1.37826499488794,0.49473454307774,-0.185679027441252,0.416900413058021,0.416900413056599,NaN,NaN,-0.324267919928559,-0.605702481795095,0.912577758201332,-0.605702481794873,0.57627253862221,-1.42771961649351,-0.432838609632719,1.31733055560593,0.184005663133601,1.18900336815447,1.19652332517624,0.00482714744850496,1.19652332517677,0.276291658761497,1.02396336634477,0.577047774425973,-0.409156588250009,0.876444287623634,NaN,-0.101335796161774,0.101335796161745,-1.31539837555976,-0.669535497749566,-0.10580764911321,NaN,NaN,0.82194756426956,2.06951920691804,-1.28793124688037,-0.330081734782649,-0.33008173478212,NaN,-1.18619767515836,-0.45535013854771,NaN,1.01462888485103,-0.542627080920968,-0.0234458681564442,0.127446396485246,0.127446396484866,-0.705603829244168,0.70560382924495,-0.30578709340262
452.9152,-0.957974241712666,1.37834020594404,0.495801898080722,-0.176320489563866,0.403754086526889,0.403754086525491,NaN,NaN,-0.322083831875583,-0.607218098894767,0.924253205386541,-0.607218098894535,0.623237467688942,-1.44098209540079,-0.394170691294637,1.30700189941798,0.167643297745968,1.17526615785236,1.19688068366989,-0.00484987022519891,1.19688068367041,0.254270691729926,1.0262583991454,0.561930255683078,-0.40464468077723,0.851179068443482,NaN,-0.101390535582413,0.10139053558237,-1.284919548044,-0.657565018268456,-0.128272986549331,NaN,NaN,0.749171060221352,1.99231564823993,-1.33644510039996,-0.300092078653921,-0.300092078653413,NaN,-1.18463529812919,-0.475612149013929,NaN,0.974244825406152,-0.601842791726585,-0.0302301664443124,0.118639598410468,0.118639598410092,-0.670335711353436,0.670335711354224,-0.327784650478628
453.0176,-0.954740816932774,1.37709577835021,0.497109312122802,-0.167319046150446,0.390131021291831,0.390131021290449,NaN,NaN,-0.320111692496407,-0.608692731338451,0.93689464418497,-0.608692731338209,0.669784676554021,-1.45371614426163,-0.355552289762233,1.2955874251699,0.151905900766161,1.16077871017554,1.19592572116171,-0.0143718724332746,1.19592572116222,0.231572429467725,1.02721917957722,0.54583084630044,-0.400165872540966,0.826402103875585,NaN,-0.101522647702568,0.101522647702512,-1.25400557118783,-0.645003645811884,-0.150115366815322,NaN,NaN,0.675872380529988,1.91342489605086,-1.38494848315431,-0.269193553934674,-0.269193553934177,NaN,-1.18207359623386,-0.494970750888938,NaN,0.934049635263263,-0.65963304337794,-0.0367810605008163,0.109038153205282,0.109038153204921,-0.634479840462835,0.634479840463628,-0.350377541136901
453.12,-0.949616417947517,1.37452330525067,0.498656259192459,-0.15868115957146,0.376023495365512,0.376023495364151,NaN,NaN,-0.318347007972204,-0.610105324299576,0.95046480339394,-0.610105324299325,0.715819425874436,-1.46588430063273,-0.317053726448405,1.2831208737873,0.136823376170975,1.14557893319944,1.19367546755932,-0.0237155928784305,1.19367546755982,0.208247214767996,1.02687045004607,0.528795141668054,-0.395722635758595,0.802140537104055,NaN,-0.101760271622837,0.101760271622765,-1.22269853640723,-0.6318926903599,-0.171280057426884,NaN,NaN,0.602197491026733,1.83303702521442,-1.43336594165272,-0.237433761697997,-0.237433761697511,NaN,-1.17852762169448,-0.513389215903709,NaN,0.894128003403444,-0.715842776747882,-0.0430873807088176,0.0987231061276503,0.0987231061273186,-0.598058751293173,0.598058751293968,-0.373546874452138
453.2224,-0.942596310396986,1.37061977440844,0.500443612556296,-0.150411342194567,0.361426698616677,0.361426698615335,NaN,NaN,-0.316783426836284,-0.611434816848944,0.964922648116284,-0.611434816848684,0.761248251059918,-1.4774521558817,-0.278746205354044,1.2696383385862,0.122423548123894,1.12970614558961,1.19014948624439,-0.0328565698716505,1.19014948624488,0.184348205878196,1.02523998382737,0.510871893206346,-0.391316748249299,0.778418369745235,NaN,-0.102129375896314,0.102129375896228,-1.1910411389491,-0.618272794261969,-0.191714383016333,NaN,NaN,0.528291399324236,1.75134328733494,-1.48162013783186,-0.204862249208612,-0.204862249208139,NaN,-1.1740139483728,-0.530834576006778,NaN,0.85456306308794,-0.77032057750529,-0.0491376437500893,0.0877772403626897,0.087777240362384,-0.56109587302441,0.56109587302521,-0.397273754945739
453.3248,-0.933679965204546,1.365387560645,0.5024738415358,-0.142512120100587,0.346338813301868,0.346338813300555,NaN,NaN,-0.315412817177877,-0.612660067481883,0.980223616609007,-0.612660067481613,0.8059796090082,-1.48838853601881,-0.240701279296142,1.25517815356551,0.108731949645907,1.11320091786107,1.18536987370274,-0.0417692918244952,1.18536987370322,0.159931102095982,1.02235832639833,0.492112714283934,-0.386949239378631,0.755256390955495,NaN,-0.102653715812595,0.102653715812494,-1.15907631352154,-0.604183786410883,-0.211368094253987,NaN,NaN,0.454297648756634,1.66853559551828,-1.52963205697808,-0.171530395377967,-0.171530395377488,NaN,-1.1685506110969,-0.547277740184514,NaN,0.815435958414541,-0.82291946530994,-0.0549201616863346,0.0762843683881595,0.0762843683878744,-0.523615485288282,0.523615485289082,-0.421539367493867
453.4272,-0.92287077629323,1.35883435642707,0.504751159959495,-0.134984015652024,0.330761049320517,0.330761049319224,NaN,NaN,-0.314225360415132,-0.61375978088565,0.996319887212335,-0.61375978088537,0.849924502020036,-1.49866566213526,-0.20299032491959,1.23978078295713,0.0957716380167843,1.09610492263018,1.17936123672404,-0.0504273502265218,1.17936123672452,0.13505385032066,1.01825852361167,0.472571767489228,-0.382620343500741,0.732672138873159,NaN,-0.103354809512774,0.103354809512658,-1.12684687642046,-0.589664550327077,-0.230193734859151,NaN,NaN,0.380357812081281,1.58480599754523,-1.57732122001246,-0.137491310927754,-0.137491310927266,NaN,-1.16215706771802,-0.56269359572682,NaN,0.776825420200701,-0.87349770286749,-0.0604231566332711,0.0643286248846134,0.0643286248843461,-0.485642712599905,0.485642712600703,-0.446325023782742
453.5296,-0.910175783890592,1.35097305582016,0.507281629683583,-0.127825542528884,0.31469764882017,0.314697648818893,NaN,NaN,-0.313209658163791,-0.614712439393601,1.01316066012622,-0.614712439393311,0.892997075746647,-1.5082592956912,-0.165684033482215,1.2234887142507,0.083563035931905,1.07846079548023,1.17215065266797,-0.0588035993296863,1.17215065266844,0.109776342372603,1.01297585846642,0.452305448373492,-0.378329461647669,0.710679897481821,NaN,-0.1042519220403,0.104251922040171,-1.09439520280327,-0.574752895545378,-0.248147000446888,NaN,NaN,0.30661099329681,1.50034613412389,-1.62460589412789,-0.102799737812733,-0.102799737812234,NaN,-1.15485419324126,-0.577061093408602,NaN,0.738807361735112,-0.921919593608408,-0.0656348802735723,0.051993787780578,0.051993787780319,-0.447203543305399,0.4472035433062,-0.471612159584784
453.632,-0.895605406094862,1.34182160356202,0.510073227481108,-0.121033210444503,0.298155872361775,0.298155872360514,NaN,NaN,-0.312352851396538,-0.615496235785673,1.03069244852114,-0.615496235785375,0.935115200629093,-1.51714888083795,-0.128851916447811,1.20634635115149,0.0721237966958128,1.06031200288181,1.16376761832772,-0.0668703207749176,1.16376761832817,0.0841601036545718,1.00654760110586,0.431372067785101,-0.374075128988688,0.689290732729187,NaN,-0.105362043629439,0.105362043629296,-1.06176293932658,-0.559485422336444,-0.26518709193099,NaN,NaN,0.233193345643702,1.41534668142713,-1.6714033033221,-0.0675119486427117,-0.0675119486421999,NaN,-1.14666430463245,-0.590363313304762,NaN,0.701454494807285,-0.968056254353726,-0.0705437420685702,0.0393626323538409,0.0393626323535744,-0.408324849326908,0.40832484932771,-0.497382279427096
453.7344,-0.879173176596975,1.33140281738695,0.51313588397184,-0.114601541052446,0.281145974201696,0.281145974200459,NaN,NaN,-0.311640752556294,-0.616089001671837,1.0488593781045,-0.616089001671532,0.976201047209209,-1.52531769348726,-0.0925618222055764,1.18839990082375,0.0614686947796761,1.04170271269675,1.15424399117213,-0.0745993938397554,1.15424399117257,0.0582679674465111,0.999012764833407,0.409831526004509,-0.369854986669987,0.668512569731655,NaN,-0.106699851621879,0.106699851621725,-1.02899073775734,-0.543897372710126,-0.281277069280457,NaN,NaN,0.160237612521482,1.32999677969316,-1.7176298441612,-0.031685654649746,-0.0316856546492213,NaN,-1.13761120672405,-0.602587508221961,NaN,0.664835961591976,-1.0117863594976,-0.0751384486379388,0.0265163148326264,0.0265163148323646,-0.36903438850003,0.36903438850083,-0.523616851377753
453.8368,-0.860895491585098,1.31974418875685,0.51648149686026,-0.108523096561801,0.263681167105471,0.263681167104249,NaN,NaN,-0.311057992442031,-0.616468129950158,1.06760348924675,-0.616468129949844,1.0161816579053,-1.53275299684712,-0.0568794610543194,1.16969725120839,0.0516095434578415,1.02267766414615,1.14361392222594,-0.0819624731325019,1.14361392222637,0.0321637324691399,0.990411863437169,0.387744975233083,-0.365665761487636,0.648350303926816,NaN,-0.108277649567119,0.108277649566956,-0.996118002787373,-0.528022463924058,-0.296384212796524,NaN,NaN,0.0878726981859044,1.2444834505843,-1.76320131161521,0.00462007471356899,0.00462007471408927,NaN,-1.12772024946947,-0.61372512537574,NaN,0.629016980018858,-1.05299685311612,-0.0794081492601254,0.0135337845074937,0.0135337845072312,-0.329360787163782,0.329360787164582,-0.550297151160812
453.9392,-0.840791374611834,1.30687766437924,0.520123914057501,-0.102788519609164,0.245777571886829,0.245777571885627,NaN,NaN,-0.31058818342748,-0.616610495814737,1.08686503101485,-0.616610495814414,1.05498950840139,-1.53944619558165,-0.0218679398550348,1.15028783596131,0.0425551370573384,1.00328203439968,1.13191377527019,-0.0889311726376595,1.13191377527062,0.00591180936503918,0.98078667207144,0.365174475357524,-0.361503258448883,0.628805931132763,NaN,-0.110105278502842,0.11010527850267,-0.963182658732926,-0.511892704353948,-0.310480399480569,NaN,NaN,0.0162232742633285,1.15899100873979,-1.80803313667992,0.0413448837431786,0.0413448837437106,NaN,-1.11701839008121,-0.623771809308863,NaN,0.594058503382154,-1.09158362472576,-0.0833425778999091,0.000491223359291493,0.000491223359025652,-0.289333516566374,0.289333516567172,-0.57740405130627
454.0416,-0.818882269566146,1.29283941225327,0.524078882444548,-0.0973865808908976,0.227454151164014,0.227454151162823,NaN,NaN,-0.31021409654415,-0.616492386739267,1.10658273877972,-0.616492386738934,1.09256304228428,-1.54539298197876,0.0124126816042541,1.13022248288415,0.0343112126582323,0.983561296703092,1.11918202539576,-0.0954772517097915,1.11918202539618,-0.0204231320368689,0.970179994996275,0.34218265280563,-0.357362364403868,0.609878684686533,NaN,-0.112189996954303,0.112189996954125,-0.930220944645745,-0.495538196945849,-0.323542492347025,NaN,NaN,-0.0545905746687948,1.07370048031812,-1.85204063159604,0.0784271961702823,0.0784271961708228,NaN,-1.10553425367163,-0.632727388292014,NaN,0.560016899141421,-1.12745214342883,-0.0869321809014808,-0.0125384865192986,-0.0125384865195554,-0.248982884606757,0.248982884607554,-0.604917760224257
454.144,-0.795191870289122,1.27766958092674,0.528363963544386,-0.092304231286182,0.208732635600959,0.208732635599775,NaN,NaN,-0.30991784491639,-0.6160894551519,1.12669409358186,-0.616089455151558,1.12884715921051,-1.55059347317238,0.0459057929872175,1.10955324056201,0.0268804285893982,0.963561064706172,1.10545913366311,-0.101572799447144,1.10545913366352,-0.0467765026466712,0.958635439995107,0.318832371144817,-0.353237052184427,0.591565176743915,NaN,-0.114536330418105,0.11453633041792,-0.897267246529302,-0.478986941919966,-0.335552723178561,NaN,NaN,-0.12445366702707,0.988789046582565,-1.89513923406057,0.11580427403634,0.115804274036893,NaN,-1.09329818395393,-0.640595844774161,NaN,0.526943652836924,-1.16051804446905,-0.0901682171153031,-0.0254862635619598,-0.025486263562217,-0.208340059885429,0.208340059886222,-0.632817533035005
454.2464,-0.769745991682941,1.26141206053928,0.532998420010583,-0.0875266564681012,0.189637450041035,0.189637450039857,NaN,NaN,-0.309681064773454,-0.61537670250885,1.14713556552477,-0.6153767025085,1.16379364319733,-1.55505233662253,0.078558582784151,1.0883331854342,0.0202623623860473,0.943326925697313,1.09078740354302,-0.107190418820361,1.09078740354342,-0.0730841141671142,0.946197199001738,0.295186418369525,-0.349120375643091,0.573859545883439,NaN,-0.117145897365147,0.117145897364958,-0.864353971353199,-0.462264653377758,-0.346499039941706,NaN,NaN,-0.19325600455094,0.904429526462802,-1.93724474373573,0.15341227363214,0.153412273632715,NaN,-1.08034227882166,-0.647385270430756,NaN,0.494885094863724,-1.19070766439634,-0.0930428195255172,-0.0382872924701261,-0.0382872924703905,-0.167437131876081,0.167437131876873,-0.661081383390316
454.3488,-0.742572482147979,1.24411424584091,0.538003073220033,-0.0830373333886998,0.170195636157107,0.170195636155932,NaN,NaN,-0.309485088013741,-0.614328492532596,1.16784284366592,-0.614328492532239,1.19736152519574,-1.55877889122521,0.110322337747771,1.0666162227312,0.0144535340816494,0.922904276051716,1.07521083154278,-0.112303415452994,1.07521083154318,-0.0992824772929561,0.932909838047484,0.271307213459243,-0.34500445542323,0.556753614584429,NaN,-0.120017227807747,0.120017227807553,-0.831511463110109,-0.445394601020719,-0.356375394619401,NaN,NaN,-0.260893018701346,0.820789901914816,-1.97827355115446,0.191186308894209,0.191186308894804,NaN,-1.06670041339274,-0.653107806854804,NaN,0.463882143422165,-1.21795852121073,-0.0955490187733561,-0.0508814512858907,-0.0508814512861659,-0.126307198909063,0.126307198909853,-0.689685818890214
454.4512,-0.71370117305913,1.22582679359727,0.543400128510175,-0.0788180898256297,0.150436761782654,0.150436761781479,NaN,NaN,-0.309311103818145,-0.612918585262011,1.18875105522145,-0.612918585261648,1.22951737582734,-1.56178716607322,0.141152701060104,1.04445689582821,0.00944745824176147,0.902338172433159,1.05877496294592,-0.116885993796237,1.0587749629463,-0.125309079246943,0.918818101376326,0.247256533127724,-0.340880461314864,0.540237059448303,NaN,-0.123145598835402,0.123145598835205,-0.798767956431246,-0.428397483004253,-0.3651819563185,NaN,NaN,-0.327265782788777,0.738032882220106,-2.01814286536329,0.229060531154734,0.229060531155332,NaN,-1.0524082547326,-0.657779571291433,NaN,0.433970071611168,-1.24221973040471,-0.0976807405357352,-0.0632136831211314,-0.0632136831214117,-0.0849844693288988,0.0849844693296851,-0.718605612130368
454.5536,-0.683163858268595,1.20660336825166,0.549212967894942,-0.0748491699725653,0.130392812197115,0.130392812195942,NaN,NaN,-0.309140308883519,-0.6111201859662,1.20979497803154,-0.611120185965833,1.26023552492393,-1.56409590404889,0.171009894976755,1.02191020890618,0.00523472282589539,0.881673202395277,1.04152675850439,-0.120913458807825,1.04152675850477,-0.151102643832725,0.903966733261875,0.223095257758408,-0.336738595255514,0.524297593026501,NaN,-0.126522908152522,0.126522908152322,-0.766149557327892,-0.411291334546112,-0.372925241860218,NaN,NaN,-0.39228118909491,0.656315502013848,-2.05677094655278,0.26696822882404,0.266968228824646,NaN,-1.03750326563389,-0.66142056410088,NaN,0.405178324497637,-1.26345234435397,-0.099432793665653,-0.0752342866273748,-0.0752342866276638,-0.0435043608959683,0.0435043608967558,-0.747813610248932
454.656,-0.65099429543262,1.18650037759224,0.55546591786695,-0.0711093090746102,0.1100980680483,0.110098068047133,NaN,NaN,-0.30895404702717,-0.608906007131139,1.23090924901248,-0.608906007130768,1.28949820899781,-1.56572850870745,0.199858910211436,0.999031457879922,0.00180309064516823,0.860953368788996,1.0235144741103,-0.12436241715318,1.02351447411067,-0.176603377120273,0.88840031921112,0.198883134887741,-0.332568075446084,0.508921152198718,NaN,-0.130137591380178,0.130137591379977,-0.733680239419426,-0.394091476719665,-0.379618164277615,NaN,NaN,-0.455852090610158,0.57578875170919,-2.09407734308464,0.304841947212973,0.304841947213566,NaN,-1.02202468928309,-0.664054552827121,NaN,0.377530407714973,-1.28162960743965,-0.100800864890683,-0.0868991142739483,-0.0868991142742293,-0.00190358774410536,0.00190358774489707,-0.777280580549242
454.7584,-0.617228222683936,1.16557670427958,0.562184002207604,-0.0675758183474579,0.0895889775204722,0.0895889775193018,NaN,NaN,-0.308733940571142,-0.606248343645948,1.25202856946388,-0.606248343645573,1.31729564918644,-1.56671294135759,0.227669659716181,0.975876060102897,-0.000862380880216548,0.840221978531226,1.00478754983501,-0.127210967288787,1.00478754983537,-0.201753199546231,0.872163146313783,0.174678559580482,-0.328357122443805,0.494092087848259,NaN,-0.133974579028029,0.133974579027824,-0.701381853030984,-0.376810507571489,-0.385280007515889,NaN,NaN,-0.517897408869677,0.496597243419568,-2.1299831268465,0.342613622457368,0.34261362245796,NaN,-1.00601350790284,-0.665708927031574,NaN,0.351043848136902,-1.29673712715188,-0.101781528483339,-0.0981696939462005,-0.0981696939464782,0.039779771824043,-0.039779771823249,-0.806975093498042
454.8608,-0.581903386675526,1.14389343498294,0.569392684279625,-0.064224680619746,0.0689040245514255,0.0689040245502583,NaN,NaN,-0.308462016601884,-0.603119163084401,1.27308790977519,-0.603119163084023,1.34362605641085,-1.56708157448197,0.254417089106759,0.952499375667851,-0.00277920629778304,0.819521528179208,0.985396498244727,-0.129438868105621,0.985396498245078,-0.226495963266861,0.855299082363124,0.150538372401861,-0.32409295195378,0.479793352136492,NaN,-0.138015292777776,0.138015292777571,-0.669274154413504,-0.35945833709101,-0.389936335663101,NaN,NaN,-0.578342213883734,0.418878914103233,-2.16441112247312,0.380214719032437,0.380214719033024,NaN,-0.989512373200794,-0.666414520667367,NaN,0.325730211276876,-1.30877296563277,-0.102372272537587,-0.109013297229198,-0.109013297229471,0.0815062319644903,-0.0815062319636928,-0.836863448172234
454.9632,-0.54505957768084,1.12151358264351,0.577117598078807,-0.0610306581492835,0.0480835871729236,0.0480835871717579,NaN,NaN,-0.308120828766469,-0.599490214233847,1.29402271877402,-0.599490214233464,1.36849555578214,-1.56687100063906,0.280081236176961,0.928956522222745,-0.00396732787589248,0.798893587122525,0.965392782990714,-0.131027687116077,0.965392782991056,-0.250777654284167,0.837851476990188,0.126517676527006,-0.319761781808248,0.466006681229172,NaN,-0.142237687915777,0.142237687915574,-0.637374861106227,-0.342042270699222,-0.393618837145981,NaN,NaN,-0.637117785560457,0.342764759995415,-2.19728613080878,0.417576368754463,0.417576368755049,NaN,-0.972565511465536,-0.666205405959778,NaN,0.301595157352107,-1.31774765605241,-0.10257154528382,-0.119402961423302,-0.119402961423582,0.123234885452224,-0.123234885451425,-0.866909636725569
455.0656,-0.506738666090166,1.09850179544132,0.585384266620895,-0.0579674142755756,0.0271697767735791,0.0271697767724161,NaN,NaN,-0.307693572395758,-0.595333154688972,1.31476914088531,-0.595333154688583,1.39191802500926,-1.56612179102285,0.304647238296402,0.905302193742252,-0.00444896040351096,0.778378687422992,0.944828685376159,-0.131960940277109,0.944828685376492,-0.274546581392938,0.819863089235976,0.102669674131364,-0.315348859756741,0.452712773192666,NaN,-0.14661634817277,0.146616348172569,-0.605699731317897,-0.324567144966963,-0.396365100011505,NaN,NaN,-0.69416166343336,0.268378590761865,-2.22853515054705,0.45462952071013,0.454629520710714,NaN,-0.955218609634838,-0.665118668766731,NaN,0.278638524844028,-1.32368414475296,-0.102378825353957,-0.12931745376672,-0.129317453767002,0.164923422872162,-0.164923422871362,-0.897075336594932
455.168,-0.466984635625054,1.07492404881311,0.594217807934755,-0.055007649132977,0.00620625210391833,0.00620625210275641,NaN,NaN,-0.307164191265586,-0.59061969344856,1.33526423699121,-0.590619693448167,1.41391484873762,-1.56487820177258,0.328105291039307,0.881590491392747,-0.00424842419886814,0.758016227559096,0.923757157730349,-0.132224232761725,0.923757157730674,-0.29775355569512,0.801376040058844,0.0790455187935731,-0.310838516121644,0.439891462167602,NaN,-0.151122628833156,0.151122628832956,-0.574262661260808,-0.307035508740086,-0.398218320468699,NaN,NaN,-0.74941768357597,0.195836794440624,-2.258087602832,0.491305110770581,0.491305110771167,NaN,-0.937518688463069,-0.663194174867169,NaN,0.256854442294048,-1.32661765561306,-0.101794711418504,-0.138741164231445,-0.138741164231726,0.206528179026106,-0.206528179025307,-0.927319924917499
455.2704,-0.425843610388759,1.05084732129654,0.603642631475758,-0.0521232492426513,-0.0147619910504855,-0.0147619910516506,NaN,NaN,-0.306517476954498,-0.585321742281701,1.3554461994489,-0.585321742281303,1.43451459678874,-1.56318783711782,0.35045055970467,0.857874763773848,-0.00339196583585822,0.737844387880325,0.902231658490323,-0.131805398382895,0.90223165849064,-0.320352063884699,0.782431782975315,0.0556941790861623,-0.306214243771768,0.427521888909933,NaN,-0.155724835476982,0.155724835476785,-0.543075795668806,-0.289447833851093,-0.399226954892975,NaN,NaN,-0.802835994990994,0.125248110571398,-2.28587556135639,0.527534251848296,0.527534251848886,NaN,-0.919513965486163,-0.6604743323833,NaN,0.236231479626052,-1.32659547230716,-0.100821022648397,-0.147663923379768,-0.147663923380067,0.248004188674106,-0.248004188673306,-0.957600515484855
455.3728,-0.38336387289942,1.02633925632509,0.61368212893174,-0.0492854527466257,-0.035688848720019,-0.0356888487211847,NaN,NaN,-0.305739163897577,-0.579411572777792,1.3752545557449,-0.579411572777392,1.45375263443937,-1.56110128352409,0.371683041916825,0.834207446232503,-0.00190756828017247,0.717900048396387,0.880305963204773,-0.130694625751396,0.880305963205083,-0.342298437007621,0.763071087151826,0.0326623100276185,-0.301458807544843,0.415582662257145,NaN,-0.1603884321867,0.160388432186508,-0.512149647700295,-0.27180274444059,-0.399444326867884,NaN,NaN,-0.854373049350199,0.056713411236666,-2.31183398868346,0.563248440963897,0.563248440964465,NaN,-0.90125370614191,-0.657003851847904,NaN,0.216752851665114,-1.32367664029556,-0.0994609076201156,-0.156080751150727,-0.15608075115104,0.28930523504874,-0.289305235047931,-0.987872015899862
455.4752,-0.339595869342948,1.00146780979036,0.624358362049566,-0.046465034041319,-0.0565273510295312,-0.0565273510307052,NaN,NaN,-0.304816024424185,-0.572861980205865,1.39463036506726,-0.572861980205461,1.47167066762892,-1.5586717213812,0.391807379577571,0.81063988936155,0.000175242862092151,0.698218698401825,0.858033948451408,-0.128884555625753,0.85803394845171,-0.363552015519782,0.743334029175869,0.0099941304114832,-0.296554385285255,0.404051999406662,NaN,-0.165076287968143,0.165076287967956,-0.481493224949962,-0.254097265399777,-0.398928198157832,NaN,NaN,-0.903991566439166,-0.00967451116722073,-2.33590098111837,0.598379773561364,0.598379773561926,NaN,-0.882788057634438,-0.652829501908004,NaN,0.198396677741382,-1.31793159973884,-0.0977189625679293,-0.163991547387463,-0.163991547387797,0.330383889826077,-0.330383889825263,-1.01808720366268
455.5776,-0.294592199363946,0.976300882583519,0.635691748780006,-0.0436325109109798,-0.0772299155089197,-0.0772299155101001,NaN,NaN,-0.303735967260443,-0.565646456076239,1.41351641669701,-0.565646456075829,1.48831622198189,-1.55595451191404,0.410832620692116,0.787222171279092,0.00282558905241438,0.678834330935367,0.835469347508329,-0.126370339441094,0.835469347508623,-0.384075310422952,0.723259987880816,-0.0122686958979976,-0.291482742059776,0.392907834650039,NaN,-0.169748976227231,0.169748976227051,-0.451114162241873,-0.236327094697126,-0.397740309939176,NaN,NaN,-0.95166048353894,-0.0738311487055537,-2.35801802581108,0.632861150203942,0.632861150204533,NaN,-0.864167858774071,-0.647999855479543,NaN,0.18113629051796,-1.3094417632769,-0.0956013561318298,-0.171400735542995,-0.171400735543346,0.37119155724102,-0.371191557240197,-1.04819682880798
455.68,-0.248407592020235,0.950905939203189,0.647700747487255,-0.0407583740451811,-0.0977486119370044,-0.0977486119381912,NaN,NaN,-0.302488139646399,-0.557739371587681,1.43185743594632,-0.557739371587266,1.50374205399818,-1.55300675770756,0.428771930532462,0.764002893478839,0.00601142229679878,0.659779321245911,0.812665475209539,-0.123149661416653,0.812665475209826,-0.403834157950019,0.702887635164651,-0.0340871754684933,-0.28622543838623,0.382127897057008,NaN,-0.174365133664452,0.174365133664279,-0.421018868792689,-0.218486900279961,-0.39594589833132,NaN,NaN,-0.997354895219868,-0.135680471064726,-2.37813027141991,0.666626464566802,0.666626464567404,NaN,-0.845444422456737,-0.6425650225111,NaN,0.16494058298446,-1.29829904561305,-0.0931159531775622,-0.178316868717053,-0.178316868717412,0.411678533707409,-0.411678533706576,-1.07814975467619
455.7824,-0.201098873235261,0.925349613054049,0.660401535816752,-0.037813335625052,-0.118035443930369,-0.118035443931559,NaN,NaN,-0.301063029960179,-0.549116174986186,1.44960029791337,-0.549116174985767,1.51800549411154,-1.54988684005085,0.445642249532127,0.741028965994014,0.00969970558478688,0.641084295155894,0.789674917997791,-0.119222734572607,0.789674917998071,-0.422797864010846,0.682254919093692,-0.0554250962189586,-0.280764073988114,0.371689765289086,NaN,-0.178881870880726,0.178881870880557,-0.391212700141387,-0.20057063728861,-0.393613186564801,NaN,NaN,-1.04105598635242,-0.195155104130519,-2.3961868107622,0.699610774847112,0.69961077484773,NaN,-0.826669295295662,-0.636576372555874,NaN,0.1497743824716,-1.28460534617638,-0.0902724282657548,-0.184752209793277,-0.184752209793659,0.451794079499372,-0.451794079498525,-1.10789314249883
455.8848,-0.152724928744921,0.899697296770694,0.673807679802934,-0.0347685924057882,-0.138042655450403,-0.138042655451599,NaN,NaN,-0.29945256698687,-0.539753601464875,1.4666942457686,-0.539753601464449,1.53116772645976,-1.5466539345761,0.461463901822594,0.718345393468704,0.0138565925677076,0.622777997981061,0.766549191174116,-0.114592278954406,0.766549191174389,-0.44093933639116,0.661399040353488,-0.0762491319096937,-0.275080568329498,0.361570906216277,NaN,-0.183255220912487,0.183255220912322,-0.361700157971827,-0.18257188170467,-0.390812853643909,NaN,NaN,-1.08275095990349,-0.252196494728906,-2.41214097483434,0.731750471667775,0.731750471668407,NaN,-0.807894005508035,-0.63008625635304,NaN,0.135598835105957,-1.26847199065991,-0.0870823628134034,-0.190722307254102,-0.190722307254503,0.4914864950436,-0.491486495042738,-1.1373726805645
455.9872,-0.103346662712179,0.874012715854426,0.6879297915908,-0.0315960992470213,-0.15772306729587,-0.157723067297067,NaN,NaN,-0.297650213587703,-0.52962988775285,1.48309110978673,-0.529629887752418,1.54329301471097,-1.54336749626613,0.476260170400091,0.695995075261946,0.0184476044959118,0.604887174724935,0.743338375222796,-0.109263484932282,0.743338375223063,-0.458235204678147,0.640356424535862,-0.0965289392681766,-0.269157475448151,0.351748700246407,NaN,-0.187440620071399,0.187440620071239,-0.332485110492715,-0.164484182119758,-0.387617473794618,NaN,NaN,-1.1224329596377,-0.306755062907121,-2.42595064125616,0.762983455169514,0.762983455170146,NaN,-0.789169809393201,-0.62314773469271,NaN,0.122371777465835,-1.25001914330926,-0.0835593248817451,-0.196245593752808,-0.196245593753224,0.530703209347722,-0.530703209346841,-1.16653286069899
456.0896,-0.05302695095924,0.84835748682491,0.702775177600733,-0.0282688504568164,-0.177030441408621,-0.177030441409819,NaN,NaN,-0.295651054733522,-0.518724984324672,1.49874552417187,-0.518724984324234,1.5544478831085,-1.54008670021367,0.490056858088775,0.674018626965204,0.0234378011594599,0.587436466941273,0.720090744961135,-0.103243962162663,0.720090744961395,-0.474665928184726,0.619162692068172,-0.11623724728326,-0.262978326542012,0.342200454454882,NaN,-0.191393425815167,0.191393425815012,-0.303571022683324,-0.14630143239212,-0.384100919571394,NaN,NaN,-1.16010098584959,-0.358790342629315,-2.437578561391,0.793249325885087,0.79324932588572,NaN,-0.770547440360151,-0.615814318615306,NaN,0.110048077720578,-1.22937520111229,-0.0797189281017317,-0.201343028783476,-0.201343028783913,0.569390895747878,-0.569390895746981,-1.19531730369997
456.192,-0.00183058775744803,0.822790666906574,0.718347484062363,-0.0247611667893281,-0.195919861725382,-0.195919861726588,NaN,NaN,-0.293451880119615,-0.507020762261114,1.5136151375859,-0.507020762260671,1.5647002678766,-1.53686984213687,0.502881846962445,0.652454221506193,0.0287919455275085,0.570448324600793,0.696852401124523,-0.0965436755817679,0.696852401124776,-0.490215892367572,0.597852627849751,-0.135349938266754,-0.256527990517594,0.332903401964066,NaN,-0.195069470385205,0.195069470385052,-0.274961185614778,-0.128018258171804,-0.380337733758758,NaN,NaN,-1.19575980174874,-0.408271111798636,-2.44699270520161,0.82248958642201,0.822489586422632,NaN,-0.752076859910398,-0.608139723167251,NaN,0.0985799442123018,-1.20667617935135,-0.0755788625133234,-0.206037795096148,-0.206037795096605,0.60749561889044,-0.607495618889522,-1.22366912194126
456.2944,0.0501757774514916,0.79736830881452,0.734646354469761,-0.0210489831254331,-0.214348112704664,-0.214348112705879,NaN,NaN,-0.291051259393686,-0.494501210948636,1.52766081134204,-0.494501210948187,1.57411866739104,-1.53377372629151,0.514764665538789,0.631337444013816,0.0344746640266067,0.55394292851927,0.673666914310907,-0.0891748709130851,0.673666914311154,-0.504873493530849,0.576460153538734,-0.153846119448615,-0.249793037359794,0.323834684187003,NaN,-0.198425633457146,0.198425633456998,-0.246658931483913,-0.10963040087035,-0.376402490781138,NaN,NaN,-1.22941982863106,-0.455175509083613,-2.45416661220644,0.850647845728134,0.85064784572876,NaN,-0.733807010531253,-0.600177635388014,NaN,0.0879172141668871,-1.18206509604553,-0.0711588944367281,-0.210355043401183,-0.210355043401659,0.644963004111803,-0.644963004110869,-1.25153129053448
456.3968,0.102923719839229,0.772143037359033,0.751667118351573,-0.0171101264089929,-0.232274036573658,-0.23227403657488,NaN,NaN,-0.288449605632101,-0.481152620330023,1.54084679992965,-0.48115262032957,1.58277132552883,-1.53085307047208,0.525736077754549,0.61070115901908,0.0404506033144397,0.537938122373053,0.650574995485579,-0.0811519926516456,0.650574995485821,-0.518631208641484,0.555018303858869,-0.171708182300981,-0.242762083543351,0.314971316520038,NaN,-0.201420411360527,0.201420411360384,-0.218667820950901,-0.0911350840281657,-0.372369171280669,NaN,NaN,-1.26109702942206,-0.499491127383101,-2.45907972609885,0.877670014398309,0.877670014398924,NaN,-0.715785572258294,-0.591981491738068,NaN,0.0780076420933894,-1.15569135441002,-0.0664808356137161,-0.214321668879111,-0.214321668879609,0.681738417517688,-0.681738417516736,-1.27884699506286
456.4992,0.156343140390041,0.74716366585848,0.769400530730646,-0.0129245693301836,-0.249658855678268,-0.24965885567949,NaN,NaN,-0.285649221355888,-0.466963741797135,1.55314090879345,-0.466963741796676,1.59072548122025,-1.5281599496705,0.535827712129202,0.590575393905615,0.0466845838619242,0.522449357765203,0.627614208327481,-0.0724915983630897,0.627614208327717,-0.531485644448471,0.533559203440996,-0.188921846663909,-0.235426097648815,0.3062901461522,NaN,-0.204014457948777,0.204014457948639,-0.190991795268225,-0.0725313496491032,-0.368310570048682,NaN,NaN,-1.29081278185275,-0.541215066527451,-2.46171768501619,0.90350448063603,0.903504480636629,NaN,-0.698058724102072,-0.583604253819422,NaN,0.0687971994452422,-1.12771011491052,-0.0615684748970598,-0.217966113433128,-0.217966113433645,0.717767148158927,-0.717767148157959,-1.30555993543042
456.6016,0.21036238774641,0.722474869988252,0.787832577122257,-0.00847464699686004,-0.26646645099731,-0.266466450998536,NaN,NaN,-0.282654321504294,-0.451925925734387,1.56451462160834,-0.451925925733923,1.5980467082111,-1.52574330030285,0.545071740031444,0.570987240951928,0.053141753290055,0.50748965523127,0.604818730734067,-0.063212273889843,0.604818730734298,-0.543437559675754,0.512114038236099,-0.205476187350806,-0.227778650926347,0.297767815337243,NaN,-0.206171065629592,0.206171065629462,-0.163635296546911,-0.0538203499882531,-0.364297755001813,NaN,NaN,-1.31859374182752,-0.58035392691787,-2.46207254263201,0.928102262079848,0.928102262080404,NaN,-0.680670910839979,-0.575098171582095,NaN,0.0602303800961166,-1.09828165053444,-0.0564474601861874,-0.221318210764798,-0.221318210765342,0.752994581866959,-0.75299458186598,-1.33161457866027
456.704,0.264908393158506,0.698116928010696,0.806944346306319,-0.00374523295504811,-0.282663595165721,-0.282663595166959,NaN,NaN,-0.279471030748044,-0.436033242789231,1.57494318995425,-0.436033242788764,1.60479834053747,-1.52364850239858,0.553500585958173,0.551960773596671,0.0597877447798385,0.493069578995824,0.582219155788394,-0.0533345527397494,0.58221915578862,-0.554491855952263,0.490713019620738,-0.221363640781759,-0.219816112927426,0.289380738916498,NaN,-0.207856562570834,0.207856562570711,-0.136603372820848,-0.0350055852195949,-0.360399584451476,NaN,NaN,-1.34447169556995,-0.616923735893037,-2.46014290984797,0.951417135182945,0.95141713518347,NaN,-0.663664617074872,-0.56651453320224,NaN,0.0522504983230115,-1.06757068426125,-0.0511451239290964,-0.224409096949763,-0.224409096950328,0.787366347046918,-0.787366347045931,-1.35695636134511
456.8064,0.319906806578083,0.674125522792817,0.826711957994049,0.0012761179320632,-0.298220148363581,-0.298220148364825,NaN,NaN,-0.276107357135928,-0.419282601447365,1.58440568301772,-0.419282601446894,1.61104095195016,-1.52191704352192,0.561146634537312,0.533516968420228,0.0665888451107388,0.479197219501264,0.559842311708126,-0.0428808403882269,0.559842311708346,-0.564657537951737,0.469385344596876,-0.236579990735533,-0.2115378093662,0.281105093276358,NaN,-0.209040623457137,0.20904062345702,-0.109901789853878,-0.0160930884388464,-0.35668227598575,NaN,NaN,-1.36848339829596,-0.650949814433149,-2.45593402852807,0.973405748850431,0.973405748850917,NaN,-0.647080151687289,-0.557903413249868,NaN,0.0447999663091537,-1.03574571267709,-0.045690255721857,-0.227271198140076,-0.227271198140661,0.820828414689087,-0.820828414688094,-1.38153184943284
456.9088,0.375282123134803,0.650531596393626,0.847106529351351,0.00659904789243756,-0.313109226556278,-0.313109226557535,NaN,NaN,-0.272573146150065,-0.401673864595774,1.59288499567056,-0.401673864595299,1.61683186786745,-1.52058626508805,0.568041911803529,0.515673626859674,0.073512174752147,0.465878179273461,0.53771108991004,-0.0318753431141078,0.537711089910254,-0.573947647706946,0.448159157240807,-0.251124334922162,-0.20294616384807,0.272916806487133,NaN,-0.209696499841395,0.209696499841283,-0.0835371620477,0.00290844055529912,-0.353209020372137,NaN,NaN,-1.39067039574575,-0.682466599094811,-2.44945780305895,0.994027731380112,0.994027731380566,NaN,-0.630955446177713,-0.549313434975747,NaN,0.0378205379042365,-1.00297832617573,-0.0401128351642029,-0.229938297195965,-0.229938297196571,0.853327155986871,-0.853327155985872,-1.40528886918128
457.0112,0.43095779556266,0.627361252647695,0.868094173094206,0.0122302889202429,-0.327307343195668,-0.327307343196941,NaN,NaN,-0.268880018117539,-0.383209953437443,1.60036781186921,-0.383209953436966,1.62222471965635,-1.51968919772349,0.574217746031401,0.498445296932614,0.0805258799352725,0.453115562340056,0.515844288006547,-0.0203440015006483,0.515844288006758,-0.582379177482653,0.427061516322066,-0.264999033743425,-0.19404683378575,0.264791543686773,NaN,-0.20980117125287,0.209801171252763,-0.0575170996601447,0.0219875600260298,-0.350039643343577,NaN,NaN,-1.41107882384523,-0.71151742875404,-2.4407328116247,1.01324579706474,1.01324579706516,NaN,-0.61532587165194,-0.540791557327315,NaN,0.0312535151583504,-0.969442537232918,-0.0344437457993784,-0.232445667330674,-0.232445667331304,0.88480937591542,-0.884809375914416,-1.42817661874988
457.1136,0.486856335196498,0.604635707403356,0.889636028798673,0.0181735716816264,-0.340794521021612,-0.340794521022892,NaN,NaN,-0.265041290430008,-0.363896925559376,1.60684452440686,-0.363896925558897,1.62726906361291,-1.51925448837869,0.579704429133194,0.48184320077406,0.087599332739097,0.440909971026628,0.494256482258132,-0.00831442886647952,0.494256482258339,-0.58997296192787,0.406118370921203,-0.278209641090597,-0.184848835196971,0.256704690980509,NaN,-0.209335418929343,0.209335418929239,-0.0318503588502757,0.0411300767099674,-0.347230320489769,NaN,NaN,-1.42975918537958,-0.73815429713077,-2.42978430179944,1.0310258508004,1.03102585080077,NaN,-0.600224079338275,-0.532382888733636,NaN,0.0250399344879321,-0.935314119163358,-0.0287144888386183,-0.234830242368313,-0.234830242368944,0.915222334695474,-0.915222334694467,-1.45014575738564
457.216,0.542899407704477,0.582371289289961,0.911688334508615,0.0244295601100449,-0.353554371559778,-0.353554371561067,NaN,NaN,-0.261071884525245,-0.343744020858724,1.61230911712786,-0.343744020858243,1.63201008218022,-1.51930641235438,0.584530901518657,0.465875176300973,0.094703331690977,0.429259515072628,0.472957943176268,0.00418414645980329,0.472957943176471,-0.596753547602821,0.385354540571477,-0.290764817077521,-0.175364640369269,0.24863134524606,NaN,-0.208283827855841,0.208283827855746,-0.00654697754100252,0.060319100309194,-0.34483334711173,NaN,NaN,-1.44676610759979,-0.762437565916834,-2.41664415781072,1.04733708177785,1.04733708177817,NaN,-0.585679866206007,-0.524130521293512,NaN,0.0191207574007969,-0.900769946145926,-0.0229569027434672,-0.237130786434126,-0.237130786434757,0.944513758383824,-0.944513758382812,-1.47114846492628
457.3184,0.599007928425963,0.560579497168515,0.9342025476326,0.0309958232275343,-0.365574138301774,-0.365574138303072,NaN,NaN,-0.256988215796024,-0.322763675125035,1.61675901454421,-0.322763675124552,1.6364883775125,-1.51986496481321,0.588724474680268,0.450545638567326,0.101810294762308,0.418159835455584,0.451954601810063,0.0171209384322333,0.451954601810262,-0.602749035911174,0.364793695867391,-0.30267622132459,-0.165610229046044,0.240546315349536,NaN,-0.206634719007162,0.206634719007072,0.018381614032172,0.0795351573583177,-0.342896965179955,NaN,NaN,-1.46215808493448,-0.784435630747348,-2.40135081916718,1.06215203717444,1.06215203717474,NaN,-0.57172006396988,-0.516075374647055,NaN,0.0134370794170608,-0.865987320210673,-0.0172028852953938,-0.239388034239814,-0.23938803424046,0.972631837927305,-0.972631837926287,-1.49113846912291
457.4208,0.655102159147794,0.539267117784129,0.957125519565818,0.0378668499228064,-0.376844698079794,-0.3768446980811,NaN,NaN,-0.252808064998169,-0.300971504913443,1.62019490007437,-0.300971504912956,1.64073985582658,-1.52094603453067,0.592310587929907,0.435855559617133,0.108894438548583,0.407604140058701,0.431248062108557,0.0304636656510978,0.431248062108752,-0.607990895053806,0.344458340351759,-0.31395838331742,-0.155605081727549,0.232424135111937,NaN,-0.204380009175557,0.204380009175475,0.0429225077789583,0.0987563628206646,-0.341465251566778,NaN,NaN,-1.47599720887578,-0.804224536211246,-2.38394913685024,1.07544667292992,1.07544667293018,NaN,-0.558368450157056,-0.508256043215414,NaN,0.00793035433653437,-0.831143276971395,-0.0114841188712806,-0.241644788344348,-0.241644788345011,0.999525217795804,-0.99952521779478,-1.51007104256487
457.5232,0.711101807605056,0.518436397481494,0.980399719620331,0.045034101175343,-0.38736052050731,-0.387360520508635,NaN,NaN,-0.248550432974882,-0.278386265170063,1.62262050426117,-0.278386265169572,1.64479568924851,-1.52256166047504,0.595312585227202,0.421802463254517,0.115931941036293,0.397583247329195,0.410835648620011,0.0441786239344234,0.410835648620202,-0.612513741290467,0.32436979850461,-0.324628548272963,-0.145372121953426,0.22423908263722,NaN,-0.201515002550546,0.201515002550471,0.0670612501570556,0.117958645441867,-0.340578066368708,NaN,NaN,-1.48834888654991,-0.821887544648455,-2.36449017250851,1.08720038719812,1.08720038719834,NaN,-0.545645682339827,-0.500708649653546,NaN,0.00254262098806445,-0.796413874077331,-0.00583181451268409,-0.243945969521629,-0.243945969522309,1.02514297715529,-1.02514297715427,-1.52790297854149
457.6256,0.766926132012838,0.498085252479703,1.0039634964115,0.0524860865042382,-0.39711959427494,-0.397119594276274,NaN,NaN,-0.244235383580008,-0.255029775416936,1.62404236911982,-0.255029775416443,1.64868233732897,-1.52472035402643,0.597751506141847,0.408380436589548,0.122901088067748,0.38808563956104,0.390710485958171,0.0582307708808251,0.390710485958358,-0.616355095664189,0.304548215771063,-0.334706500789855,-0.134937627662438,0.215965198690618,NaN,-0.198038134461846,0.198038134461775,0.0907817876035452,0.137116012513567,-0.340271046930666,NaN,NaN,-1.49928154849292,-0.837514669815544,-2.3430309640242,1.09739604889201,1.09739604889217,NaN,-0.533569258266021,-0.493466712773771,NaN,-0.0027832763516342,-0.761973471945078,-0.000276501333600298,-0.24633860885875,-0.246338608859444,1.04943461211498,-1.04943461211395,-1.54459256192537
457.728,0.822494052762825,0.478207499820547,1.02775136263677,0.0602084542333449,-0.406123333378375,-0.406123333379731,NaN,NaN,-0.239883880593981,-0.230926811747505,1.62446960018221,-0.23092681174701,1.65242161122328,-1.52742745160851,0.599645898771112,0.395580164712625,0.129782400471201,0.379097530376143,0.370861613991937,0.0725838229549634,0.37086161399212,-0.619555123104151,0.28501257407105,-0.344214370029015,-0.124331126551933,0.207576299239876,NaN,-0.193950696742383,0.193950696742316,0.114066428389878,0.156200833263625,-0.340575626049967,NaN,NaN,-1.50886634455755,-0.851202187531538,-2.31963428083424,1.10602003324758,1.10602003324769,NaN,-0.522153503795884,-0.486561037668924,NaN,-0.00810346919418746,-0.727994014259594,0.00515212238131584,-0.248871763189708,-0.248871763190408,1.07235003834095,-1.07235003833993,-1.56009954338115
457.8304,0.877724274137777,0.458793098248666,1.05169429596511,0.0681840952070611,-0.414376472680708,-0.414376472682076,NaN,NaN,-0.23551762312385,-0.206104966628085,1.62391361794185,-0.20610496662759,1.65603077433926,-1.53068546488696,0.601011671814384,0.383388993243068,0.136558731931873,0.370602947554544,0.351274144646271,0.0872003697435284,0.351274144646451,-0.622156358629665,0.265780719010366,-0.353176421238828,-0.113585273970936,0.199045980210479,NaN,-0.189256562809622,0.189256562809561,0.1368958344262,0.175184126508872,-0.341519062757714,NaN,NaN,-1.51717682808223,-0.86305213041219,-2.29436837547503,1.11306226686982,1.11306226686988,NaN,-0.511409587061577,-0.480019630136365,NaN,-0.0134728400954542,-0.69464431436368,0.0104252855230547,-0.251596351954179,-0.25159635195489,1.09383964173148,-1.09383964173047,-1.57438511359481
457.9328,0.932535422445028,0.43982840065016,1.07572006220307,0.0763932689210242,-0.421886954652836,-0.421886954654212,NaN,NaN,-0.231158880790772,-0.180594475540413,1.62238791516453,-0.180594475539917,1.65952269454611,-1.53449441423171,0.601862011546924,0.37179102177225,0.143215325589971,0.362583830260009,0.331929470106005,0.10204201323302,0.331929470106183,-0.624203423235603,0.246869388118522,-0.361618839423041,-0.102735698467061,0.190347614897751,NaN,-0.183961909861435,0.183961909861382,0.159249063182147,0.194035850206776,-0.343124492133488,NaN,NaN,-1.52428863172987,-0.873171763880662,-2.26730671848252,1.11851627383148,1.11851627383148,NaN,-0.501345554206305,-0.473867628455889,NaN,-0.0189447947237949,-0.662089351335532,0.01551521063878,-0.25456492949082,-0.254564929491538,1.11385440211414,-1.11385440211314,-1.58741187355174
458.0352,0.986846209827261,0.421296426924053,1.09975357536013,0.0848137651847327,-0.428665805118893,-0.428665805120282,NaN,NaN,-0.226830326731621,-0.154428004112775,1.61990782286155,-0.154428004112278,1.66290607347827,-1.53885214072569,0.602207393271364,0.360767232618749,0.149739821506325,0.355020142139995,0.312805535012255,0.117069536505633,0.312805535012431,-0.62574272839969,0.228294228792924,-0.369569508548842,-0.0918207948519781,0.181454346665824,NaN,-0.178074928352219,0.178074928352175,0.18110367937054,0.212725195294902,-0.345411009670248,NaN,NaN,-1.53027913999698,-0.881673032682631,-2.23852769273473,1.12237921099708,1.12237921099704,NaN,-0.491966382089265,-0.468127239224983,NaN,-0.0245710400146369,-0.63048957316346,0.0203951651825123,-0.257831396821573,-0.257831396822297,1.13234610413462,-1.13234610413363,-1.59914379757163
458.1376,1.04057563106083,0.40317716259156,1.1237173046707,0.0934211106594516,-0.434726997470336,-0.434726997471734,NaN,NaN,-0.222554865636233,-0.127640391841867,1.61649028805274,-0.127640391841369,1.66618576323903,-1.5437545875871,0.602055704368741,0.350295659151501,0.156122212619416,0.347890003262348,0.293877177276025,0.132243099891496,0.2938771772762,-0.626822165300498,0.210069799914527,-0.377057785680624,-0.0808814504515797,0.172339079825283,NaN,-0.171605517464823,0.171605517464787,0.202435946338713,0.231220881939068,-0.34839380027367,NaN,NaN,-1.53522716289211,-0.888671968204449,-2.2081142263513,1.12465188612504,1.12465188612495,NaN,-0.483274045532899,-0.462817666471039,NaN,-0.0304013782485664,-0.60000020326798,0.0250394963784967,-0.261450648650234,-0.261450648650982,1.1492676379482,-1.14926763794722,-1.60954618392015
458.24,1.09364319351737,0.385447878136909,1.14753172432372,0.102188817453264,-0.440087308002732,-0.440087308004142,NaN,NaN,-0.218355456253018,-0.100268357097945,1.61215366598066,-0.100268357097448,1.669363153682,-1.54919604202864,0.601412468130286,0.340351593122096,0.162354752388002,0.341169841352582,0.27511652641808,0.147522458902335,0.275116526418254,-0.627490777654694,0.192209559374395,-0.384114268424314,-0.0699607085366525,0.162974470181514,NaN,-0.164564974659722,0.164564974659692,0.223221088737263,0.249491451590968,-0.35208430845097,NaN,NaN,-1.53921261402904,-0.894288056935015,-2.17615336201493,1.12533876153753,1.12533876153742,NaN,-0.475267599716102,-0.457955034324552,NaN,-0.036483528564326,-0.570770556452527,0.0294236380055731,-0.265478167381797,-0.265478167382582,1.16457337958552,-1.16457337958455,-1.61858559436214
458.3424,1.14596917277641,0.36808345539019,1.17111578835911,0.111088658560724,-0.444766167003693,-0.444766167005107,NaN,NaN,-0.214254931251413,-0.0723501750319679,1.6069175265591,-0.07235017503147,1.67243659747749,-1.55516933782483,0.600281134534056,0.330907824649779,0.168431822821477,0.334834559432188,0.256493437498608,0.162867197826397,0.256493437498782,-0.627798424495911,0.174725847206576,-0.390770556697539,-0.059103392369442,0.153332916609805,NaN,-0.156965692431016,0.156965692430991,0.243433602166654,0.267505547673604,-0.356490433811864,NaN,NaN,-1.54231619436674,-0.89864358224648,-2.14273578284037,1.12444795153799,1.12444795153785,NaN,-0.467943280190557,-0.453552315001356,NaN,-0.0428629821262567,-0.542943380083421,0.0335240797435134,-0.269969590016702,-0.269969590017525,1.17821962883462,-1.17821962883367,-1.62622979585062
458.4448,1.19747488428896,0.351056706446405,1.19438741092916,0.12009095247487,-0.448785510137785,-0.448785510139207,NaN,NaN,-0.210275819993831,-0.0439253409284316,1.60080247229969,-0.0439253409279332,1.67540184370526,-1.56166602511052,0.598663403271733,0.321934906041347,0.174349773957988,0.328857715536245,0.237975938851292,0.178236974078311,0.237975938851465,-0.62779544474399,0.157629876253109,-0.397059013026029,-0.0483557180985557,0.143386556351886,NaN,-0.148820878891868,0.148820878891849,0.263047584608381,0.28523217882145,-0.361616733181028,NaN,NaN,-1.54461908088255,-0.901862956998387,-2.10795532223349,1.12199121790414,1.12199121790398,NaN,-0.461294621531766,-0.449619276349568,NaN,-0.0495828821868212,-0.516654235113715,0.0373183040524986,-0.274980263864359,-0.274980263865212,1.19016507828869,-1.19016507828776,-1.63244771959938
458.5472,1.248082964389,0.334338676882972,1.21726393975222,0.129164845351546,-0.452169631929316,-0.452169631930753,NaN,NaN,-0.206440180683964,-0.0150342284284538,1.59382996410408,-0.0150342284279559,1.6782524640955,-1.56867651532594,0.59655955705943,0.313401430228542,0.180106743626834,0.323211709186535,0.219530677839399,0.193591770629038,0.219530677839571,-0.627532334660667,0.14093173823915,-0.403012526510528,-0.0377649160463523,0.133107266923877,NaN,-0.140144315620444,0.14014431562043,0.28203707318544,0.30264096075276,-0.367464619895666,NaN,NaN,-1.5462026200362,-0.904072062144494,-2.07190847669448,1.11798395891359,1.1179839589134,NaN,-0.455312592143967,-0.446162456728546,NaN,-0.0566839120867193,-0.49203092414171,0.0407847085852156,-0.280564792430187,-0.280564792431075,1.20037128977893,-1.200371289778,-1.63720944333899
458.6496,1.29771765770502,0.31789893127573,1.23966261882512,0.138278584925845,-0.454945040143769,-0.454945040145219,NaN,NaN,-0.202769447398609,0.0142822517512932,1.58602215326196,0.014282251751791,1.68098026690876,-1.57619020931524,0.593968794350699,0.305274314393152,0.185702462152771,0.317867967876932,0.201123354782766,0.208892156643722,0.201123354782938,-0.627059445057303,0.124640425742214,-0.408664285262681,-0.0273788708331414,0.122466676086059,NaN,-0.130950154068498,0.13095015406849,0.300376376487174,0.319702335552319,-0.374032562378534,NaN,NaN,-1.54714802882873,-0.905397600874883,-2.03469392975658,1.1124451817568,1.11244518175659,NaN,-0.449985739453253,-0.443185166244127,NaN,-0.064204180657828,-0.469192968691446,0.0439025323587648,-0.286776574078898,-0.286776574079824,1.2088031580548,-1.20880315805388,-1.64048619450243
458.752,1.34630511115113,0.301705820829333,1.26150104036624,0.14739978259253,-0.457140309052783,-0.457140309054239,NaN,NaN,-0.19928429507161,0.0439829901563869,1.57740172259414,0.0439829901568848,1.68357569699396,-1.58419561208313,0.590889557439238,0.297519080692771,0.19113804475272,0.312797127419891,0.182719139457779,0.224099557202198,0.182719139457952,-0.626426701488239,0.108763864621389,-0.41404756165331,-0.0172457862128225,0.111436180193705,NaN,-0.121252743556141,0.121252743556141,0.318040395066661,0.336387767622575,-0.381316286494894,NaN,NaN,-1.54753610732828,-0.905966471731732,-1.99641208857917,1.10539744813001,1.10539744812979,NaN,-0.445300337650729,-0.440687507036927,NaN,-0.0721791037244906,-0.448251135010314,0.0466517924365348,-0.293667342934153,-0.293667342935114,1.21542934605359,-1.21542934605268,-1.64225037218314
458.8544,1.39377367326518,0.285726733771476,1.2826975856439,0.156495660982721,-0.458785929437258,-0.458785929438717,NaN,NaN,-0.196004522123178,0.0740270103251572,1.56799174197141,0.0740270103256557,1.68602821506574,-1.59268042937842,0.587319852277769,0.290100128949021,0.19641577646327,0.307969203160443,0.164283066354786,0.239176528564499,0.16428306635496,-0.625683345612381,0.0933089512447283,-0.419195511139048,-0.00741387688197131,0.0999869726516997,NaN,-0.111066488245947,0.111066488245953,0.33500491972681,0.352669915164554,-0.389308980215262,NaN,NaN,-1.54744696383816,-0.9059051598089,-1.95716463122257,1.09686678858181,1.0968667885816,NaN,-0.441240531384079,-0.438666404794325,NaN,-0.080641284231366,-0.429307003805665,0.0490132268162656,-0.301286721152838,-0.301286721153823,1.22022268152528,-1.22022268152438,-1.64247558728329
458.9568,1.44005419008212,0.269928331379795,1.30317185067022,0.165533286416671,-0.459914153658002,-0.459914153659471,NaN,NaN,-0.192948946960948,0.104373784825828,1.55781554010929,0.104373784826326,1.68832663994705,-1.60163163416363,0.583257551902755,0.282981000878858,0.201538897052315,0.303353753901959,0.145780406075649,0.254087027874901,0.145780406075825,-0.624877688756057,0.0782815937758667,-0.424140978439485,0.00206891434664016,0.0880900885232269,NaN,-0.100405738625166,0.100405738625178,0.351246890784596,0.368522776458891,-0.398001490623172,NaN,NaN,-1.54695975069393,-0.905339144452847,-1.91705406349745,1.08688259292869,1.08688259292847,NaN,-0.437788474960315,-0.437115649906841,NaN,-0.0896203966355917,-0.412452578356893,0.0509682391742135,-0.309681791339348,-0.309681791340364,1.22316050983009,-1.2231605098292,-1.64113671873351
459.0592,1.48508028335395,0.254276771774684,1.32284504811278,0.174479788918797,-0.460558837966823,-0.460558837968296,NaN,NaN,-0.190135313146384,0.134983527559578,1.54689658919523,0.134983527560077,1.6904594412794,-1.61103548938827,0.578700680385866,0.276124642427501,0.2065113917701,0.298920045924791,0.127177014137724,0.268796663072679,0.127177014137902,-0.624056866849377,0.063686760818739,-0.428916302002433,0.0111551778113522,0.0757164734503032,NaN,-0.0892847236505663,0.0892847236505827,0.366744603443466,0.383921810546352,-0.407382499073507,NaN,NaN,-1.54615240788687,-0.904392324049054,-1.87618329042609,1.07547749344359,1.07547749344337,NaN,-0.434924474778474,-0.436025953967281,NaN,-0.0991430878381789,-0.39776993288373,0.052498849465852,-0.318896701253355,-0.318896701254411,1.22422500222623,-1.22422500222535,-1.63820998277113
459.1616,1.52878859948458,0.238737919169324,1.34164037478551,0.183302574626555,-0.460755289162646,-0.460755289164129,NaN,NaN,-0.187580199886193,0.165817464002121,1.53525839661345,0.165817464002621,1.69241499101627,-1.62087752245551,0.573647689149608,0.269493674319791,0.211337789086407,0.294637226150265,0.108439662407967,0.283272913320805,0.108439662408148,-0.623266593513142,0.0495285387657179,-0.433553113926097,0.0197982810621508,0.0628370807269539,NaN,-0.0777175218041545,0.0777175218041749,0.381477859152525,0.398844034931355,-0.417438666860943,NaN,NaN,-1.54510141337207,-0.903186461578833,-1.83465521403978,1.06268725421077,1.06268725421054,NaN,-0.432627146077011,-0.435385029585287,NaN,-0.109232914135814,-0.385330913906802,0.0535876631208282,-0.328972311363719,-0.32897231136481,1.22340342092205,-1.22340342092118,-1.63367301364447
459.264,1.57111902311755,0.22327753452462,1.35948333668257,0.191969534221162,-0.460540122915826,-0.460540122917318,NaN,NaN,-0.185298937362674,0.196838085862742,1.52292440054133,0.196838085863244,1.69418179617803,-1.63114245951947,0.568097742870823,0.263050676354974,0.216022965156615,0.290474509132331,0.0895363583451231,0.297485314982425,0.0895363583453058,-0.622550917783013,0.0358101945607703,-0.43808214125009,0.027952600600974,0.0494229956707264,NaN,-0.0657180617826518,0.0657180617826729,0.395428077482229,0.413268107644233,-0.428154753794732,NaN,NaN,-1.54388154078315,-0.901840656695335,-1.79257236895049,1.04855066813901,1.04855066813879,NaN,-0.430873590197607,-0.435177699104038,NaN,-0.119910331297284,-0.375196908877299,0.0542178737132953,-0.339945885885323,-0.339945885886442,1.22068834152705,-1.22068834152618,-1.62750495463023
459.3664,1.61201485280644,0.2078614477123,1.37630202974092,0.20044924738264,-0.459951135739552,-0.459951135741056,NaN,NaN,-0.183305527412221,0.228009390705507,1.50991787087987,0.22800939070601,1.69574872796402,-1.64181413093505,0.562051022337733,0.256758482725942,0.220571958443895,0.286401376549263,0.0704366558769178,0.311405607924701,0.0704366558771026,-0.621951996043966,0.0225342395988954,-0.442533017128723,0.035573746424546,0.0354455866273554,NaN,-0.0533001433515329,0.0533001433515559,0.408578385357509,0.427174400420743,-0.43951371303348,NaN,NaN,-1.54256562477353,-0.90047084953638,-1.75003659942762,1.03310945651942,1.03310945651922,NaN,-0.429639589146266,-0.435386033358921,NaN,-0.131192733380122,-0.367418684344947,0.0543733074738704,-0.35185081490907,-0.351850814910218,1.21607783463337,-1.21607783463251,-1.61968655663306
459.4688,1.6514229381672,0.192455717786745,1.39202738166002,0.208711179681369,-0.459027185169589,-0.459027185171103,NaN,NaN,-0.181612569473613,0.259297099160968,1.49626181909408,0.259297099161471,1.69710524924318,-1.6528753575611,0.555509039376528,0.250580478635082,0.224989800385724,0.282387782559559,0.0511119619639417,0.325007838822293,0.0511119619641286,-0.621509883723591,0.00970249134158491,-0.446934107166997,0.0426187828896754,0.0208766809938314,NaN,-0.0404774696809306,0.0404774696809516,0.420913691928378,0.440545065201241,-0.451496762416388,NaN,NaN,-1.54122433299399,-0.899189358808063,-1.70714877374615,1.01640816882304,1.01640816882286,NaN,-0.428899805920656,-0.435989516561701,NaN,-0.143094509075636,-0.362036280883335,0.0540385116772366,-0.364716347455996,-0.364716347457169,1.20957561098757,-1.20957561098672,-1.61020027996242
459.5712,1.68929378041048,0.177026791507739,1.40659336505663,0.216725867075254,-0.457808068109106,-0.457808068110625,NaN,NaN,-0.180231191218783,0.290668840244748,1.48197891998208,0.290668840245254,1.69824163860874,-1.66430783027995,0.548474953118426,0.244480884993143,0.229281365352945,0.278404354602968,0.0315358421776745,0.338268425706021,0.0315358421778643,-0.62126234629349,-0.00268387191198587,-0.451312352270572,0.0490464469042916,0.00568875943593075,NaN,-0.0272636780036319,0.0272636780036521,0.432420747663809,0.453364093827257,-0.464083435372079,NaN,NaN,-1.53992594505931,-0.898104453107574,-1.66400852774616,0.998494083495967,0.998494083495821,NaN,-0.428627975909457,-0.436965229202465,NaN,-0.155627083148978,-0.359078949462224,0.053198887469308,-0.378567324785025,-0.378567324786215,1.20119113476897,-1.20119113476813,-1.59903039563826
459.6736,1.72558159965055,0.161541669411442,1.419937192604,0.224465085674314,-0.456334388493251,-0.456334388494765,NaN,NaN,-0.17917098274567,0.322094298588039,1.46709144830547,0.322094298588547,1.69914920972426,-1.67609199657232,0.54095387637603,0.238425021258994,0.233451239788776,0.27442258105059,0.0116843259924589,0.35116619132209,0.0116843259926521,-0.621244684866802,-0.014624267502834,-0.455693126214985,0.05481736434501,-0.010144838842766,NaN,-0.0136723515357443,0.0136723515357584,0.443088181751667,0.465617370076859,-0.477251617738653,NaN,NaN,-1.53873614077634,-0.897319950080841,-1.62071402901428,0.979417108018914,0.979417108018797,NaN,-0.428797078760436,-0.438288039353379,NaN,-0.16879893768863,-0.358565126017515,0.0518408637425921,-0.393423930143713,-0.393423930144929,1.19093970862856,-1.19093970862773,-1.5861630873884
459.776,1.76024437054772,0.145968086678558,1.43199950164978,0.231902008420007,-0.454647409009883,-0.454647409011396,NaN,NaN,-0.17843993173466,0.353545321052693,1.45162123203217,0.353545321053202,1.69982052164793,-1.68820696278924,0.532953161505628,0.232379544435916,0.23750361077074,0.270414984066929,-0.00846378945862275,0.363682366785931,-0.00846378945842577,-0.621489568930678,-0.0261186759044037,-0.460100102439517,0.0598942676280692,-0.0266496988408004,NaN,0.000282999187711655,-0.000282999187703369,0.45290651083137,0.477292711190192,-0.490977572019011,NaN,NaN,-1.5377177982801,-0.896934834446652,-1.57736175408713,0.959229676240012,0.959229676239919,NaN,-0.429379488898118,-0.439930795965298,NaN,-0.182615631922342,-0.360502449856547,0.0499520996912106,-0.409301486510699,-0.409301486511925,1.17884253751616,-1.17884253751534,-1.57158656053233
459.8784,1.7932438270105,0.130274713446182,1.44272453291527,0.239011351696009,-0.452788884034302,-0.452788884035804,NaN,NaN,-0.178044355752458,0.384995983694345,1.43558961972136,0.384995983694856,1.70024957318382,-1.70063041114027,0.524482659328056,0.226312668775559,0.241442176034409,0.266355282206884,-0.0289266373097481,0.37580056094097,-0.0289266373095478,-0.622026868553379,-0.0371676132952582,-0.464555122329629,0.0642422169944124,-0.0438500953220952,NaN,0.0145889816995325,-0.0145889816995286,0.461868114829212,0.488379893715056,-0.50523594353269,NaN,NaN,-1.53693079896038,-0.897042887420512,-1.53404627285444,0.93798664888923,0.937986648889146,NaN,-0.430347110277664,-0.441864524324333,NaN,-0.197079840543654,-0.364887826779636,0.0475216945208542,-0.426210315240424,-0.426210315241655,1.16492678221671,-1.16492678221591,-1.55529116111203
459.9808,1.82454544065444,0.114431373659732,1.4520603059658,0.245769513330565,-0.450800874586765,-0.450800874588258,NaN,NaN,-0.177988829009715,0.416422626083683,1.41901745672868,0.416422626084195,1.70043197984025,-1.71333852196404,0.515554956417773,0.220194373958053,0.245270076652748,0.262218549791571,-0.0497189769713715,0.387506692003114,-0.0497189769711684,-0.622883483885026,-0.0477721023561013,-0.469078060884315,0.0678288248991334,-0.0617687418789066,NaN,0.0292323745428806,-0.0292323745428809,0.469967185661608,0.498870658855008,-0.519999743068281,NaN,NaN,-1.5364318352222,-0.897732326615447,-1.49086003802886,0.915745229918608,0.91574522991854,NaN,-0.431671502453146,-0.4440586271716,NaN,-0.212191417501765,-0.371707531558569,0.044540379941709,-0.444155636664126,-0.444155636665382,1.14922560852071,-1.14922560851993,-1.53726950174436
460.0832,1.85411838028003,0.0984092756861243,1.45995879090419,0.252154701687052,-0.448725551324124,-0.448725551325606,NaN,NaN,-0.178276104186871,0.447803863638187,1.40192506618049,0.447803863638701,1.70036514097243,-1.72630589437174,0.506185603489107,0.213996607902137,0.248989851193116,0.257981378014424,-0.0708518845429234,0.398788883182902,-0.0708518845427167,-0.624083178304745,-0.0579336402490646,-0.47368669398976,0.0706244805059312,-0.0804265301772811,NaN,0.0442001706706111,-0.0442001706706137,0.477199664647285,0.508758698936118,-0.535240308657527,NaN,NaN,-1.53627422060373,-0.8990854614405,-1.44789318288615,0.892564907806633,0.892564907806589,NaN,-0.433324000947522,-0.446481092804923,NaN,-0.227947478155985,-0.380937346002016,0.0410006830356262,-0.463137480733672,-0.46313748073493,1.13177822514581,-1.13177822514504,-1.51751659086055
460.1856,1.88193545700012,0.0821812470969199,1.46637607307826,0.258147055008915,-0.446604992883137,-0.446604992884604,NaN,NaN,-0.178907033268345,0.479120585215178,1.38433223252376,0.479120585215692,1.70004840754679,-1.73950547259499,0.496393340328949,0.207693483180813,0.252603409364558,0.25362203630723,-0.0923324406383062,0.409637328775145,-0.0923324406380952,-0.625646425535836,-0.0676541707745759,-0.478396577354944,0.0726025707980362,-0.0998422660599127,NaN,0.0594796135206499,-0.0594796135206518,0.483563184701785,0.518039637086792,-0.550927260701639,NaN,NaN,-1.53650770648875,-0.901178370729913,-1.40523333273565,0.868507421141961,0.868507421141929,NaN,-0.435275830452999,-0.449098709056779,NaN,-0.244342485777357,-0.39254273430393,0.0368970693779655,-0.483150590430043,-0.483150590431325,1.11262989676853,-1.11262989676778,-1.4960299658091
460.288,1.90797305808813,0.0657219696907685,1.47127250963974,0.263728750643381,-0.444480982424297,-0.444480982425747,NaN,NaN,-0.179880492581502,0.51035593753017,1.36625818707324,0.510355937530685,1.69948325469471,-1.7529084919257,0.486200311590482,0.20126145997472,0.256112022639347,0.249120627134359,-0.114163424814799,0.420044140354435,-0.114163424814583,-0.627590277774589,-0.0769360707632934,-0.483220945917021,0.0737396959459187,-0.120032406677297,NaN,0.0750582398212395,-0.0750582398212434,0.489057026149445,0.526711014477541,-0.567028469627447,NaN,NaN,-1.53717831151059,-0.904080606563273,-1.36296543061169,0.84363673857449,0.843636738574497,NaN,-0.43749820818672,-0.45187728066883,NaN,-0.261368333473206,-0.406479060024763,0.0322260869970167,-0.504184326732103,-0.504184326733393,1.09183192540836,-1.09183192540762,-1.47280983098653
460.3904,1.93221107428326,0.0490082136341144,1.47461288048386,0.26888410434047,-0.4423948004911,-0.442394800492529,NaN,NaN,-0.181193316136224,0.541495293225095,1.34772159864697,0.541495293225612,1.69867344883591,-1.76648444584214,0.475632261820312,0.194679509004017,0.259516326372001,0.244459226945524,-0.13634302776697,0.430003184232068,-0.136343027766748,-0.629928255707942,-0.0857821553859794,-0.488170636073937,0.0740158783667434,-0.141010800199497,NaN,0.0909239312106514,-0.0909239312106514,0.493682085379377,0.534772286573369,-0.583510043973278,NaN,NaN,-1.53832816743016,-0.907854922490307,-1.32117156952288,0.818019038616702,0.818019038616729,NaN,-0.439962434600665,-0.454781844146453,NaN,-0.279014422915248,-0.422691843173981,0.026986521324381,-0.526222592530689,-0.526222592531994,1.06944160272656,-1.06944160272585,-1.44785920646142
460.4928,1.95463282492905,0.0320190688862667,1.47636653520782,0.273599659620061,-0.440387012033033,-0.440387012034445,NaN,NaN,-0.182840238996524,0.572526196834888,1.32874057504059,0.572526196835408,1.69762518766307,-1.78020106181962,0.464718696415552,0.187929252532185,0.262816324907418,0.239622009127363,-0.158864591763743,0.43950992092743,-0.158864591763516,-0.632670257336519,-0.0941956972312495,-0.493254026614231,0.073414764859744,-0.16278842882775,NaN,0.107064958718713,-0.107064958718712,0.497440846624621,0.542224814663062,-0.600336329032686,NaN,NaN,-1.53999538236875,-0.912557020709582,-1.27993082245383,0.791722678932983,0.791722678933047,NaN,-0.442639968480616,-0.457776871497028,NaN,-0.297267743947758,-0.441117046041986,0.0211795542733265,-0.549243777488883,-0.549243777490213,1.04552213657593,-1.04552213657523,-1.42118410161465
460.5952,1.97522498257097,0.0147361692121764,1.47650753318508,0.277864266299403,-0.438497248718665,-0.438497248720057,NaN,NaN,-0.184813850325225,0.603438286736804,1.30933267800512,0.603438286737327,1.69634719591053,-1.794024271935,0.453493000954731,0.180995087013719,0.266011393025785,0.234595350061794,-0.181716384585077,0.448561253408449,-0.181716384584846,-0.635822482670944,-0.102180448415987,-0.498476992268544,0.0719238184074699,-0.185373158775917,NaN,0.123470001274766,-0.123470001274768,0.500337346276099,0.549071836362233,-0.617469900681867,NaN,NaN,-1.54221392126633,-0.918235315811724,-1.23931906975203,0.76481815642021,0.764818156420312,NaN,-0.445502486216709,-0.46082645785125,NaN,-0.31611295350933,-0.461681374583883,0.0148089126485477,-0.573220708828508,-0.573220708829849,1.02014255273516,-1.02014255273448,-1.39279372751709
460.6976,1.99397749781663,-0.00285609884908846,1.47501477067456,0.281669146809656,-0.43676399139494,-0.436763991396313,NaN,NaN,-0.187104555889269,0.634223198869637,1.28951494892817,0.634223198870165,1.69485077274482,-1.80791816821153,0.441992521843467,0.173864293937423,0.269100271800975,0.229367923364756,-0.204881406216045,0.457155386032801,-0.204881406215809,-0.639387374725398,-0.109740658035324,-0.503842867359418,0.0695344935716181,-0.208769504472156,NaN,0.140128125962176,-0.140128125962181,0.502377128974246,0.555318406081234,-0.634871546733334,NaN,NaN,-1.54501350221666,-0.924930719332369,-1.19940883163419,0.737378066455259,0.737378066455391,NaN,-0.448521929883938,-0.463894495409351,NaN,-0.335532449705236,-0.484302589640555,0.00788099464167664,-0.598120590104582,-0.598120590105944,0.993377576155245,-0.993377576154585,-1.36270074791434
460.8,2.01088352692451,-0.0207704101110569,1.47187208975021,0.285007949770017,-0.435224358765866,-0.435224358767224,NaN,NaN,-0.189700552053311,0.664874461540383,1.26930394123417,0.664874461540915,1.69314979350649,-1.82184493607805,0.430258615827447,0.166527142951775,0.272081058085453,0.223930785591929,-0.228337228052278,0.465291695873709,-0.228337228052038,-0.64336358101776,-0.116881084042233,-0.509352422265694,0.0662423910404272,-0.232978413666003,NaN,0.157028723852407,-0.157028723852416,0.503567205976833,0.560971304097966,-0.65250023650983,NaN,NaN,-1.54841950592874,-0.932676451788612,-1.16026911239941,0.709477062636898,0.709477062637073,NaN,-0.451670550406717,-0.466944839493302,NaN,-0.355506442575558,-0.508889831205935,0.000404970410686479,-0.623904921512319,-0.623904921513689,0.965307504310527,-0.965307504309878,-1.33092155839973
460.9024,2.02593936622145,-0.0390163422282111,1.46706836835699,0.287876791384629,-0.433913905994223,-0.433913905995577,NaN,NaN,-0.192587814768901,0.69538738797454,1.24871575817576,0.695387387975077,1.69126067102779,-1.83576476731191,0.418336672750307,0.158976985864076,0.274951186101872,0.218277451748842,-0.252055868522681,0.472970619840064,-0.252055868522436,-0.647745940977207,-0.12360700191552,-0.515003857484329,0.0620473916549506,-0.257997076608462,NaN,0.174161402637311,-0.174161402637324,0.503916029222967,0.5660389181222,-0.670313082484157,NaN,NaN,-1.55245289650797,-0.941497886133254,-1.12196525478108,0.681191806158225,0.681191806158436,NaN,-0.454920948430886,-0.469941469261057,NaN,-0.376013026397785,-0.535343962083098,-0.00760714349674684,-0.65052941221346,-0.650529412214839,0.936018086011155,-0.93601808601052,-1.29747658301989
461.0048,2.0391443978734,-0.057600244546494,1.46059759484559,0.290274284601836,-0.432866434364914,-0.432866434366255,NaN,NaN,-0.195750106649762,0.725758967005803,1.22776609832208,0.725758967006345,1.6892022820035,-1.84963576260045,0.406276109906227,0.151210336417799,0.27770740206477,0.212403956490001,-0.276003710780501,0.480193559671996,-0.27600371078025,-0.652525503352795,-0.129924212417027,-0.520792819103409,0.056953771738841,-0.283818760958059,NaN,0.191515841980747,-0.191515841980765,0.50343348918864,0.570531102186489,-0.6882652981671,NaN,NaN,-1.55713015461522,-0.951412424431983,-1.08455879639725,0.652600890652794,0.652600890653032,NaN,-0.458246108955635,-0.47284863996179,NaN,-0.397028250574085,-0.563557933552136,-0.016140434570387,-0.677943901212759,-0.677943901214147,0.905600404238527,-0.905600404237906,-1.26239057907305
461.1072,2.0505010512187,-0.076525134323658,1.45245893009802,0.292201554427369,-0.432113813562982,-0.432113813564317,NaN,NaN,-0.199169004345187,0.755987746496795,1.20647031480953,0.755987746497341,1.68699585877547,-1.86341383597562,0.394130329567683,0.143226929734564,0.280345735542089,0.206308896839436,-0.300141469005825,0.486962805405607,-0.300141469005569,-0.657689576367898,-0.135839052078255,-0.526712439015471,0.0509702981803762,-0.310432675128826,NaN,0.209081615725498,-0.209081615725519,0.502130937793304,0.57445901486671,-0.706310159144724,NaN,NaN,-1.56246322531151,-0.962429409444453,-1.04810731923895,0.623784732374787,0.623784732375072,NaN,-0.461619421383364,-0.475631020457189,NaN,-0.418526178650523,-0.59341717341615,-0.0251770663354235,-0.706092299145821,-0.706092299147204,0.874150742467507,-0.874150742466901,-1.22569294140417
461.2096,2.06001478251575,-0.0957906230957798,1.44265675692888,0.293662237908766,-0.431685819117336,-0.431685819118666,NaN,NaN,-0.202823947843471,0.786073702409061,1.18484349362386,0.786073702409609,1.68466483903217,-1.87705263170916,0.381956624401865,0.135029754967462,0.282861471504229,0.199993452042823,-0.324424214620255,0.493281479400478,-0.324424214619994,-0.66322181129518,-0.14135841104144,-0.532753402061981,0.0441102977457451,-0.337823862954281,NaN,0.226847983340465,-0.226847983340488,0.500021231498355,0.577834939064112,-0.724398980430066,NaN,NaN,-1.56845948002416,-0.974550072231353,-1.01266428448588,0.594825419846559,0.59482541984688,NaN,-0.465014680836223,-0.478253813253178,NaN,-0.440478930947993,-0.624800001644286,-0.0346962674295278,-0.734912567809066,-0.734912567810457,0.841770403938891,-0.841770403938297,-1.18741799582087
461.312,2.06769407206315,-0.115392877598504,1.43120071213406,0.29466246856999,-0.431609986449179,-0.431609986450496,NaN,NaN,-0.206692312549373,0.816018088092714,1.16290054786166,0.816018088093264,1.68223465940343,-1.89050345884559,0.369816012679509,0.126625055735371,0.285249127077304,0.193461377062851,-0.348801479183295,0.499153503526424,-0.348801479183029,-0.669102315449934,-0.14648975804687,-0.538904037131365,0.0363916927921863,-0.365973131506679,NaN,0.244803652968476,-0.244803652968501,0.497118781908545,0.580672088556654,-0.742481123024348,NaN,NaN,-1.57512168933579,-0.98776751753811,-0.978278849382195,0.565806523200829,0.565806523201172,NaN,-0.468406078074898,-0.480682863453839,NaN,-0.462856719359501,-0.657578082998927,-0.0446743326843066,-0.764336763149361,-0.76433676315076,0.808565455940508,-0.808565455939926,-1.1476052665506
461.4144,2.07355043190812,-0.135324619203566,1.41810569269542,0.295210845318252,-0.43191148176067,-0.431911481761976,NaN,NaN,-0.210749503890603,0.845823261981124,1.1406563159914,0.845823261981677,1.67973247966463,-1.9037152390898,0.357772992719032,0.118022296546392,0.287502436512373,0.186718969213672,-0.37321744738988,0.504583588860471,-0.373217447389609,-0.675307787100772,-0.151241164536514,-0.545150423818781,0.027836995633101,-0.39485701425239,NaN,0.262936520089581,-0.262936520089609,0.493439596843071,0.5829844067379,-0.760504032148798,NaN,NaN,-1.58244800628719,-1.00206675252034,-0.944995673712955,0.536812871727458,0.536812871727838,NaN,-0.471768192926609,-0.482884769660733,NaN,-0.485627890646156,-0.691616922846497,-0.0550846296922098,-0.794291159382792,-0.7942911593842,0.774646387716421,-0.774646387715851,-1.10629970075479
461.5168,2.07759841338956,-0.155575164500529,1.40339182587287,0.295318385471349,-0.432612991059177,-0.432612991060474,NaN,NaN,-0.214969073488744,0.875492497746918,1.11812565045961,0.875492497747476,1.67718683751288,-1.91663446109164,0.345895221517542,0.109234096906901,0.289614345564162,0.179775009748732,-0.39761124157905,0.509577243300196,-0.397611241578773,-0.681811666900501,-0.155621317943014,-0.551476507081268,0.0184732575291532,-0.424447771793383,NaN,0.281233393115983,-0.281233393116013,0.489001301287635,0.584786362942917,-0.778413301931994,NaN,NaN,-1.590431964259,-1.0174247679625,-0.912854734530099,0.507930311621419,0.507930311621818,NaN,-0.475076003641586,-0.484827008265317,NaN,-0.508758994335611,-0.7267764078192,-0.0658976036301061,-0.824696452642967,-0.824696452644369,0.740127691025572,-0.740127691025017,-1.06355183625691
461.6192,2.07985560516635,-0.176130508370871,1.38708439507754,0.294998461384544,-0.433734630265272,-0.43373463026656,NaN,NaN,-0.219322856050458,0.905029784848317,1.09532348869511,0.905029784848876,1.67462724859387,-1.92920514045585,0.3342531331092,0.100276135566469,0.291577015655137,0.172640682623468,-0.421917289486546,0.514140790636173,-0.421917289486264,-0.68858430488454,-0.159639520477493,-0.557864217841265,0.00833197347828605,-0.454713429454371,NaN,0.299679722524926,-0.299679722524956,0.483823138824024,0.586092752679069,-0.796152761225905,NaN,NaN,-1.59906249285507,-1.03381068033449,-0.881891168107206,0.479245451273143,0.479245451273552,NaN,-0.478304916709113,-0.486478075456381,NaN,-0.532214883849948,-0.762911391460217,-0.0770807765503318,-0.85546803224863,-0.855468032250036,0.705127378448468,-0.705127378447925,-1.01941790326718
461.7216,2.08034261948577,-0.196973448357162,1.36921372090974,0.294266719390605,-0.435293878074558,-0.435293878075837,NaN,NaN,-0.223781126958247,0.934439624182884,1.07226490689334,0.934439624183446,1.6720837680183,-1.9413687893221,0.322919510552407,0.0911670256756056,0.293381839245338,0.165329471522339,-0.446065764794369,0.518281396004994,-0.446065764794081,-0.695593143523763,-0.163305676566436,-0.564293601050567,-0.00255105343525928,-0.485617849342074,NaN,0.318259343848607,-0.318259343848638,0.477925959464556,0.58691850546737,-0.813664576507651,NaN,NaN,-1.60832395191984,-1.05118593838737,-0.852135146515665,0.450845394514559,0.450845394514976,NaN,-0.481430812879153,-0.487807643606377,NaN,-0.555958847543282,-0.799872322211579,-0.0885987443161944,-0.886516310121822,-0.886516310123244,0.669766448832117,-0.669766448831585,-0.973959855856693
461.824,2.0790830714216,-0.218083744244076,1.34981500618748,0.293140978372204,-0.437305528542046,-0.437305528543312,NaN,NaN,-0.228312781023963,0.963726817200671,1.04896516231096,0.963726817201237,1.66958652440939,-1.95306440272044,0.311969017705123,0.0819281584600799,0.295019466885823,0.157857033227814,-0.469983090759401,0.52200709635709,-0.469983090759107,-0.702802916040374,-0.166630273195223,-0.570742952207706,-0.0141358849192398,-0.517120838069812,NaN,0.336954237324996,-0.33695423732503,0.471332197963778,0.587278500567911,-0.830889372125974,NaN,NaN,-1.61819618190108,-1.06950459313921,-0.823611784149345,0.422817459320566,0.422817459320995,NaN,-0.484430097428202,-0.488786723451027,NaN,-0.579952759192794,-0.837505907416725,-0.100413178921815,-0.917747108602097,-0.917747108603523,0.634168305630199,-0.634168305629673,-0.927245333398379
461.9264,2.07610355584355,-0.239438303174271,1.32892815695815,0.291641104547339,-0.439781656263912,-0.439781656265172,NaN,NaN,-0.232885531975094,0.992896244435668,1.02543972919101,0.992896244436237,1.66716523701705,-1.96422847801038,0.301477689899459,0.0725835094618699,0.296479844692149,0.150241041832988,-0.493592498878244,0.525326836280279,-0.493592498877945,-0.710175858240389,-0.169624355421376,-0.577188961895553,-0.0263786565444893,-0.54917829462962,NaN,0.355744311620582,-0.355744311620619,0.464065840872688,0.587187392276054,-0.847766376800622,NaN,NaN,-1.62865456904491,-1.08871362830443,-0.796341067032939,0.395248880355728,0.395248880356159,NaN,-0.48727974061203,-0.489387822731069,NaN,-0.604157239077913,-0.875655808185088,-0.112482842557123,-0.949062114359921,-0.949062114361358,0.598458129895245,-0.598458129894726,-0.879347551622105
462.0288,2.07143362130941,-0.261011383579254,1.30659758477243,0.289788859906059,-0.442731588305494,-0.442731588306745,NaN,NaN,-0.237466130768977,1.02195263014001,1.00170432967737,1.02195263014058,1.66484872371233,-1.97479508843823,0.291522376444607,0.0631593999431842,0.297752262817101,0.142500997592897,-0.516814641158257,0.52825050707735,-0.516814641157953,-0.717671932437015,-0.172299497075311,-0.583606867312262,-0.0392318252232707,-0.581742400836965,NaN,0.374607226823117,-0.374607226823159,0.456152374064837,0.586659447829198,-0.864233607782464,NaN,NaN,-1.63967012633808,-1.10875335022684,-0.770337802461555,0.368226496814357,0.368226496814806,NaN,-0.489957301573025,-0.489585097714769,NaN,-0.628531823236593,-0.914163366270941,-0.124763616505714,-0.980359404511422,-0.980359404512871,0.562762201368986,-0.562762201368473,-0.830345115168364
462.1312,2.06510573572517,-0.282774819193301,1.28287198529142,0.287607724148111,-0.446161883688948,-0.446161883690183,NaN,NaN,-0.242020599809183,1.05090028999036,0.977774958853831,1.05090028999094,1.66266439595634,-1.9846960177736,0.28218012595834,0.0536842110026913,0.298825420490776,0.134657999951301,-0.539568262494053,0.530788981739166,-0.539568262493741,-0.725249062724154,-0.174667762302504,-0.589970608659422,-0.052644459579834,-0.614761851747039,NaN,0.393518266436601,-0.393518266436647,0.447618700532727,0.585708395165037,-0.880228092462434,NaN,NaN,-1.6512095927619,-1.1295578391238,-0.745611590927244,0.341836432094682,0.34183643209514,NaN,-0.492440941668557,-0.489354503565748,NaN,-0.653035149159461,-0.952868369753634,-0.137208548247004,-1.01153404761439,-1.01153404761586,0.527207157303172,-0.527207157302662,-0.780321736976521
462.2336,2.05715523791385,-0.304698268598407,1.2578040841201,0.285122692753856,-0.450076327318101,-0.450076327319325,NaN,NaN,-0.246514478946556,1.07974286143553,0.953667902516084,1.0797428614361,1.66063773091355,-1.99386094064751,0.273527515472078,0.0441880587299036,0.299687515571848,0.126734494264258,-0.561770935189223,0.532954133699727,-0.561770935188906,-0.732863381212,-0.176741650601722,-0.596252987403349,-0.0665625754371823,-0.648182119084308,NaN,0.412450254028231,-0.412450254028281,0.438493023684254,0.584347271420528,-0.895686111268794,NaN,NaN,-1.66323555207499,-1.15105546228338,-0.722166825327771,0.316163775416019,0.316163775416487,NaN,-0.494709439874114,-0.488673953176953,NaN,-0.67762517395587,-0.991609862872697,-0.149767922239119,-1.04247877985702,-1.04247877985849,0.491919187292433,-0.491919187291928,-0.729365857460052
462.336,2.04762026831567,-0.326749490557078,1.23145034462035,0.282360055429514,-0.454475944689028,-0.454475944690239,NaN,NaN,-0.250913077795621,1.10848302333779,0.929399744711717,1.10848302333837,1.65879172488003,-2.00221762848534,0.265639942009737,0.0347024449069917,0.300326360918091,0.118754005399637,-0.583339839022608,0.534758830225871,-0.583339839022283,-0.740469485037789,-0.178534023300217,-0.602425825516374,-0.0809295121233753,-0.681945738509676,NaN,0.431373504999499,-0.431373504999551,0.428804698838107,0.582588268565348,-0.910543442733477,NaN,NaN,-1.67570657152321,-1.17316944386936,-0.700002727282049,0.291292273426464,0.291292273426934,NaN,-0.496742217458806,-0.487523487027065,NaN,-0.702259431226303,-1.03022699499161,-0.16238935626951,-1.07308474716026,-1.07308474716174,0.4570231839921,-0.457023183991597,-0.677570177854855
462.4384,2.03654166957298,-0.348894635780865,1.20387063903255,0.279347159429551,-0.459359037491739,-0.459359037492945,NaN,NaN,-0.255181729103277,1.13712221785,0.904987358450458,1.13712221785058,1.65714635496913,-2.0096921799407,0.258590905064349,0.0252598924226746,0.300729519871189,0.110740863825743,-0.604192556046466,0.536216902625787,-0.604192556046134,-0.748020704431666,-0.180058019617802,-0.608460128900609,-0.0956863395908908,-0.715992612639824,NaN,0.450255811658597,-0.450255811658654,0.41858405964984,0.580442588075076,-0.924735605165076,NaN,NaN,-1.68857736209324,-1.19581848015952,-0.679113434256048,0.26730403435157,0.267304034352029,NaN,-0.498519369492806,-0.485885447799141,NaN,-0.726895310724315,-1.06855989231912,-0.175017915007835,-1.10324229271831,-1.10324229271979,0.422641891160861,-0.422641891160363,-0.625031138283009
462.5408,2.02396284884293,-0.371098540283276,1.17512788985195,0.276112162725394,-0.464721234384663,-0.464721234385862,NaN,NaN,-0.259286039878664,1.165660388481,0.880447869579649,1.16566038848159,1.65571808838922,-2.01620929665241,0.252451305390774,0.0158935658597368,0.300884448966692,0.102719921068589,-0.624247851873955,0.537343103019539,-0.624247851873616,-0.755469382489212,-0.181326976103254,-0.614326260538217,-0.110772284302537,-0.750260325442921,NaN,0.469062471393562,-0.469062471393623,0.407862228628513,0.57792032709683,-0.938198106369002,NaN,NaN,-1.70179896126213,-1.21891738798144,-0.659488146893709,0.244279243083804,0.244279243084247,NaN,-0.500021697132658,-0.48374465144027,NaN,-0.751490335032461,-1.10645053435608,-0.18759622490737,-1.13284177009293,-1.13284177009441,0.388895090907791,-0.388895090907296,-0.571848365760514
462.6432,2.00992960090133,-0.393325006162084,1.14528769314745,0.272683784126716,-0.470555550124671,-0.470555550125865,NaN,NaN,-0.263192138394825,1.19409574559733,0.855798585825317,1.19409574559791,1.65451947508475,-2.02169262717312,0.247288780423318,0.00663687685143819,0.300778639802145,0.0947162518022236,-0.643426424646128,0.538153054904596,-0.643426424645782,-0.76276716601579,-0.18235436136336,-0.619994127294204,-0.126125160652729,-0.784684465372808,NaN,0.487756374419238,-0.487756374419302,0.39667092303808,0.575030414761479,-0.950866718221249,NaN,NaN,-1.71531893617829,-1.24237777491482,-0.641111332481539,0.22229588353587,0.222295883536307,NaN,-0.501230736207472,-0.481088546310616,NaN,-0.77600241646485,-1.14374362088509,-0.200064577537006,-1.16177436673377,-1.16177436673524,0.35589885154412,-0.355898851543627,-0.518124100509575
462.7456,1.99448990077188,-0.415537059388611,1.11441793941131,0.269091060027712,-0.476852448565655,-0.476852448566847,NaN,NaN,-0.266866914849819,1.2224245667155,0.831056892562193,1.22242456671609,1.65355884299637,-2.02606518340503,0.243167092962805,-0.00247691980902426,0.300399757258654,0.0867548468960603,-0.661651609216009,0.538663199875732,-0.661651609215657,-0.769865303229811,-0.183153731916263,-0.625433379463815,-0.141681792742857,-0.819198951695821,NaN,0.506298162898072,-0.506298162898144,0.385042266383166,0.5717806036382,-0.962677783676946,NaN,NaN,-1.72908160325073,-1.26610871746834,-0.623962964788094,0.201429462249024,0.201429462249454,NaN,-0.502128778767647,-0.477907348361849,NaN,-0.800390086015216,-1.18028741267526,-0.21236102134467,-1.18993291816714,-1.18993291816858,0.323764837130245,-0.323764837129756,-0.463962602358918
462.848,1.97769368113774,-0.437697179001904,1.08258844814518,0.265363116577972,-0.483599906316146,-0.483599906317339,NaN,NaN,-0.270278252995567,1.25064103525497,0.806240126695955,1.25064103525556,1.65284009362673,-2.0292498165507,0.240145580078284,-0.0114151286001129,0.29973577361559,0.0788603065035171,-0.678850030948416,0.538890742554869,-0.678850030948059,-0.776714941731764,-0.183738708788433,-0.630613618145358,-0.157378412925139,-0.853736356498967,NaN,0.524646459824374,-0.52464645982445,0.373008611539281,0.56817750949753,-0.973568552143965,NaN,NaN,-1.74302826090925,-1.29001743066695,-0.60801877340633,0.181752725706247,0.181752725706673,NaN,-0.502698884971047,-0.474194138545421,NaN,-0.824612684657275,-1.21593452565402,-0.224421457386915,-1.21721268834557,-1.21721268834699,0.292599672153076,-0.29259967215259,-0.40946954577362
462.9504,1.95959260734055,-0.459767497119072,1.04987062618593,0.261528960590564,-0.49078347280422,-0.490783472805423,NaN,NaN,-0.273395250206052,1.27873711962045,0.781365440613843,1.27873711962104,1.65236258580432,-2.0311697426288,0.238278656939146,-0.0201460049045687,0.298775097510982,0.0710565409261676,-0.694952209662472,0.538853598866894,-0.69495220966211,-0.78326742297494,-0.184122970111662,-0.635504605964631,-0.173151031369076,-0.888228219780035,NaN,0.542758159440529,-0.54275815944061,0.360602377041505,0.564226690863446,-0.9834775377057,NaN,NaN,-1.75709743645113,-1.31400991544051,-0.593250485476686,0.163335367334368,0.163335367334795,NaN,-0.502924885933832,-0.469944914804674,NaN,-0.848630509343785,-1.25054266834029,-0.236179761281131,-1.24351210019108,-1.24351210019247,0.262504357266435,-0.262504357265954,-0.354751419070624
463.0528,1.94023985235048,-0.481709972372346,1.01633714925389,0.257617287300005,-0.498386322526607,-0.498386322527818,NaN,NaN,-0.276188422883138,1.30670249511365,0.756449661387785,1.30670249511424,1.65212110689094,-2.03174912378219,0.237615370337077,-0.0286391289910535,0.297506695626064,0.0633664845269287,-0.709893110156425,0.53857035341656,-0.709893110156058,-0.789474574112376,-0.184320252317233,-0.640076479060895,-0.188935778669247,-0.922605361374034,NaN,0.560588778543651,-0.560588778543736,0.347855894686002,0.559932766395275,-0.992344900289703,NaN,NaN,-1.77122515222412,-1.33799157727215,-0.579626061964819,0.146243727521713,0.146243727522131,NaN,-0.50279138248553,-0.465158599639502,NaN,-0.872404919628315,-1.2839753287132,-0.247567948354523,-1.26873341427928,-1.26873341428063,0.233573737744264,-0.23357373774379,-0.299914943651975
463.1552,1.91968986688005,-0.503486540395431,0.982061659977998,0.253656302934824,-0.506389298553273,-0.506389298554501,NaN,NaN,-0.278629892799698,1.33452451147171,0.731509146294837,1.3345245114723,1.65210594450187,-2.030913716174,0.238199007561997,-0.0368657544649479,0.295920205355177,0.0558118289643821,-0.723612625952404,0.538060226546203,-0.723612625952032,-0.795288997653969,-0.184344352510156,-0.644299957919747,-0.204669224251402,-0.956798192883725,NaN,0.57809287246918,-0.578092872469268,0.334801266767123,0.555299573431884,-1.00011285063672,NaN,NaN,-1.78534521473818,-1.36186781441806,-0.567109940497106,0.130540494354526,0.13054049435493,NaN,-0.50228374632037,-0.459837008772682,NaN,-0.895898421704481,-1.3161024201265,-0.258516389723012,-1.29278335864443,-1.29278335864572,0.205896030382872,-0.205896030382401,-0.245066524617317
463.2576,1.89799814211005,-0.525059245476975,0.947118476919813,0.24967356319396,-0.514770951754353,-0.514770951755592,NaN,NaN,-0.280693550296958,1.36218820598364,0.706559636618696,1.36218820598424,1.65230306591423,-2.0285915804108,0.240066770905954,-0.0447991227395878,0.294006036853497,0.048412782549019,-0.736055982915468,0.537343045896097,-0.736055982915091,-0.800664355464058,-0.184209127765315,-0.648146552971061,-0.220288670421481,-0.990737029005783,NaN,0.595224506657378,-0.59522450665747,0.321470234747538,0.550330368416367,-1.00672607429164,NaN,NaN,-1.79938952558894,-1.38554457602853,-0.555663291385486,0.11628441116886,0.116284411169255,NaN,-0.501388128489963,-0.453984787723186,NaN,-0.919074742321582,-1.34680088581314,-0.268954079304227,-1.31557370902035,-1.3155737090216,0.179552414581521,-0.179552414581054,-0.190311737745771
463.36,1.87522096790788,-0.546390357492935,0.911582313134295,0.24569583082688,-0.523507585571553,-0.523507585572811,NaN,NaN,-0.282355192731846,1.38967635812163,0.681616112047299,1.38967635812224,1.65269439522066,-2.02471383397521,0.243249522310853,-0.0524147393900513,0.291755462630772,0.0411878587431721,-0.747174060715477,0.536439216354211,-0.747174060715095,-0.805555643700541,-0.183928490828365,-0.651588762297935,-0.235732421551692,-1.02435239824869,NaN,0.611937759933697,-0.611937759933793,0.30789406415241,0.54502806195165,-1.01213216623206,NaN,NaN,-1.81328841359086,-1.40892889276425,-0.545244283780782,0.103529992899577,0.103529992899954,NaN,-0.500091476665967,-0.447609321764108,NaN,-0.941898892351397,-1.37595525317675,-0.278808945130711,-1.33702181295871,-1.33702181295992,0.15461668698042,-0.154616686979956,-0.135754850880275
463.4624,1.85141519203874,-0.56744247722475,0.875528005625242,0.241748955596701,-0.532573318303133,-0.532573318304397,NaN,NaN,-0.283592638747014,1.41696957900001,0.656692647378246,1.41696957900062,1.6532581659943,-2.01921541675846,0.247771596085801,-0.0596906135320905,0.289160695385845,0.0341536930261438,-0.756923641237814,0.53536968287041,-0.756923641237425,-0.809919458723791,-0.183516403135422,-0.654600261813504,-0.250940028881894,-1.05757535518716,NaN,0.628187233244927,-0.628187233245027,0.294103450531034,0.539395472283276,-1.01628206592408,NaN,NaN,-1.82697099126368,-1.43192938437926,-0.535808352226109,0.0923272512997628,0.0923272513001157,NaN,-0.498381558101157,-0.440720620348904,NaN,-0.964337210330158,-1.40345812796093,-0.288008195272678,-1.35705104473088,-1.35705104473207,0.131154968718641,-0.131154968718179,-0.0814983710194125
463.5648,1.82663798768629,-0.588178633273514,0.839030258309081,0.237857778413403,-0.541940171278354,-0.541940171279626,NaN,NaN,-0.284385819744065,1.44404642761824,0.631802275995768,1.44404642761886,1.65396931960135,-2.01203583399345,0.253650674662762,-0.0666074622025137,0.286214957279593,0.0273248873685957,-0.765267597106889,0.534155880965844,-0.765267597106494,-0.813714253759681,-0.182986864967986,-0.657156087681694,-0.265852511870048,-1.09033779582762,NaN,0.643928539309015,-0.643928539309121,0.280128448194716,0.533435572714936,-1.01913047646586,NaN,NaN,-1.84036553959522,-1.45445674806183,-0.527308451631207,0.0827214287579673,0.082721428758294,NaN,-0.496246983546082,-0.433331174141278,NaN,-0.986357376993645,-1.42921062092447,-0.296478694311848,-1.37559117790978,-1.37559117791094,0.109225451033383,-0.109225451032921,-0.0276426060072405
463.6672,1.80094663947591,-0.608562375223547,0.802163401969511,0.234046058182803,-0.551578182965935,-0.551578182967209,NaN,NaN,-0.284716850635478,1.47088354882208,0.60695686862063,1.4708835488227,1.65479992131868,-2.00311984407869,0.260897722144833,-0.0731488793893887,0.282912540899035,0.0207138826938662,-0.772175030305876,0.532819674622154,-0.772175030305474,-0.816900583037411,-0.182353901942154,-0.659232808310204,-0.280412559015116,-1.12257277738944,NaN,0.659118753827375,-0.659118753827485,0.265998420751177,0.527151708124074,-1.02063624955739,NaN,NaN,-1.85339992267309,-1.47642422801058,-0.519695294006578,0.0747527383202195,0.074752738320533,NaN,-0.493677231195959,-0.42545578553703,NaN,-1.00792840643915,-1.45312270750236,-0.304147378725067,-1.3925786775202,-1.39257867752135,0.0888781753099235,-0.0888781753094589,0.0257147626842696
463.7696,1.77439835721824,-0.628557865484362,0.765001175908567,0.230336416454422,-0.561455539184495,-0.561455539185773,NaN,NaN,-0.284570081651489,1.49745583707576,0.582167034285305,1.49745583707639,1.65571958576959,-1.99241808431605,0.269516971944796,-0.0793014676778277,0.279248858846122,0.0143308601707946,-0.777621362460688,0.531383287228733,-0.777621362460279,-0.819441330887279,-0.181631548815503,-0.660808684454655,-0.294564712591564,-1.15421484289628,NaN,0.673716827566737,-0.673716827566853,0.251742013926209,0.520547770441798,-1.02076272949795,NaN,NaN,-1.86600202779926,-1.49774806178586,-0.512917571179805,0.0684561066825987,0.0684561066828933,NaN,-0.490662674847933,-0.41711137865575,NaN,-1.02902063664317,-1.47511353108328,-0.310941727425205,-1.40795693039507,-1.40795693039619,0.0701548559609174,-0.0701548559604508,0.07847908631721
463.872,1.74705011720128,-0.648129966078094,0.727616534432107,0.226750294219022,-0.571538704668831,-0.571538704670108,NaN,NaN,-0.283932130749572,1.52373663596721,0.557442043243426,1.52373663596784,1.65669592508624,-1.97988765592434,0.279505966947744,-0.0850549305771338,0.275220481965231,0.00818367300809507,-0.781588370592086,0.52986922896507,-0.781588370591671,-0.821301927410177,-0.180833832947971,-0.66186381946187,-0.30825553926873,-1.18520034522736,NaN,0.687683978711695,-0.687683978711817,0.237387152203265,0.51362834244862,-1.01947806119091,NaN,NaN,-1.8781002180751,-1.51834789616761,-0.506922175540112,0.0638609210795676,0.0638609210798494,NaN,-0.48719462137925,-0.408316796743674,NaN,-1.04960573938522,-1.49511166197141,-0.316790296626181,-1.42167643284386,-1.42167643284497,0.0530887553371485,-0.0530887553366832,0.130559119024758
463.9744,1.71895852181829,-0.667244315191882,0.690081475874576,0.223307917798093,-0.581792547889363,-0.58179254789064,NaN,NaN,-0.282791895075637,1.54969797727136,0.532789767634579,1.54969797727201,1.65769503541018,-1.96549268835667,0.290855653848163,-0.0904021246034505,0.270825169411528,0.00227781049517265,-0.784064161795711,0.528300216814703,-0.78406416179529,-0.822450553973184,-0.179974758252834,-0.662380302318893,-0.321433785895143,-1.21546776094654,NaN,0.7009840803919,-0.700984080392029,0.222961058090718,0.506398824330795,-1.01675546471389,NaN,NaN,-1.8896237827843,-1.53814716840832,-0.501654430332144,0.0609907847597971,0.060990784760078,NaN,-0.483265360111102,-0.399092594371291,NaN,-1.06965674834956,-1.51305531722691,-0.321623310883515,-1.43369494674055,-1.43369494674165,0.037704617977285,-0.0377046179768212,0.181867341599978
464.0768,1.69017967275455,-0.685867393498104,0.652466890620938,0.220028273886663,-0.592180462313712,-0.592180462314991,NaN,NaN,-0.281140541940454,1.57531085353931,0.508216640318037,1.57531085353996,1.65868202166544,-1.94920487624018,0.303550536386691,-0.0953390714076481,0.266061891541143,-0.0033836056698775,-0.785043086729596,0.526699082301871,-0.785043086729169,-0.822858339909311,-0.179068288331662,-0.662342344026038,-0.33405052043394,-1.24495798774979,NaN,0.713584033374624,-0.713584033374763,0.208490292566917,0.498865546645735,-1.01257346995706,NaN,NaN,-1.90050337869034,-1.5570734538127,-0.497058332962276,0.0598632837799216,0.0598632837802094,NaN,-0.478868223808799,-0.389460831105133,NaN,-1.08914809035775,-1.52889254021474,-0.325373291019956,-1.44397763374739,-1.44397763374848,0.0240186763930931,-0.0240186763926298,0.232320236312597
464.1792,1.66076906529865,-0.703966582886085,0.614842431419345,0.216929094183133,-0.602664488680712,-0.602664488681995,NaN,NaN,-0.278971483193962,1.600545515691,0.483727637347745,1.60054551569166,1.65962154674786,-1.9310039689312,0.317568887621177,-0.0998649334038626,0.260930846227314,-0.00879979556231387,-0.784525600695316,0.525088667871723,-0.784525600694882,-0.822499551406898,-0.17812832846656,-0.6617364078881,-0.346059259203467,-1.27361462358675,NaN,0.725454103686396,-0.725454103686543,0.194000819152556,0.491035864605379,-1.00691610425155,NaN,NaN,-1.91067145963639,-1.5750587806873,-0.493076804857475,0.060489763158925,0.0604897631592157,NaN,-0.473997657796125,-0.379444870708324,NaN,-1.10805560921477,-1.54258133446755,-0.327975698409466,-1.45249717843792,-1.45249717843901,0.0120387398732996,-0.0120387398728358,0.281838515803416
464.2816,1.63078151419115,-0.721510218262149,0.577276413125831,0.214026847725602,-0.61320543611102,-0.613205436112303,NaN,NaN,-0.276280339498952,1.62537178783049,0.459326287998833,1.62537178783116,1.66047838608062,-1.91087820493846,0.33288300724606,-0.103981960876576,0.255433473091277,-0.0139722712655965,-0.782518089763132,0.523491717978554,-0.782518089762692,-0.821351775989986,-0.177168709442528,-0.660551337283068,-0.357416081512732,-1.30138422411378,NaN,0.736568218934612,-0.736568218934767,0.179518094132493,0.482918230534806,-0.999773033599578,NaN,NaN,-1.92006268844292,-1.59203991038608,-0.489651937429767,0.0628751091133599,0.0628751091136704,NaN,-0.468649290246343,-0.369069185726213,NaN,-1.12635658067845,-1.55408974493006,-0.329369574703746,-1.45923390362268,-1.45923390362379,0.00176436387889764,-0.00176436387843401,0.330347312880784
464.384,1.60027111095386,-0.738467634325988,0.539835740170044,0.211336737269775,-0.623762998810093,-0.623762998811376,NaN,NaN,-0.273064900517237,1.64975938728297,0.43501471265282,1.64975938728365,1.66121796433761,-1.88882469223029,0.349459499432434,-0.107695418212559,0.249572469157167,-0.0189047687060802,-0.77903268172519,0.521930770031752,-0.779032681724746,-0.819396104684991,-0.176203175977846,-0.658778483449317,-0.36807973275664,-1.32821653270342,NaN,0.746904227026443,-0.746904227026608,0.165067177845178,0.474522244392327,-0.991139661923319,NaN,NaN,-1.92861432520932,-1.60795857946219,-0.486725228338197,0.0670175403246793,0.0670175403249976,NaN,-0.462819997719547,-0.358359166713769,NaN,-1.14402972020825,-1.56339588423901,-0.329498157376479,-1.46417586760157,-1.46417586760271,-0.00681291626959481,0.00681291627005634,0.3777763378712
464.4864,1.56929120026454,-0.754809214109474,0.502585846591758,0.208872696819291,-0.634295871034115,-0.6342958710354,NaN,NaN,-0.269325082921205,1.67367823283744,0.41079368725812,1.67367823283813,1.66180684913354,-1.86484972730234,0.367259550444995,-0.111013490680703,0.243351802356932,-0.0236031633706808,-0.774087053265435,0.520428045351522,-0.774087053264985,-0.816617306718502,-0.175245377066678,-0.656411828562558,-0.378011715995222,-1.35406467719183,NaN,0.756444113954717,-0.756444113954894,0.150672853400174,0.465858681225643,-0.981017188301912,NaN,NaN,-1.93626659149045,-1.62276170331981,-0.484237809659025,0.0729084218772018,0.0729084218775282,NaN,-0.456507966353176,-0.347340938928952,NaN,-1.16105518502692,-1.57048790811301,-0.328309459367849,-1.46731892560231,-1.46731892560349,-0.0137093071180145,0.0137093071184791,0.424060006808729
464.5888,1.53789435964418,-0.770506447082517,0.465590630163546,0.206647389754157,-0.644761866341502,-0.64476186634279,NaN,NaN,-0.265062884314007,1.69709872644731,0.386662731567818,1.697098726448,1.66221318288799,-1.83896903745014,0.386239197913786,-0.113947168866913,0.236776715701625,-0.0280753695416711,-0.76770423301713,0.519005337962887,-0.767704233016675,-0.813003986127214,-0.174308850007314,-0.653448093378305,-0.387176369178502,-1.37888532902257,NaN,0.765174167676456,-0.765174167676646,0.136359738985605,0.456939494093673,-0.969412617373914,NaN,NaN,-1.94296301083835,-1.63640154187094,-0.482130671927713,0.0805321199050061,0.0805321199053433,NaN,-0.449712753718072,-0.336041191467666,NaN,-1.17741457213768,-1.57536394439776,-0.325756809733494,-1.46866674269747,-1.46866674269868,-0.0189484496370129,0.0189484496374824,0.469137539987669
464.6912,1.50613237361339,-0.785532000641989,0.428912370708896,0.204672208816673,-0.655118045206961,-0.655118045208252,NaN,NaN,-0.260282331316574,1.71999200249032,0.362620216051644,1.71999200249103,1.66240704642423,-1.81120793249432,0.406349595018614,-0.116510110050161,0.229853717812441,-0.0323312237081211,-0.759912395572274,0.517683902289162,-0.759912395571813,-0.808548711474323,-0.173406989037194,-0.649886819716356,-0.395540923458346,-1.40263882401415,NaN,0.773085074239486,-0.773085074239688,0.122152388901419,0.447777793080655,-0.956338720875369,NaN,NaN,-1.94865072189322,-1.64883582639228,-0.480344884861337,0.0898659073420352,0.0898659073423894,NaN,-0.442435354563316,-0.324487022047954,NaN,-1.19309091510148,-1.57803197795908,-0.32179935485144,-1.46823075676486,-1.4682307567661,-0.0225610918238103,0.0225610918242872,0.512953028593802
464.7936,1.47405620206166,-0.799859804627795,0.392611632737025,0.20295727926503,-0.665320852767465,-0.665320852768755,NaN,NaN,-0.254989422369279,1.74233014769716,0.338663480754762,1.74233014769788,1.66236075958377,-1.78160136019144,0.427537279140326,-0.118718480432355,0.222590559015927,-0.0363823557591535,-0.750744643081109,0.51648434480203,-0.750744643080643,-0.803248115324476,-0.172552994276224,-0.645730423778891,-0.403075540307651,-1.42528924883893,NaN,0.780171942131904,-0.780171942132117,0.108075387399262,0.438387803006707,-0.941813955946275,NaN,NaN,-1.95328075777977,-1.6600278463617,-0.478821813386297,0.100879919210451,0.100879919210798,NaN,-0.434678269072889,-0.312705797723111,NaN,-1.20806868398611,-1.57850969421029,-0.316402518304997,-1.4660300948935,-1.46603009489476,-0.0245847451644308,0.0245847451649144,0.555455469565175
464.896,1.44171594461928,-0.813465147210263,0.356747155169215,0.201511465143356,-0.675326269783688,-0.675326269784983,NaN,NaN,-0.249192066559492,1.76408639842399,0.314788960247664,1.76408639842472,1.66204912887718,-1.7501938634717,0.449744456591763,-0.120590783592597,0.214996192794269,-0.0402420526463228,-0.74023877160775,0.515426524693259,-0.74023877160728,-0.797102963304033,-0.17175980489029,-0.640984221616028,-0.409753330251843,-1.44680450184713,NaN,0.786434262444585,-0.786434262444807,0.0941534414494273,0.428784800285242,-0.925862348887345,NaN,NaN,-1.95680828759914,-1.66994649715613,-0.477503329999004,0.113537150887268,0.11353715088761,NaN,-0.426445568407373,-0.300725030017548,NaN,-1.22233379318289,-1.57682428402218,-0.309538415418912,-1.46209144058577,-1.46209144058705,-0.0250633246168193,0.0250633246173094,0.596598773616576
464.9984,1.40916080199939,-0.826324781660291,0.321375729300732,0.200342377369199,-0.685089983060767,-0.685089983062066,NaN,NaN,-0.242900019745118,1.78523531913083,0.29099231220934,1.78523531913157,1.66144964643843,-1.71703943125389,0.472909313723209,-0.122147679207448,0.2070807217759,-0.0439251182370668,-0.728437019624915,0.514529466609646,-0.728437019624442,-0.790118192543373,-0.171040026258706,-0.63565643019151,-0.415550359728147,-1.46715634089026,NaN,0.791875812064661,-0.791875812064895,0.0804114768032906,0.418985022418058,-0.908513349881003,NaN,NaN,-1.95919281987916,-1.67856629164393,-0.476332026504725,0.127793494890839,0.12779349489118,NaN,-0.417742948435601,-0.288572261489548,NaN,-1.2358736203352,-1.57301220925534,-0.301186215237791,-1.4564488440789,-1.4564488440802,-0.0240467708852419,0.0240467708857393,0.636341752533237
465.1008,1.37643903864002,-0.838417043384524,0.286552068747048,0.199456381825219,-0.694567579194879,-0.694567579196178,NaN,NaN,-0.236124820115729,1.80575296047213,0.267268550941738,1.80575296047287,1.66054263431003,-1.68220123326782,0.496966355138932,-0.123411796741161,0.198855327979582,-0.0474477334954113,-0.715385802302039,0.513811288149836,-0.715385802301562,-0.782302919751032,-0.170405860848174,-0.629758147799729,-0.420445652059039,-1.48632042974905,NaN,0.796504502525473,-0.796504502525716,0.0668747386888636,0.409005540837231,-0.889801661393225,NaN,NaN,-1.9603983705803,-1.68586733889791,-0.475251425171023,0.143597814429178,0.143597814429507,NaN,-0.40857775993923,-0.276274959037436,NaN,-1.2486770347072,-1.567118925507,-0.291332438315446,-1.44914347409811,-1.44914347409943,-0.0215906579059444,0.0215906579064522,0.674648088433796
465.2032,1.34359795245978,-0.849721973451607,0.252328678983497,0.198858604978428,-0.703714755535421,-0.703714755536719,NaN,NaN,-0.228879725043729,1.82561699025903,0.243612189611438,1.82561699025979,1.65931132425289,-1.64575124886333,0.521846751807394,-0.124407551131868,0.190332188374698,-0.0508273227266142,-0.701135444137254,0.513289144984126,-0.701135444136773,-0.773670420467676,-0.169869048858288,-0.623303317187856,-0.424421184907414,-1.50427638469426,NaN,0.800332185397623,-0.800332185397875,0.0535688907133975,0.398864097113743,-0.869767042288628,NaN,NaN,-1.96039359773523,-1.69183529362082,-0.474206186467464,0.160892055411391,0.1608920554117,NaN,-0.398959006964907,-0.263860410105566,NaN,-1.26073442462645,-1.55919856064814,-0.279971176326801,-1.44022331774539,-1.44022331774673,-0.0177557929857461,0.017755792986262,0.711486287987265
465.3056,1.31068385089125,-0.860221443450344,0.218755730371439,0.198552934895837,-0.71248753546315,-0.712487535464446,NaN,NaN,-0.221179647986994,1.84480678807274,0.220017395173009,1.8448067880735,1.65774186859452,-1.60776981768438,0.547478674466962,-0.125160964824598,0.181524377192943,-0.0540824292083052,-0.685739921919544,0.512979193471084,-0.685739921919061,-0.764238077931846,-0.169440819166677,-0.616308670440772,-0.427461882269102,-1.5210078112111,NaN,0.803374432521192,-0.803374432521452,0.0405200966642343,0.388578914773711,-0.848454088015722,NaN,NaN,-1.95915190383425,-1.69646128124321,-0.473142311384097,0.179611403589327,0.179611403589602,NaN,-0.388897314655687,-0.251355622213346,NaN,-1.272037711165,-1.54931355295339,-0.267104224727827,-1.42974283717319,-1.42974283717457,-0.0126078153667158,0.0126078153672429,0.746829631451239
465.408,1.27774202575565,-0.869899279829613,0.185880930779307,0.198542018807863,-0.720842479911579,-0.720842479912875,NaN,NaN,-0.213041090877608,1.86330349795249,0.196478156977718,1.86330349795326,1.65582328665509,-1.56834513156894,0.5737876030979,-0.125699492382098,0.172445755865377,-0.0572325967034076,-0.669256618156739,0.512896565534452,-0.669256618156254,-0.754027293142419,-0.169131845421807,-0.608793647633391,-0.429555595592748,-1.53650231821252,NaN,0.805650296700756,-0.805650296701025,0.0277550707417441,0.378168499786354,-0.825911984646727,NaN,NaN,-1.95665150818941,-1.69974180215255,-0.472007336082313,0.199684494604554,0.199684494604787,NaN,-0.378404876587483,-0.238787229347501,NaN,-1.28258034418973,-1.53753425638394,-0.252741132690057,-1.41776258975388,-1.4177625897553,-0.00621679284033831,0.00621679284087336,0.780656128449495
465.5104,1.24481671809355,-0.878741388548217,0.153749390489935,0.198827261188159,-0.728736895871996,-0.728736895873287,NaN,NaN,-0.204482066469659,1.88109004116923,0.172988465439376,1.88109004117,1.65354736055523,-1.52757267271036,0.600696623009663,-0.126051839585792,0.163110851931575,-0.0602982494908343,-0.651746072813961,0.513055348804527,-0.651746072813473,-0.743063346078265,-0.168952201388607,-0.600780279804128,-0.430693068191893,-1.55075150196286,NaN,0.807182045277562,-0.807182045277838,0.0153010909762183,0.367651435976478,-0.802194233539119,NaN,NaN,-1.9528754916177,-1.70167861431258,-0.470750516686962,0.221033681691643,0.221033681691827,NaN,-0.367495391885444,-0.22618140739126,NaN,-1.29235728328972,-1.52393851942997,-0.236899183869181,-1.40434881199252,-1.40434881199397,0.00134318694541997,-0.00134318694487597,0.812948485018148
465.6128,1.2119510637913,-0.886735878523986,0.122403473928195,0.199408824816203,-0.736129045300071,-0.736129045301363,NaN,NaN,-0.195522006422737,1.89815109589218,0.149542493458357,1.89815109589296,1.6509084998857,-1.48555460257694,0.628126724302643,-0.126247772322908,0.153534729487408,-0.0633005661031779,-0.633271716980065,0.513468567641738,-0.633271716979575,-0.731375203652558,-0.168911313069266,-0.592293032132137,-0.430867880471916,-1.56375089766427,NaN,0.807994866520151,-0.807994866520439,0.00318597664902247,0.357046178887553,-0.77735834416624,NaN,NaN,-1.94781181308435,-1.70227859178669,-0.469323006607701,0.2435753638321,0.243575363832223,NaN,-0.356183994672476,-0.213563797601903,NaN,-1.30136496190944,-1.50861123891245,-0.219603317818401,-1.38957295634903,-1.38957295635051,0.00999443180722812,-0.00999443180667648,0.843694080217109
465.7152,1.17918701236132,-0.893873180607288,0.0918826354107301,0.200285634736669,-0.742978358035058,-0.742978358036344,NaN,NaN,-0.186181653607429,1.91447305008335,0.126134772948984,1.91447305008413,1.64790358836824,-1.4423991013171,0.655997118369185,-0.126317914717757,0.143732853242549,-0.0662613456917691,-0.613899577700251,0.514148162832058,-0.613899577699758,-0.718995274786683,-0.169017907550653,-0.583358607579482,-0.430076377581635,-1.57549990096599,NaN,0.808116559439948,-0.808116559440246,-0.00856196816994103,0.346370849749336,-0.751465492741192,NaN,NaN,-1.94145329523196,-1.70155355779188,-0.467678031548792,0.267220375686977,0.267220375687065,NaN,-0.344487171650228,-0.200959436485565,NaN,-1.30960122848351,-1.49164388582957,-0.200885992829109,-1.37351116462363,-1.37351116462513,0.0196560671138998,-0.0196560671133355,0.872884951479506
465.8176,1.14656521485533,-0.900146163338764,0.0622232348364763,0.201455385191729,-0.749245656357617,-0.749245656358891,NaN,NaN,-0.17648293964625,1.93004392896777,0.102760362979979,1.93004392896856,1.64453180868535,-1.39821964248331,0.684225578390623,-0.126293537269555,0.133720946133486,-0.0692028676917534,-0.593697955617028,0.51510496769314,-0.593697955616533,-0.705959112944815,-0.169279960211743,-0.574005711846488,-0.428317583296935,-1.58600166314431,NaN,0.807577213829904,-0.807577213830216,-0.0199140429288663,0.335643024406904,-0.724580142412655,NaN,NaN,-1.93379757536803,-1.69952009237358,-0.465771064281482,0.29187443802404,0.291874438024087,NaN,-0.332422663858136,-0.188392692435736,NaN,-1.31706525920955,-1.47313400008295,-0.180786987543681,-1.35624366558569,-1.35624366558723,0.0302444675650056,-0.0302444675644262,0.900517791397178
465.92,1.11412487926126,-0.905550250764777,0.0334583274831113,0.202914550407147,-0.754893399838413,-0.754893399839681,NaN,NaN,-0.166448848940509,1.94485329260255,0.0794150122717175,1.94485329260334,1.64079443196217,-1.35313418538705,0.712728802650475,-0.126206336629126,0.12351483832834,-0.072147746833275,-0.572737084950789,0.516348679111605,-0.572737084950291,-0.692305066039495,-0.169704643259686,-0.564264780667619,-0.425593104763835,-1.59526296123078,NaN,0.806408881410028,-0.806408881410352,-0.0308412728129649,0.324879508633747,-0.696769620108159,NaN,NaN,-1.92484702221698,-1.69619931720661,-0.463559999255714,0.317438667918452,0.317438667918462,NaN,-0.320009351318505,-0.175887209678338,NaN,-1.32375744316476,-1.45318465413036,-0.159353140826348,-1.33785409137548,-1.33785409137706,0.0416737039788629,-0.0416737039782722,0.926593958876325
466.0224,1.08190359610322,-0.910083542726833,0.00561742956024474,0.204658399550617,-0.759885949763382,-0.75988594976464,NaN,NaN,-0.156103269045866,1.95889210066677,0.056095321692702,1.95889210066757,1.63669456781698,-1.30726428333654,0.741422797728497,-0.12608820745976,0.113130304742765,-0.0751187847346825,-0.551088779069975,0.517887824533985,-0.551088779069476,-0.678073877007865,-0.170298276820972,-0.554167672290918,-0.421907032408229,-1.60329404264861,NaN,0.804645241826371,-0.804645241826708,-0.0413145716669551,0.31409609733054,-0.668103649154793,NaN,NaN,-1.91460862517629,-1.69161666267971,-0.461005327537783,0.343810151623476,0.343810151623446,NaN,-0.307267120169706,-0.163465856244703,NaN,-1.32967925150427,-1.43190388867232,-0.13663803492836,-1.31842871738954,-1.31842871739115,0.0538560089886782,-0.0538560089880764,0.951119502753658
466.1248,1.04993714732684,-0.913746928355222,-0.0212737226782847,0.206681016283818,-0.764189839323127,-0.764189839324377,NaN,NaN,-0.145470827769138,1.97215255274513,0.0327989078473943,1.97215255274593,1.63223688872879,-1.26073412600271,0.770223282593256,-0.125971003310052,0.102582891656385,-0.0781388152573837,-0.528826054934324,0.519729727643584,-0.528826054933822,-0.663308245504417,-0.171066279990605,-0.543747331757137,-0.417265837049356,-1.61010844660514,NaN,0.80232127087365,-0.802321270874,-0.0513049473094022,0.303307325488452,-0.638653846254268,NaN,NaN,-1.90309386437027,-1.68580162156002,-0.458070307777943,0.370882579807664,0.370882579807594,NaN,-0.294216714563664,-0.151150669852444,NaN,-1.33483310914267,-1.40940412103231,-0.11270163355931,-1.29805564752328,-1.29805564752492,0.0667022622668443,-0.0667022622662302,0.974105188908789
466.2272,1.01825932100242,-0.916544178014085,-0.0471933906625018,0.208975325441683,-0.767774029565109,-0.767774029566346,NaN,NaN,-0.134576720879118,1.98462792381421,0.00952455816778768,1.98462792381502,1.62742735267931,-1.21366954999212,0.799046113727907,-0.125886283639886,0.0918877399099185,-0.0812305389468347,-0.506022732594089,0.521880476221655,-0.506022732593584,-0.648052368903445,-0.172013117343277,-0.533037438511614,-0.411678263295791,-1.61572280801717,NaN,0.799472916804721,-0.799472916805082,-0.0607837379161143,0.292526228530372,-0.608493203228836,NaN,NaN,-1.89031856358296,-1.67878748931699,-0.45472111977816,0.398546931624356,0.398546931624254,NaN,-0.280879581845493,-0.138962798096908,NaN,-1.33922228245642,-1.38580151944583,-0.0876098878286991,-1.27682398296444,-1.27682398296609,0.0801224917914334,-0.0801224917908109,0.995566516406396
466.3296,0.986901752716642,-0.91848200154311,-0.072124001977728,0.211533131438409,-0.770610135299875,-0.770610135301101,NaN,NaN,-0.123446537329113,1.99631241705205,-0.0137276401081424,1.99631241705286,1.62227294803483,-1.16619705952563,0.827807725823147,-0.125865048785151,0.081059415244068,-0.0844163449724596,-0.482753016813738,0.524344897308102,-0.482753016813232,-0.632351483343753,-0.173142238316124,-0.522072051423807,-0.405155216795214,-1.6201566500586,NaN,0.796136787260733,-0.796136787261106,-0.0697228601029171,0.281764134921826,-0.57769558000889,NaN,NaN,-1.87630272250231,-1.67061108906785,-0.450926984582753,0.426692183459091,0.426692183458955,NaN,-0.267277724644402,-0.126922434653938,NaN,-1.34285078626434,-1.36121533459331,-0.0614343174306604,-1.25482301605904,-1.2548230160607,0.0940263826940194,-0.0940263826933888,1.01552370855365
466.432,0.955893802834264,-0.919570067977426,-0.0960522585613788,0.214345172808365,-0.772672615020491,-0.772672615021705,NaN,NaN,-0.112106088437713,2.00720104886729,-0.0369562125156696,2.0072010488681,1.61678147909552,-1.11844289462311,0.8564255801165,-0.125937468559827,0.0701117529614385,-0.0877181233495542,-0.459091072425811,0.527126545212599,-0.459091072425304,-0.616251420200845,-0.174456011639584,-0.51088526316742,-0.397709642650062,-1.62343216872966,NaN,0.792349846931428,-0.792349846931811,-0.0780950507719367,0.271030510448749,-0.546335229793668,NaN,NaN,-1.86107032517863,-1.66131248173019,-0.44666024206379,0.455206020936179,0.455206020935999,NaN,-0.253433572707272,-0.11504875679664,NaN,-1.34572330395373,-1.33576718849975,-0.034251567752122,-1.23214147764322,-1.23214147764491,0.108323781866767,-0.108323781866127,1.0340016736411
466.5344,0.925262468775405,-0.919820985798944,-0.118969184430072,0.217401194881662,-0.773938924370125,-0.773938924371325,NaN,NaN,-0.100581244903916,2.01728957114997,-0.0601582592977742,2.01728957115078,1.61096140472373,-1.07053217239916,0.884818614745843,-0.126132612377962,0.0590577208202047,-0.0911570730754395,-0.435110601579944,0.530227704992367,-0.435110601579434,-0.599798185394583,-0.175955661697418,-0.49951087186277,-0.389356392289381,-1.62557401081543,NaN,0.788149127743935,-0.788149127744328,-0.0858740900542085,0.260332864788462,-0.514486367734303,NaN,NaN,-1.844649123028,-1.65093466468544,-0.441896384343375,0.483975542959091,0.483975542958874,NaN,-0.239369880681163,-0.103359869371773,NaN,-1.34784510958616,-1.30958032899218,-0.00614293903614955,-1.20886684538444,-1.20886684538613,0.122925186279507,-0.122925186278858,1.05102994059419
466.6368,0.895032329396554,-0.919250240156884,-0.140870111978723,0.220690039779914,-0.774389630034145,-0.774389630035329,NaN,NaN,-0.0888977831511396,2.02657442992748,-0.0833294698771786,2.02657442992829,1.6048217393365,-1.02258811755246,0.91290769510737,-0.126478189916364,0.0479093037597464,-0.0947535128837855,-0.410884425054786,0.533649412076866,-0.410884425054274,-0.583037564332551,-0.177641215881293,-0.487982075346859,-0.380112076386008,-1.6266090480813,NaN,0.78357146015472,-0.783571460155123,-0.0930349990795444,0.249676725100695,-0.482222790661478,NaN,NaN,-1.82707038980221,-1.63952326054481,-0.436614044332129,0.512887951847604,0.512887951847345,NaN,-0.225109649997161,-0.0918727559064949,NaN,-1.34922198283826,-1.28277885287879,0.0228061223178464,-1.18508470378963,-1.18508470379132,0.13774220626434,-0.137742206263686,1.06664257456243
466.7392,0.865225519036418,-0.91787608086619,-0.161754603243254,0.224199751615335,-0.774008477944144,-0.77400847794531,NaN,NaN,-0.0770812408275076,2.03505275778192,-0.106464190812915,2.03505275778273,1.59837202196647,-0.974731390921908,0.940616063705583,-0.127000309855604,0.0366774120242125,-0.0985267006455101,-0.386484065191858,0.537391490892828,-0.386484065191342,-0.56601475344968,-0.179511471564197,-0.476331191940786,-0.36999490206597,-1.62656615323367,NaN,0.778653236957335,-0.778653236957748,-0.0995542153575119,0.239065678404471,-0.449617553526618,NaN,NaN,-1.80836864759115,-1.62712619440093,-0.430794937356862,0.541831220386419,0.541831220386126,NaN,-0.210676068156499,-0.080603230580319,NaN,-1.34986011028354,-1.2554868888938,0.0525065862981143,-1.16087813809889,-1.1608781381006,0.152688001625506,-0.152688001624845,1.08087806687119
466.8416,0.835861727201167,-0.915719357546449,-0.181626305928053,0.227917695505191,-0.77278241202123,-0.772782412022376,NaN,NaN,-0.0651567800491199,2.04272239546132,-0.129555543359521,2.04272239546213,1.59162235071758,-0.927079515940802,0.967869786873682,-0.12772326077046,0.0253718098747534,-0.102494665753818,-0.361979328569495,0.541452615103944,-0.361979328568976,-0.548774017296193,-0.18156398917902,-0.464589409341614,-0.359024492006094,-1.62547598215674,NaN,0.773430215758337,-0.773430215758761,-0.105409754208761,0.228501479205499,-0.416742702751503,NaN,NaN,-1.78858136913153,-1.61379335743616,-0.424423754563822,0.570694720848545,0.570694720848214,NaN,-0.196092457504432,-0.069565880790286,NaN,-1.34976596612777,-1.22782773244445,0.0828664664605098,-1.13632714922686,-1.13632714922858,0.167677693432263,-0.167677693431596,1.09377918789235
466.944,0.806958218818925,-0.912803305200043,-0.200492750840521,0.231830690495501,-0.770701545317519,-0.770701545318645,NaN,NaN,-0.0531490564510664,2.04958193301537,-0.152595578175037,2.04958193301618,1.58458346698107,-0.879746393928794,0.9945981888235,-0.128669316245614,0.0140010593156962,-0.106674057930695,-0.337437895350879,0.545830384785634,-0.337437895350357,-0.531358369075067,-0.183795114834646,-0.452786561380305,-0.347221680639993,-1.62337076155032,NaN,0.767937362131567,-0.767937362132001,-0.110581357487412,0.217984210501469,-0.383669062028993,NaN,NaN,-1.76774866761163,-1.59957625630371,-0.417488007922708,0.599369799271881,0.599369799271507,NaN,-0.181382225308266,-0.0587739937435596,NaN,-1.34894617350275,-1.19992294719143,0.113791504057442,-1.11150809753541,-1.11150809753715,0.182628753395264,-0.182628753394591,1.10539279902792
