time,S1-D1,S1-D8,S1-D9,S1-D15,S2-D1,S2-D2,S2-D3,S2-D9,S3-D1,S3-D2,S3-D16,S4-D2,S4-D3,S4-D5,S5-D3,S5-D4,S5-D5,S6-D2,S6-D5,S6-D17,S7-D6,S7-D7,S8-D6,S8-D7,S8-D18,S9-D3,S9-D4,S9-D9,S9-D11,S9-D19,S10-D8,S10-D9,S10-D10,S10-D11,S11-D8,S11-D10,S11-D20,S12-D10,S12-D11,S12-D12,S13-D4,S13-D11,S13-D12,S14-D10,S14-D12,S14-D21,S15-D13,S15-D14,S16-D13,S16-D14,S16-D22
1260.9536,0.146338323358577,1.51870828167578,1.01370466582531,-0.242087873299557,1.17371156286176,1.1737115628616,NaN,-1.00253470446227,-1.70958411904603,0.799351372742631,-0.290147327952082,0.799351372743127,0.132303342601083,1.75074908393805,0.939023310830463,0.263592886126571,NaN,0.277894188469751,-0.779639993119531,1.54557035429626,-0.779639993120097,-0.15538220450254,-0.682989428261256,-1.06628216007131,0.436087175405815,0.134717694867392,NaN,NaN,-1.86490114739174,1.57574883305306,-1.22884096435171,1.00410567732603,NaN,-0.746623106616496,-1.28229581870847,-1.69302176867689,-0.367415048180271,-0.845329559479647,-0.845329559478978,0.943776027869568,-0.347714393825206,0.547863153760775,NaN,0.245060705109362,1.07457378302015,-0.26401815579402,-1.58743843321358,-1.58743843321529,-1.99840579258338,1.99840579258276,0.255261309528485
1261.056,0.167455658747666,1.5020471881602,1.02371775083909,-0.257914607417822,1.18442858818125,1.18442858818107,NaN,-0.976048717402125,-1.69281100297547,0.83657937712226,-0.294430579446074,0.836579377122754,0.163431249172422,1.75732337412631,0.972541552002348,0.300430551673029,NaN,0.328078143686592,-0.758953725875429,1.53146780244198,-0.758953725875993,-0.149233034664323,-0.706360468444289,-1.08862448042135,0.427048437990075,0.100396437395824,NaN,NaN,-1.86539884116371,1.60735686209913,-1.21155026389365,1.00352948770988,NaN,-0.776987277785356,-1.3153900491158,-1.7474528269525,-0.379303020702727,-0.819757510617566,-0.819757510616902,0.916125847729384,-0.383207606195163,0.496474159789363,NaN,0.230591530961543,1.07659791023202,-0.265759507606841,-1.56153464495202,-1.56153464495373,-1.99641842480516,1.99641842480455,0.272981705562495
1261.1584,0.188599749793844,1.48503168430319,1.03355092183676,-0.274884210884855,1.19416743726463,1.19416743726445,NaN,-0.950027019712635,-1.67665288962069,0.874651069143168,-0.298482876262708,0.87465106914366,0.194661428680644,1.76197947811236,1.00527303600822,0.338280185956698,NaN,0.379237689576686,-0.736308241469839,1.51541788487259,-0.7363082414704,-0.141990491149946,-0.729643854568224,-1.10950578184591,0.416793165623637,0.0662132210390755,NaN,NaN,-1.86538403327529,1.63890003668319,-1.19362464564328,1.00242976899298,NaN,-0.805127714494933,-1.34720184147997,-1.7987613485933,-0.391248879477668,-0.794235568598918,-0.794235568598261,0.888170435554827,-0.419310710801304,0.444349173832449,NaN,0.21568912222134,1.07736232656913,-0.268147782613368,-1.53460793616786,-1.53460793616956,-1.99364673237822,1.9936467323776,0.289592426704999
1261.2608,0.209718634514938,1.46771125210427,1.04318444354063,-0.292958500933664,1.20294603975674,1.20294603975655,NaN,-0.924530069299459,-1.66114894319867,0.913499488659661,-0.302313861540141,0.913499488660155,0.225935435699761,1.76475592273894,1.03717835001938,0.377075805215804,NaN,0.431286680692968,-0.711757478794411,1.49748299499489,-0.711757478794966,-0.133634457643558,-0.752861117869225,-1.12892882098694,0.405313276316873,0.0322450271570213,NaN,NaN,-1.86486090202449,1.6702510314856,-1.17506658989607,1.00080445673711,NaN,-0.831040814096325,-1.37766639829919,-1.84689480502374,-0.403217419921176,-0.768859544124445,-0.768859544123795,0.859955610672176,-0.455947115116827,0.391587104741314,NaN,0.200430485226709,1.0769120034259,-0.271247243898244,-1.506665963395,-1.50666596339671,-1.99004799110671,1.9900479911061,0.305078096746724
1261.3632,0.230760620436767,1.45013514072568,1.05259869679033,-0.312094018906764,1.21078443590962,1.21078443590942,NaN,-0.899615078883734,-1.64633419395924,0.953054840558827,-0.30593255597475,0.953054840559321,0.257193511439305,1.76569458605828,1.06821834471329,0.416750558091125,NaN,0.484138578882811,-0.68536162895546,1.47773188550698,-0.685361628956009,-0.124148572014819,-0.776031801464164,-1.1468984397136,0.392605354567479,-0.00143411268425992,NaN,NaN,-1.86383351930078,1.70128034348193,-1.15588127497417,0.998653277377689,NaN,-0.85473272523921,-1.4067225834345,-1.89181287516194,-0.415175260084404,-0.743724342385272,-0.743724342384625,0.831526821372398,-0.493039223932189,0.338287315899619,NaN,0.184892632924255,1.07529237334157,-0.275121847917314,-1.47771850786534,-1.47771850786705,-1.98558059448206,1.98558059448144,0.319428302663069
1261.4656,0.251674527626208,1.43235215341931,1.0617742814573,-0.332242295284239,1.21770451058098,1.21770451058077,NaN,-0.87533583202569,-1.63223930133097,0.993244746501776,-0.309347376927051,0.993244746502266,0.288374727846225,1.764840448036,1.09835416010426,0.457237117060685,NaN,0.537706824840892,-0.657186775868534,1.45623924743819,-0.657186775869072,-0.113520237201875,-0.799173283475944,-1.16342135204986,0.378670764981146,-0.0347532284831705,NaN,NaN,-1.86230577506062,1.73185703366096,-1.13607672655378,0.995977802523147,NaN,-0.876218949219544,-1.43431306108546,-1.93348716482644,-0.427090888717241,-0.718923352829847,-0.718923352829204,0.802929007483151,-0.530508854566211,0.284549185072548,NaN,0.169152155846175,1.07254909795208,-0.279834963694433,-1.44777739278917,-1.44777739279088,-1.98020426701608,1.98020426701545,0.332637477487518
1261.568,0.272409926460151,1.41441043425332,1.07069211434743,-0.353350134210448,1.22372971999472,1.22372971999451,NaN,-0.851742516898941,-1.61889035131614,1.03399451011548,-0.312566174561712,1.03399451011597,0.319417155804283,1.76224134497061,1.12754727668686,0.498468065529844,NaN,0.591905197494219,-0.627304507086962,1.43308528438375,-0.627304507087487,-0.101740626105465,-0.822300605585226,-1.17850593066315,0.363515735873702,-0.067644492568503,NaN,NaN,-1.86028129299435,1.76184947223967,-1.11566395232084,0.992781492976046,NaN,-0.895523894520628,-1.46038443857816,-1.97190088373334,-0.438934682714468,-0.694547858960997,-0.694547858960358,0.774206492522503,-0.568277643993138,0.230471696113179,NaN,0.153284790249068,1.0687278409883,-0.28544909872846,-1.41685640024521,-1.41685640024691,-1.97388029047556,1.97388029047493,0.344704755852026
1261.6704,0.29291736593745,1.39635725982279,1.07933352118792,-0.375359917462252,1.22888481826913,1.22888481826892,NaN,-0.828881575594871,-1.60630869293784,1.07522739298,-0.315596276460522,1.07522739298049,0.350258051449073,1.75794773043665,1.1557595873334,0.540376275463434,NaN,0.64664815895963,-0.595791500125991,1.40835528158683,-0.595791500126507,-0.0888046791522838,-0.845426311970851,-1.19216199761316,0.347151410413241,-0.100043275712316,NaN,NaN,-1.85776333888711,1.79112609052294,-1.0946570675166,0.989069737765161,NaN,-0.912680386940906,-1.48488741503406,-2.00704848396547,-0.450678889849381,-0.670686474166788,-0.670686474166151,0.745402900237459,-0.60626744851639,0.176153057540111,NaN,0.137364989354232,1.06387405330215,-0.292025633658785,-1.38497118946688,-1.38497118946858,-1.96657174627254,1.96657174627192,0.355633803296992
1261.7728,0.313148589202752,1.37823884106771,1.08768032256091,-0.398209925480141,1.23319558279943,1.23319558279923,NaN,-0.806795566203503,-1.59451081402491,1.11686489241038,-0.318444536126387,1.11686489241087,0.380834056616299,1.75201243225432,1.18295348119251,0.582895266811141,NaN,0.701851179737991,-0.562729089762757,1.38213916772637,-0.562729089763264,-0.0747110955064302,-0.868560300576142,-1.20440062304893,0.329593867975335,-0.131888183427891,NaN,NaN,-1.85475472516073,1.81955614712298,-1.07307341236702,0.984849890788406,NaN,-0.927729143933132,-1.50777693328543,-2.03893526626596,-0.462297579835663,-0.647424610454548,-0.647424610453913,0.716561092682504,-0.644400728756026,0.121690351119531,NaN,0.121465508500165,1.05803278075192,-0.299624560718073,-1.35213921900816,-1.35213921900986,-1.9582437687039,1.95824376870327,0.365432615971479
1261.8752,0.333056735735218,1.36010013752547,1.0957149146196,-0.421834671700112,1.23668853677094,1.23668853677074,NaN,-0.785523034746463,-1.58350825343039,1.15882701288887,-0.321117387264469,1.15882701288935,0.411081411716675,1.74449039179483,1.20909193158791,0.625959543735808,NaN,0.757431041964809,-0.5282028192691,1.3545310691045,-0.528202819269595,-0.0594623184530017,-0.891709687762573,-1.21523393386002,0.310864119229923,-0.163121078194505,NaN,NaN,-1.85125771645565,1.84701051457641,-1.05093365333862,0.980131303911367,NaN,-0.940718221800461,-1.5290123285404,-2.06757695760522,-0.473766573862427,-0.624843976932925,-0.62484397693229,0.68772312896542,-0.682600908422333,0.0671792186140315,NaN,0.105657015074447,1.05124850185105,-0.308304220003203,-1.31837967418678,-1.31837967418848,-1.94886380239502,1.94886380239438,0.374113285763185
1261.9776,0.35259653019779,1.34198468325124,1.10342034414004,-0.446165246133878,1.2393906715609,1.23939067156069,NaN,-0.765098394430821,-1.57330754802202,1.20103252879035,-0.323620905517684,1.20103252879083,0.440936184081387,1.73543837645728,1.23413858666052,0.66950490762463,NaN,0.813306121461119,-0.492301976723479,1.32562886035045,-0.492301976723968,-0.043064510913435,-0.914878691073217,-1.22467493334485,0.290988073611269,-0.193687091935582,NaN,NaN,-1.84727393960774,1.8733624869158,-1.02826185587739,0.974925352554207,NaN,-0.951702440315276,-1.54855747123272,-2.09299926249846,-0.485063363018082,-0.603022096418422,-0.603022096417788,0.658930244171293,-0.720792699516449,0.0127135919677935,NaN,0.0900077303294042,1.04356499285312,-0.318121032431739,-1.28371340046753,-1.28371340046924,-1.93840186358049,1.93840186357985,0.381691727202992
1262.08,0.371724457012137,1.3239344219355,1.11078037561134,-0.471129665494065,1.24132917471254,1.24132917471232,NaN,-0.745551812768098,-1.56391021802329,1.24339924176727,-0.325960874337082,1.24339924176775,0.470334518226733,1.72491466500757,1.25805786892487,0.713468747578365,NaN,0.869396649034029,-0.455119118248618,1.29553371668969,-0.455119118249096,-0.0255275138191468,-0.938068537857189,-1.23273733284959,0.269996472984115,-0.223534626042861,NaN,NaN,-1.84280429765946,1.89848860381154,-1.00508551991024,0.96924544856375,NaN,-0.960742786859517,-1.56638090639572,-2.11523739187552,-0.496167021767316,-0.582031831681018,-0.582031831680383,0.630222845587522,-0.758902393481862,-0.041614535193749,NaN,0.0745831060612282,1.03502521229419,-0.329129230610387,-1.2481628463488,-1.24816284635052,-1.92683080957927,1.92683080957863,0.388187367355266
1262.1824,0.390398919458101,1.30598954822611,1.11777954751769,-0.496653229336775,1.24253116545007,1.24253116544983,NaN,-0.72690910926554,-1.55531279619462,1.28584423910342,-0.328142848656437,1.28584423910391,0.499212912444815,1.71297871275429,1.28081509127979,0.757790307988131,NaN,0.925624951465109,-0.416749581781674,1.26434966950044,-0.416749581782137,-0.00686478154744832,-0.961277406871036,-1.23943539734015,0.24792478373957,-0.252615330171975,NaN,NaN,-1.83784888738899,1.92226948273472,-0.981435574544693,0.963107034685669,NaN,-0.967905802047013,-1.58245599160442,-2.13433557294689,-0.507058119539,-0.561940924980844,-0.561940924980205,0.601640519365368,-0.796858121395301,-0.095715303080297,NaN,0.0594455342155325,1.02567119771651,-0.34138058730966,-1.21175202290627,-1.211752022908,-1.91412661589142,1.91412661589078,0.393622806695607
1262.2848,0.408580382258779,1.28818835250922,1.1244032152594,-0.522658881368702,1.24302343109334,1.24302343109309,NaN,-0.709191664434994,-1.54750689975777,1.32828415783301,-0.330172209904072,1.32828415783349,0.527508518634974,1.69969080172977,1.30237658884201,0.80241093250117,NaN,0.981915673700664,-0.377290997193686,1.23218316428149,-0.377290997194134,0.0129067073056319,-0.984500407811957,-1.2447838091237,0.224813041305398,-0.280884051927971,NaN,NaN,-1.83240692380089,1.94459064681745,-0.957346331838522,0.956527555891143,NaN,-0.973262949978645,-1.59676103345657,-2.15034654309315,-0.517718631009082,-0.542811564277735,-0.542811564277094,0.573222039804851,-0.834590086309764,-0.14950115743962,NaN,0.0446540841990708,1.01554397212464,-0.354924139734979,-1.17450648577378,-1.17450648577552,-1.90026865131986,1.90026865131921,0.39802346238121
1262.3872,0.426231498514336,1.2705670676391,1.13063758064328,-0.549067573823592,1.24283215702071,1.24283215702045,NaN,-0.692416339079271,-1.54047933476156,1.37063545596314,-0.332054209732502,1.37063545596362,0.555159455019511,1.68511167430692,1.32270985573647,0.847274284874948,NaN,1.03819598537218,-0.336842799668423,1.19914262215409,-0.336842799668857,0.0337665642165949,-1.00772960369975,-1.24879755552164,0.200705647371901,-0.308298755702476,NaN,NaN,-1.82647667885368,1.96534333313197,-0.932855402940033,0.949526406497043,NaN,-0.976889979586882,-1.60927941834077,-2.16333103080765,-0.528131843262326,-0.524699988313908,-0.524699988313263,0.545005378061572,-0.872030769145889,-0.202887001297958,NaN,0.0302642654446494,1.00468346473987,-0.369805908489043,-1.13645334081567,-1.13645334081741,-1.88523993889752,1.88523993889686,0.401417203311019
1262.4896,0.443317226751177,1.25315971808347,1.13646971357517,-0.575798635629385,1.24198265796042,1.24198265796016,NaN,-0.676595404472632,-1.53421221876465,1.41281469037288,-0.333794007483316,1.41281469037337,0.58210512018493,1.66930214956501,1.34178367520844,0.892326549607206,NaN,1.09439577628059,-0.295505751183085,1.16533801221466,-0.295505751183502,0.0556911329206905,-1.03095408324793,-1.2514918461453,0.175651130252496,-0.334820415864991,NaN,NaN,-1.82005544405242,1.98442526540185,-0.908003584599833,0.942124858358434,NaN,-0.978866287332349,-1.6199997248889,-2.17335722408527,-0.538282259851006,-0.507656134075999,-0.50765613407535,0.517027712039312,-0.909115108591254,-0.255790325566832,NaN,0.0163278179118234,0.993128455262944,-0.386068612881607,-1.09762127040678,-1.09762127040853,-1.86902739338966,1.869027393389,0.403833982789069
1262.592,0.459804946070144,1.23599797360364,1.14188757460503,-0.602770148612323,1.24049913387576,1.24049913387549,NaN,-0.661736486464294,-1.52868311165741,1.45473879840974,-0.335396709986851,1.45473879841023,0.60828649837561,1.65232273219098,1.35956823771909,0.937516613787775,NaN,1.15044784229888,-0.253381472493451,1.13088044573724,-0.253381472493848,0.0786536622210602,-1.05416008901656,-1.25288206382726,0.149701884579941,-0.360412893547064,NaN,NaN,-1.81313952534204,2.00174138161543,-0.882834726903244,0.934345980857903,NaN,-0.979274292730536,-1.62891580188535,-2.18050022508281,-0.548155506191387,-0.491723325293677,-0.491723325293024,0.489325436975505,-0.945780656334981,-0.308131319969677,NaN,0.00289253539403011,0.98091654696148,-0.403751383970607,-1.05804057319748,-1.05804057319923,-1.8516220290936,1.85162202909293,0.405305472679917
1262.6944,0.475664571225289,1.21911100961249,1.1468800412662,-0.629899333571219,1.23840447029297,1.2384044702927,NaN,-0.647842528003815,-1.52386515527476,1.49632537652306,-0.336867416547452,1.49632537652356,0.633646446748864,1.63423323185283,1.37603524622079,0.982796225387321,NaN,1.20628805597496,-0.210571987353148,1.09588179824116,-0.210571987353533,0.102624506601223,-1.07733119863788,-1.25298374921704,0.122913898800566,-0.385042806368174,NaN,NaN,-1.8057242726073,2.01720451916669,-0.857395588476563,0.926214561806214,NaN,-0.978198835958276,-1.6360268041026,-2.18484149430238,-0.557738239656482,-0.476938005840034,-0.476938005839373,0.461934168917575,-0.981967710059171,-0.359832972914381,NaN,-0.00999787414807013,0.968084161982817,-0.422889472220255,-1.01774320955242,-1.01774320955416,-1.83301913563184,1.83301913563118,0.405864702545721
1262.7968,0.490868660249158,1.20252537500577,1.15143693180089,-0.657102942341633,1.23572008567526,1.23572008567498,NaN,-0.634911775346994,-1.51972723414422,1.5374929505929,-0.338211263699043,1.53749295059341,0.658129961307932,1.61509240701468,1.39115801185597,1.0281201199946,NaN,1.26185551368285,-0.167179279240938,1.06045435712037,-0.167179279241304,0.127571346434497,-1.10044854704986,-1.25181261371529,0.0953464634120575,-0.408679398278141,NaN,NaN,-1.79780414153599,2.03073606513225,-0.831735675963938,0.917757028984567,NaN,-0.975726602867333,-1.64133718981275,-2.18646829229109,-0.567018061405471,-0.463329531708652,-0.46332953170798,0.434888731042364,-1.01761942657011,-0.410821170851657,NaN,-0.0223038915861172,0.954666542209226,-0.443513947057292,-0.976762850796841,-0.976762850798567,-1.81321842434803,1.81321842434736,0.405545708134809
1262.8992,0.505392504854024,1.18626486778383,1.15554901736765,-0.684297649745069,1.23246581633873,1.23246581633847,NaN,-0.622937792127538,-1.51623417284196,1.57816123904225,-0.339433463851684,1.57816123904276,0.681684428906325,1.5949576356302,1.40491154844545,1.07344611085016,NaN,1.31709265542586,-0.12330485889655,1.02471049057281,-0.123304858896903,0.153459419239831,-1.12349107594133,-1.24938457362711,0.0670618481705641,-0.431294413160252,NaN,NaN,-1.78937278734267,2.04226657122027,-0.805907060794692,0.909001363405606,NaN,-0.97194557984539,-1.6448566852493,-2.18547312521038,-0.575983423953642,-0.450920038934387,-0.450920038933704,0.408223117960142,-1.0526819158942,-0.461024801962481,NaN,-0.0339902604790386,0.940697740085494,-0.465651393377564,-0.935134937775711,-0.935134937777423,-1.79222414911501,1.79222414911434,0.404383195648353
1263.0016,0.519214199695762,1.17035041971814,1.15920801981598,-0.711400441854966,1.22865983014802,1.22865983014776,NaN,-0.61190950274868,-1.51334697735812,1.61825141397335,-0.340539338389277,1.61825141397388,0.704259875257229,1.5738846076935,1.41727267317124,1.11873514161219,NaN,1.37194535865224,-0.0790493414654723,0.988762337639653,-0.0790493414658093,0.180251758855837,-1.14643580471008,-1.24571580209593,0.0381249468060912,-0.452861971614354,NaN,NaN,-1.78042319121829,2.05173632349174,-0.779964170223441,0.899976994262718,NaN,-0.96694454013215,-1.64660021638072,-2.1819531961043,-0.584623530899698,-0.439724396913983,-0.439724396913288,0.381970437100283,-1.0871043152056,-0.510375864079718,NaN,-0.0450260406020863,0.926210593412855,-0.489323614723827,-0.892896754343349,-0.892896754345058,-1.77004520327899,1.77004520327831,0.402412229896073
1263.104,0.532314693124595,1.15479999132805,1.16240659820011,-0.73832900051464,1.22431856632422,1.22431856632396,NaN,-0.601811264386873,-1.51102311628115,1.65768636439517,-0.341534346931727,1.65768636439571,0.725809209986072,1.55192703470452,1.42822011218487,1.16395130572616,NaN,1.4263630111947,-0.0345120342872889,0.952721522298631,-0.0345120342876195,0.207909448035762,-1.1692581303839,-1.24082280157027,0.00860289539859336,-0.473358447984534,NaN,NaN,-1.77094781735875,2.05909585721319,-0.753963553225609,0.890714670177332,NaN,-0.960812563415201,-1.6465878052749,-2.17600986157334,-0.592928228008112,-0.429750240737637,-0.429750240736928,0.356162824878508,-1.12083884158474,-0.558809578060306,NaN,-0.0553846443442351,0.911236685546067,-0.514547349547208,-0.850087515147912,-0.850087515149615,-1.74669519257051,1.74669519256983,0.399667954638483
1263.2064,0.544677823521997,1.13962847672448,1.16513832758838,-0.765002084965947,1.21945670175078,1.21945670175052,NaN,-0.592622966812777,-1.50921683274627,1.69639096273637,-0.342424105649565,1.69639096273692,0.746288461331284,1.52913637557768,1.43773460368244,1.20906183976282,NaN,1.48029856976101,0.0102094620557059,0.916698892922461,0.0102094620553786,0.236391894228833,-1.19193217097338,-1.23472250328456,-0.0214353345230905,-0.492762344882444,NaN,NaN,-1.76093879607663,2.06430641212307,-0.727963623271078,0.881246308257161,NaN,-0.9536385892171,-1.64484442866218,-2.16774809253782,-0.600887885904571,-0.420998061865908,-0.420998061865185,0.330831335212836,-1.15384082448995,-0.606264509396317,NaN,-0.0650438563504824,0.895806294042763,-0.54133400225754,-0.806748462532146,-0.806748462533852,-1.72219248226212,1.72219248226145,0.396185353156566
1263.3088,0.55629034372128,1.12484761724476,1.1673976718696,-0.791339909987148,1.21408714408578,1.21408714408554,NaN,-0.584320161451326,-1.50787948136446,1.73429233418994,-0.343214379936779,1.7342923341905,0.765656991935902,1.50556158810855,1.44579899428225,1.25403709774907,NaN,1.53370860687161,0.0550196354721308,0.880804281781356,0.055019635471811,0.265657132458824,-1.21443115785966,-1.22743239610518,-0.0519193720444924,-0.511054163027164,NaN,NaN,-1.75038812805904,2.0673403240854,-0.702024383904404,0.871604828849009,NaN,-0.945511000617497,-1.64139984077828,-2.15727593732194,-0.608493276289673,-0.413461332934209,-0.413461332933471,0.306005802647151,-1.18606871913773,-0.652682697034524,NaN,-0.0739858387625647,0.879948331672766,-0.56968938909598,-0.762922966595405,-0.762922966597111,-1.69656021608886,1.69656021608818,0.391999056143732
1263.4112,0.567141934640322,1.11046592577103,1.16917995269929,-0.817264517810227,1.20822105135962,1.2082210513594,NaN,-0.576874223903508,-1.50695988710459,1.7713201269464,-0.343911041740824,1.77132012694698,0.783877689617919,1.4812489274462,1.45239833263667,1.29885050903987,NaN,1.58655334202393,0.099825420885767,0.845146270696716,0.0998254208854554,0.295662146896649,-1.23672786267459,-1.21897067648496,-0.0827779091022614,-0.52821626533615,NaN,NaN,-1.73928790624235,2.06818134639308,-0.676207147023504,0.861823985563724,NaN,-0.9365172332625,-1.6362883699648,-2.14470398934652,-0.61573544696024,-0.407126652344076,-0.407126652343321,0.281714686464259,-1.21748410017692,-0.698009783405369,NaN,-0.0821971233568908,0.863690286779136,-0.599613498537661,-0.718656621842874,-0.718656621844586,-1.66982630502008,1.6698263050194,0.387143198798311
1263.5136,0.577225207797619,1.09648862858899,1.17048131824245,-0.842700139653848,1.20186787767842,1.20186787767823,NaN,-0.570252554075769,-1.5064047192633,1.80740677873251,-0.344519997820898,1.80740677873311,0.800917131339485,1.45624181456216,1.4575199691657,1.34347851776197,NaN,1.6387966484886,0.144536529477588,0.809831944850644,0.144536529477277,0.326363193235228,-1.25879503034595,-1.20935640532288,-0.113939174712356,-0.544232737241536,NaN,NaN,-1.72763055801132,2.066824892342,-0.650574251885025,0.85193819622796,NaN,-0.926743409749805,-1.62954870073271,-2.13014486837569,-0.622605603970362,-0.401973912154868,-0.401973912154094,0.257984903264752,-1.24805163369962,-0.742195137676391,NaN,-0.0896685860063434,0.847058173535272,-0.63110026717151,-0.673997332902805,-0.673997332904522,-1.6420233841413,1.64202338414063,0.381651318334524
1263.616,0.586535694101628,1.0829176344437,1.17129871486538,-0.867573542961849,1.19503544630601,1.19503544630585,NaN,-0.564418814338468,-1.50615886863803,1.84248777207687,-0.345047109401107,1.84248777207748,0.816745724052637,1.43058078215554,1.46115366895315,1.38790050010038,NaN,1.69040602896938,0.189065746122251,0.774966620469054,0.189065746121944,0.357716103072324,-1.28060579246212,-1.19860966181636,-0.14533140443682,-0.559089249330011,NaN,NaN,-1.7154091160396,2.06327819092269,-0.625188787588224,0.841982375991888,NaN,-0.916274005076768,-1.62122364619205,-2.11371272453187,-0.629095009255726,-0.397976508183754,-0.397976508182959,0.234841657687438,-1.27773902558833,-0.785191962307981,NaN,-0.0963953944940773,0.830076504483242,-0.664137376718579,-0.628995383487579,-0.628995383489311,-1.6131887378674,1.61318873786672,0.375556273975859
1263.7184,0.595071814425628,1.06975153924656,1.17162986248782,-0.891814361062821,1.18773005574797,1.18773005574784,NaN,-0.559333203460617,-1.50616581971038,1.87650186901664,-0.345498124397335,1.87650186901726,0.831337826379632,1.40430349006203,1.46329173801304,1.43209865441211,NaN,1.74135255636913,0.233329194334709,0.740653539623597,0.233329194334414,0.389676555893379,-1.30213404433175,-1.18675169079147,-0.176883294722033,-0.572772932162581,NaN,NaN,-1.70261752315801,2.05756034741717,-0.600114318266615,0.831991772688558,NaN,-0.905191546424252,-1.61135990767181,-2.09552276584256,-0.635194898960248,-0.395101615180878,-0.39510161518006,0.212308282179634,-1.30651694446636,-0.826957372129642,NaN,-0.102376922275946,0.812768293332922,-0.69870608213572,-0.583703487839695,-0.583703487841434,-1.58336420289477,1.58336420289409,0.368890175369045
1263.8208,0.602834828108646,1.05698567095199,1.1714732326171,-0.915355401886206,1.17995663037271,1.1799566303726,NaN,-0.55495276607446,-1.50636802149783,1.90939131706646,-0.345878633138486,1.9093913170671,0.844671847741272,1.37744480563966,1.46392915751735,1.47605785718618,NaN,1.79161077613961,0.277246564532001,0.706993532333282,0.277246564531716,0.422200308249062,-1.32335477476951,-1.17380504230035,-0.208524437272566,-0.585272274707789,NaN,NaN,-1.68925096731154,2.0497023000792,-0.575414604449641,0.822001801414481,NaN,-0.893576344498302,-1.60000781477417,-2.07569080151732,-0.640896424105093,-0.393310540094346,-0.393310540093504,0.190406087455754,-1.33435891777067,-0.867452443372953,NaN,-0.107616625027139,0.795155084694629,-0.734781078081634,-0.538176826085384,-0.538176826087137,-1.55259606980699,1.5525960698063,0.361684322703728
1263.9232,0.609828758275472,1.04461217450423,1.1708280279768,-0.938132932654092,1.17171892686894,1.17171892686887,NaN,-0.551231740583888,-1.50670726936716,1.94110202244623,-0.346194047833118,1.94110202244687,0.856730314291273,1.35003695959346,1.46306372040228,1.51976548010705,NaN,1.84115856927319,0.320741298665359,0.674084652570684,0.320741298665092,0.455243375846017,-1.34424434424392,-1.15979370317941,-0.240185729099038,-0.596577054263059,NaN,NaN,-1.67530623286666,2.03974666853777,-0.551153302382547,0.812047865881422,NaN,-0.881506255089348,-1.58722103770263,-2.05433279348189,-0.646190612983424,-0.39255914761505,-0.392559147614185,0.169154207917761,-1.36124119952159,-0.906642245170071,NaN,-0.112121877732914,0.777257000206446,-0.772330403122551,-0.4924730588045,-0.492473058806253,-1.5209350042853,1.52093500428462,0.353969174921547
1264.0256,0.616060293711977,1.03262013471187,1.16969416224696,-0.960086937240254,1.16301979566919,1.16301979566914,NaN,-0.548121949081297,-1.50712510954861,1.97158369161133,-0.34644960166518,1.97158369161199,0.867499889769791,1.32210979377784,1.46069616636122,1.56321117060324,NaN,1.88997698150426,0.363740726683711,0.642021797094276,0.363740726683463,0.48876217503229,-1.36478071667327,-1.14474321934147,-0.271799754889421,-0.606678296368398,NaN,NaN,-1.6607820533961,2.02774749918943,-0.527393616991935,0.802165148064396,NaN,-0.869056477296838,-1.57305626640369,-2.0315644182762,-0.651068352592431,-0.392798340375925,-0.392798340375034,0.148569418424005,-1.38714260865821,-0.944495873080396,NaN,-0.115903769684965,0.759092793122415,-0.8113153754959,-0.446652310499764,-0.44665231050152,-1.48843599674918,1.4884359967485,0.345774357612926
1264.128,0.621538665180974,1.02099573713538,1.16807223799795,-0.981161341765907,1.15386148309243,1.1538614830924,NaN,-0.545573231924401,-1.50756327014408,2.00078994426896,-0.346650367812425,2.00078994426963,0.876971341727873,1.29369110673123,1.4568303085359,1.60638660124542,NaN,1.93805002631464,0.406176153050645,0.610896307510666,0.406176153050424,0.522713637321623,-1.3849436519954,-1.12868080109589,-0.303301142486334,-0.615568253443072,NaN,NaN,-1.64567946589976,2.01376991516513,-0.504197895063693,0.792388354299269,NaN,-0.856299396677803,-1.55757286145137,-2.0075006510389,-0.65552038305629,-0.393974587003656,-0.393974587002738,0.128665908712981,-1.41204433868725,-0.98098649707589,NaN,-0.118976857465143,0.740679908427111,-0.851690552702755,-0.400777117412384,-0.400777117414142,-1.45515833761594,1.45515833761526,0.337128706860079
1264.2304,0.626275495757673,1.00972246787035,1.16596352293673,-1.0013042053428,1.14424595687207,1.14424595687206,NaN,-0.543533924813039,-1.50796410804681,2.02867839957632,-0.346801304954736,2.02867839957701,0.885139449439905,1.26480708068753,1.45147314078378,1.64928519042571,NaN,1.98536446530049,0.447982892957821,0.580795545067219,0.447982892957617,0.557055308480009,-1.40471485973049,-1.11163539756184,-0.334626892829983,-0.623240388884221,NaN,NaN,-1.63000218116841,1.99788967085403,-0.481627165319775,0.782751418636618,NaN,-0.843304472780114,-1.54083249097501,-1.98225538188008,-0.659537297631573,-0.396030507845412,-0.396030507844469,0.109455019896262,-1.43592974269119,-1.01609142329412,NaN,-0.121358878265552,0.722034550900262,-0.89340370799256,-0.35491234360334,-0.354912343605095,-1.4211656042374,1.42116560423673,0.328060332982379
1264.3328,0.630284633786685,0.998781345740612,1.16336992871796,-1.02046787652269,1.13417523799958,1.13417523799959,NaN,-0.541951364042002,-1.50827104638373,2.05521073643227,-0.346907331994696,2.05521073643298,0.892002863230344,1.23548275139658,1.44463491716661,1.69190179859894,NaN,2.03190956849566,0.489100263869357,0.551802433847121,0.489100263869178,0.591745437763646,-1.42407811309899,-1.09363773271951,-0.365716677452109,-0.62968936056912,NaN,NaN,-1.6137569717705,1.98019260882587,-0.459740648901273,0.77328717651627,NaN,-0.830138159791585,-1.5228987651546,-1.95594106245914,-0.663109546363723,-0.398905517244021,-0.39890551724305,0.0909449626822944,-1.45878410117921,-1.04979215833091,NaN,-0.12307042553611,0.703171770886844,-0.936395821687121,-0.309125064188497,-0.309125064190248,-1.38652562470041,1.38652562469974,0.31859668542674
1264.4352,0.633581987252246,0.98815116975534,1.16029399989008,-1.0386091177041,1.12365172047708,1.12365172047711,NaN,-0.540772395230555,-1.50842897571491,2.08035273086651,-0.346973423894141,2.08035273086725,0.89756393943479,1.20574247451027,1.43632920599362,1.73423241258209,NaN,2.07767686098891,0.529471548689646,0.523994988765057,0.529471548689483,0.626743057692678,-1.44301933153592,-1.07472031266612,-0.396513085773892,-0.634911006289584,NaN,NaN,-1.59695403940757,1.96077402541984,-0.438595273973555,0.764027036454214,NaN,-0.816863846163359,-1.50383686923589,-1.92866836980401,-0.666227450676533,-0.402536491280422,-0.40253649127942,0.0731405435130209,-1.48059438312428,-1.08207446141308,NaN,-0.12413459185821,0.684105578114654,-0.98060109129975,-0.263484403791505,-0.263484403793251,-1.3513103649166,1.35131036491593,0.308764607635169
1264.5376,0.636185380026009,0.977808762703319,1.156738920957,-1.0556891997257,1.11267846727124,1.1126784672713,NaN,-0.539943865536367,-1.50838460957453,2.10407427469828,-0.347004715746734,2.10407427469905,0.901828577207041,1.1756103578942,1.42657292991761,1.77627383278346,NaN,2.12265986234341,0.569043952286001,0.497445855712165,0.569043952285858,0.662008050225152,-1.46152664159621,-1.05491742197699,-0.426961802956802,-0.638902337772769,NaN,NaN,-1.57960729459655,1.93973795866461,-0.418245227197726,0.755000687417613,NaN,-0.803541806486302,-1.48371318960489,-1.90054587673446,-0.668881241030176,-0.406858420560998,-0.406858420559964,0.0560429190145274,-1.50134901030932,-1.11292837462492,NaN,-0.124576591183717,0.664849081934982,-1.02594696344163,-0.218061327116946,-0.218061327118692,-1.31559569697532,1.31559569697466,0.298590382970044
1264.64,0.638114440014275,0.967729201315724,1.15270854534741,-1.07167396829244,1.10125948280393,1.10125948280402,NaN,-0.539413093255727,-1.50808680603038,2.12634937664079,-0.347006605735869,2.12634937664157,0.9048060729297,1.14511065283765,1.41538640426324,1.81802336895463,NaN,2.16685381902939,0.607768566080998,0.472221883089507,0.607768566080873,0.697501192523126,-1.47959041673855,-1.03426511819441,-0.457011708842467,-0.641661551655294,NaN,NaN,-1.56173449996323,1.91719641318188,-0.398741558187778,0.746235869390119,NaN,-0.790229172459885,-1.46259492756738,-1.87167973145594,-0.671061128356579,-0.411805025833297,-0.41180502583223,0.0396493862624271,-1.52103762883313,-1.14234822767512,NaN,-0.124423374284277,0.645414643850949,-1.07235418480478,-0.172928403535382,-0.172928403537139,-1.27946104450799,1.27946104450732,0.28809977899687
1264.7424,0.639390512484415,0.957886035547684,1.14820744151503,-1.08653387915718,1.08939996161505,1.08939996161518,NaN,-0.539128313886805,-1.50748687101895,2.14715614196095,-0.346984854566099,2.14715614196176,0.906508997985674,1.11426810496336,1.40279337959589,1.8594785383769,NaN,2.21025542437066,0.645600341758431,0.44838372979384,0.645600341758322,0.733184177605437,-1.4972032880258,-1.01280122005296,-0.486614898799665,-0.643188064056509,NaN,NaN,-1.54335728397711,1.89326853539343,-0.380131830233426,0.737758206575741,NaN,-0.776979939949488,-1.44054969783779,-1.84217336050351,-0.672757414177787,-0.417309334709985,-0.417309334708886,0.0239532102204461,-1.53965088340512,-1.17033261264721,NaN,-0.123703241416566,0.625814030496461,-1.11973687079034,-0.128159572178544,-0.128159572180311,-1.24298892883482,1.24298892883416,0.277318091700469
1264.8448,0.640036580213564,0.94825150502883,1.14324094374811,-1.10024399171808,1.07710649922784,1.07710649922799,NaN,-0.539039095097261,-1.50653884505596,2.16647672465214,-0.346945686394547,2.16647672465296,0.906953103289939,1.08310825811264,1.38882108874989,1.90063675860089,NaN,2.25286252274833,0.682498068034263,0.425985507272509,0.682498068034166,0.769019612914278,-1.51436012187394,-0.990565280754222,-0.515726629275654,-0.643482564790486,NaN,NaN,-1.52450107035121,1.86807975559037,-0.362459797182957,0.729591078771645,NaN,-0.763845028060664,-1.41764511291103,-1.81212721133817,-0.673960635090109,-0.423304225690269,-0.423304225689136,0.00894349414826013,-1.55718018808966,-1.19688431881275,NaN,-0.122445444370894,0.606058569741904,-1.1680026000256,-0.0838299082694229,-0.0838299082712089,-1.20626444417548,1.20626444417482,0.266270180093901
1264.9472,0.640077172945286,0.93879675881015,1.13781519493934,-1.11278391066044,1.06438724485572,1.06438724485589,NaN,-0.539096707094414,-1.50519976095005,2.18429724875065,-0.346895900702015,2.18429724875148,0.906157254373229,1.05165770110084,1.37350029735685,1.94149503477922,NaN,2.29467380291437,0.718424347513647,0.405074453477861,0.718424347513561,0.804971007415284,-1.53105797263611,-0.967598543161225,-0.544305187485336,-0.642547074815043,NaN,NaN,-1.50519495949593,1.84176092373905,-0.345765087824154,0.721755503020643,NaN,-0.750872396652454,-1.39394835943042,-1.78163854543728,-0.674661729275439,-0.429722942243753,-0.429722942242585,-0.00539489835284191,-1.57361749137584,-1.22201021836152,NaN,-0.120679768472474,0.586159323581076,-1.21705254846143,-0.0400153683129037,-0.0400153683147129,-1.16937468398431,1.16937468398366,0.25498047691456
1265.0496,0.639538258523348,0.929492080474496,1.13193717541341,-1.12413767479476,1.05125198580421,1.05125198580441,NaN,-0.539254438453831,-1.50342986002763,2.2006076989424,-0.346843002391105,2.20060769894325,0.904143397046503,1.0199442548733,1.35686535676019,1.98204964775281,NaN,2.33568849004822,0.753345575017904,0.385690636620459,0.753345575017818,0.841002757191817,-1.54729602237524,-0.943943880444818,-0.572311683446385,-0.64038499200835,NaN,NaN,-1.48547157189591,1.81444746933154,-0.330082889547308,0.71427001095828,NaN,-0.738107218940627,-1.36952577357916,-1.75080128395658,-0.674852212180986,-0.436499572413038,-0.436499572411836,-0.0190813666185625,-1.58895503714829,-1.24572110163791,NaN,-0.118436092093073,0.566127291212513,-1.26678167085157,0.0032075073101331,0.00320750730830469,-1.13240813028596,1.13240813028531,0.243472965544209
1265.152,0.638447116943585,0.920307118191242,1.12561471872395,-1.13429360129016,1.0377121699434,1.03771216994362,NaN,-0.539467857077926,-1.50119276447751,2.2154017807225,-0.346795349071524,2.21540178072336,0.900936547843672,0.987997107061701,1.33895425687103,2.02229584640848,NaN,2.37590604238732,0.787231918057403,0.367866684209537,0.78723191805731,0.877080131706069,-1.56307551328332,-0.919645726491088,-0.599709767726559,-0.637001124687046,NaN,NaN,-1.46536685235656,1.78627859922108,-0.315443633580133,0.707150522510871,NaN,-0.72559210061491,-1.34444242031142,-1.71970590131015,-0.674524355137173,-0.443569487282023,-0.443569487280786,-0.0321395447925436,-1.60318512431511,-1.26803146684453,NaN,-0.115743928534323,0.545973647979214,-1.31707892828682,0.045761942269872,0.0457619422680365,-1.09545400802592,1.09545400802527,0.231771121034526
1265.2544,0.636832200759074,0.911211117831557,1.11885651652666,-1.1432440952957,1.02378088440904,1.02378088440929,NaN,-0.539695023641472,-1.49845561242865,2.22867674919753,-0.346762304706867,2.2286767491984,0.896564800588325,0.95584690463673,1.31980867543698,2.06222754163086,NaN,2.41532585024382,0.82005729537064,0.351627536388223,0.820057295370542,0.913169257088562,-1.57839967031964,-0.894749997449367,-0.626465290126033,-0.632401722868935,NaN,NaN,-1.44491983663068,1.75739652309032,-0.301872690860819,0.700410224038986,NaN,-0.713367335242781,-1.31876168175516,-1.68843936080662,-0.673671365053779,-0.450869737198038,-0.450869737196767,-0.0445972259940092,-1.61629987009849,-1.28895927129113,NaN,-0.112631962012051,0.525710013914964,-1.36782755784235,0.0875713166816327,0.087571316679778,-1.05860160716614,1.05860160716549,0.219897821122604
1265.3568,0.634722984493789,0.902173155434677,1.11167211285436,-1.15098543408865,1.0094728135039,1.00947281350416,NaN,-0.539896667687873,-1.49518916355558,2.2404332076798,-0.346754383770144,2.24043320768068,0.891059338180312,0.923525814197968,1.29947401745862,2.10183699899651,NaN,2.45394693205578,0.851799344599957,0.336990233121672,0.85179934459985,0.949237092508102,-1.5932736110326,-0.869304005404031,-0.652545926501693,-0.626594517260878,NaN,NaN,-1.42417238498281,1.72794568506499,-0.289390093943204,0.694059461394918,NaN,-0.701471181557315,-1.29254486479191,-1.65708508597684,-0.672287557202077,-0.458339414709241,-0.458339414707935,-0.0564862417194439,-1.62829098746655,-1.30852565483749,NaN,-0.109127597915148,0.505348731484071,-1.41890538363015,0.128559586957242,0.128559586955368,-1.02193958924757,1.02193958924693,0.207875242508223
1265.4592,0.632149807150376,0.893162363059629,1.10407188814663,-1.15751753640699,0.994804196528619,0.994804196528895,NaN,-0.540036335076147,-1.49136787770388,2.25067488106915,-0.346783371813593,2.25067488107004,0.884454435961429,0.891067556432991,1.27799943441756,2.14111453412733,NaN,2.49176762626068,0.882439369871255,0.323963751586924,0.882439369871133,0.985251397064879,-1.6077042435499,-0.84335636858568,-0.677920803030375,-0.619588771070872,NaN,NaN,-1.4031688865118,1.69807198774619,-0.278010305597681,0.688105660919758,NaN,-0.689940141137572,-1.26585084299474,-1.62572295828568,-0.670368503359892,-0.465920000187457,-0.465920000186117,-0.067842302922248,-1.63914959256797,-1.32675465337806,NaN,-0.105256552798159,0.48490312168988,-1.47018517090198,0.168651713458563,0.168651713456676,-0.985555309070232,0.985555309069592,0.19572476517105
1265.5616,0.629143714039518,0.884148140522963,1.0960670344928,-1.16284372837419,0.979792797280388,0.979792797280691,NaN,-0.540080510896087,-1.48696996445249,2.25940837059911,-0.346862413527001,2.25940837059999,0.876787444979836,0.858507415403292,1.25543781218338,2.18004821983153,NaN,2.52878528316373,0.91196226416487,0.312548908446163,0.911962264164739,1.02118068557577,-1.6217001570283,-0.816956925629068,-0.702560139350544,-0.611395343541425,NaN,NaN,-1.38195593619823,1.66792201083267,-0.267742051166772,0.682553289884786,NaN,-0.678809215619058,-1.23873574668211,-1.5944293314515,-0.66791113818146,-0.473555699607204,-0.473555699605829,-0.0787048131330399,-1.6488660575626,-1.34367292324527,NaN,-0.101042506444437,0.464387689198364,-1.52153502238282,0.207774082714136,0.207774082712233,-0.949534179794191,0.949534179793553,0.183466905490431
1265.664,0.625736303768724,0.875100345985664,1.08766952345127,-1.16697051355336,0.9644578846195,0.964457884619819,NaN,-0.539998718572345,-1.48197740389962,2.26664289696565,-0.347006064921438,2.26664289696654,0.868098749567498,0.825882216036411,1.23184571906936,2.21862361399827,NaN,2.56499596406692,0.940356405686037,0.302738335347433,0.94035640568589,1.05699417106749,-1.63527150844845,-0.790156661547529,-0.726434923909185,-0.602026758005049,NaN,NaN,-1.36058198937986,1.63764223891134,-0.258588219957549,0.677403858173981,NaN,-0.668112133692381,-1.21125270382451,-1.56327705501791,-0.664913819295065,-0.481193767423149,-0.481193767421741,-0.0891166627602643,-1.65742991674676,-1.35930949055263,NaN,-0.0965068292397867,0.44381826318111,-1.57281880945909,0.245854918503809,0.2458549185019,-0.913959094102051,0.913959094101418,0.17112128526648
1265.7664,0.621959584194754,0.865989460881231,1.07889206737862,-1.16990734813645,0.94882021337117,0.948820213371504,NaN,-0.539763597020827,-1.47637594510804,2.2723900403794,-0.347230311130573,2.27239004038029,0.858431698416714,0.793230261396361,1.207283309343,2.25682351670274,NaN,2.6003941573451,0.967613531343774,0.294516528230744,0.967613531343616,1.09266168782675,-1.64842990379906,-0.763007650507485,-0.749516630057765,-0.591497266464394,NaN,NaN,-1.33909700426296,1.60737831734115,-0.250545831330611,0.672655951013657,NaN,-0.65788154707408,-1.18345162482813,-1.53233550110811,-0.661376349562561,-0.488784797041936,-0.488784797040494,-0.0991240088581927,-1.66482982514508,-1.37369552854739,NaN,-0.0916683885513858,0.423212081066037,-1.6238966256785,0.28282467983192,0.28282467983,-0.878909900097247,0.878909900096618,0.158706628477927
1265.8688,0.617845838796538,0.856786729234939,1.06974807565241,-1.1716664170808,0.932901992327,0.932901992327355,NaN,-0.53935095905982,-1.47015508845979,2.27666348654413,-0.347552553954305,2.27666348654502,0.847832509838032,0.760591227930242,1.18181418202643,2.29462776739698,NaN,2.63497252322514,0.993728594347831,0.287859965127782,0.99372859434766,1.12815358570419,-1.66118826458128,-0.735563015265539,-0.771776974371502,-0.579822908887624,NaN,NaN,-1.31755208053317,1.57727434787286,-0.243606058423196,0.668305276647171,NaN,-0.648149194107352,-1.15537902678679,-1.50167058972638,-0.657299970213605,-0.496282964931165,-0.496282964929688,-0.108776039728755,-1.67105356561351,-1.38686415936461,NaN,-0.0865434313185164,0.402587831729054,-1.67462525501915,0.31861644670874,0.318616446706821,-0.844462924188055,0.844462924187429,0.146240774193067
1265.9712,0.613427502359831,0.847464277017368,1.06025160801719,-1.1722624076085,0.916726831842775,0.916726831843158,NaN,-0.538739828895009,-1.46330804745382,2.27947878387189,-0.347991572927971,2.27947878387279,0.83635014942234,0.728006027595811,1.1555051973636,2.33201309512723,NaN,2.66872167899912,1.01869961425672,0.282737284466412,1.01869961425653,1.16344059196337,-1.67356067200581,-0.707876898076121,-0.793187708907473,-0.567021572558786,NaN,NaN,-1.29599908657,1.54747221905685,-0.237754305796142,0.664344718426231,NaN,-0.63894602638552,-1.12707790148922,-1.47134481139288,-0.652687321375483,-0.503646227644243,-0.503646227642732,-0.118124719340196,-1.6760881031541,-1.39885027483505,NaN,-0.0811455389620877,0.381965672025509,-1.72485866347401,0.353166297620712,0.353166297618797,-0.810690534212997,0.810690534212375,0.133740701919519
1266.0736,0.608737042807298,0.837995219717626,1.05041732683902,-1.17171228361513,0.900319671913563,0.90031967191396,NaN,-0.537912447236778,-1.45583167377365,2.28085310951594,-0.348567460413995,2.28085310951684,0.824036174168502,0.695516652010171,1.12842625213991,2.36895303104302,NaN,2.70163003198082,1.04252752552768,0.279109514137005,1.04252752552747,1.19849364792314,-1.68556219074506,-0.680004436512724,-0.813720435169286,-0.55311305944876,NaN,NaN,-1.27449025101318,1.51811095451064,-0.232970344381166,0.660764395773036,NaN,-0.630302294543256,-1.09858763571715,-1.44141724984145,-0.6475423553794,-0.510836482208746,-0.510836482207203,-0.12722450219764,-1.67991968851324,-1.40969036984425,NaN,-0.0754856547192565,0.361367225272897,-1.77444853696425,0.386413683939133,0.386413683937217,-0.777660739640639,0.777660739640021,0.121222573903925
1266.176,0.603806844927689,0.828353763347964,1.04026044733047,-1.17003506997296,0.883706697948806,0.883706697949206,NaN,-0.536854231938575,-1.44772633099141,2.28080503518069,-0.349301526935767,2.28080503518159,0.810944536876242,0.663166008145143,1.10065001218746,2.40541788212853,NaN,2.73368365842685,1.06521602573695,0.276930341948447,1.06521602573673,1.23328373081625,-1.69720867922049,-0.65200174028403,-0.833346434785125,-0.538119167098912,NaN,NaN,-1.2530776924445,1.48932606358952,-0.229228511274101,0.657551749481668,NaN,-0.622247591146933,-1.06994399074086,-1.4119436080059,-0.641870188483636,-0.51781970015507,-0.517819700153494,-0.136132007618045,-1.68253401451618,-1.41942238135178,NaN,-0.0695721878324955,0.340815563135309,-1.82324488827509,0.418301808944475,0.418301808942568,-0.745436823215289,0.745436823214676,0.108701802609886
1266.2784,0.598669091862932,0.818515299143565,1.02979668204712,-1.16725165370723,0.866915254274505,0.866915254274918,NaN,-0.535553693542445,-1.43899571727646,2.27935428510988,-0.350216173561498,2.27935428511079,0.797131349203261,0.630997743545711,1.07225159957273,2.44137475490959,NaN,2.76486621910602,1.08677141962116,0.276146422293121,1.08677141962092,1.2677816651055,-1.70851659158798,-0.623925870423644,-0.852036527164389,-0.522063782137078,NaN,NaN,-1.23181287991392,1.46124888990409,-0.226497976392706,0.654691663108575,NaN,-0.614810845680232,-1.04117914270481,-1.38297623373365,-0.63567688857298,-0.524566039741154,-0.524566039739548,-0.144905649293229,-1.68391642727363,-1.42808553116038,NaN,-0.0634111968627846,0.320335165277442,-1.87109674000712,0.448778018814675,0.448778018812789,-0.714076994628711,0.714076994628102,0.0961931481922815
1266.3808,0.593355641243183,0.808456490283932,1.01904217579569,-1.16338460382492,0.849973762802757,0.849973762803181,NaN,-0.534002316670919,-1.42964665144831,2.27652148783495,-0.351334735268155,2.27652148783585,0.782654608052233,0.599056058905024,1.04330823803331,2.47678761514661,NaN,2.79515890288283,1.10720245480361,0.276697717659873,1.10720245480335,1.30195792509489,-1.7195027761341,-0.595834824622489,-0.869760978072751,-0.504972977887851,NaN,NaN,-1.21074604669972,1.4340059688619,-0.224743063150608,0.652166619034315,NaN,-0.608020264602155,-1.01232177900894,-1.35456413472614,-0.628969214096365,-0.53104993973549,-0.531049939733853,-0.15360523147172,-1.68405218855134,-1.43572017937261,NaN,-0.0570066428565675,0.299951852790107,-1.91785286966572,0.477794200355774,0.4777942003539,-0.683634061761175,0.683634061760571,0.0837108375795882
1266.4832,0.587897894498535,0.798155350382406,1.00801342943921,-1.15845800722122,0.832911647283656,0.832911647284081,NaN,-0.532194420996312,-1.41968884066802,2.27232793202065,-0.352681306045437,2.27232793202156,0.767573895607735,0.567385518979773,1.01389887184684,2.5116173732597,NaN,2.82454039554203,1.12652014972993,0.278517875016979,1.12652014972965,1.33578243588508,-1.73018427531138,-0.567787526702322,-0.88648948315224,-0.486875104408414,NaN,NaN,-1.18992559949647,1.40771841819976,-0.223923596666983,0.649956877487018,NaN,-0.601903218397774,-0.983397238029561,-1.3267529749858,-0.621754332722932,-0.537250200299364,-0.537250200297698,-0.162291535643795,-1.68292677753632,-1.44236770010474,NaN,-0.0503606907155012,0.279692697687707,-1.96336258914464,0.505307162760619,0.505307162758769,-0.654155124934475,0.654155124933876,0.0712686848758571
1266.5856,0.582326661855809,0.787591314134899,0.996727215158011,-1.15249731616918,0.815759257167061,0.815759257167481,NaN,-0.530127013390049,-1.40913464594075,2.26679533891129,-0.354280556419785,2.26679533891219,0.751950065991032,0.536030879172974,0.984103778841084,2.54582199057168,NaN,2.8529868748566,1.14473761771228,0.281534638358425,1.14473761771199,1.36922438195262,-1.74057812862618,-0.539843810337573,-0.90219123374813,-0.467800863309242,NaN,NaN,-1.16939756247564,1.38250138235331,-0.223995254229938,0.64804066562222,NaN,-0.596486091315193,-0.954427671917655,-1.29958505262038,-0.614039549038933,-0.543150054882389,-0.543150054880694,-0.17102591988384,-1.68052621660512,-1.44807038672369,NaN,-0.0434740374416142,0.259585910593261,-2.00747652986239,0.531278975655208,0.531278975653388,-0.62568130692507,0.625681306924475,0.0588801978753373
1266.688,0.576672031764798,0.776745297885479,0.985200490003855,-1.1455292055699,0.798547783094893,0.798547783095324,NaN,-0.527799640379147,-1.39799885871852,2.25994565986125,-0.356157545691894,2.25994565986215,0.735844928946064,0.505036935085857,0.954004191117078,2.57935660629199,NaN,2.88047203344723,1.16186989016703,0.285670298313363,1.16186989016672,1.40225202877525,-1.75070117487008,-0.512064385843039,-0.916835051382357,-0.447783363891519,NaN,NaN,-1.14920507682434,1.35846353549939,-0.224909908224657,0.646394369962007,NaN,-0.591794112740489,-0.925432215219175,-1.2730992642848,-0.605832061354273,-0.548737228545825,-0.548737228544102,-0.179869939339868,-1.67683740789821,-1.45287138374668,NaN,-0.0363462567619394,0.23966070589736,-2.05004741212521,0.555677244313919,0.555677244312113,-0.598247534360198,0.598247534359609,0.0465586714654418
1266.7904,0.570963256482612,0.76559974529412,0.973450315873558,-1.13758144224651,0.781309158250324,0.78130915825076,NaN,-0.525214246912341,-1.38629849930704,2.25180090149867,-0.358337519689888,2.25180090149958,0.719320934712144,0.474448390809895,0.923681925599063,2.61217368883122,NaN,2.90696713121969,1.1779337401557,0.29084217501066,1.17793374015538,1.43483255867026,-1.76056984912702,-0.484510782738616,-0.930389567617283,-0.426858156144234,NaN,NaN,-1.12938795863065,1.33570663760061,-0.22661596702172,0.644992733077958,NaN,-0.587851179963361,-0.896427159497884,-1.24733106583472,-0.597138756926103,-0.554003969006703,-0.554003969004951,-0.188884983492894,-1.67184847134816,-1.45681463438002,NaN,-0.0289761562292095,0.219947146940099,-2.09093078506067,0.578475314133687,0.578475314131898,-0.571882383359058,0.571882383358472,0.0343172756426594
1266.8928,0.565228661019718,0.754138654660447,0.961493790610728,-1.12868276721008,0.76407594162421,0.764075941624663,NaN,-0.522375042273062,-1.37405264283924,2.24238297706193,-0.36084568013833,2.24238297706284,0.702440859408988,0.444309739312385,0.89321902067755,2.64422321672608,NaN,2.93244108009567,1.19294750664758,0.296963126365975,1.19294750664724,1.46693191908843,-1.77019996974765,-0.457245264101442,-0.942823431155955,-0.405063234926856,NaN,NaN,-1.10998231077368,1.31432513832294,-0.229058724924929,0.643809058912617,NaN,-0.584679673100401,-0.867426147459608,-1.2223124401508,-0.587966047552607,-0.558947035989976,-0.558947035988196,-0.198131921400473,-1.66554907815846,-1.45994483144912,NaN,-0.0213621423434504,0.200475978132472,-2.12998573076151,0.599652405317499,0.599652405315729,-0.546607995850077,0.546607995849497,0.0221691400324239
1266.9952,0.559495575168103,0.742347588189541,0.94934799014069,-1.11886278629918,0.746881178856965,0.746881178857434,NaN,-0.519288367450598,-1.3612822672466,2.23171358109222,-0.363706917789811,2.23171358109312,0.68526748982183,0.414665148613882,0.862697374943059,2.67545289396153,NaN,2.95686056418228,1.20693092012441,0.30394207722199,1.20693092012406,1.49851468298469,-1.77960651307616,-0.430330710336722,-0.954105532615209,-0.382439012539405,NaN,NaN,-1.09102018444709,1.2944058265136,-0.232180729862759,0.642815430113748,NaN,-0.582300263979623,-0.838440394220971,-1.19807187966357,-0.578319743166358,-0.563567640019135,-0.563567640017329,-0.207670748342021,-1.65793077690862,-1.46230736383734,NaN,-0.0135025886195539,0.181278449944239,-2.16707553352532,0.619193686311157,0.619193686309402,-0.522440067939334,0.52244006793876,0.0101274296085368
1267.0976,0.553790286669993,0.730213666145648,0.937029921535326,-1.10815186375964,0.729758240926287,0.729758240926775,NaN,-0.515962556041612,-1.34801010688916,2.21981408529367,-0.366945512373914,2.21981408529457,0.667863306863073,0.385558349549257,0.832198385356069,2.70580840201365,NaN,2.9801901972154,1.21990493022154,0.311684570552689,1.21990493022119,1.52954392878898,-1.78880338353956,-0.403830472831243,-0.96420523692717,-0.359028262355404,NaN,NaN,-1.07252928844523,1.27602752359428,-0.235922171849618,0.641982938978943,NaN,-0.580731725648695,-0.809478929158669,-1.17463438505849,-0.568204961120435,-0.567871325148858,-0.567871325147024,-0.217560232166499,-1.64898731179952,-1.46394825658708,NaN,-0.00539620165806433,0.162386141571049,-2.2020683170805,0.637090297291732,0.637090297290002,-0.499387907033305,0.499387907032737,-0.00179459561262277
1267.2,0.548138017666306,0.717725549578776,0.924556491126611,-1.09658101936614,0.712740651321598,0.712740651322094,NaN,-0.512407786714941,-1.33426049923081,2.20670545547776,-0.370584810924765,2.20670545547867,0.650290165820979,0.35703252789726,0.801802584290976,2.73523368707888,NaN,3.00239271595599,1.23189153539932,0.320093341419719,1.23189153539896,1.55998115358986,-1.79780319510836,-0.377808201197933,-0.973092609801305,-0.334876039319719,NaN,NaN,-1.05453274847939,1.2592608181799,-0.240221288506205,0.641281932737156,NaN,-0.57999074531622,-0.780548846454236,-1.1520214738842,-0.557626075973009,-0.571867790777862,-0.571867790776002,-0.227857561475075,-1.63871493242451,-1.46491410603338,NaN,0.00295762103124643,0.14383078738919,-2.23483764928952,0.653339326938449,0.653339326936735,-0.477454546771475,0.477454546770911,-0.0135835403951255
1267.3024,0.542562927034478,0.704873414668022,0.911944491855063,-1.08418183503844,0.695861916905074,0.695861916905593,NaN,-0.508635932980295,-1.32005922561297,2.19240819131824,-0.374646900416167,2.19240819131915,0.632608974060848,0.32913022606462,0.771589278503253,2.7636712758334,NaN,3.02342920388412,1.24291361350073,0.329068909098912,1.24291361350037,1.58978623044572,-1.80661707709068,-0.352327647245179,-0.980738634305011,-0.310029579836821,NaN,NaN,-1.03704892151289,1.24416783623194,-0.245014777068916,0.640682271001151,NaN,-0.580091733520307,-0.751655557537107,-1.13025118694683,-0.546586722666822,-0.575570651336421,-0.575570651334536,-0.238617997983429,-1.62711269196867,-1.46525200960322,NaN,0.0115584500303958,0.125644111393556,-2.26526311257033,0.667943734441078,0.667943734439376,-0.456636903542958,0.456636903542401,-0.02522585041716
1267.4048,0.537088134761021,0.691648920980104,0.899210607596163,-1.07098637592969,0.67915537373887,0.679155373739397,NaN,-0.504660418641502,-1.30543335395687,2.17694228948177,-0.379152292943028,2.17694228948267,0.614879373739928,0.301893254242785,0.741636197385618,2.79106260593347,NaN,3.04325933414567,1.25299475087844,0.338510177395255,1.25299475087808,1.61891741263032,-1.81525450841645,-0.327452447531607,-0.98711542917595,-0.284538180507649,NaN,NaN,-1.02009126897288,1.23080203774411,-0.250238199463183,0.64015358752105,NaN,-0.581046621092071,-0.722803043759429,-1.10933808306872,-0.53508986306155,-0.578997144249003,-0.578997144247095,-0.24989453421592,-1.6141827283418,-1.46500948702721,NaN,0.020404510756566,0.10785766876919,-2.29323084028189,0.680912209641529,0.680912209639846,-0.436925961859457,0.436925961858907,-0.0367077978327686
1267.5072,0.531735758364854,0.678045176455211,0.886371426803732,-1.0570271259472,0.662654054024607,0.662654054025138,NaN,-0.500496086179834,-1.29041108909845,2.16032722623931,-0.384119641102082,2.16032722624021,0.597159439045171,0.275362609520319,0.712019159122402,2.81734835122167,NaN,3.06184161581518,1.26215906642806,0.348315028047789,1.2621590664277,1.64733137844426,-1.82372317829743,-0.30324588965495,-0.992196480444958,-0.258453060319172,NaN,NaN,-1.00366829154211,1.21920803154832,-0.255826372290204,0.63966554545005,NaN,-0.582864645556602,-0.693994107658338,-1.08929322255658,-0.523137912176292,-0.582167812411385,-0.582167812409455,-0.261737558187355,-1.59993052242108,-1.46423438989142,NaN,0.0294924086252895,0.0905026904770301,-2.31863401961784,0.692258975610252,0.692258975608583,-0.418306983193636,0.418306983193091,-0.0480154708300726
1267.6096,0.526526952386029,0.664056702059306,0.873443458811758,-1.04233693360012,0.646390575894822,0.646390575895359,NaN,-0.496159081015493,-1.27502163295683,2.1425819521792,-0.389565493560517,2.14258195218009,0.579505391520461,0.249578402395348,0.682811757977579,2.84246872428151,NaN,3.07913362940424,1.27043102778605,0.358380891025947,1.27043102778568,1.67498330388704,-1.83202886664989,-0.279770669479441,-0.995956883802831,-0.231827217248997,NaN,NaN,-0.987783525050849,1.20942140732109,-0.261713744091865,0.639188080409666,NaN,-0.585552136545173,-0.665230620315789,-1.07012414675941,-0.510732908001942,-0.585106190173418,-0.585106190171466,-0.274194528078158,-1.58436512913539,-1.46297479882903,NaN,0.03881689932913,0.0736099268099579,-2.34137335896418,0.702003547799933,0.702003547798278,-0.400759735985124,0.400759735984584,-0.0591347642819625
1267.712,0.521481949295885,0.649679395894992,0.860443151145277,-1.02694896351368,0.630397054997502,0.630397054998043,NaN,-0.491666746439044,-1.25929505300555,2.12372489487881,-0.395504088262069,2.12372489487969,0.561971331445759,0.22457978357088,0.654085067430603,2.86636375381611,NaN,3.09509225105805,1.27783526351879,0.368605282963371,1.27783526351842,1.70182695210965,-1.84017533573232,-0.257088642024397,-0.99837358570001,-0.204715287538515,NaN,NaN,-0.972435582671978,1.20146859405668,-0.267834769528583,0.638691635056525,NaN,-0.589112308071478,-0.636513761405353,-1.05183485873371,-0.497876701897488,-0.587838499927992,-0.587838499926019,-0.287309660937782,-1.56749937905294,-1.46127891003521,NaN,0.0483707073654303,0.0572094893382862,-2.36135751418255,0.710170470783595,0.710170470781947,-0.384258743760002,0.384258743759468,-0.0700513688430031
1267.8144,0.516620107378131,0.634910492290587,0.847386910412967,-1.01089665182842,0.614705038139264,0.614705038139819,NaN,-0.487037518005239,-1.24326215381323,2.10377397467978,-0.401947172873315,2.10377397468065,0.544608984091667,0.200404858735839,0.625907352322414,2.88897355216835,NaN,3.10967388228854,1.28439638414661,0.3788863156145,1.28439638414624,1.72781477664111,-1.84816422953248,-0.235260565284968,-0.999425614333832,-0.177173406197677,NaN,NaN,-0.957618212876282,1.19536675754272,-0.274124287424046,0.638147392501886,NaN,-0.593545059099723,-0.607844247047995,-1.03442580270602,-0.484571145968472,-0.59039333762725,-0.590393337625257,-0.301123640834307,-1.54935004968123,-1.45919491518271,NaN,0.0581443955473675,0.041330696155823,-2.3785034678409,0.716789056898009,0.716789056896358,-0.368773548388817,0.368773548388291,-0.0807507556277451
1267.9168,0.511959972108761,0.61974851146503,0.834291130308917,-0.994213666819327,0.599345461677453,0.599345461678028,NaN,-0.482290809182705,-1.22695434859936,2.0827466453351,-0.408903842255598,2.08274664533596,0.52746746461475,0.177090589327394,0.598343792771601,2.91023859541873,NaN,3.12283470765314,1.29013882773116,0.389123180259794,1.29013882773079,1.7528980421181,-1.85599498623098,-0.214345839206326,-0.999094298753668,-0.149259060752953,NaN,NaN,-0.94332034804934,1.19112374519342,-0.280517898634204,0.63752751007757,NaN,-0.598846779940262,-0.579222544854986,-1.01789383947729,-0.470818261996027,-0.592801319249476,-0.592801319247462,-0.315673352763693,-1.52993800663597,-1.45677088032356,NaN,0.068126288301044,0.0260019292727431,-2.39273685902213,0.721893143545643,0.721893143543997,-0.354268987899764,0.354268987899243,-0.0912181569995707
1268.0192,0.507519351719074,0.604193200896809,0.82117222801189,-0.976933875183419,0.584348637055792,0.584348637056374,NaN,-0.477446889017832,-1.21040353598318,2.06065996813515,-0.41638038783094,2.06065996813599,0.510593068558055,0.154672694162309,0.57145623356342,2.93010002952023,NaN,3.13453099088777,1.29508673940847,0.399216610359119,1.29508673940811,1.77702696789566,-1.86366477270313,-0.194402244653233,-0.997363475001131,-0.121030932419577,NaN,NaN,-0.929526144168125,1.18873808202972,-0.28695233095554,0.636805347544661,NaN,-0.60501016580836,-0.550649083078281,-1.00223222429924,-0.456620387572703,-0.595094682733986,-0.595094682731954,-0.330991646338257,-1.50928831438322,-1.45405462702714,NaN,0.0783024488131056,0.0112505125887463,-2.40399226394132,0.725520868832195,0.725520868830565,-0.340705491205043,0.34070549120453,-0.101438549749658
1268.1216,0.503315399230675,0.588245476479223,0.808046686480627,-0.959091310864419,0.569744263803859,0.569744263804466,NaN,-0.472526758841255,-1.19364199000686,2.03753071757878,-0.424380163941995,2.0375307175796,0.494029093567754,0.133185569675997,0.545302972707228,2.9484999979946,NaN,3.14471940051967,1.29926388435025,0.4090693186973,1.29926388434989,1.80015089804743,-1.87116844645507,-0.175485684956971,-0.994219675147044,-0.09254872460092,NaN,NaN,-0.916215035673826,1.18819901416365,-0.293365779421208,0.635955681816532,NaN,-0.612024047507587,-0.522124459737181,-0.987430601304371,-0.441980302353662,-0.597306871322389,-0.59730687132034,-0.347107126991904,-1.48743031561451,-1.45109361306924,NaN,0.0886567042283436,-0.00289738636335772,-2.4122134303112,0.727714451145955,0.72771445114434,-0.328039393377851,0.328039393377345,-0.111396648947173
1268.224,0.499364688415734,0.571907373831582,0.794931096967822,-0.940720141754012,0.555561466368737,0.555561466369359,NaN,-0.467552035541015,-1.17670226493629,2.01337550744315,-0.432903484956507,2.01337550744395,0.4778156933462,0.112662232856934,0.519938592051292,2.96538197415312,NaN,3.153357344421,1.30269358660362,0.418586402237461,1.30269358660324,1.82221849777884,-1.87849854484244,-0.157649929816187,-0.98965229696341,-0.0638729811886269,NaN,NaN,-0.90336183417774,1.1894865854619,-0.299698216314632,0.634954901843015,NaN,-0.61987325194179,-0.493649649780045,-0.973475025314086,-0.426901342189828,-0.599472135959055,-0.599472135956989,-0.364043965944968,-1.4643976795809,-1.44793480534452,NaN,0.0991707083125577,-0.0164168337245271,-2.41735347526312,0.728519957205752,0.728519957204148,-0.316223273750235,0.316223273749735,-0.121076917703743
1268.3264,0.495683273080855,0.555182013699698,0.781842194165322,-0.921854630443373,0.54182884405005,0.541828844050676,NaN,-0.462544846367784,-1.15961711088445,1.98821092478117,-0.441947560517469,1.98821092478196,0.461989759612302,0.0931342784702815,0.495413821927432,2.98069108248918,NaN,3.16040329691617,1.30539868357449,0.427675714123358,1.30539868357411,1.84317797305914,-1.88564529851252,-0.140946361574647,-0.98365375948487,-0.0350648955603051,NaN,NaN,-0.890936881660606,1.19257173389767,-0.305891668046489,0.633781179967135,NaN,-0.628538499972243,-0.465226203380776,-0.960348013076096,-0.411387509402101,-0.60162517439773,-0.601625174395646,-0.38182172028331,-1.44022842109287,-1.44462453884044,NaN,0.109824031740212,-0.0292841906335205,-2.41937505929897,0.727987052969182,0.727987052967598,-0.305206316682559,0.305206316682066,-0.130463592893129
1268.4288,0.492286724648115,0.538073575457953,0.768796875845498,-0.902529086261508,0.528574518210772,0.528574518211407,NaN,-0.457527736791823,-1.14241939773795,1.96205366531412,-0.451506461783744,1.96205366531489,0.446584824666228,0.0746318432856568,0.471775429208674,2.99437440389894,NaN,3.16581711427429,1.30740148625006,0.436248214382861,1.30740148624967,1.86297730872401,-1.89259666626745,-0.125423726144926,-0.97621965610428,-0.00618610633343266,NaN,NaN,-0.87890624584747,1.19741640844182,-0.311890455784123,0.632414618449797,NaN,-0.637996344209605,-0.436856425841779,-0.948028619225827,-0.39544358113458,-0.603800796098153,-0.603800796096052,-0.400455162538851,-1.41496489106633,-1.44120836182292,NaN,0.120594272943563,-0.0414771644143619,-2.41825054035174,0.726168740182578,0.726168740181012,-0.294934693959776,0.294934693959289,-0.139540720771752
1268.5312,0.489190148362217,0.520587269513821,0.755812201988922,-0.88277780727383,0.515826164520473,0.515826164521117,NaN,-0.4525235895322,-1.12514204841622,1.93492067137628,-0.461571107775476,1.93492067137702,0.431630978740569,0.0571835767135373,0.449066122807889,3.00638126753989,NaN,3.16956034299118,1.30872373907081,0.444218313441994,1.3087237390704,1.88156452101504,-1.89933839002975,-0.111127891864761,-0.967348915222188,0.0227015277936987,NaN,NaN,-0.867231939323677,1.20397371679404,-0.317641398467256,0.630837371367146,NaN,-0.648219146915498,-0.408543530003924,-0.936492530253827,-0.37907521167871,-0.606033593767196,-0.606033593765079,-0.419954125762978,-1.38865373853168,-1.43773087235549,NaN,0.131457181829043,-0.052974856010144,-2.41396210120992,0.723121082356589,0.723121082355052,-0.285351967591478,0.285351967590997,-0.148292194744012
1268.6336,0.486408183018334,0.502729304315751,0.742905375466504,-0.862635012964181,0.503611027419076,0.503611027419711,NaN,-0.447555550062828,-1.10781798335262,1.90682927820096,-0.472129268511704,1.90682927820168,0.417154803132528,0.0408166151743203,0.42732447635422,3.01666353665629,NaN,3.17159652853508,1.30938658156844,0.451504211078827,1.30938658156803,1.89888792497187,-1.90585407031205,-0.0981016162883294,-0.957043970007156,0.0515361797009088,NaN,NaN,-0.855872152881854,1.21218811243108,-0.323093982375861,0.629033744462154,NaN,-0.659175095229296,-0.380291761312002,-0.925712173897118,-0.362289024159473,-0.608357611788834,-0.608357611786703,-0.440323367803737,-1.36134584545074,-1.43423555040375,NaN,0.142386789324163,-0.0637578053246302,-2.40650183935382,0.718902925091483,0.718902925089973,-0.276399509715901,0.276399509715427,-0.156701795867986
1268.736,0.483954990937406,0.484506849861784,0.730093711628814,-0.842134769445647,0.491955920895321,0.491955920895948,NaN,-0.44264695059013,-1.09048007291982,1.87779737398496,-0.48316558930276,1.87779737398567,0.403179328576988,0.0255565470197358,0.406584871215504,3.02517589691175,NaN,3.17189153186255,1.30941052199731,0.458028221368053,1.30941052199688,1.91489642364673,-1.91212526435708,-0.0863843150878862,-0.945310932131627,0.0802563329238922,NaN,NaN,-0.8447815013429,1.22199562538936,-0.32820050682056,0.626990276759335,NaN,-0.670828248231748,-0.352106507212745,-0.915656847481278,-0.345092687905763,-0.610806011681689,-0.610806011679544,-0.461562451729743,-1.33309623881011,-1.43076458633647,NaN,0.153355542436523,-0.073808028477547,-2.39587181136318,0.713575621036275,0.713575621034792,-0.26801693249255,0.268016932492082,-0.16475324814326
1268.8384,0.481844243412698,0.465928001725533,0.717394603982346,-0.821310909395872,0.480887221250021,0.480887221250647,NaN,-0.437821221754522,-1.07316108569382,1.84784357483645,-0.494661642148535,1.84784357483714,0.389724032219732,0.0114273501691052,0.386877464699991,3.03187615269679,NaN,3.17041385643201,1.30881543503874,0.463717073230449,1.30881543503831,1.92953982635342,-1.91813160878644,-0.0760118265238894,-0.932159762221508,0.108801084328168,NaN,NaN,-0.833911281431473,1.23332413858636,-0.332916214900895,0.624695803986762,NaN,-0.683138609626897,-0.323994402100501,-0.906292867683635,-0.327494979054083,-0.613410738946169,-0.613410738944011,-0.483665636530856,-1.3039639864079,-1.42735870570649,NaN,0.164334449432089,-0.0831090377017589,-2.38208403174515,0.707202771670028,0.707202771668572,-0.260142517467247,0.260142517466784,-0.172430302452875
1268.9408,0.480089105790468,0.447001747638628,0.704825491002713,-0.800196950719829,0.470430858514588,0.470430858515207,NaN,-0.433101784788975,-1.05589362029406,1.81698741108009,-0.506596005945004,1.81698741108076,0.376804880486489,-0.00154870323721521,0.368228187946494,3.03672553174876,NaN,3.16713498217105,1.30762058975624,0.468502185958115,1.30762058975579,1.94276919209313,-1.92385096471311,-0.0670161736230652,-0.917604427746205,0.137110458352358,NaN,NaN,-0.82320974123431,1.24609370826594,-0.337199408819294,0.622141498048135,NaN,-0.696062221957818,-0.295963426265274,-0.897583736595524,-0.309505827916371,-0.616202195411212,-0.616202195409041,-0.50662177922167,-1.27401207990041,-1.42405699404542,NaN,0.175293237420237,-0.0916458397116814,-2.36516043159022,0.699849989358065,0.699849989356637,-0.252713634630047,0.252713634629587,-0.179716849691185
1269.0432,0.478702224536936,0.427737937251525,0.692403826631901,-0.778826018917421,0.46061231669612,0.460612316696738,NaN,-0.428511928461651,-1.03871002359273,1.78524951922138,-0.518944373700964,1.78524951922203,0.36443440998832,-0.0133511578341997,0.350658773821447,3.03968899219845,NaN,3.16202969720786,1.30584470131483,0.472319929240508,1.30584470131437,1.95453718169073,-1.92925957922782,-0.0594253365791287,-0.90166303788085,0.165125713050236,NaN,NaN,-0.812622362867915,1.26021692361739,-0.341011538241357,0.619320875285726,NaN,-0.709551284573642,-0.268022987327857,-0.889490317514048,-0.291136363616277,-0.619208921718573,-0.619208921716391,-0.530414263594845,-1.24330730156718,-1.42089673212882,NaN,0.186200521143295,-0.0994049215202286,-2.34513278035359,0.691584669064859,0.691584669063466,-0.24566714937359,0.245667149373137,-0.186597042627434
1269.1456,0.47769571184681,0.408147257404197,0.680147051672925,-0.757230773725087,0.451456652112836,0.451456652113446,NaN,-0.424074687169443,-1.02164231594638,1.7526518335641,-0.531679686003247,1.75265183356474,0.352621826016825,-0.0239614707434473,0.334186809106117,3.04073551948336,NaN,3.15507641362053,1.30350598740185,0.475111876008051,1.30350598740138,1.96479840156939,-1.93433225729392,-0.0532630487968966,-0.884357950151189,0.192789621918164,NaN,NaN,-0.802092164786315,1.27559930000093,-0.34431724959098,0.616229770423403,NaN,-0.723554304985453,-0.240183975019221,-0.88197102286987,-0.272398966206268,-0.622457299309386,-0.622457299307192,-0.555020977471246,-1.21192006658944,-1.4179132542734,NaN,0.197023980425504,-0.106374242420406,-2.32204256894804,0.682475752025769,0.6824757520244,-0.238939825202865,0.238939825202415,-0.193055398349618
1269.248,0.4770811165492,0.388241216179851,0.668072557515258,-0.735443333742404,0.442988526708073,0.442988526708667,NaN,-0.419812738453332,-1.00472214653137,1.71921777117505,-0.544772290114725,1.71921777117567,0.341373099752516,-0.0333630709011876,0.318825802246028,3.03983839893063,NaN,3.14625745348968,1.3006222099216,0.47682504514633,1.30062220992111,1.97350973190266,-1.93904254139997,-0.0485486221423771,-0.865715853562401,0.220046729434475,NaN,NaN,-0.791560034656856,1.29213970386503,-0.347084393002251,0.61286627781625,NaN,-0.738016294684223,-0.21245878869016,-0.874982024541891,-0.253307329602768,-0.625971283332653,-0.625971283330444,-0.580414349271192,-1.1799242348997,-1.41513983443794,NaN,0.207730543052548,-0.112543243686959,-2.2959408516078,0.67259346825448,0.672593468253141,-0.23246873107302,0.232468731072574,-0.199076870528177
1269.3504,0.476869371252045,0.368032136342805,0.656197633182905,-0.713495190281745,0.435232238422872,0.435232238423449,NaN,-0.415748327314055,-0.987980785787986,1.68497240326342,-0.558190119471081,1.68497240326403,0.33069105642011,-0.0415413840917117,0.304585258092782,3.03697545551607,NaN,3.13555929757667,1.29721069435286,0.477412123765646,1.29721069435236,1.98063063930508,-1.94336289877657,-0.0452968009523978,-0.845767836100735,0.246843586258748,NaN,NaN,-0.780965101206272,1.30973081053696,-0.349283991680248,0.609230662652559,NaN,-0.752879014059761,-0.184861343804024,-0.868477495780471,-0.2338765299137,-0.629772172351099,-0.629772172348879,-0.606561436491338,-1.14739689264453,-1.41260759374246,NaN,0.218286570691387,-0.117902869928453,-2.26688804680492,0.662009056664983,0.662009056663659,-0.226191653766085,0.226191653765643,-0.204646905415037
1269.4528,0.477070714926344,0.347533154731713,0.644539392980807,-0.691417105896984,0.428211730562303,0.428211730562867,NaN,-0.411903210589748,-0.971449142989317,1.64994260865032,-0.571898882196876,1.6499426086509,0.320575455678055,-0.0484838396723116,0.291470753507144,3.03212926268449,NaN,3.12297279836723,1.29328833140067,0.476831663200968,1.29328833140015,1.98612347442381,-1.94726491674934,-0.0435176450889017,-0.824549436206564,0.273128966094997,NaN,NaN,-0.770245141909884,1.32825959494637,-0.350890181463007,0.605325244200501,NaN,-0.768081263123985,-0.15740706578633,-0.862409887886671,-0.214123086713642,-0.633878412530978,-0.633878412528745,-0.633424052633218,-1.11441810773758,-1.41034542122413,NaN,0.228658047005612,-0.122445586246854,-2.23495369899383,0.65079447374796,0.650794473746672,-0.220047506192604,0.220047506192166,-0.209751501980701
1269.5552,0.477694600930946,0.326758221583916,0.633114690560011,-0.669239000667338,0.421950576235511,0.421950576236051,NaN,-0.408298609300833,-0.955157791812126,1.61415721359862,-0.585862244801611,1.61415721359918,0.311023070218772,-0.0541798719335158,0.279484013690678,3.02528733505194,NaN,3.10849337072132,1.28887157305995,0.475048252126909,1.28887157305942,1.98995375529066,-1.95071950831981,-0.0432164436564316,-0.802100670345596,0.298854064314009,NaN,NaN,-0.759337011446673,1.34760785535393,-0.351880126236948,0.601154253011999,NaN,-0.78355921168659,-0.130112874813557,-0.856730238212062,-0.194065003356947,-0.638305427428854,-0.638305427426608,-0.660958930298313,-1.08107066527717,-1.40837991031922,NaN,0.238810767326338,-0.126165378721251,-2.20021620048835,0.639022105540563,0.639022105539305,-0.213976721394716,0.213976721394281,-0.214377285637373
1269.6576,0.478749603702504,0.305722094638035,0.621940028723887,-0.6469898326494,0.416471944377274,0.416471944377805,NaN,-0.404955161512928,-0.939136996396014,1.57764713020281,-0.600042002739378,1.57764713020334,0.302027769846339,-0.0586209198042416,0.268622994645792,3.01644232743838,NaN,3.09212118157744,1.28397643692176,0.472032671035449,1.28397643692122,1.99209044374723,-1.95369713317863,-0.0443936570265006,-0.778466032550882,0.323972686215911,NaN,NaN,-0.74817707599311,1.36765277654993,-0.352233909966837,0.596723662978343,NaN,-0.799246765182906,-0.102997157585045,-0.851388502807387,-0.173721776646653,-0.643065462110369,-0.643065462108108,-0.689117934127652,-1.04743978677144,-1.40673532596001,NaN,0.248710530908094,-0.129057734247813,-2.16276246648793,0.626764489791551,0.626764489790316,-0.207921630658265,0.207921630657832,-0.21851159590671
1269.76,0.480243330020022,0.284440327198084,0.611031469999702,-0.624697473869998,0.411798552385437,0.411798552385939,NaN,-0.401892875040996,-0.923416742418892,1.54044550371778,-0.614398241802913,1.5404455037183,0.293580614896149,-0.0618004229006153,0.258881976473423,3.00559225437498,NaN,3.07386135526177,1.27861852519256,0.467762022046818,1.27861852519199,1.99250622970343,-1.95616804119633,-0.0470448779824575,-0.753694467887935,0.348441437307388,NaN,NaN,-0.736701652199815,1.38826754617177,-0.351934405461446,0.592040999176067,NaN,-0.815075967751575,-0.0760797184537435,-0.846333909495725,-0.153114372212677,-0.648167435012486,-0.648167435010212,-0.717848344637445,-1.01361283206125,-1.40543361964829,NaN,0.258323341214439,-0.131119603274928,-2.12268755031408,0.614094045249184,0.614094045247975,-0.201826829116487,0.201826829116057,-0.222142586962551
1269.8624,0.482182331820626,0.262929253082977,0.600404546853159,-0.602388577627925,0.40795260537289,0.407952605373383,NaN,-0.399131081804903,-0.908026778893125,1.50258786865567,-0.628889505108429,1.50258786865617,0.28566995813492,-0.063713812895351,0.250251667137741,2.99274072353403,NaN,3.05372419319022,1.27281305347089,0.462219818276828,1.27281305347031,1.99117783598466,-1.95810254120743,-0.0511607998559563,-0.72783932029144,0.372219919569749,NaN,NaN,-0.724847462912118,1.40932203420739,-0.350967123667601,0.587115124318921,NaN,-0.830977445657955,-0.0493817035868483,-0.841515329575928,-0.132265166549018,-0.653616800730262,-0.653616800727977,-0.747093224744959,-0.97967897881607,-1.40449449874923,NaN,0.267615618979821,-0.132349353493173,-2.08009418790394,0.601082803435609,0.601082803434429,-0.195639521866495,0.195639521866068,-0.225259338482893
1269.9648,0.48457201682495,0.241205970994973,0.590074169529937,-0.580088437481187,0.404955719556846,0.404955719557328,NaN,-0.39668839364903,-0.892996663092713,1.46411230161032,-0.643472982194975,1.4641123016108,0.278281553372275,-0.0643585063575414,0.242719312122575,2.97789715979207,NaN,3.03172538912331,1.26657488157431,0.455396016263569,1.26657488157371,1.98808633939452,-1.95947128638439,-0.0567271859041884,-0.700958250519262,0.395270924274051,NaN,NaN,-0.712552122039651,1.43068352705431,-0.349320049511427,0.581956007729661,NaN,-0.846880883143588,-0.0229254988853839,-0.836881661044248,-0.111197860181097,-0.65941543647999,-0.659415436477692,-0.776791852664292,-0.94572887764914,-1.40393553436867,NaN,0.276554421239632,-0.132746721008838,-2.03509227522361,0.587802142375252,0.587802142374104,-0.189309827493737,0.189309827493312,-0.227851972750703
1270.0672,0.487416559519781,0.219288327846363,0.580054533627501,-0.557820851114898,0.402828828332702,0.402828828333181,NaN,-0.394582656886827,-0.878355787205225,1.4250595520254,-0.658104728371484,1.42505955202586,0.271398671144328,-0.0637339116010296,0.236268804535254,2.96107699428059,NaN,3.00788621517648,1.25991854613552,0.447286979592928,1.25991854613492,1.98321748193531,-1.96024555784415,-0.0637248485652692,-0.673113119223808,0.417560602820422,NaN,NaN,-0.699754649548673,1.45221748487675,-0.346983471434712,0.576574481240167,NaN,-0.862715504401229,0.00326538946261184,-0.832382204599883,-0.0899373699607398,-0.665561568571626,-0.665561568569315,-0.806880175038174,-0.911854288780014,-1.40377227247003,NaN,0.285107647302968,-0.132312757918284,-1.98779830221547,0.574322524213838,0.574322524212721,-0.182791014461039,0.182791014460616,-0.229911775406326
1270.1696,0.490718819858271,0.197194898677019,0.570359032874897,-0.535608009622753,0.40159207621012,0.401592076210605,NaN,-0.392830903228949,-0.864133369857876,1.38547313474508,-0.672739908900189,1.38547313474552,0.265002223466538,-0.0618414605516263,0.230880792522773,2.94230180189558,NaN,2.98223366037023,1.25285829993813,0.437895369531567,1.25285829993752,1.9765619409588,-1.96039753230641,-0.0721296589540051,-0.644369834771325,0.439058594702536,NaN,NaN,-0.686396000752203,1.4737882846585,-0.343949811579024,0.57098198631921,NaN,-0.878410531710233,0.0291664661299736,-0.827967007724741,-0.068509708926195,-0.672049749111614,-0.672049749109287,-0.837291233292215,-0.87814770907877,-1.40401831437436,NaN,0.293244214452935,-0.131049769204229,-1.93833477431965,0.560713239493113,0.560713239492026,-0.17603966622773,0.176039666227308,-0.231431316501642
1270.272,0.494480275426282,0.174944961399063,0.561000181447954,-0.513470425446116,0.401264712191878,0.401264712192368,NaN,-0.391449298890653,-0.850358415653886,1.34539937738936,-0.687333052696064,1.34539937738979,0.259070897920459,-0.0586846646832732,0.226532784698563,2.92159938196428,NaN,2.95480051416855,1.2454081593305,0.427229968796949,1.2454081593299,1.96811554002772,-1.95990053196396,-0.0819126067179558,-0.614798170290403,0.459738096519987,NaN,NaN,-0.672419585156327,1.49525992890437,-0.340213460390226,0.56519031709444,NaN,-0.893895610495864,0.0547523956747509,-0.823587163225503,-0.0469418579918164,-0.678870885022055,-0.678870885019715,-0.867955548699648,-0.844701993332096,-1.40468535705357,NaN,0.30093419990537,-0.128961234395481,-1.88682963870541,0.547042161240537,0.54704216123947,-0.169015796598811,0.16901579659839,-0.23240456461171
1270.3744,0.498700967573405,0.152558466580566,0.551989546406001,-0.491426896588515,0.401864989075553,0.40186498907605,NaN,-0.390453099503186,-0.837059659035251,1.30488742136671,-0.701838301960482,1.30488742136714,0.253581295463473,-0.0542691766241292,0.223199256592994,2.89900378064374,NaN,2.92562539073077,1.23758195401801,0.415305448621808,1.2375819540174,1.957879392086,-1.95872925729149,-0.0930399215482871,-0.584471551780366,0.479575865210598,NaN,NaN,-0.657771764289959,1.51649672279551,-0.335770617448277,0.559211367534796,NaN,-0.909101216368745,0.0799971795391896,-0.819195069165049,-0.0252616316062621,-0.686012324179633,-0.68601232417728,-0.898801484590668,-0.811609968369095,-1.40578320811841,NaN,0.308148957091831,-0.126051717013132,-1.83341571057744,0.533375510568346,0.533375510567305,-0.161682944537792,0.161682944537372,-0.23282698792874
1270.4768,0.503379458715265,0.130056003575305,0.543337688407356,-0.469494495074273,0.403410061542136,0.403410061542631,NaN,-0.389856619907969,-0.82426550319599,1.26398917393418,-0.716209656563302,1.2639891739346,0.248508062137323,-0.0486028354319014,0.220851758680751,2.87455524888626,NaN,2.89475268487448,1.22939336946543,0.402142082293729,1.22939336946482,1.94585996587623,-1.95685999609577,-0.105473258947978,-0.553466811694335,0.498552157030386,NaN,NaN,-0.64240234103543,1.53736392766208,-0.330619140033664,0.553056891389043,NaN,-0.923959062784716,0.104874364890535,-0.814744665294625,-0.00349754249328546,-0.693458010734378,-0.693458010732013,-0.929755608151159,-0.778964038658316,-1.40731979385315,NaN,0.314861218008788,-0.122326766788343,-1.77823008500616,0.519777634001828,0.519777634000802,-0.154008265347785,0.154008265347364,-0.232695645353657
1270.5792,0.508512797963334,0.107458763126831,0.535054108132723,-0.447688569384459,0.405915868338976,0.405915868339473,NaN,-0.389673221193213,-0.81200395098533,1.22275920805465,-0.730401222398712,1.22275920805505,0.24382400899723,-0.0416956951576259,0.219459020601216,2.84830012758013,NaN,2.86223245164849,1.22085597307393,0.387765403032507,1.22085597307331,1.93206906836873,-1.95427079938123,-0.119169947112374,-0.521863901234566,0.516650610263498,NaN,NaN,-0.626265051897119,1.55772838968194,-0.324758397902474,0.546738274456309,NaN,-0.938402514048102,0.129357282303043,-0.810191652828256,0.018321331550599,-0.701188714167665,-0.701188714165287,-0.960743056107245,-0.746855783116006,-1.40930116381461,NaN,0.321045193413642,-0.117792812459752,-1.72141352539974,0.506310795097743,0.506310795096738,-0.145962619109127,0.145962619108707,-0.232009278645353
1270.6816,0.514096493877163,0.0847884944797895,0.527147196158961,-0.426022758547944,0.409396990819036,0.409396990819525,NaN,-0.389915308336366,-0.800302518866567,1.18125461165574,-0.744367472204598,1.18125461165613,0.239500223269895,-0.0335600620405767,0.218987042800088,2.82029065963976,NaN,2.82812021392847,1.21198322109814,0.372205809424402,1.21198322109751,1.9165237464059,-1.95094162139654,-0.134083287596659,-0.489745560000798,0.533858084961566,NaN,NaN,-0.609318049046195,1.57745913911201,-0.318189131461527,0.540266312093982,NaN,-0.952366997331655,0.153419306670869,-0.805493695683202,0.0401654882267696,-0.709182314167344,-0.709182314164953,-0.991687895328224,-0.715375541358813,-1.41173148286726,NaN,0.326676680826979,-0.112457037376669,-1.66310982930723,0.493034989487433,0.493034989486461,-0.137520649455863,0.137520649455445,-0.230768411876926
1270.784,0.520124497389025,0.0620674541380661,0.519624187467092,-0.404509023763816,0.413866497033477,0.413866497033965,NaN,-0.390594327295466,-0.789188128591478,1.13953479245286,-0.758063521112339,1.13953479245323,0.235506177857683,-0.024210568426666,0.219399169572106,2.79058474026515,NaN,2.79247671432526,1.20278845200623,0.355498126654671,1.20278845200559,1.89924612483951,-1.94685443269603,-0.150162899769066,-0.457196944257478,0.550164474113531,NaN,NaN,-0.59152434276652,1.59642795955712,-0.310913316878953,0.533650992355527,NaN,-0.965790405283304,0.177034136507278,-0.800610598695465,0.062005166704943,-0.717414107757698,-0.717414107755293,-1.02251347335554,-0.684611986445666,-1.41461300404727,NaN,0.331733184723983,-0.106327234384347,-1.60346517409058,0.480007796974255,0.480007796973315,-0.128660846466219,0.128660846465801,-0.228975447905722
1270.8864,0.526589203043949,0.0393183443754274,0.512491127063515,-0.383157705748278,0.419335790335656,0.419335790336136,NaN,-0.391720749401867,-0.778686973994062,1.09766124370741,-0.771445416636939,1.09766124370777,0.23180984422482,-0.0136642922849476,0.220656144332382,2.75924562086549,NaN,2.75536762722937,1.19328487782764,0.337681127752054,1.19328487782698,1.88026320313407,-1.94199332029727,-0.167355099975802,-0.424305214066067,0.5655624959178,NaN,NaN,-0.572852185425566,1.61450992685599,-0.302934047162847,0.526901297920863,NaN,-0.978613476855566,0.200176085813407,-0.795504455247923,0.0838105495166585,-0.725857115499874,-0.725857115497453,-1.05314276535603,-0.654651684672604,-1.41794602831589,NaN,0.33619404483636,-0.0994116443501162,-1.54262743991138,0.46728427604501,0.467284276044095,-0.119365591111337,0.119365591110921,-0.226634740206325
1270.9888,0.533481474588459,0.016564242480306,0.505752852893093,-0.361977609432199,0.425814472536728,0.425814472537221,NaN,-0.393304031680775,-0.768824358844224,1.05569727305737,-0.784470444492381,1.05569727305771,0.228377809481534,-0.00194091049332115,0.222716153384524,2.72634157734359,NaN,2.71686323745997,1.18348558150092,0.31879701624569,1.18348558150025,1.85960661982764,-1.93634457915759,-0.18560330923996,-0.391159083939565,0.580047472547727,NaN,NaN,-0.553275402822871,1.63158391226008,-0.294255434521819,0.520025044052229,NaN,-0.990780137449531,0.222820378264858,-0.790139753772751,0.10555199550442,-0.73448238891516,-0.734482388912725,-1.08349872947341,-0.625578650823637,-1.42172886806652,NaN,0.3400405621424,-0.0917187882675518,-1.48074550725903,0.45491688694227,0.454916886941381,-0.109621179676745,0.10962117967633,-0.223752623958746
1271.0912,0.540790689403497,-0.00617147524602928,0.499412993247115,-0.340976109308326,0.433310217709503,0.433310217710015,NaN,-0.395352547415758,-0.759624504875654,1.01370769790967,-0.797097450883946,1.01370769790999,0.225175395893868,0.0109371365526861,0.225534866828461,2.69194554713976,NaN,2.67703808697258,1.17340351903261,0.298890882237182,1.17340351903194,1.83731238425798,-1.9298967871283,-0.204848480184047,-0.357848355739513,0.593617104080567,NaN,NaN,-0.532773689773991,1.64753304604122,-0.284882534110632,0.513028765404652,NaN,-1.00223778441387,0.244943429826704,-0.784483440131681,0.127200289442612,-0.743259327282759,-0.743259327280311,-1.1135046770175,-0.597473913788019,-1.42595783149346,NaN,0.343256111696041,-0.083257307867377,-1.41796853733069,0.44295541794756,0.442955417946695,-0.0994178248009388,0.099417824800526,-0.220337406924181
1271.1936,0.548504786888629,-0.0288652117392663,0.493473966547238,-0.320159266322312,0.441828650642997,0.441828650643528,NaN,-0.397873492021328,-0.751110339114139,0.97175851930107,-0.80928717370968,0.971758519301382,0.222166785098063,0.0249444957394357,0.229065491198925,2.65613474147443,NaN,2.63597059713027,1.16305152389424,0.278010162884717,1.16305152389356,1.81342058482179,-1.92264085873552,-0.225029525787182,-0.324463465779861,0.606271251273031,NaN,NaN,-0.511332869564901,1.66224514772169,-0.274821291720907,0.505917660743527,NaN,-1.01293752186625,0.266523104692453,-0.778504951145165,0.148726890951156,-0.752155996665469,-0.752155996663007,-1.14308465176897,-0.570415108129956,-1.43062723492689,NaN,0.345826233428276,-0.0740358320229221,-1.35444525737996,0.43144689757281,0.431446897571967,-0.0887496294841526,0.0887496294837422,-0.216399337136794
1271.296,0.556610310124243,-0.051493231943036,0.487936972264808,-0.299531949451691,0.451373228917691,0.451373228918241,NaN,-0.400872776505143,-0.743303274694869,0.92991659323663,-0.821002564978799,0.929916593236934,0.219315158202001,0.040052793794888,0.233258856967873,2.61899024711481,NaN,2.59374268152204,1.15244232001634,0.25620414530232,1.15244232001567,1.78797509295638,-1.9145700837193,-0.246083733901378,-0.291095073894439,0.618011735208487,NaN,NaN,-0.488945085856366,1.6756131356102,-0.264078522973499,0.498695603604063,NaN,-1.02283436185264,0.287538932838783,-0.772176244597886,0.170104164211407,-0.761139441021355,-0.76113944101888,-1.1721638038638,-0.544476102542249,-1.43572943900973,NaN,0.347738692303199,-0.0640628810291658,-1.2903232760249,0.420435493721613,0.420435493720803,-0.0776145317837404,0.0776145317833312,-0.211950570902465
1271.3984,0.565092441436882,-0.0740317532874953,0.482801971715711,-0.27909795731709,0.461945130253794,0.461945130254353,NaN,-0.404354919367175,-0.736222995990203,0.888249314707617,-0.832209086920303,0.888249314707918,0.216582862097412,0.0562305869196397,0.238063558098495,2.5805966316725,NaN,2.55043936129189,1.14158855200062,0.233523531492203,1.14158855199995,1.76102327396501,-1.90568015760126,-0.267947163117534,-0.25783370009594,0.628842149800316,NaN,NaN,-0.465608888897615,1.6875354211927,-0.252661927127776,0.49136521802757,NaN,-1.03188740565377,0.307972287523338,-0.765471840349811,0.191305574146516,-0.770175986263597,-0.770175986261112,-1.20066874477767,-0.519726667998673,-1.44125489922687,NaN,0.348983504298729,-0.0533468103826729,-1.22574844316161,0.409962411796802,0.409962411796014,-0.0660142174394546,0.0660142174390485,-0.207005154296299
1271.5008,0.573935035532789,-0.0964570379843039,0.47806766554385,-0.258860135969765,0.473543148204355,0.473543148204925,NaN,-0.408322943970743,-0.729887256869412,0.846824318300674,-0.842874975816145,0.846824318300972,0.213931597890686,0.0734433622960587,0.243426137242939,2.54104155616417,NaN,2.50614838611773,1.13050282904534,0.210020054989876,1.13050282904466,1.73261570433709,-1.89596920564114,-0.290555022153646,-0.224769394893798,0.638767681854656,NaN,NaN,-0.441329218847617,1.6979162794187,-0.240580126551843,0.483927999573684,NaN,-1.04006000539615,0.327806527884915,-0.758368868800345,0.212305846637874,-0.779231537497719,-0.779231537495221,-1.22852787600501,-0.496232180114447,-1.44719222012995,NaN,0.349552939594578,-0.0418957852789971,-1.16086425918835,0.400065803073529,0.400065803072772,-0.0539539959751033,0.0539539959746997,-0.201579013379247
1271.6032,0.583120649353474,-0.118745472569544,0.473731475524692,-0.238820490423667,0.486163601492183,0.486163601492762,NaN,-0.412778289038299,-0.724311702382468,0.805709192948831,-0.852971477328682,0.805709192949128,0.211322619473201,0.0916535710781217,0.249291295423377,2.50041539424809,NaN,2.46095986285059,1.11919777187229,0.185746125560125,1.11919777187161,1.70280589662399,-1.88543780094562,-0.313842032434212,-0.191991428162428,0.647794945601581,NaN,NaN,-0.416117333184571,1.70666618122013,-0.227842719216619,0.476384452767946,NaN,-1.04731989444026,0.347027107764083,-0.750847114704132,0.233081099526634,-0.788271862831866,-0.788271862829358,-1.2556716858922,-0.47405334705235,-1.45352820176087,NaN,0.349441525223212,-0.029717770570247,-1.09581133862393,0.390780692315345,0.390780692314607,-0.0414426379115715,0.0414426379111707,-0.195689941605324
1271.7056,0.592630567814949,-0.140873624497213,0.469789535801842,-0.218980289748429,0.499800262744524,0.4998002627451,NaN,-0.417720741913461,-0.719509721624626,0.764971210662043,-0.862473056690785,0.764971210662339,0.208716939241872,0.110820676212539,0.255602115571713,2.45881086332649,NaN,2.41496589909319,1.10768606124776,0.160754490846699,1.10768606124707,1.67165004004416,-1.87408898112273,-0.337742769403525,-0.159587990512367,0.655931848384986,NaN,NaN,-0.389990712145876,1.71370208498073,-0.214460339135241,0.46873422784708,NaN,-1.0536392764884,0.36562164818927,-0.742889048539789,0.253608948278242,-0.797262861106943,-0.797262861104425,-1.28203300821518,-0.453245957882084,-1.46024786878719,NaN,0.348646062188967,-0.0168205231582377,-1.03072693480069,0.382138931425223,0.382138931424507,-0.0284921772590921,0.0284921772586957,-0.189357578938771
1271.808,0.60244482881133,-0.162818277924183,0.466236695463798,-0.199340166529979,0.514444308048849,0.514444308049411,NaN,-0.423148399121737,-0.715492330546112,0.72467706890828,-0.871357581367462,0.724677068908577,0.206075544456328,0.130901217576476,0.262300304490422,2.41632267040873,NaN,2.36826026404593,1.09598049222651,0.135097923606669,1.09598049222581,1.63920676229437,-1.86192826347261,-0.362191975805301,-0.127645905051786,0.663187497388973,NaN,NaN,-0.362972932464666,1.71894769172804,-0.200444725520976,0.460976256797471,NaN,-1.05899487746147,0.383579976674181,-0.734479846968789,0.273868584260956,-0.806170815195748,-0.80617081519322,-1.30754724083507,-0.43386065209577,-1.46733448145052,NaN,0.347165656843299,-0.00321158266463095,-0.965744525469242,0.374169177687463,0.37416917768676,-0.0151176858181037,0.0151176858177129,-0.182603381861712
1271.9104,0.612542250851718,-0.184556457222444,0.463066530661733,-0.179900211148028,0.530084283771251,0.530084283771799,NaN,-0.429057647951766,-0.712268074171275,0.684892638333945,-0.879606470268271,0.684892638334247,0.203359618511034,0.151848914041676,0.269326456699275,2.37304715922795,NaN,2.32093805172321,1.08409402565466,0.108828949104222,1.08409402565395,1.60553690688405,-1.8489636487324,-0.387124841155967,-0.096250346275944,0.669572138231742,NaN,NaN,-0.335093489475245,1.72233365882658,-0.185808800521561,0.453108895417904,NaN,-1.06336797523997,0.400894143128313,-0.725607409574067,0.293840825110836,-0.814962624939149,-0.814962624936608,-1.33215253126668,-0.415942713431853,-1.47476953668241,NaN,0.345001760757019,0.0111017372054635,-0.900993450910639,0.366896883167174,0.366896883166479,-0.00133701996991527,0.00133701996953024,-0.175450582062496
1272.0128,0.622900462462662,-0.206065443787104,0.460271362243517,-0.160660059501078,0.546706086771306,0.546706086771839,NaN,-0.435443156602818,-0.709842933805232,0.645682703970481,-0.887204806954795,0.645682703970788,0.200530753080965,0.173614822891232,0.27662033586365,2.32908193621067,NaN,2.27309532363555,1.07203981746731,0.0819996189001233,1.07203981746659,1.57070331586779,-1.8352056028486,-0.41247724642181,-0.0654845634332016,0.675097101901623,NaN,NaN,-0.306387571859865,1.72379775325587,-0.170566751354361,0.445130073482694,NaN,-1.06674441967185,0.417558422005318,-0.716262376595672,0.313508139388859,-0.82360600474663,-0.823606004744077,-1.35578993945756,-0.399531890237651,-1.48253277002575,NaN,0.342158217146537,0.0261123525212314,-0.836598597553078,0.360344277784883,0.360344277784195,0.012829460522108,-0.0128294605224865,-0.16792413181426
1272.1152,0.63349592929107,-0.227322786211787,0.457842275081724,-0.141618970260059,0.564292954728766,0.564292954729277,NaN,-0.442297862499436,-0.708220226120081,0.607110695518962,-0.894141421871282,0.60711069551928,0.197551143457715,0.196147562728915,0.284121169120486,2.28452546423901,NaN,2.2248287195252,1.05983121469633,0.0546613266296593,1.05983121469561,1.53477061305458,-1.82066701456731,-0.438185977141779,-0.0354296078703302,0.679774737007564,NaN,NaN,-0.27689581864113,1.72328493032494,-0.154734108638248,0.437037447139213,NaN,-1.06911464547511,0.433569306534598,-0.706438145782554,0.33285464471417,-0.832069632936647,-0.832069632934082,-1.37840358596083,-0.38466224486507,-1.49060216737405,NaN,0.338641313677276,0.0418134038158289,-0.772680129931162,0.354530340413818,0.354530340413134,0.0273591910515604,-0.0273591910519328,-0.160050638121863
1272.2176,0.644303976710157,-0.248306302260201,0.455769137959668,-0.122775889481019,0.582825466469136,0.582825466469614,NaN,-0.449612958655143,-0.707400488617613,0.569238412185485,-0.900408948501835,0.569238412185817,0.194383771901304,0.219393592369002,0.291767955553207,2.23947662942762,NaN,2.17623504043312,1.04748172361045,0.0268646591344735,1.04748172360972,1.49780498797991,-1.80536313043189,-0.464188906677858,-0.00616406725648942,0.683618319118292,NaN,NaN,-0.246664087847618,1.72074733928762,-0.138327812568651,0.428828543996196,NaN,-1.07047367375456,0.448925498463068,-0.696130881624301,0.351866072961442,-0.840323250337003,-0.840323250334427,-1.3999407900484,-0.37136203663957,-1.49895399397621,NaN,0.334459835274631,0.0581982340783555,-0.709353280472764,0.349470767821201,0.349470767820519,0.0422276983742908,-0.0422276983746563,-0.151858287759835
1272.32,0.655298813525706,-0.268994074267391,0.454040628277609,-0.104129506561039,0.602281564235845,0.602281564236303,NaN,-0.457377893294179,-0.707381360860679,0.532125753879063,-0.906003847003442,0.532125753879406,0.190992592268398,0.243297536447785,0.299499797518821,2.19403429302637,NaN,2.12741081571197,1.03500496548011,-0.00134071605207343,1.03500496547937,1.45987398342832,-1.78931146716429,-0.490425146124553,0.0222361865431999,0.686641949199787,NaN,NaN,-0.215743225190276,1.71614426731965,-0.12136626431742,0.420500894091301,NaN,-1.07082109588314,0.46362789497326,-0.685339509654111,0.370529693591713,-0.848337717908437,-0.848337717905849,-1.42035219762354,-0.359653642952516,-1.50756284410424,NaN,0.329625101088495,0.0752603357579922,-0.646728200952165,0.345177950595746,0.345177950595069,0.0574088802302829,-0.0574088802306422,-0.143376758828006
1272.4224,0.666453569144544,-0.289364443431496,0.452644269920981,-0.0856783069916571,0.622636615711328,0.622636615711749,NaN,-0.465580401439947,-0.708157481299089,0.495830470826675,-0.910926383247488,0.495830470827038,0.187342729628785,0.267802549486604,0.307256264429023,2.14829684085339,NaN,2.07845186648605,1.02241463775934,-0.029906122994309,1.0224146377586,1.42104628843419,-1.77253170211069,-0.516835159370518,0.0496982337482382,0.688860461195826,NaN,NaN,-0.184188774467841,1.70944203978303,-0.103869366372853,0.412052147546992,NaN,-1.07016103422829,0.477679570019989,-0.674065692568973,0.388834193939529,-0.856085053439195,-0.856085053436596,-1.43959189483862,-0.349553519362849,-1.51640170852619,NaN,0.32415096928895,0.0929932517610535,-0.584909865958087,0.34166095593239,0.341660955931713,0.0728752713490783,-0.0728752713494313,-0.134637109103497
1272.5248,0.677740353861465,-0.309396007971982,0.451566490396434,-0.0674206209352072,0.643863518298902,0.643863518299295,NaN,-0.474206571180278,-0.709720412258457,0.460407935861,-0.915180565278881,0.460407935861383,0.183400700907861,0.292850702806961,0.314977787684723,2.10236174119045,NaN,2.02945287596718,1.0097244942653,-0.0587839168886068,1.00972449426455,1.38139153182682,-1.7550455446716,-0.543360853138267,0.0761523385794607,0.690289348647531,NaN,NaN,-0.152060575630426,1.70061389898471,-0.0858585554166957,0.40348018545932,NaN,-1.06850207704372,0.491085743167064,-0.662313790810208,0.40676953159117,-0.863538469002955,-0.863538469000344,-1.45761750315616,-0.341072193486604,-1.52544205205585,NaN,0.318053807619478,0.111390428039397,-0.523998010912841,0.338925520969647,0.338925520968962,0.088598316934512,-0.0885983169348593,-0.125671632274668
1272.6272,0.68913034247405,-0.329067626049027,0.450792696913378,-0.0493546620870959,0.665932829956248,0.665932829956615,NaN,-0.48324093159384,-0.712058588755293,0.425910934646937,-0.918774057337755,0.425910934647346,0.179134653141251,0.318383372807029,0.322606073484681,2.05632511844215,NaN,1.98050697340527,0.996948348262349,-0.0879275059835121,0.996948348261593,1.34098006766238,-1.7368765921152,-0.569945657034244,0.101532192623228,0.690944708959473,NaN,NaN,-0.119422245218732,1.68963987892965,-0.067356826976005,0.394783227939385,NaN,-1.06585719016477,0.503853731929016,-0.650090813181025,0.424326780601727,-0.870672420637415,-0.870672420634792,-1.47439025392908,-0.334214283082205,-1.53465389209389,NaN,0.311352443391067,0.130445030976935,-0.464087091354726,0.336974069417579,0.336974069416893,0.104548674753898,-0.104548674754241,-0.116513679663966
1272.7296,0.700593874350519,-0.348358422047018,0.450307365824257,-0.0314785558997172,0.688812908504204,0.688812908504555,NaN,-0.492666547501083,-0.715157279297065,0.392389466651082,-0.921718084877801,0.392389466651512,0.174514609331485,0.344341618520428,0.330084518122159,2.01028134533643,NaN,1.93170533452117,0.984100091795579,-0.117291360168813,0.984100091794815,1.29988275042344,-1.71805017215591,-0.596534599273473,0.12577517093131,0.690843200220453,NaN,NaN,-0.0863405800099686,1.6765066824191,-0.0483887479000821,0.385959935531382,NaN,-1.06224361241484,0.515992889880841,-0.637406362472819,0.441497982322448,-0.877462667863691,-0.877462667861056,-1.48987504205697,-0.328978531797497,-1.54400587272181,NaN,0.304068105605953,0.150149748306591,-0.405266261141969,0.335805755724033,0.335805755723347,0.120696542817227,-0.120696542817565,-0.10719745400069
1272.832,0.712100561503935,-0.367247796793364,0.45009413723731,-0.0137903633979355,0.71247004616862,0.712470046168954,NaN,-0.502465108952127,-0.718998552926778,0.359890552214432,-0.924027315228984,0.359890552214893,0.169512708504934,0.370666553374896,0.33735861492108,1.96432265487222,NaN,1.88313679808463,0.971193719690924,-0.146830996639217,0.971193719690152,1.25817070317894,-1.69859317110179,-0.62307437260835,0.148822585435922,0.690001999530286,NaN,NaN,-0.0528849404528551,1.66120755983256,-0.0289804497983126,0.377009495314965,NaN,-1.05768274160594,0.52751453311444,-0.624272580809122,0.458275999057201,-0.883886334199957,-0.883886334197309,-1.50404045836381,-0.325357864687018,-1.5534653356732,NaN,0.296224356039813,0.170496586500555,-0.347619376381019,0.335416521561177,0.335416521560494,0.137011985684597,-0.13701198568493,-0.0977577862372136
1272.9344,0.723619397458751,-0.385715444878645,0.450135906262681,0.00371189251470754,0.736868588543451,0.736868588543762,NaN,-0.512617005491082,-0.723561255230201,0.328458045081466,-0.925719685342844,0.328458045081953,0.164103429189527,0.397299721273808,0.344376346937542,1.91853877397099,NaN,1.83488749703998,0.958243349231765,-0.176502933506765,0.958243349230988,1.21591508011686,-1.67853384336172,-0.649513383329402,0.170619917260132,0.688438746735887,NaN,NaN,-0.0191266563411423,1.64374218928422,-0.00915959616044925,0.367931685247497,NaN,-1.05220001520699,0.5384318541431,-0.610704099329605,0.47465436613176,-0.889921962551435,-0.889921962548773,-1.51685880113648,-0.32333947064387,-1.56299839408933,NaN,0.287846994786591,0.191476667506606,-0.29122503353172,0.335799143265078,0.335799143264407,0.153465231734612,-0.153465231734941,-0.0882299052566241
1273.0368,0.73511886148013,-0.403741381295175,0.45041490456085,0.0210301948919083,0.761971031209549,0.761971031209846,NaN,-0.523101382553638,-0.728820998602446,0.298132454013863,-0.926816166484431,0.298132454014378,0.158263793767325,0.424183477591215,0.351088563207015,1.87301657990086,NaN,1.78704050365916,0.945263232326343,-0.206264611500841,0.945263232325566,1.17318682568377,-1.65790160301676,-0.67580178148389,0.191117014688147,0.686171466553393,NaN,NaN,0.0148615258347392,1.62411655950557,0.011044676864427,0.358726917581551,NaN,-1.04582478431727,0.548759819374253,-0.596717993831791,0.490627139527256,-0.895549566206325,-0.895549566203648,-1.52830606788943,-0.32290491725048,-1.57257001423911,NaN,0.278963927412994,0.213080022895766,-0.236156645455528,0.336943259999517,0.336943259998853,0.170026929355468,-0.170026929355793,-0.0786492110591823
1273.1392,0.746567016042979,-0.421305976512987,0.450912770727791,0.0381664918474198,0.78773809616295,0.787738096163234,NaN,-0.533896190095871,-0.734750173070466,0.268950781307169,-0.927340476899206,0.268950781307711,0.15197355798985,0.45126136616662,0.357449338614184,1.82783978062356,NaN,1.73967549313908,0.932267763310908,-0.236074289345231,0.932267763310132,1.13005643944899,-1.63672680947269,-0.701891476453422,0.210268245945286,0.683218478604609,NaN,NaN,0.0490059493084211,1.60234285614715,0.0316018363033518,0.349396267916505,NaN,-1.03859017123338,0.55851504124058,-0.582333743716093,0.506188736714967,-0.900750682500268,-0.900750682497578,-1.53836192658003,-0.324030300090514,-1.58214410611239,NaN,0.269604986275798,0.235295386240772,-0.182482553333647,0.338835385613936,0.33883538561328,0.18666836278167,-0.18666836278199,-0.0690510656143384
1273.2416,0.757931602023248,-0.438389998383573,0.451610614616176,0.0551226411785019,0.814128799652527,0.814128799652793,NaN,-0.544978243896638,-0.741317989479135,0.240946390073992,-0.9273187531873,0.240946390074566,0.145215391307442,0.478478482680474,0.3634163184715,1.78308862684409,NaN,1.69286843951549,0.919271491984903,-0.265890917636174,0.919271491984124,1.0865937617958,-1.61504056714213,-0.727736144804953,0.228032597154046,0.679598311773021,NaN,NaN,0.083232512370267,1.57843935219469,0.0524800327771115,0.33994149689851,NaN,-1.03053289519249,0.567715612906756,-0.567573188459775,0.52133376910158,-0.905508437211353,-0.90550843720865,-1.5470096651408,-0.326686425577956,-1.59168362117474,NaN,0.259801703525148,0.258109987523699,-0.130266167229606,0.341458912512028,0.341458912511382,0.20336163165426,-0.203361631654578,-0.0594706139158019
1273.344,0.769180142900169,-0.454974661854775,0.452489085523766,0.071900334336482,0.841100525388095,0.841100525388346,NaN,-0.556323318519472,-0.748490570225592,0.214148912267416,-0.926779182415633,0.21414891226802,0.137975051170291,0.505781815574247,0.368951046812555,1.73883967076044,NaN,1.64669136328772,0.906289153236369,-0.29567399434116,0.906289153235593,1.04286779396313,-1.5928745578842,-0.753291237715424,0.244373713576904,0.675329634404008,NaN,NaN,0.11746710472835,1.55243030449409,0.07364617869271,0.330365068374155,NaN,-1.02169305447984,0.576380900227178,-0.552460474219066,0.536056867174906,-0.909807620444414,-0.909807620441699,-1.55423612330708,-0.330839022544723,-1.60115065704609,NaN,0.249587043789445,0.281509353167154,-0.0795661227650242,0.344794116032806,0.344794116032167,0.220079798480693,-0.220079798481008,-0.0499426379841944
1273.4464,0.780280068751694,-0.471041689485508,0.45352845255029,0.0885009999701297,0.868609109245596,0.86860910924583,NaN,-0.567906276009625,-0.756231094257447,0.188584200269347,-0.925751600799059,0.18858420026999,0.130241549691648,0.533120548973689,0.37401926963872,1.69516558143452,NaN,1.60121214136041,0.893335716138355,-0.325383408031874,0.893335716137577,0.998946557339612,-1.57026091745511,-0.778513996333281,0.259259894613787,0.670431205019604,NaN,NaN,0.151636024812347,1.52434585763793,0.0950660210202906,0.320670166497419,NaN,-1.01211386519379,0.584531299899903,-0.537021984073226,0.550352503701813,-0.913634765237225,-0.913634765234499,-1.56003161672397,-0.336448973623222,-1.61050657081026,NaN,0.238995118751697,0.30547711624787,-0.0304364369359585,0.348818168314345,0.348818168313702,0.236797010688016,-0.236797010688328,-0.0405014364148364
1273.5488,0.791198861566788,-0.486573383248333,0.45470869825796,0.104925696620293,0.896608930770378,0.896608930770594,NaN,-0.579701219974453,-0.764499989915658,0.164274311640751,-0.924267078225018,0.164274311641438,0.12200730580055,0.560446303924123,0.378591195435823,1.65213501092285,NaN,1.55649437294972,0.88042644184632,-0.354979284547638,0.880426441845545,0.954896988763488,-1.54723215843338,-0.803363482237012,0.272664059427233,0.66492184547548,NaN,NaN,0.185666376076381,1.49422195487139,0.116704203998124,0.310860717272993,NaN,-1.00184136731387,0.592187984063684,-0.521286246888164,0.564214823507009,-0.916978218153269,-0.916978218150532,-1.56438986455568,-0.343472555993511,-1.61971210260028,NaN,0.228060910902983,0.32999484517286,0.0170733534551194,0.353505172374722,0.353505172374069,0.253488606155259,-0.25348860615557,-0.0311807197993212
1273.6512,0.801904213512452,-0.501552701895549,0.456009621166024,0.121175007110325,0.925053003751148,0.925053003751341,NaN,-0.591681664949803,-0.773255164692394,0.141237511206347,-0.922357513587859,0.14123751120708,0.113268273991659,0.587713300232072,0.382641696067533,1.60981249466923,NaN,1.51259728585791,0.867576934413163,-0.384421861397946,0.867576934412391,0.910784864664357,-1.52382113259374,-0.827800622830782,0.284563696774392,0.658820439437966,NaN,NaN,0.219486429089722,1.46210025595158,0.138524319896462,0.300941418791182,NaN,-0.990924109086307,0.599372651922238,-0.50528381987915,0.577637487595622,-0.919828197865472,-0.919828197862723,-1.56730792741484,-0.351861685499167,-1.62872751072171,NaN,0.21682002355616,0.355041903026233,0.0629180782626461,0.358826225796277,0.35882622579561,0.270131207098003,-0.270131207098311,-0.022013517844731
1273.7536,0.812364186379193,-0.515963333913694,0.4574109418906,0.137248942425094,0.953893063576159,0.953893063576327,NaN,-0.603820719725296,-0.782452263050523,0.11948827828731,-0.920055256312403,0.119488278288079,0.104024042304783,0.614878444737753,0.386150443524762,1.56825837105021,NaN,1.46957566866961,0.854803175399392,-0.413671408318656,0.854803175398621,0.866674743492104,-1.50006101633503,-0.851788263703027,0.29494080693821,0.65214595924431,NaN,NaN,0.253025935422915,1.42802805972334,0.160488956276681,0.290917775558193,NaN,-0.97941281675919,0.606107299636336,-0.489047143170297,0.590613535419104,-0.922176845822145,-0.922176845819385,-1.56878615387162,-0.361564166345366,-1.63751271852039,NaN,0.205308458746836,0.380595350778955,0.107056838923855,0.364749514588987,0.364749514588303,0.286702798517075,-0.286702798517379,-0.0130321006337214
1273.856,0.822547364769534,-0.529789759937484,0.458892409556048,0.153146856986171,0.983079656046197,0.983079656046345,NaN,-0.616091284597256,-0.79204494404658,0.0990373136116371,-0.917392752075075,0.0990373136124413,0.0942778948556565,0.641901376714548,0.389101992142958,1.52752871220384,NaN,1.42747981886844,0.842121543356635,-0.442688192360442,0.842121543355865,0.822629913450956,-1.47598529833387,-0.875291217291074,0.30378184049312,0.644917516717208,NaN,NaN,0.28621639002681,1.39205822197402,0.18255975145949,0.280796129417415,NaN,-0.967360054736974,0.612414009015308,-0.472610370854291,0.60313526560883,-0.924018274818916,-0.924018274816143,-1.56882812815893,-0.372523953828441,-1.6460274723665,NaN,0.193562413675873,0.406629899172582,0.149452917634151,0.371240428851561,0.37124042885085,0.303182780541153,-0.303182780541454,-0.00426791494515339
1273.9584,0.83242300498045,-0.543017308923589,0.460433907807217,0.168867372712154,1.01256223897958,1.01256223897972,NaN,-0.628466253869005,-0.801985170315467,0.0798915495849667,-0.914402198596263,0.0798915495858006,0.0840368402585648,0.668744507332317,0.391485824678137,1.48767526711781,NaN,1.38635550397234,0.829548827236319,-0.471432468712034,0.829548827235559,0.778712337606435,-1.45162775304653,-0.898276296664226,0.311077634695297,0.637154419965236,NaN,NaN,0.318991255330002,1.35424905460005,0.204697461009511,0.270583686611621,NaN,-0.95481987707486,0.618314749070298,-0.4560091839373,0.615194135394917,-0.925348615709183,-0.925348615706393,-1.56744061614296,-0.384681436873192,-1.65423151346023,NaN,0.181618079433972,0.433117896619979,0.190073681252772,0.37826169305937,0.378261693058636,0.31955198098565,-0.319551980985946,0.00424847427748907
1274.0608,0.841961187743842,-0.555632218777483,0.462015561836752,0.184408307127368,1.0422893121343,1.04228931213441,NaN,-0.640918708229299,-0.812223501911912,0.0620541766373741,-0.911115198139493,0.0620541766382328,0.0733116150682174,0.695373075280231,0.393296381394868,1.44874542558449,NaN,1.34624394158948,0.81710224606006,-0.499864476316066,0.817102246059306,0.73498259812938,-1.42702239467551,-0.920712325355519,0.316823343619467,0.628876212867893,NaN,NaN,0.35128617185821,1.31466419494465,0.226862033737951,0.260288542898429,NaN,-0.941847465439014,0.623831184072707,-0.439280585263248,0.626780681757814,-0.926166057001138,-0.926166056998334,-1.56463351412364,-0.397973743129486,-1.66208476953876,NaN,0.169511425522978,0.460029331581406,0.22889048050881,0.385773508738523,0.385773508737761,0.335792615687867,-0.335792615688159,0.0124874524136677
1274.1632,0.851132980323105,-0.567621708599954,0.463617847399833,0.199766604003677,1.07220858534955,1.07220858534965,NaN,-0.653422085512537,-0.822709391277891,0.0455246988763154,-0.90756240385051,0.0455246988771991,0.0621166710940156,0.721755219493588,0.394533081271263,1.41078221195923,NaN,1.30718180656026,0.804799482287683,-0.527944429662984,0.804799482286931,0.691499845043057,-1.40220341638364,-0.942570122747012,0.321018358045407,0.620102684448388,NaN,NaN,0.383039176273521,1.27337243929075,0.249012702371668,0.249919703563669,NaN,-0.9284987492638,0.628984487555168,-0.422462672712483,0.637884469723192,-0.926470872847392,-0.926470872844573,-1.56041980527925,-0.412335065066473,-1.66954756944282,NaN,0.157277962975433,0.487331838370351,0.265878551361418,0.393733706942148,0.393733706941351,0.351888191919309,-0.351888191919597,0.0204204382554818
1274.2656,0.859910606913964,-0.578974062542242,0.465221700844379,0.214938271138172,1.1022671814675,1.10226718146758,NaN,-0.665950328366713,-0.833391478249577,0.0302990241194969,-0.903773170388915,0.0302990241204076,0.0504701475332494,0.747862052987905,0.39520032885162,1.37382431107637,NaN,1.26920126797592,0.792658726848859,-0.555632516014071,0.792658726848102,0.648321753049061,-1.37720512495859,-0.963822473663368,0.323666215116158,0.6108538524877,NaN,NaN,0.414190931579796,1.23044753941371,0.271108098464999,0.23948709289474,NaN,-0.914830010411559,0.633795168378385,-0.405594388271357,0.648494071826635,-0.926265438588875,-0.926265438586041,-1.55481552451433,-0.427697001788482,-1.67658087711869,NaN,0.144952489699911,0.514990709311203,0.30101692718777,0.402097908554969,0.402097908554155,0.367823362615336,-0.367823362615617,0.0280199731055348
1274.368,0.868267621412324,-0.589678720422105,0.466808627435933,0.229918334056097,1.13241186166065,1.13241186166072,NaN,-0.67847801619404,-0.844217888880835,0.0163695859560623,-0.899775230339872,0.0163695859569899,0.038393825319961,0.77366770976836,0.395307491236765,1.33790612342674,NaN,1.23233005534945,0.780698728111124,-0.582888917552299,0.780698728110368,0.605504489670438,-1.35206188321916,-0.98444409391825,0.324774502445192,0.601149938216171,NaN,NaN,0.444684958857853,1.1859679677655,0.293106398114376,0.229001547595962,NaN,-0.900897480648609,0.638282916179729,-0.388715245480896,0.658597078415975,-0.925554233843451,-0.9255542338406,-1.54783972859802,-0.443988907441244,-1.68314653529741,NaN,0.132568829602209,0.54296891715983,0.334288368126086,0.410819696992764,0.410819696991936,0.383583749118242,-0.383583749118518,0.035259806301944
1274.4704,0.876179073477353,-0.599726367459234,0.468360803955458,0.24470081577379,1.16258926283896,1.162589262839,NaN,-0.690980495110934,-0.855136549352578,0.00372549364476498,-0.895594418951793,0.00372549364571029,0.0259130638134323,0.799149334588027,0.394868831357909,1.30305784711462,NaN,1.19659155577339,0.768938837487407,-0.609673874119978,0.768938837486651,0.56310269744227,-1.32680807079443,-1.00441160205943,0.324354764933785,0.591011353260041,NaN,NaN,0.474467853663984,1.14001666402848,0.314965499842947,0.218474787599422,NaN,-0.886756943741558,0.642466468019277,-0.371865045313148,0.6681801363155,-0.924343831130488,-0.924343831127624,-1.53951446372946,-0.461138235184025,-1.68920750351684,NaN,0.120159585470945,0.571227145302026,0.36567930820085,0.419850813832165,0.419850813831329,0.399155753457098,-0.399155753457369,0.0421149751644843
1274.5728,0.883621658117643,-0.609109015446638,0.469861170921043,0.259278750445208,1.19274614474327,1.19274614474331,NaN,-0.703434019370638,-0.866095527044102,-0.00764729393539629,-0.891254456578019,-0.00764729393443126,0.0130567204515384,0.824287001430221,0.393903391615424,1.26930558689255,NaN,1.16200494655064,0.757399047646836,-0.635947788682578,0.75739904764608,0.521169489933001,-1.30147806674568,-1.0237035020233,0.322422421483914,0.580458715182304,NaN,NaN,0.503489475839368,1.0926807777925,0.336643230249934,0.207919361194349,NaN,-0.872463354657528,0.646363488846465,-0.355083598138906,0.677229017539346,-0.922642866004923,-0.922642866002042,-1.52986471990219,-0.47907087018823,-1.69472807622902,NaN,0.107755929298104,0.599723822912009,0.395179816423255,0.429141386985992,0.429141386985146,0.414526378950659,-0.414526378950924,0.0485618819140672
1274.6752,0.890573841473337,-0.617820071600371,0.471293509790112,0.273644231548885,1.22282964705704,1.22282964705706,NaN,-0.715815904544024,-0.877043396045864,-0.017765775708225,-0.886776782747068,-0.0177657757072454,-0.000142950311299194,0.849063573473763,0.392434830178381,1.23667148972116,NaN,1.12858536413734,0.746100020279202,-0.661671363907945,0.746100020278445,0.479756457411368,-1.27610624763058,-1.04230017366526,0.318996692151042,0.569512894048989,NaN,NaN,0.53170311348627,1.04405141419578,0.358097567983364,0.197348569378689,NaN,-0.858070485238117,0.649990454860743,-0.338410469123836,0.685728726187845,-0.920461985453367,-0.920461985450472,-1.51891836497691,-0.49771145352183,-1.69967407629415,NaN,0.0953874449154474,0.62841516926525,0.422783564991382,0.438640193745848,0.438640193744997,0.429683068591887,-0.429683068592148,0.054578369051305
1274.7776,0.897015959988123,-0.625854396160577,0.472642501912188,0.287788485687765,1.25278755145071,1.25278755145073,NaN,-0.728104676538366,-0.887929604955676,-0.0266497057565095,-0.88218043473569,-0.0266497057555139,-0.0136504265134503,0.873464531822898,0.39049121498814,1.20517390031279,NaN,1.09634410215507,0.735063097869921,-0.686805754107266,0.735063097869157,0.438913673500373,-1.25072698812577,-1.06018386534875,0.31410052897122,0.558195077360892,NaN,NaN,0.559065627876129,0.994223377482483,0.379286876068946,0.186776378437951,NaN,-0.843630601334182,0.653362538995043,-0.321884752462682,0.693663649815382,-0.917813776712751,-0.917813776709843,-1.50670605915136,-0.516983702427226,-1.70401302871787,NaN,0.0830820241401339,0.657255256515473,0.448487796362251,0.448294952592526,0.448294952591683,0.444613554141693,-0.444613554141948,0.0601437916058942
1274.88,0.902930295124935,-0.633208351521061,0.473893769630611,0.301701957286912,1.28256853892602,1.28256853892602,NaN,-0.740280198737737,-0.898704820471962,-0.0343213889600856,-0.877481974070581,-0.0343213889590782,-0.0274270829859435,0.897477792945293,0.38810477847619,1.17482752630505,NaN,1.06528882765939,0.72431029467395,-0.711312724252817,0.724310294673169,0.39868969172203,-1.22537465160781,-1.07733868614594,0.307760539646013,0.546526836875011,NaN,NaN,0.585537583447778,0.94329490268243,0.400170138379242,0.176217326009056,NaN,-0.829194174765839,0.656493513412777,-0.305544866437291,0.701017748840128,-0.914712683751059,-0.914712683748142,-1.49326115545385,-0.536810728762971,-1.7077143208715,NaN,0.0708658117418758,0.686196100504566,0.472293284810037,0.458052633388403,0.458052633387568,0.459305698088284,-0.459305698088532,0.0652390813414727
1274.9824,0.908301128587075,-0.639879844548078,0.475033903188424,0.315374392619634,1.31212243607789,1.31212243607789,NaN,-0.752323772283706,-0.90932123344894,-0.0408054780156675,-0.872695470398786,-0.0408054780146412,-0.0414313897402755,0.921093517517755,0.385311634932546,1.14564360718922,NaN,1.03542380969833,0.713864268512126,-0.73515481655295,0.713864268511329,0.359131522591336,-1.20008356284264,-1.09375059912184,0.300006893977297,0.534530191689683,NaN,NaN,0.611083363744406,0.891367367731942,0.420707204833049,0.165686418246122,NaN,-0.814809634246779,0.65939568903869,-0.289428358151292,0.707774766998084,-0.911174916102453,-0.911174916099526,-1.4786195892655,-0.55711535197478,-1.71074934898421,NaN,0.0587631955614639,0.715187786674524,0.494204292696188,0.467859776868752,0.467859776867936,0.473747317775486,-0.473747317775727,0.0698467975030092
1275.0848,0.913114782892124,-0.645868363282308,0.476050477256858,0.328794920961414,1.34140045047926,1.34140045047923,NaN,-0.764218216323899,-0.919732829818364,-0.0461287714325135,-0.867832548733537,-0.0461287714314678,-0.0556191390692582,0.944303900923316,0.38215146127626,1.11763008652413,NaN,1.00675015896632,0.703748277745941,-0.758295525923041,0.703748277745123,0.320284586171107,-1.17488796055766,-1.10940741912805,0.290873209290097,0.522227675264954,NaN,NaN,0.635671272641322,0.838544981790223,0.440859051113353,0.155199012304524,NaN,-0.800523158671641,0.662079902249893,-0.273571713566329,0.713918448320456,-0.907218347695349,-0.907218347692413,-1.46281975517326,-0.577820400287006,-1.71309164455729,NaN,0.0467968387033326,0.744178630112134,0.514228523926896,0.477662818435787,0.477662818434987,0.487925998034934,-0.487925998035169,0.0739511638707647
1275.1872,0.9173596507576,-0.651175009697289,0.476932059336639,0.341952137764778,1.37035539675783,1.37035539675778,NaN,-0.775947934422609,-0.929895633167811,-0.0503200167554614,-0.862902498305147,-0.0503200167544008,-0.069943699833888,0.967102937369909,0.378667139010732,1.09079178325739,NaN,0.979266073001257,0.693986121857081,-0.780699482819425,0.693986121856236,0.282192641936591,-1.14982193402714,-1.12429881811522,0.280396420694868,0.509642414374298,NaN,NaN,0.659273617647049,0.784934450762569,0.460588046191053,0.144770684066496,NaN,-0.786378512047488,0.664555544011695,-0.25801017571292,0.719432754411918,-0.902862399368956,-0.902862399366013,-1.44590237243892,-0.598848993712057,-1.71471697685984,NaN,0.034987750650975,0.773115359540424,0.532377080917018,0.487408413808399,0.487408413807617,0.501828911861172,-0.501828911861402,0.0775380977332437
