time,S1-D1,S1-D8,S1-D9,S1-D15,S2-D1,S2-D2,S2-D3,S2-D9,S3-D1,S3-D2,S3-D16,S4-D2,S4-D3,S4-D5,S5-D3,S5-D4,S5-D5,S6-D2,S6-D5,S6-D17,S7-D6,S7-D7,S8-D6,S8-D7,S8-D18,S9-D3,S9-D4,S9-D9,S9-D11,S9-D19,S10-D8,S10-D9,S10-D10,S10-D11,S11-D8,S11-D10,S11-D20,S12-D10,S12-D11,S12-D12,S13-D4,S13-D11,S13-D12,S14-D10,S14-D12,S14-D21,S15-D13,S15-D14,S16-D13,S16-D14,S16-D22
176.2304,2.1623216448304,-2.11633043268374,0.211643660632177,-0.850104837548618,-0.235197211080538,-0.235197211076757,NaN,-0.572601135721375,0.538798563520278,0.887661702661993,-0.47369169026298,0.887661702663675,-2.45584970285834,-1.17507204718169,-2.68565184673801,NaN,1.00757201136641,-0.00485687927357631,-1.3953013278367,-0.66205447410849,-1.39530132783657,0.193883985097688,NaN,NaN,-0.0518765182842589,-1.52369162735084,NaN,NaN,0.193627340421395,0.286419088877781,0.361339342607739,0.320304575071319,0.394567668195844,1.652121090459,0.591275755573019,1.32323528306417,-0.598926270015345,0.640944476774801,0.640944476775728,0.216842069070284,0.445028552252544,1.36306474769447,0.192924465332997,0.0554464709252046,0.334647429767655,-1.64114148636032,-1.01380295457513,-1.01380295457588,1.19428348059838,-1.45836106857001,NaN
176.3328,2.18468160609012,-2.11574465854383,0.229467456386269,-0.853467969188053,-0.232919499085064,-0.232919499081255,NaN,-0.574750916017129,0.562216378007336,0.890606861849437,-0.45743953040174,0.890606861851097,-2.46922053453331,-1.18129198674038,-2.70019027269094,NaN,0.988627454952322,0.0122709906066685,-1.39390507977612,-0.677119189249069,-1.39390507977599,0.205239410022163,NaN,NaN,-0.0405229194454163,-1.53108077718015,NaN,NaN,0.177642906293701,0.308506990513263,0.372309895520475,0.327678399158411,0.405765466665798,1.69344177745327,0.622144539590244,1.3656541956524,-0.597614696594739,0.663988079808274,0.663988079809203,0.201022554129583,0.462731365760106,1.37121639731232,0.216472081103402,0.0372080088037368,0.339725030119101,-1.6825942382282,-1.02128405050861,-1.02128405050936,1.21843198672494,-1.4747530812411,NaN
176.4352,2.20673897894994,-2.11429703899824,0.247655257476748,-0.856531355749808,-0.230760613207766,-0.230760613203931,NaN,-0.576449518373512,0.585440545531018,0.89296448971394,-0.439611612029382,0.892964489715578,-2.48021111969868,-1.18757996505152,-2.71269319581861,NaN,0.968285268665001,0.029937005327663,-1.39154169607027,-0.692095060312031,-1.39154169607015,0.217028075589409,NaN,NaN,-0.0294326531640946,-1.53799857469621,NaN,NaN,0.160605379151801,0.330185267947119,0.382586032917125,0.334665277068642,0.416280997405926,1.73427668777437,0.652859996689854,1.40769593667538,-0.596324040761652,0.687027440061963,0.687027440062898,0.18487152945008,0.480406121978195,1.37868310985922,0.240193220661652,0.0187697282696116,0.344746474803111,-1.72366254851546,-1.02827303535881,-1.02827303535958,1.24190466146492,-1.48999762601425,NaN
176.5376,2.22849547666042,-2.11204427445052,0.266168944915017,-0.859347163257796,-0.228727581190002,-0.22872758118614,NaN,-0.577710961998281,0.608429063018133,0.894752980174589,-0.420222748466808,0.894752980176207,-2.48880592251121,-1.19395116321139,-2.72315425939031,NaN,0.946641344448378,0.0481134837462478,-1.38822983973285,-0.706926870796977,-1.38822983973273,0.229192147758363,NaN,NaN,-0.0186875014938618,-1.54445622075896,NaN,NaN,0.142488976382968,0.351369249854088,0.392150999401931,0.341278014020202,0.42610515956293,1.7745486240941,0.683353582656393,1.44927495225614,-0.595096786440326,0.710040752551516,0.710040752552452,0.168428466269481,0.498040036547634,1.38551185595581,0.264021174625739,0.000183082622883374,0.349697070980526,-1.76434458943785,-1.0348351273101,-1.03483512731087,1.26469467566025,-1.50410639049882,NaN
176.64,2.24994956287663,-2.10904128163955,0.284969109713441,-0.861968810432592,-0.226823999291901,-0.226823999288009,NaN,-0.578548059070254,0.631142974432948,0.895994073494044,-0.399291723654004,0.895994073495638,-2.49499802474098,-1.20041754943269,-2.73157308135565,NaN,0.923797597058979,0.0667718119280703,-1.38399069224656,-0.721559432925841,-1.38399069224644,0.241672004749347,NaN,NaN,-0.0083676396060041,-1.55046114478761,NaN,NaN,0.123273812612916,0.371975449602472,0.40099141600621,0.347531943622728,0.43523238473842,1.81418041684713,0.713559831323159,1.49030748971665,-0.593975660480749,0.733007847226502,0.733007847227441,0.151732198500118,0.515621138848065,1.39175015024838,0.287889708445576,-0.0185011651270027,0.354561766879281,-1.80464069355348,-1.04103703285394,-1.04103703285471,1.28679561781815,-1.51709393281796,NaN
176.7424,2.27109637914582,-2.1053408150268,0.304015259852835,-0.864450546612028,-0.225050058890916,-0.225050058886997,NaN,-0.578972285060669,0.653546617716085,0.896712764270352,-0.376841204586194,0.896712764271926,-2.49878914322891,-1.20698778751703,-2.73795522647423,NaN,0.899861355912325,0.085882624468788,-1.37884784974886,-0.73593788466178,-1.37884784974875,0.254406528459853,NaN,NaN,0.00144897954781208,-1.5560167867277,NaN,NaN,0.102946036100267,0.391922081444041,0.409097317932371,0.353444769474069,0.443660614416161,1.85309530879552,0.743416736258858,1.53071204709628,-0.593003244230226,0.755910154801538,0.755910154802478,0.134820783239797,0.533138171810354,1.39744557366547,0.311733487579869,-0.0372332660034563,0.35932525144631,-1.84455318815384,-1.04694646350651,-1.04694646350729,1.30820138732948,-1.52897754645836,NaN
176.8448,2.29192768257993,-2.10099313428116,0.323266003107203,-0.86684704788954,-0.223402616960468,-0.223402616956519,NaN,-0.578993692796805,0.675607797225791,0.896937176283278,-0.352897677409777,0.896937176284829,-2.50018960101148,-1.21366717302253,-2.74231215122211,NaN,0.874944730590963,0.105415976246864,-1.3728272111637,-0.750007961118933,-1.37282721116358,0.267333390597406,NaN,NaN,0.010687174955025,-1.56112242704471,NaN,NaN,0.0814978858535108,0.411129532105936,0.416462170146141,0.359036405762427,0.451391259398188,1.89121733056612,0.772866058377004,1.57040977436195,-0.592221611185333,0.778730652115303,0.778730652116245,0.117731393872045,0.550580483319777,1.40264533905852,0.335488470581935,-0.0559647635790063,0.363972076216938,-1.88408619656119,-1.05263167543497,-1.05263167543574,1.32890611384093,-1.53977712859448,NaN
176.9472,2.31243179604812,-2.09604571143796,0.342679212014111,-0.86921303296444,-0.221875305011965,-0.221875305007991,NaN,-0.578620859931184,0.697297892463819,0.896698410854949,-0.327491390215972,0.89669841085648,-2.49921825451358,-1.22045759984347,-2.7446611248377,NaN,0.849163952612554,0.125341498579899,-1.36595687077328,-0.763716251447455,-1.36595687077317,0.280389327998847,NaN,NaN,0.0192750316939266,-1.56577306493883,NaN,NaN,0.0589276934935799,0.429520789199415,0.423082868646993,0.364328821115645,0.458429148902491,1.92847166315666,0.801853569883371,1.60932482997244,-0.591671986342445,0.801453784812912,0.801453784813858,0.100500237042996,0.567937917399175,1.40739590136859,0.359092273906942,-0.0746487343624335,0.368486794296426,-1.92324542125009,-1.05816102813084,-1.05816102813162,1.34890409382313,-1.54951504631448,NaN
177.0496,2.33259357551149,-2.09054297885678,0.36221217380838,-0.871602893722503,-0.220458676287672,-0.220458676283674,NaN,-0.577860851330781,0.718591917333523,0.896030372587241,-0.300656291733738,0.89603037258875,-2.49590237496587,-1.22735756263743,-2.74502512746157,NaN,0.822638693121916,0.145628533696093,-1.35826701499846,-0.777010445436389,-1.35826701499834,0.293510401541913,NaN,NaN,0.0271443511654159,-1.56995934858792,NaN,NaN,0.0352398447083177,0.447021832547758,0.42895973355303,0.369345887976589,0.46478247497206,1.96478497938827,0.830329241070597,1.64738469181061,-0.591394418938747,0.824065360009881,0.824065360010829,0.0831624847977653,0.585200708021999,1.41174260200294,0.382484516714401,-0.0932400036754786,0.372854107924242,-1.96203791419491,-1.06360255749145,-1.06360255749223,1.36818973808531,-1.55821599679337,NaN
177.152,2.35239440442552,-2.08452612468206,0.381821728385363,-0.874070326075506,-0.219140394827718,-0.219140394823696,NaN,-0.576719184443058,0.739468539666357,0.894969565360366,-0.272429963340837,0.894969565361853,-2.4902774773261,-1.23436219850578,-2.74343272113381,NaN,0.795491358569703,0.166246249773999,-1.34978980404137,-0.789839567544963,-1.34978980404125,0.306632242553208,NaN,NaN,0.0342310662122204,-1.57366756375519,NaN,NaN,0.0104447036007285,0.463562002174777,0.434096490391575,0.374113233555552,0.470462728005263,2.00008575918623,0.858247373971851,1.68452042177246,-0.591427457243311,0.846552399137411,0.846552399138362,0.0657522202509507,0.602359371771068,1.41572933624252,0.405607149978585,-0.111695347360902,0.377059015536256,-2.00047183370935,-1.0690235548865,-1.06902355488728,1.38675752574922,-1.5659068569315,NaN
177.2544,2.37181222784291,-2.07803293908111,0.401464401854791,-0.876667947332955,-0.217905466250033,-0.217905466245988,NaN,-0.575199799707788,0.759910066440066,0.893554847548896,-0.242853542533499,0.89355484755036,-2.48238708875446,-1.24146336508532,-2.73991788540747,NaN,0.767846368871126,0.187163747712514,-1.34055921560445,-0.802154197164402,-1.34055921560433,0.319690303106204,NaN,NaN,0.040475622826275,-1.57687968366194,NaN,NaN,-0.0154415005514736,0.479074353723934,0.438500227375656,0.378658084255808,0.475484610971116,2.03430458154039,0.885566688964952,1.72066688923704,-0.591807819001151,0.868902948263253,0.868902948264205,0.0483024020602114,0.619404593688213,1.41939824148328,0.428404766794793,-0.129973678850538,0.381086954880185,-2.03855618858149,-1.0744901448017,-1.07449014480249,1.40460196360241,-1.57261651960571,NaN
177.3568,2.39082163399743,-2.0710977085071,0.421096543660792,-0.879446901834971,-0.21673650522441,-0.216736505220346,NaN,-0.573305046186101,0.779902398689007,0.891827142876603,-0.211971635580972,0.891827142878043,-2.47228245305772,-1.24864974803494,-2.73451981116491,NaN,0.739829419545529,0.208350170212894,-1.33061084659742,-0.813906676849921,-1.33061084659731,0.33262012698894,NaN,NaN,0.0458233212182272,-1.57957347715202,NaN,NaN,-0.042396823740322,0.493495998442049,0.442181317917486,0.383009097363219,0.479865921675546,2.06737440052827,0.912250370507401,1.75576296138199,-0.592570062952855,0.891105852437941,0.891105852438896,0.0308448512964963,0.636327106616629,1.42278941373081,0.450824889123246,-0.148036215893724,0.384923944039389,-2.07630057262765,-1.08006686180855,-1.08006686180934,1.42171755585449,-1.5783757188217,NaN
177.4592,2.40939398235305,-2.06375115297655,0.440674469963237,-0.882456471332037,-0.215614033104648,-0.215614033100572,NaN,-0.57103568946482,0.799434959676372,0.889829111197165,-0.179832222627143,0.889829111198582,-2.46002217407581,-1.25590699078884,-2.72728265186847,NaN,0.711566726595541,0.229774816469051,-1.31998168752358,-0.825051310251975,-1.31998168752347,0.345357643149325,NaN,NaN,0.0502246057109189,-1.5817226681924,NaN,NaN,-0.0703937935782586,0.506768416927289,0.445153305681787,0.387196179011983,0.483627400599928,2.09923081084002,0.938266074046008,1.78975166475748,-0.59374627455171,0.913150505800388,0.913150505801343,0.0134102566686767,0.653117573289201,1.4259406645749,0.47281822949567,-0.165846623409412,0.388556723471716,-2.11371489096158,-1.08581623434673,-1.08581623434751,1.43809879327458,-1.58321684923053,NaN
177.5616,2.42749756982626,-2.05602039877771,0.460154612098658,-0.885743706050565,-0.214516795581877,-0.214516795577789,NaN,-0.568390941729503,0.818500599447646,0.887604788140158,-0.146486561522625,0.887604788141553,-2.44567180725029,-1.26321783967209,-2.71825523702477,NaN,0.683184256833433,0.25140725915131,-1.30870988638826,-0.83554455263089,-1.30870988638815,0.357839469309724,NaN,NaN,0.0536352995760584,-1.58329713638009,NaN,NaN,-0.099399627643353,0.518837739862686,0.447432756019866,0.391250292042219,0.486792548576158,2.12981230420711,0.963585895192977,1.82258031958339,-0.595365776972679,0.935026593196651,0.935026593197604,-0.0039718100894255,0.669766482783795,1.42888732812731,0.494338929491036,-0.183371131377749,0.391972903005108,-2.15080907805707,-1.0917983833038,-1.09179838330458,1.45374016734647,-1.5871737833903,NaN
177.664,2.44509782440358,-2.04792897584268,0.479493669217715,-0.889353083091224,-0.2134220862071,-0.213422086203002,NaN,-0.565368511458829,0.837095476971087,0.885199206122058,-0.111989091117471,0.88519920612343,-2.42930341216498,-1.27056229764514,-2.70749075580626,NaN,0.654806951022908,0.273217457304193,-1.29683451133997,-0.845345199648335,-1.29683451133986,0.370003212407244,NaN,NaN,0.0560167906537501,-1.5842631465771,NaN,NaN,-0.129376478461465,0.52965499543373,0.449039080278895,0.395203259744907,0.489387421469245,2.15906051531213,0.988186306439357,1.85420064898186,-0.597454871649596,0.95672384047223,0.956723840473184,-0.0212728731356801,0.686264064447201,1.43166211615813,0.515344779049683,-0.200578628426025,0.395161118238909,-2.18759281058218,-1.09807064096182,-1.0980706409626,1.46863620803009,-1.59028168664016,NaN
177.7664,2.46215751982849,-2.03949683231312,0.498648765369937,-0.893326191126836,-0.212306065568986,-0.212306065564878,NaN,-0.561964671215062,0.85521891738329,0.882658006539791,-0.076397329218768,0.882658006541139,-2.41099507580737,-1.27791778274301,-2.69504641744807,NaN,0.626557945740212,0.295175860731385,-1.28439531370361,-0.854414578472759,-1.2843953137035,0.381787759804418,NaN,NaN,0.0573361784185183,-1.58458360045571,NaN,NaN,-0.160281702118703,0.539176327903839,0.449994339642979,0.399087572708338,0.491440409572837,2.1869204554277,1.01204806880136,1.88456886639354,-0.600036605733413,0.978231784406681,0.978231784407635,-0.0384655247418077,0.702600213007552,1.43429500984303,0.535797419475921,-0.217440734053524,0.39811119591118,-2.22407521970126,-1.10468719368188,-1.10468719368266,1.48278154269221,-1.59257682980172,NaN
177.8688,2.47863701489098,-2.03074036626738,0.517577613810137,-0.897701433490695,-0.211144074910486,-0.211144074906375,NaN,-0.558174342923921,0.872873239495485,0.880027041990301,-0.039771758555102,0.880027041991625,-2.39083040822691,-1.2852592909797,-2.68098308976812,NaN,0.598557794991681,0.317253508208877,-1.27143248760342,-0.862716740979944,-1.27143248760332,0.39313356301326,NaN,NaN,0.0575663937879419,-1.58421831034374,NaN,NaN,-0.192068148651529,0.547363198619721,0.45032303296573,0.402936205111493,0.492982007382841,2.21334073512846,1.03515612521512,1.91364574592687,-0.603130557828425,0.999539561750291,0.999539561751245,-0.0555233896424199,0.718764419081223,1.43681317791743,0.555662527071004,-0.233931852810173,0.400814319443032,-2.26026460627634,-1.11169874949708,-1.11169874949786,1.49617097827789,-1.59409640284103,NaN
177.9712,2.49449452967359,-2.02167247621128,0.536238697034227,-0.902513734827246,-0.209910947284736,-0.209910947280621,NaN,-0.553991204613796,0.890063550833873,0.877351958541332,-0.00217569053727822,0.877351958542631,-2.3688980062593,-1.2925595636158,-2.66536491200066,NaN,0.570923689259386,0.339422128598023,-1.25798641728062,-0.870218660455098,-1.25798641728051,0.403982921129411,NaN,NaN,0.0566863016165274,-1.58312429872115,NaN,NaN,-0.224684469256846,0.554182586147865,0.450051868095908,0.406782440691994,0.494044573427445,2.23827378177786,1.05749948503519,1.94139668444848,-0.606752629573491,1.020635707705,1.02063570770595,-0.0724210847090579,0.734745706261034,1.43924091775523,0.574909971470973,-0.250029212514207,0.403263183834827,-2.29616816420823,-1.11915222728393,-1.11915222728472,1.50879960919665,-1.59487833228459,NaN
178.0736,2.50968647227094,-2.01230262841395,0.554591474407536,-0.90779423661406,-0.208581317596955,-0.208581317592846,NaN,-0.549407830133842,0.906797511877587,0.874677750974113,0.0363249057409945,0.874677750975386,-2.34529088016566,-1.29978925580757,-2.64825887606702,NaN,0.543768670197377,0.361654254883151,-1.24409739954231,-0.876890438814706,-1.2440973995422,0.414280273191661,NaN,NaN,0.0546807894479114,-1.58125612528522,NaN,NaN,-0.25807543169466,0.559607196351569,0.449209511679808,0.410659700211768,0.494662073435722,2.26167605872657,1.0790711115935,1.96779176646369,-0.610914834197475,1.04150795489331,1.04150795489427,-0.0891341819122119,0.750532582400218,1.44159962069506,0.593513947632261,-0.265712887959539,0.405452136440139,-2.3317917207731,-1.12709045926514,-1.12709045926593,1.5206629491829,-1.59496110076321,NaN
178.176,2.5241678201892,-2.00263693863145,0.572596622372203,-0.913569982130419,-0.207129930232362,-0.207129930228262,NaN,-0.544415872164267,0.923085072448905,0.872048296554306,0.0756616153515365,0.872048296555554,-2.32010584105477,-1.30691710355796,-2.62973437298405,NaN,0.517200844310123,0.383923354569299,-1.22980533532175,-0.882705530556148,-1.22980533532164,0.423972506006133,NaN,NaN,0.0515408347899245,-1.57856624127789,NaN,NaN,-0.292182236392806,0.563615674785691,0.44782631465088,0.414601359166495,0.494869800879342,2.28350828822122,1.09986781901246,1.99280583656469,-0.615625087082064,1.06214303501135,1.06214303501231,-0.105639182379862,0.766113013036114,1.4439077639346,0.611453083768788,-0.280965808053131,0.40737730961264,-2.36713950044852,-1.13555190027894,-1.13555190027973,1.53175708261142,-1.59438356385827,NaN
178.2784,2.53789254415413,-1.99267826868902,0.590216297347611,-0.919863614203545,-0.205531941883519,-0.205531941879431,NaN,-0.539006284410124,0.938938181932996,0.8695058870048,0.115763824340995,0.869505887006021,-2.2934428546395,-1.31391009060684,-2.60986271000156,NaN,0.491322608504201,0.40620396934065,-1.2151494025443,-0.887640979470765,-1.21514940254419,0.43300927446176,NaN,NaN,0.0472635365171199,-1.57500536658543,NaN,NaN,-0.326942831367799,0.566192796132943,0.44593401944709,0.418640549356883,0.494704077581363,2.30373566959154,1.11989017240217,2.01641857103893,-0.620887017812492,1.08252649548352,1.08252649548448,-0.121913500829999,0.781474414352845,1.44618092477696,0.628710521882109,-0.295773736710351,0.409036754615627,-2.40221391141309,-1.14457034583229,-1.14457034583308,1.54207882852928,-1.59318476163818,NaN
178.3808,2.5508140503226,-1.98242633998162,0.60741440119319,-0.926693117650241,-0.20376321608362,-0.203763216079537,NaN,-0.533169565148189,0.954370475040489,0.867090783278852,0.156558988718512,0.867090783280048,-2.26540437691417,-1.3207336206058,-2.58871661452104,NaN,0.466229910990628,0.428471850652703,-1.20016773503869,-0.891677652784266,-1.20016773503858,0.441343318411448,NaN,NaN,0.0418521004614095,-1.57052288020578,NaN,NaN,-0.362292227596822,0.567329603538066,0.443565460176599,0.422809946698788,0.494201944127924,2.3223280768382,1.13914237815824,2.03861453151361,-0.626699824247609,1.10264254199293,1.1026425419939,-0.137935448692101,0.7966036498535,1.44843180530335,0.645273961254369,-0.310125215466381,0.410430581273041,-2.43701534976358,-1.15417466818423,-1.15417466818502,1.55162590705089,-1.59140372719102,NaN
178.4832,2.56288561994743,-1.97187786552886,0.624156831777019,-0.934071626478449,-0.201800604310207,-0.201800604306138,NaN,-0.526896004399789,0.969396935428675,0.864840808428373,0.197972914780181,0.864840808429543,-2.23609469043854,-1.32735169844789,-2.56636974284555,NaN,0.442011572930399,0.45070408116511,-1.18489712741508,-0.89480045410585,-1.18489712741498,0.448930755434165,NaN,NaN,0.0353157781913893,-1.56506721499926,NaN,NaN,-0.398162816211452,0.567023484804918,0.440754263019381,0.427141553933908,0.493400848772669,2.33926022410621,1.15763215322007,2.05938318734366,-0.633058178764733,1.1224739108282,1.12247391082919,-0.153684202718893,0.811487015999468,1.4506702607298,0.661135658919056,-0.32401146519305,0.411561099174883,-2.4715420191413,-1.16438858072775,-1.16438858072854,1.56039709656992,-1.58907929524498,NaN
178.5856,2.57406083614482,-1.96102670169449,0.64041170981564,-0.942007299404606,-0.199622209127161,-0.199622209123105,NaN,-0.520175924873025,0.984033540273826,0.86279098218968,0.239930045317991,0.862790982190825,-2.20561925389936,-1.33372712223856,-2.54289620546596,NaN,0.418748685236953,0.472879178275974,-1.16937277507622,-0.896998502003292,-1.16937277507611,0.455731336744252,NaN,NaN,0.027669762894001,-1.55858625302147,NaN,NaN,-0.434484689413501,0.565278188095728,0.437534550148543,0.431666487957386,0.492338340682189,2.35451179746399,1.17537056789145,2.07871890267569,-0.639952187557494,1.14200177303459,1.14200177303559,-0.169139756650115,0.826110217636186,1.45290333780046,0.676292389044679,-0.337426256346407,0.412432949516461,-2.50578976878094,-1.17523043817578,-1.17523043817657,1.5683923729444,-1.58624991049714,NaN
178.688,2.58429399394836,-1.94986402044778,0.656149578402126,-0.950503257563486,-0.197207629689768,-0.197207629685726,NaN,-0.512999909527819,0.998296892460065,0.860973199064913,0.282353749897288,0.860973199066033,-2.17408407046553,-1.33982168810477,-2.51837011470749,NaN,0.396514080390564,0.49497717682514,-1.15362805430009,-0.898265268634088,-1.15362805429999,0.461708665071854,NaN,NaN,0.0189350474852597,-1.55102772237781,NaN,NaN,-0.471185968278422,0.562103786497933,0.433940654079612,0.436414779490841,0.491051775599624,2.36806755612083,1.19237185995129,2.09662088872947,-0.64736739989835,1.16120567271533,1.16120567271633,-0.184282863635598,0.840458344954427,1.45513533388891,0.690745364994411,-0.350365761217295,0.41305321328137,-2.53975195619876,-1.18671307689281,-1.18671307689359,1.57561302430198,-1.5829534340097,NaN
178.7904,2.59354049447002,-1.93837850302034,0.671343575267755,-0.959557573118674,-0.1945381959972,-0.194538195993185,NaN,-0.505359005249211,1.01220385213935,0.85941595298827,0.325166620272345,0.859415952989365,-2.141595075876,-1.34559641125042,-2.49286515715479,NaN,0.375371870569466,0.516979686008413,-1.13769434603194,-0.898598678143682,-1.13769434603184,0.466830380755331,NaN,NaN,0.00913825179536006,-1.54233959859349,NaN,NaN,-0.508193138563825,0.55751660192869,0.430006853833389,0.441415189054243,0.489578044317873,2.37991740661455,1.20865322032288,2.11309312354833,-0.65528486100234,1.18006349651312,1.18006349651413,-0.199094976841424,0.854515860901649,1.45736788193482,0.704500128085785,-0.362828402230591,0.413431481003522,-2.57341934232779,-1.1988436956669,-1.19884369566768,1.58206173501434,-1.57922694761349,NaN
178.8928,2.60175722880177,-1.92655655507122,0.685969582086602,-0.96916329409619,-0.191597199290283,-0.191597199286294,NaN,-0.497244890527192,1.02577118146266,0.858144108014052,0.368290776783387,0.858144108015124,-2.10825754485714,-1.35101176534508,-2.46645419061803,NaN,0.355377043116752,0.538869917713048,-1.1216009018135,-0.898001167876805,-1.12160090181341,0.471068324870334,NaN,NaN,-0.00168857106682442,-1.53247051308011,NaN,NaN,-0.545431390397201,0.551539098998545,0.42576714089909,0.446695037488435,0.487953329748616,2.39005645152925,1.22423455643921,2.12814424370298,-0.663681196935461,1.19855146228149,1.19855146228252,-0.213558193258063,0.868266601525644,1.45960005708053,0.71756641202576,-0.374814712440297,0.413579872890512,-2.60678002726056,-1.21162377175667,-1.21162377175746,1.58774263266031,-1.57510655678723,NaN
178.9952,2.60890295667053,-1.91438254065423,0.700006356610511,-0.979308490689185,-0.188370119404509,-0.188370119400538,NaN,-0.488649998685897,1.0390152137814,0.857178710475896,0.411648195879008,0.857178710476942,-2.07417551556952,-1.35602793859499,-2.43920886460296,NaN,0.336575112000261,0.560632689275449,-1.10537474298115,-0.896479716305505,-1.10537474298105,0.474398684513295,NaN,NaN,-0.0135081373394008,-1.52137016744742,NaN,NaN,-0.582824955706018,0.544199756575978,0.421255012597904,0.452280045078417,0.486212888695719,2.3984850096012,1.2391382454648,2.14178741313498,-0.672528716880783,1.21664411345388,1.21664411345492,-0.227655206398514,0.881693786902505,1.46182848925247,0.729957993754374,-0.386327220449165,0.4135130060222,-2.63981943050698,-1.22504900526131,-1.22504900526209,1.59266129638951,-1.57062719360966,NaN
179.0976,2.61493868040107,-1.90183903118269,0.713435650713847,-0.989976314409773,-0.184844841990454,-0.184844841986508,NaN,-0.479567593973119,1.0519515530387,0.85653683917033,0.455161065835458,0.856536839171355,-2.0394512330996,-1.3606051011449,-2.4111992626509,NaN,0.31900183451813,0.582254407784068,-1.08904058127861,-0.894045836675298,-1.08904058127852,0.476802114854671,NaN,NaN,-0.02627813811237,-1.50898974867792,NaN,NaN,-0.620297445450977,0.535532916556631,0.41650328064245,0.458194173475386,0.484390846674009,2.40520860156136,1.25338888749372,2.15404017165399,-0.681795523574931,1.23431431652846,1.23431431652952,-0.241369269439767,0.894780033836701,1.46404745986146,0.741692535415096,-0.397370360584219,0.413247913679812,-2.67252031007949,-1.23910929008497,-1.23910929008574,1.59682473301417,-1.56582242548894,NaN
179.2,2.61982801322054,-1.8889070718947,0.72624231185372,-1.00114507534166,-0.181011859141569,-0.181011859137647,NaN,-0.469991803444349,1.06459480084072,0.856231495555604,0.49875216576605,0.856231495556609,-2.00418460936055,-1.36470368020737,-2.38249356256515,NaN,0.3026830054288,0.603723041614299,-1.0726207540801,-0.890715525873854,-1.07262075408,0.478263823728414,NaN,NaN,-0.0399514553187312,-1.49528234346708,NaN,NaN,-0.65777220080751,0.525578599020363,0.411543882924881,0.464459465157529,0.482519994483787,2.41023789793389,1.26701305683295,2.16492425974872,-0.691445637131391,1.2515332713115,1.25153327131256,-0.254684163355989,0.907507359602423,1.46624896988279,0.752791417975878,-0.407950403259255,0.412803924749569,-2.704862807319,-1.25378871532893,-1.2537887153297,1.60024133231727,-1.56072427768346,NaN
179.3024,2.62353754205512,-1.8755664760403,0.738414360950534,-1.01278835549627,-0.176864454496554,-0.176864454492659,NaN,-0.459917613065315,1.07695830015108,0.856271540659788,0.542345253269991,0.85627154066077,-1.96847269230507,-1.36828464661236,-2.35315771009526,NaN,0.287634332636511,0.625028078963387,-1.05613517755041,-0.886509152617592,-1.05613517755032,0.478773607993288,NaN,NaN,-0.0544764051684991,-1.4802033578856,NaN,NaN,-0.695172672827431,0.514382269299079,0.406407697148832,0.471095873398592,0.480631583099468,2.41358862843725,1.28003903915029,2.17446541241611,-0.701439149656858,1.26827054543571,1.26827054543678,-0.267584165301161,0.919857175078199,1.46842278471915,0.763279568314444,-0.418075404351813,0.412202507278214,-2.73682450859565,-1.26906560007842,-1.26906560007919,1.60292081130128,-1.55536307416286,NaN
179.4048,2.62603718316999,-1.86179615286013,0.749943041181306,-1.02487517452435,-0.172398875335644,-0.17239887533178,NaN,-0.449340841133995,1.08905388512143,0.856661684505683,0.585865446709011,0.856661684506642,-1.9324091418618,-1.37130981775291,-2.32325510617054,NaN,0.273861390885078,0.646160469136462,-1.03960132704927,-0.881451275275885,-1.03960132704919,0.478325842205746,NaN,NaN,-0.0697970216647449,-1.46371094728213,NaN,NaN,-0.732422832278388,0.501994548686583,0.401124364117336,0.478121077720136,0.47875512143022,2.41528145533329,1.29249654572427,2.18269311831978,-0.711732426346781,1.2844941387491,1.28449413875018,-0.280054019776435,0.931810277224496,1.47055647240637,0.773185278425289,-0.427755173022696,0.411467075221655,-2.76838052590369,-1.28491256001525,-1.28491256001601,1.60487415156224,-1.54976729670079,NaN
179.5072,2.62730052174729,-1.84757445992798,0.760822837309343,-1.03737021200976,-0.167614486129104,-0.167614486125276,NaN,-0.438258107303572,1.1008916404778,0.857402529533307,0.629239591036731,0.857402529534245,-1.89608372357607,-1.37374217099114,-2.2928463144298,NaN,0.261359651746767,0.667112544032225,-1.02303424912046,-0.875570394805171,-1.02303424912037,0.476919424532842,NaN,NaN,-0.085853383965346,-1.44576644712071,NaN,NaN,-0.76944759571336,0.488470867547929,0.395722130183716,0.485550288996883,0.47691818591817,2.41534181205346,1.30441640830153,2.18964034709904,-0.722278356772819,1.30017057565839,1.30017057565947,-0.292078920547944,0.943346853753133,1.47263544770523,0.782540004753006,-0.437001247029352,0.410622758171501,-2.79950360075691,-1.30129660240233,-1.30129660240309,1.606113530003,-1.54396346067247,NaN
179.6096,2.62730511937925,-1.83287955858428,0.771051467872207,-1.05023408315345,-0.162513890817634,-0.162513890813843,NaN,-0.426666819473827,1.11247968809628,0.858490667700768,0.672396596330864,0.858490667701685,-1.85958184127686,-1.37554615020159,-2.26198879942283,NaN,0.250114593693682,0.687877921052436,-1.00644659782911,-0.868898660493178,-1.00644659782903,0.474557680933024,NaN,NaN,-0.102581987767912,-1.42633478316768,NaN,NaN,-0.806173242683661,0.473871060678424,0.390227716780897,0.493396056969543,0.47514625252523,2.41379970429388,1.31583026542767,2.19534324946228,-0.733026650603798,1.31526501688844,1.31526501688953,-0.303644511844916,0.954446507215678,1.47464302150318,0.791378130042807,-0.445826855431083,0.409696139507117,-2.83016423021095,-1.31817924862532,-1.31817924862608,1.60665224102017,-1.53797600610986,NaN
179.712,2.62603277415729,-1.81768975399617,0.780629851143836,-1.0634236628612,-0.157103013380187,-0.157103013376436,NaN,-0.414565195241006,1.12382401978523,0.859918832718596,0.715267743683542,0.859918832719492,-1.82298412765574,-1.37668794948836,-2.23073670438206,NaN,0.240101897494263,0.708451388876704,-0.989848681057076,-0.861471545203233,-0.989848681057003,0.471248225642901,NaN,NaN,-0.119916158987723,-1.40538484211254,NaN,NaN,-0.842527799621161,0.458258904880417,0.38466622280857,0.501668094102872,0.473462560349979,2.41068946857356,1.32677024793231,2.19984083154783,-0.743924168994591,1.32974138068939,1.32974138069048,-0.314736914175939,0.965088298694447,1.47656044585991,0.79973667888873,-0.454246855461632,0.408714970216528,-2.8603308135262,-1.33551668739992,-1.33551668740067,1.60650460710568,-1.53182720322075,NaN
179.8144,2.62346972548852,-1.8019838158362,0.789562041530792,-1.07689244939303,-0.151391137496953,-0.151391137493238,NaN,-0.401952321799149,1.13492838660378,0.861676108939857,0.757786964452729,0.861676108940732,-1.78636610047527,-1.37713577020441,-2.19914067344776,NaN,0.231287729640188,0.728828774296728,-0.973248506044375,-0.853327496178552,-0.973248506044309,0.467002774827592,NaN,NaN,-0.13778650353643,-1.38288979743561,NaN,NaN,-0.878441379778207,0.441701603867545,0.379061062759807,0.510373126268725,0.471888012656172,2.40604948369019,1.33726866161018,2.20317459970752,-0.754915281648994,1.34356246803623,1.34356246803733,-0.325342774338499,0.975250806353656,1.47836694532712,0.807654991621057,-0.462277646361523,0.407707860535096,-2.88996982178882,-1.35325996374781,-1.35325996374856,1.60568587560754,-1.52553707308614,NaN
179.9168,2.61960680401116,-1.78574128607392,0.797855132173068,-1.09059095375826,-0.145390915799916,-0.145390915796234,NaN,-0.388828251182336,1.14579424455007,0.863748191196675,0.799891104144414,0.86374819119753,-1.74979788194003,-1.3768600560721,-2.16724771846024,NaN,0.223629111483304,0.749006789579447,-0.956651824036285,-0.844507562993535,-0.956651824036226,0.461836910698476,NaN,NaN,-0.156121381923096,-1.35882739586139,NaN,NaN,-0.913846481785494,0.424269234224798,0.373433939907437,0.519514776400322,0.470441116814403,2.39992183278889,1.3473576614191,2.20538817106434,-0.765942237433884,1.35669008951124,1.35669008951234,-0.335449334835787,0.984912192007097,1.48003972888522,0.815174365385693,-0.469937068677668,0.406703948949711,-2.9190459901672,-1.37135520701436,-1.37135520701511,1.60421210011962,-1.51912332265131,NaN
180.0192,2.61443953261199,-1.76894277434305,0.805519128103493,-1.10446710171428,-0.139118355210563,-0.139118355206919,NaN,-0.375194126689606,1.15642074724964,0.866117679359822,0.841520175173886,0.866117679360657,-1.71334397466019,-1.37583370700267,-2.13510112489335,NaN,0.217074366802627,0.76898286910245,-0.940062182161716,-0.835055011932747,-0.940062182161663,0.455769800513265,NaN,NaN,-0.174847393891477,-1.33318020755269,NaN,NaN,-0.94867825006611,0.406034171898447,0.367804850241154,0.529093482336069,0.469137960126629,2.39235192089041,1.35706892284504,2.20652685599628,-0.776945536339632,1.36908519115435,1.36908519115546,-0.345044519936051,0.9940502730096,1.48155398193271,0.822337670923381,-0.477244292301415,0.405732555149745,-2.94752252466555,-1.38974389453217,-1.38974389453293,1.60210000448243,-1.51260128801908,NaN
180.1216,2.60796818456066,-1.75157022882676,0.81256680304038,-1.11846664276751,-0.132592772360599,-0.132592772356994,NaN,-0.361052332001774,1.16680477015206,0.868764389484395,0.88261759036236,0.868764389485212,-1.67706309025455,-1.37403226366777,-2.1027403897593,NaN,0.211563639280863,0.788755009285753,-0.923480992687602,-0.825014941926683,-0.923480992687555,0.44882388268538,NaN,NaN,-0.193889858726673,-1.30593583484183,NaN,NaN,-0.982874695447726,0.387070517069641,0.362192110887623,0.539106446610706,0.467992215791153,2.38338806175061,1.36643332913825,2.20663723162323,-0.787864296850156,1.38070797997898,1.38070797998009,-0.354117038635425,1.00264260420724,1.48288284799109,0.829188958133872,-0.484219694339543,0.404822832677519,-2.97536130888245,-1.40836314236395,-1.4083631423647,1.59936683279126,-1.50598388161457,NaN
180.224,2.60019779966085,-1.733607170384,0.819013549057257,-1.13253356820357,-0.125836708773409,-0.125836708769841,NaN,-0.346406647228642,1.17694095176368,0.871665672154316,0.92313036232509,0.871665672155113,-1.64100803240954,-1.37143405520166,-2.070201189479,NaN,0.207029470437766,0.808321617539754,-0.906907627414374,-0.814433911818496,-0.906907627414333,0.44102453046283,NaN,NaN,-0.213173283005758,-1.2770870724718,NaN,NaN,-1.01637687506517,0.367453528280788,0.356612407365544,0.549547616712827,0.467015174012808,2.37308105018539,1.37548068874329,2.20576672417584,-0.798636622345656,1.39151805856192,1.39151805856304,-0.36265649934768,1.01066657429533,1.48399741920778,0.835773065035794,-0.49088472917999,0.404003437237527,-3.00252309471208,-1.42714601702038,-1.42714601702114,1.59603020042259,-1.49928154991908,NaN
180.3264,2.59113815612978,-1.71503888835631,0.824877218432875,-1.14661054000828,-0.118875803259513,-0.118875803255983,NaN,-0.331262394499166,1.18682174446816,0.874796735732475,0.963009256687627,0.874796735733254,-1.60522563768928,-1.36802030961376,-2.03751538038272,NaN,0.203397423261245,0.827681364897098,-0.890339538840552,-0.803359581706787,-0.890339538840518,0.432399698962678,NaN,NaN,-0.232621815186456,-1.24663201846714,NaN,NaN,-1.04912903734399,0.347259071077066,0.351080855371327,0.560407697508043,0.466215795391696,2.36148373191695,1.38423948175136,2.20396320672143,-0.809199973386047,1.40147458204015,1.40147458204127,-0.370653523232516,1.01809951379777,1.48486675434779,0.842135235986893,-0.49726179065706,0.403302218562618,-3.02896766761294,-1.44602186514499,-1.44602186514574,1.59210796420547,-1.49250225412658,NaN
180.4288,2.58080369874564,-1.69585260436638,0.830177953710388,-1.16063932500646,-0.111738629407116,-0.111738629403617,NaN,-0.315626564654961,1.19643747167108,0.87813096936547,1.00220889426488,0.87813096936623,-1.56975677195857,-1.36377523141475,-2.00471103210085,NaN,0.200586732404998,0.846833036500978,-0.873772400940851,-0.791840369771881,-0.873772400940823,0.42297956339297,NaN,NaN,-0.252159688294389,-1.21457414193855,NaN,NaN,-1.08107874451049,0.326563086735797,0.345611073052236,0.571674198438101,0.465600784234902,2.34865057888545,1.39273662663925,2.20127461189566,-0.819491546993612,1.41053644256335,1.41053644256448,-0.378099843943107,1.02491880900557,1.48545793516003,0.848320747409187,-0.503374064060251,0.402745936740539,-3.05465398847849,-1.46491665645502,-1.46491665645578,1.58761811955699,-1.48565147864077,NaN
180.5312,2.56921342854366,-1.67603761039597,0.834938005703668,-1.17456122278525,-0.10445651045547,-0.104456510452005,NaN,-0.299507930728001,1.20577638685726,0.881640255492047,1.04068780613443,0.88164025549279,-1.53463637501966,-1.35868605117936,-1.97181248963888,NaN,0.19851096472956,0.865775380148605,-0.857200257834734,-0.779925127760054,-0.857200257834712,0.412796161106961,NaN,NaN,-0.271711647180653,-1.18092231631896,NaN,NaN,-1.11217698357615,0.30544108984142,0.340215260212269,0.5833315149708,0.465174678782634,2.33463727502053,1.40099726357352,2.19774856044632,-0.829448657106649,1.41866247407222,1.41866247407336,-0.384988389354474,1.03110201889972,1.48573616310248,0.854374542500382,-0.509245369480367,0.402360002824859,-3.07954032146564,-1.48375333367773,-1.48375333367849,1.58257872147022,-1.47873226262075,NaN
180.6336,2.55639076028269,-1.65558538277006,0.839181543165133,-1.18831747855936,-0.0970633192093238,-0.0970633192058935,NaN,-0.282917160587448,1.21482473095711,0.885295265244124,1.07840845481639,0.88529526524485,-1.49989354678938,-1.35274304893624,-1.93884045922853,NaN,0.197078683676702,0.884506956428946,-0.840615673545291,-0.767662839332858,-0.840615673545275,0.401883050939355,NaN,NaN,-0.291203352920959,-1.14569082175729,NaN,NaN,-1.14237826529098,0.283967701315752,0.334904283898623,0.595361039936039,0.464939956457437,2.31950031462742,1.4090445593177,2.19343200978867,-0.839009109402192,1.42581166872563,1.42581166872677,-0.391313349313069,1.03662699689255,1.485664892746,0.860340883670619,-0.514900003604513,0.402168245124289,-3.10358435791349,-1.50245216463559,-1.50245216463636,1.57700782257159,-1.47174524645428,NaN
180.736,2.54236335002707,-1.63448966983913,0.842934457477637,-1.20184968097061,-0.0895952606121815,-0.0895952606087853,NaN,-0.265866933557626,1.22356679002188,0.889065740024886,1.115337233815,0.889065740025596,-1.46555167160358,-1.34593954950591,-1.90581211410718,NaN,0.196194123772211,0.903025994553632,-0.82400988450134,-0.755102339820954,-0.824009884501331,0.390274995708353,NaN,NaN,-0.310561761130843,-1.10889931364417,NaN,NaN,-1.17164070457404,0.262216213604364,0.329687773904136,0.607741299414267,0.464897155181795,2.30329661162668,1.41689954141491,2.18837092597624,-0.848111569077534,1.43194340427085,1.431943404272,-0.39707023747862,1.04147202278762,1.48520599822598,0.866263033092937,-0.520362588210884,0.40219270311758,-3.12674333892286,-1.52093109737637,-1.52093109737714,1.57092342426109,-1.46468872945224,NaN
180.8384,2.52716289108376,-1.61274655043194,0.846224163036937,-1.21510015391358,-0.0820906271241953,-0.0820906271208364,NaN,-0.248372052893461,1.23198496118531,0.892920767981413,1.15144444242251,0.892920767982106,-1.43162858007709,-1.33827188556872,-1.87274121774566,NaN,0.195757889082769,0.921330257917464,-0.807372959072226,-0.742292045391435,-0.807372959072224,0.378007660639195,NaN,NaN,-0.329715479571249,-1.0705727515432,NaN,NaN,-1.19992608584685,0.240258176147802,0.324574232327634,0.620448109127005,0.465045012719629,2.28608311398508,1.42458096446093,2.18260997735873,-0.856695927053985,1.43701768630886,1.43701768631003,-0.402255950712141,1.0456159469317,1.48431997046592,0.872182966641153,-0.52565792935508,0.4024534502641,-3.148974166327,-1.53910612815061,-1.53910612815138,1.56434344468452,-1.45755874508062,NaN
180.9408,2.51082487719517,-1.59035445946802,0.849079394980488,-1.22801235423939,-0.0745895168831282,-0.0745895168798054,NaN,-0.230449542017557,1.24005983604189,0.89682906161173,1.18670422042932,0.896829061612407,-1.39813675255649,-1.32973932486766,-1.83963826634078,NaN,0.195667685031461,0.939416921254095,-0.790693963522842,-0.72927967810134,-0.790693963522846,0.365117315969733,NaN,NaN,-0.348595114705454,-1.03074128367135,NaN,NaN,-1.2271999258643,0.218162990150439,0.319571156815996,0.63345474880778,0.46538062290341,2.26791641901555,1.43210520577027,2.17619224579863,-0.864703672461228,1.44099540751072,1.4409954075119,-0.406868823342026,1.04903834198665,1.4829661403951,0.878141118399999,-0.530810885034389,0.402968445150461,-3.17023348963547,-1.55689169389959,-1.55689169390035,1.55728571354032,-1.45034916678847,NaN
181.0432,2.49338833520616,-1.5673141756446,0.851530009529218,-1.24053128117422,-0.067133509186568,-0.067133509183286,NaN,-0.212118718269248,1.2477703041798,0.900759238198792,1.22109442977333,0.900759238199453,-1.36508357312485,-1.32034396137948,-1.80651065827645,NaN,0.195819083371115,0.957282457037484,-0.773961126889613,-0.716111982903765,-0.773961126889626,0.351640539120851,NaN,NaN,-0.36713361593605,-0.989440084199413,NaN,NaN,-1.25343153896781,0.195997507736174,0.314685172482469,0.646732153606819,0.465899604441582,2.24885239033231,1.4394861864242,2.16915895358686,-0.87207827593184,1.44383862339986,1.44383862340105,-0.410908675639839,1.05171965878288,1.48110292183201,0.884176147313144,-0.53584623525267,0.403753408503095,-3.19047776829471,-1.57420109158578,-1.57420109158654,1.54976800202575,-1.44305185436811,NaN
181.1456,2.47489552893802,-1.5436287665493,0.853606791526423,-1.25260389540337,-0.0597652957381038,-0.0597652957348586,NaN,-0.19340124465184,1.2550936715222,0.9046801042666,1.25459647810782,0.904680104267246,-1.33247164380303,-1.31009057367249,-1.77336290044365,NaN,0.196106316114184,0.974922525460451,-0.757161997782378,-0.702834440197497,-0.757161997782399,0.337613917790178,NaN,NaN,-0.38526662239321,-0.94670914336089,NaN,NaN,-1.27859409523354,0.173825634901929,0.309922168968167,0.660249124532885,0.466596280155606,2.22894577907223,1.44673531561045,2.16154920639527,-0.8787655838546,1.44551084600707,1.44551084600828,-0.414376860878157,1.05364138992933,1.47868807367483,0.890324719143338,-0.540788549728971,0.404821723836995,-3.209663317237,-1.59094691714124,-1.59094691714199,1.5418080887538,-1.43565684162892,NaN
181.248,2.45539163281436,-1.51930348965858,0.855341269112167,-1.26417954250655,-0.0525282689123169,-0.0525282689091151,NaN,-0.174321163008822,1.26200578777917,0.908560947100502,1.28719508610101,0.908560947101135,-1.30029916432431,-1.29898645451539,-1.74019685800077,NaN,0.196423095010031,0.99233186214867,-0.740283595820176,-0.689490978046443,-0.740283595820207,0.3230737577509,NaN,NaN,-0.402932810473359,-0.902593012887564,NaN,NaN,-1.30266465794544,0.151707941106043,0.305287444005778,0.67397256445552,0.4674638698989,2.20824985241661,1.45386145757524,2.15339975367243,-0.884714222071061,1.44597736155238,1.44597736155359,-0.417276314449001,1.05478624785659,1.47567898916122,0.89662130296218,-0.54566205342511,0.40618436045428,-3.2277463437154,-1.60704151616472,-1.60704151616547,1.53342385442117,-1.42815255771923,NaN
181.3504,2.43492437500312,-1.494345652517,0.85676553305662,-1.27521037395556,-0.0454660731105136,-0.0454660731073565,NaN,-0.154904912215909,1.26848118267495,0.91237183396573,1.31887800735047,0.91237183396635,-1.26856037593584,-1.28704121566856,-1.70701204807926,NaN,0.196663452873797,1.00950416108305,-0.723312567447895,-0.676123687567095,-0.723312567447935,0.308055801176505,NaN,NaN,-0.420074234066167,-0.857140511712115,NaN,NaN,-1.32562419382991,0.129701282948276,0.300785855459188,0.687867748592238,0.468494701698312,2.18681603567178,1.46087091937029,2.14474476914298,-0.889876006380481,1.44520557738248,1.4452055773837,-0.419611603742218,1.05513836011103,1.47203302069268,0.90309798458635,-0.550490494221039,0.407849815799472,-3.24468298352861,-1.62239744403882,-1.62239744403957,1.52463339349337,-1.42052607103044,NaN
181.4528,2.41354365388185,-1.46876443927954,0.857912058720229,-1.28565175613329,-0.0386221300755385,-0.038622130072424,NaN,-0.135181334395807,1.27449321372975,0.916083913789377,1.3496357139251,0.916083913789984,-1.23724606171412,-1.27426657271728,-1.6738059731939,NaN,0.196722602638483,1.02643195474623,-0.706235354144156,-0.662772545580966,-0.706235354144205,0.292594957897011,NaN,NaN,-0.436636647075436,-0.810404398641651,NaN,NaN,-1.34745755560004,0.107858452175129,0.296421981169758,0.701898634843309,0.469680442367496,2.16469357584656,1.46776745739977,2.13561565496411,-0.894206354044142,1.44316539287371,1.44316539287493,-0.421388975589138,1.05468348020183,1.46770784260152,0.909784299129844,-0.555297017994553,0.409824072523997,-3.26042934486319,-1.63692793804206,-1.6369279380428,1.51545513464551,-1.41276334892332,NaN
181.5552,2.39130113174435,-1.44257071153079,0.85881352818593,-1.29546265583319,-0.0320391501823444,-0.0320391501792795,NaN,-0.115181670401482,1.28001422788119,0.919669713397379,1.37946105827046,0.919669713397972,-1.20634409331911,-1.26067611622355,-1.64057448855714,NaN,0.196497809530126,1.04310649586033,-0.689038376221571,-0.64947514863818,-0.68903837622163,0.276725045325186,NaN,NaN,-0.452569798282293,-0.762441018463988,NaN,NaN,-1.36815343603133,0.086227858192764,0.292200285990192,0.716028211017906,0.471012346115769,2.14192923158571,1.47455230422807,2.12604087327002,-0.897664686951881,1.43982958012965,1.43982958013088,-0.422616400494698,1.05340921060193,1.46266184603578,0.916707083391939,-0.560104052656719,0.412110568993416,-3.2749415637654,-1.65054740412013,-1.65054740412087,1.50590797016225,-1.4048495342348,NaN
181.6576,2.36824980916826,-1.41577679070543,0.859502650130389,-1.30460599042505,-0.0257586413028891,-0.0257586412998739,NaN,-0.0949395415683475,1.28501573839363,0.923103421271494,1.40834891970862,0.923103421272075,-1.17584001321221,-1.24628507639814,-1.60731219715102,NaN,0.195889265008152,1.05951764466874,-0.671708229221509,-0.63626646348518,-0.671708229221577,0.260478533573955,NaN,NaN,-0.467827689553898,-0.71330992697682,NaN,NaN,-1.38770428971042,0.0648532570317988,0.288125297095132,0.730218867083987,0.472481518075164,2.11856699129933,1.48122422099111,2.11604580929387,-0.900214814474594,1.43517416134567,1.43517416134691,-0.423303616966388,1.05130523415567,1.45685455169037,0.923890346321652,-0.564933198211039,0.41471018510287,-3.28817587260398,-1.6631719152907,-1.66317191529144,1.49601139527279,-1.39676923939095,NaN
181.76,2.34444358883639,-1.38839622908283,0.860011979431057,-1.31304893182418,-0.0198204274648597,-0.0198204274618955,NaN,-0.0744909113044454,1.28946862080178,0.926361152337564,1.43629584882195,0.92636115233813,-1.14571763994996,-1.23111008904656,-1.57401286544162,NaN,0.194800939286603,1.07565376496509,-0.654231884748617,-0.623178603660107,-0.654231884748695,0.243886301210526,NaN,NaN,-0.482368788051738,-0.663073500295976,NaN,NaN,-1.40610621474818,0.0437735431451891,0.284201787673678,0.744432774556268,0.474079186883122,2.09464782351616,1.48777958378133,2.10565267331068,-0.901825281809716,1.42917877541162,1.42917877541286,-0.423462182521045,1.04836355006545,1.45024701977325,0.931355155425316,-0.569805123459538,0.417621239685819,-3.30008868847247,-1.67471970941392,-1.67471970941467,1.4857856478601,-1.38850684973816,NaN
181.8624,2.31993684546787,-1.36044357684702,0.860373744270117,-1.32076315532241,-0.0142621925918511,-0.0142621925889326,NaN,-0.0538740243359409,1.29334333284164,0.9294211861408,1.46329973134646,0.929421186141352,-1.11595968171371,-1.21516897221794,-1.54066985127955,NaN,0.193141383303034,1.09150163299536,-0.636596888330968,-0.610240646614251,-0.636596888331054,0.226977416148301,NaN,NaN,-0.496156180473457,-0.611796535150501,NaN,NaN,-1.42335878395271,0.0230226229891056,0.280434965201113,0.758632253280971,0.475796976725794,2.07020946910428,1.49421251546186,2.09488045376608,-0.902469668679023,1.42182702777197,1.42182702777322,-0.423105538647628,1.04457870973762,1.44280223336817,0.939119539358258,-0.574739477587006,0.42083948806118,-3.31063673634826,-1.68511166649494,-1.68511166649569,1.47525182945788,-1.38004682111024,NaN
181.9648,2.29478402149105,-1.33193415528339,0.860619689018516,-1.32772502510699,-0.00911906879583858,-0.00911906879296428,NaN,-0.0331293330206122,1.29661015573888,0.93226417018941,1.48935949490163,0.932264170189951,-1.08654834037054,-1.19848052505676,-1.50727653401516,NaN,0.190824455850788,1.10704636489887,-0.618791547742272,-0.597478504962164,-0.618791547742368,0.209778960230576,NaN,NaN,-0.509157655844009,-0.559545849639566,NaN,NaN,-1.43946481737143,0.00262938699768453,0.276830656915943,0.772780106727725,0.477627166682872,2.04528628699114,1.50051507381542,2.08374493481674,-0.902126823825364,1.41310681230459,1.41310681230585,-0.422249094806544,1.03994804597781,1.43448543165833,0.947198408491726,-0.579754824757746,0.424358110454273,-3.31977722240434,-1.69427174534166,-1.6942717453424,1.46443198919421,-1.37137395757115,NaN
182.0672,2.26903926186147,-1.30288384709372,0.860780935698882,-1.33391570805183,-0.00442328399916249,-0.00442328399633228,NaN,-0.0122994258255149,1.29923944554347,0.934873283990651,1.51447487440132,0.93487328399118,-1.05746588869177,-1.18106435622117,-1.47382673519975,NaN,0.187769964706734,1.12227136898225,-0.600805101973909,-0.58491485742973,-0.600805101974013,0.192315912226604,NaN,NaN,-0.521345709650183,-0.506389893474842,NaN,NaN,-1.45443009716726,-0.0173822152035374,0.273395484113265,0.786839909474214,0.479562925261938,2.01990915699759,1.50667749942471,2.07225878239705,-0.90078102310363,1.40301059054937,1.40301059055064,-0.420910332238751,1.03447188817254,1.4252643757626,0.955603497187158,-0.584868604928484,0.428167691648612,-3.32746806351169,-1.70212736858885,-1.70212736858959,1.4533491631271,-1.36247366087006,NaN
182.1696,2.24275608682899,-1.2733089100548,0.860887858764024,-1.33932121248849,-0.000203867218231066,-0.000203867215440945,NaN,0.0085710360326232,1.30120188333323,0.937234364897159,1.53864623690602,0.937234364897674,-1.02869520839542,-1.16294073695206,-1.44031511684836,NaN,0.183904228386185,1.13715833018067,-0.582627860509767,-0.572569130925391,-0.582627860509879,0.17461108974028,NaN,NaN,-0.532697477630822,-0.452398370203989,NaN,NaN,-1.46826303931415,-0.0369930139945695,0.270137017301973,0.800776235850258,0.481598510113894,1.99410542703091,1.51268851522389,2.06043168656928,-0.898422045939517,1.39153561964615,1.39153561964743,-0.419108922516334,1.02815375567504,1.41510954004703,0.96434333369466,-0.590097120471134,0.43225620028071,-3.33366816128762,-1.70860976011895,-1.70860976011969,1.44202737903712,-1.3533321536012,NaN
182.272,2.21598708886017,-1.2432258141955,0.860969962325382,-1.34393236086302,0.00351360239703657,0.00351360239978974,NaN,0.0294353824865472,1.30246871568439,0.939335998956116,1.56187444745398,0.939335998956619,-1.00022028258821,-1.14413046488336,-1.40673754514418,NaN,0.179160576324661,1.15168723402505,-0.564251306343433,-0.560457512547794,-0.564251306343552,0.156685132301479,NaN,NaN,-0.5431946218807,-0.397641867901814,NaN,NaN,-1.48097434771085,-0.0561884076337362,0.267063905254725,0.814554826491666,0.483729426291493,1.96789888242672,1.51853565995953,2.04827053667893,-0.895045176524724,1.37868413049476,1.37868413049605,-0.416866848140685,1.02100051930417,1.40399423119308,0.973423241442223,-0.595455543047505,0.436608980712924,-3.33833769248024,-1.71365424990732,-1.71365424990806,1.43049165023221,-1.34393668855667,NaN
182.3744,2.18878363991211,-1.21265109970429,0.861055751019431,-1.3477447129647,0.00670721525228416,0.00670721525500293,NaN,0.0502450154692297,1.30301197931074,0.94116957980622,1.58416074601492,0.941169579806714,-0.972026642005178,-1.12465472760976,-1.37309141389724,NaN,0.173479797924044,1.16583643127429,-0.5456681604235,-0.548592970152153,-0.545668160423625,0.13855650281435,NaN,NaN,-0.552823193268726,-0.342191494805755,NaN,NaN,-1.49257667617867,-0.0749581271234621,0.264185972382266,0.828142698233944,0.485952540416862,1.94130972487052,1.52420563335245,2.03577960897912,-0.890651144975789,1.36446346311106,1.36446346311235,-0.414208504676961,1.01302251862702,1.39189464723703,0.982845370254304,-0.600957930537583,0.441208770137734,-3.34143838728793,-1.7172005608943,-1.71720056089504,1.41876797895695,-1.33427575745377,NaN
182.4768,2.16119560300716,-1.18160125083883,0.861172593089501,-1.35075845130577,0.00935892660523155,0.00935892660791966,NaN,0.0709495192391471,1.3028047114013,0.942729338574414,1.60550661347209,0.9427293385749,-0.944101771667535,-1.10453496311149,-1.33937593214448,NaN,0.166810534767336,1.17958273510925,-0.526872410683733,-0.536985271763319,-0.526872410683866,0.120241498496811,NaN,NaN,-0.561573484609103,-0.286118518922424,NaN,NaN,-1.50308431169324,-0.09329598894402,0.261514280255834,0.841508210623215,0.488266151842787,1.91435456553194,1.52968463235908,2.0229607575285,-0.885246023698296,1.34888616494848,1.34888616494976,-0.41116076473305,1.00423362810864,1.37878989885863,0.99260875095173,-0.606617244788205,0.446035745454001,-3.34293378405284,-1.71919308413803,-1.71919308413877,1.40688337509347,-1.32433930366548,NaN
182.5792,2.13327104736302,-1.15009257978913,0.861346579310969,-1.35297823033206,0.0114547310781722,0.011454731080841,NaN,0.0914968005885555,1.30182115357839,0.944012346340449,1.62591362402489,0.944012346340928,-0.916435488047814,-1.08379271916638,-1.30559238565619,NaN,0.159109605010256,1.19290154012132,-0.507859315243554,-0.525641005996142,-0.507859315243697,0.101754276925798,NaN,NaN,-0.569439878067005,-0.229494012612717,NaN,NaN,-1.51251287898381,-0.111199636787008,0.259061151810949,0.854621106695605,0.490670025506966,1.88704644439907,1.53495866502181,2.00981360764225,-0.87884108792564,1.33197005335596,1.33197005335724,-0.407752999802389,0.994651280873554,1.36466201917455,1.00270936475483,-0.61244536683836,0.45106759334485,-3.34278946680242,-1.71958114097461,-1.71958114097534,1.39486588404084,-1.31411893539685,NaN
182.6816,2.10505596946201,-1.11814111658079,0.861602382339581,-1.35441298541377,0.0129848156614794,0.01298481566412,NaN,0.111833250211163,1.30003695562437,0.945018488280834,1.64538329398858,0.945018488281302,-0.889020291317827,-1.06244951641262,-1.27174437851564,NaN,0.150342255783873,1.2057669577384,-0.488625394395906,-0.514563608735255,-0.488625394396057,0.0831069016779602,NaN,NaN,-0.576420681475125,-0.172388505987034,NaN,NaN,-1.52087906321552,-0.128670270871181,0.256840160321,0.867452544134414,0.493165393500005,1.85939488439537,1.54001383792616,1.99633575468041,-0.871452642299655,1.31373823804637,1.31373823804764,-0.404017075309872,0.984296473513435,1.34949598338536,1.01314022646917,-0.618453115200384,0.456279594225936,-3.34097329928886,-1.71831922923008,-1.71831922923082,1.38274461595269,-1.30360813472602,NaN
182.784,2.07659402484021,-1.08576250511588,0.861963120138868,-1.35507569455709,0.0139436845584961,0.0139436845611221,NaN,0.131903915837456,1.29742938092129,0.945750407670083,1.66391693749555,0.945750407670542,-0.861851689199474,-1.04052672146465,-1.23783805475971,NaN,0.14048234686318,1.2181519678223,-0.469168429348908,-0.503753397246341,-0.469168429349066,0.0643094035367986,NaN,NaN,-0.582517941392201,-0.114871655741741,NaN,NaN,-1.52820034995927,-0.145712360228202,0.254866086810417,0.879975126853017,0.495754931613522,1.83140598228457,1.54483662034118,1.98252297114729,-0.863101810094514,1.29421909445255,1.29421909445382,-0.399987340280372,0.973193775602341,1.33327974865266,1.02389149297196,-0.624650278986806,0.461644718444455,-3.33745566507739,-1.71536725402022,-1.71536725402097,1.37054977270767,-1.29280246321671,NaN
182.8864,2.04792627330188,-1.05297190713123,0.862450224355348,-1.35498308315556,0.014330246315135,0.0143302463177464,NaN,0.151652679891646,1.29397751392303,0.946213420226819,1.6815155365347,0.946213420227266,-0.834928487401808,-1.01804543602068,-1.2038822985149,NaN,0.129512468950221,1.2300285858348,-0.44948748209683,-0.493207609835062,-0.449487482096997,0.0453698507224073,NaN,NaN,-0.587737218099062,-0.0570119351370319,NaN,NaN,-1.53449477997237,-0.162333330037029,0.253154849450571,0.892162941698853,0.498442715254192,1.80308253333989,1.54941408954289,1.96836942291675,-0.85381427844384,1.27344617726547,1.27344617726673,-0.395700622276952,0.961371352527043,1.31600431260008,1.03495060983862,-0.63104567463255,0.467133739206849,-3.33220971469068,-1.71069074769906,-1.7106907476998,1.35831267213532,-1.28169977010877,NaN
182.9888,2.01909093571608,-1.01978391574898,0.863083311040687,-1.35415526050384,0.0141478573254826,0.0141478573280751,NaN,0.17102243907175,1.28966247012766,0.946415403156523,1.69817962893398,0.946415403156963,-0.808253044508059,-0.995026404222209,-1.16988891183613,NaN,0.117423993519044,1.24136804344689,-0.429582935065084,-0.482920449004655,-0.429582935065259,0.0262944250750711,NaN,NaN,-0.59208731315698,0.00112365381585136,NaN,NaN,-1.53978071329968,-0.178543216437152,0.251723406925183,0.903991601949823,0.501234156863314,1.77442418342168,1.55373415780982,1.95386789109518,-0.8436199910066,1.25145806752246,1.25145806752372,-0.391196220021441,0.948860991309667,1.29766378259961,1.04630249766838,-0.637647227084811,0.472715363050455,-3.32521161448299,-1.70426108386973,-1.70426108387047,1.34606577050573,-1.27030041068303,NaN
183.0912,1.99012316046843,-0.986212480627047,0.863880050822622,-1.3526152805636,0.0134043238060159,0.0134043238085931,NaN,0.189955291930391,1.28446760949931,0.946366664293619,1.71390921210092,0.94636666429405,-0.78183148924332,-0.971489935256371,-1.13587276703597,NaN,0.104217047879871,1.25214098220655,-0.409456532891852,-0.472883125111145,-0.409456532892033,0.00708750539907664,NaN,NaN,-0.595579953579279,0.0594698485936875,NaN,NaN,-1.54407660217413,-0.194354287596948,0.250589634103644,0.91543829437232,0.504135922443093,1.74542760136153,1.55778577672083,1.93900999277412,-0.832552782333793,1.22829815513597,1.22829815513722,-0.386515875545156,0.935698111009634,1.27825545056434,1.05792976940272,-0.644462071097579,0.478356372577335,-3.31644078826686,-1.69605568573575,-1.69605568573649,1.33384268523835,-1.25860747826515,NaN
183.1936,1.96105480315345,-0.952270846591635,0.864856040008066,-1.35038863589992,0.0121118688537543,0.0121118688563134,NaN,0.208392743578856,1.27837875154102,0.946079792599098,1.72870365690007,0.946079792599525,-0.755673893866744,-0.947455835178364,-1.10185192523856,NaN,0.0899004133464411,1.2623176620076,-0.389111407197837,-0.46308389850173,-0.389111407198023,-0.012248237642296,NaN,NaN,-0.598229451235224,0.117963376831172,NaN,NaN,-1.54740078444429,-0.209780641355116,0.249772166285773,0.926481819585535,0.507155820801158,1.7160866705276,1.56155911405338,1.92378639727848,-0.820649961050377,1.20401437042287,1.20401437042412,-0.381703713074083,0.921921746510443,1.25777987335532,1.06981296649402,-0.651496665791446,0.484021775162092,-3.3058801401967,-1.6860582198242,-1.68605821982493,1.32167821483582,-1.24662703926953,NaN
183.296,1.93191422922267,-0.917971506389637,0.866024679741401,-1.34750271577691,0.0102870680791963,0.0102870680817481,NaN,0.22627592988295,1.27138438411146,0.945569485397111,1.74256162676695,0.945569485397531,-0.729794393706218,-0.922943343288401,-1.06784771029391,NaN,0.0744913486988763,1.27186818428215,-0.368552073775498,-0.453508123754256,-0.368552073775691,-0.0317117293554894,NaN,NaN,-0.600052363160701,0.176543188010997,NaN,NaN,-1.54977131712486,-0.224837798931977,0.249290210616224,0.937102613134646,0.510302660207504,1.68639270738453,1.56504570190015,1.90818704174555,-0.807951864701255,1.17865888707107,1.1786588870723,-0.376806145200891,0.907574506449394,1.23624095938709,1.08193080172831,-0.658756914696884,0.489674952623128,-3.29351624862634,-1.67425875632759,-1.67425875632832,1.30960834277732,-1.23436834390719,NaN
183.3984,1.9027261504437,-0.883326166824692,0.867397072185551,-1.34398626595442,0.00795075242096933,0.00795075242350545,NaN,0.243545856067957,1.26347585449589,0.94485234686988,1.75548099955278,0.944852346870295,-0.704211245166462,-0.897971071855175,-1.03388473082355,NaN,0.0580153432737972,1.28076272531365,-0.347784398561948,-0.444138303542214,-0.347784398562148,-0.0513033573934652,NaN,NaN,-0.601067173673073,0.23515066222882,NaN,NaN,-1.55120586140287,-0.239542312984944,0.249163327261625,0.947282740423254,0.513586072253908,1.65633471566802,1.56823855780587,1.8922013521949,-0.794501412563276,1.15228781556161,1.15228781556283,-0.37187175589043,0.89270251227421,1.21364605841798,1.09426039772243,-0.666248283447281,0.49527780853051,-3.27933952719011,-1.66065387599612,-1.66065387599684,1.2976702089033,-1.22184398384069,NaN
183.5008,1.87351150069007,-0.848345726524562,0.868981939244523,-1.33986887557281,0.00512787685592342,0.00512787685845835,NaN,0.260143641379443,1.25464753185513,0.943946658224727,1.767458794239,0.943946658225135,-0.678946821729886,-0.87255695076455,-0.999990850722015,NaN,0.0405058089673297,1.28897177196241,-0.32681553443615,-0.434954157434361,-0.326815534436357,-0.0710248170176647,NaN,NaN,-0.601294005577159,0.293729791838575,NaN,NaN,-1.55172160956432,-0.25391139954039,0.249411186902637,0.957005866744626,0.517016308551649,1.62589967782886,1.57113228337663,1.87581847365281,-0.780343674012257,1.12496089370501,1.12496089370622,-0.366951170556319,0.877355325426753,1.19000605024396,1.10677751382205,-0.673975907456925,0.500790914487752,-3.26334435506265,-1.64524671497712,-1.64524671497784,1.28590203919342,-1.20906998296185,NaN
183.6032,1.84428735036035,-0.813040264683481,0.870785563737691,-1.33518050288745,0.00184735591936996,0.00184735592190243,NaN,0.276010763467774,1.24489693374935,0.942872126807349,1.77849111060579,0.94287212680775,-0.654027551217791,-0.846718180779355,-0.96619711268554,NaN,0.0220037242553807,1.29646635176467,-0.305653836699476,-0.425932707101646,-0.305653836699691,-0.0908789405953489,NaN,NaN,-0.600754355229474,0.352227332088578,NaN,NaN,-1.55133523143925,-0.267962596325702,0.2500533143562,0.966257207183326,0.520604019679089,1.59507288059904,1.5737231447158,1.85902750998793,-0.765525461364282,1.09674117318442,1.0967411731856,-0.362096916942495,0.861585864898016,1.16533543007177,1.11945676197445,-0.681944686220758,0.506173660957358,-3.2455291787156,-1.62804695451861,-1.62804695451932,1.27434303244087,-1.19606582142776,NaN
183.7056,1.81506685860582,-0.777419046631212,0.872811748314783,-1.32995104301043,-0.00185813628384658,-0.00185813628132372,NaN,0.291089305152529,1.23422481635522,0.941649623071088,1.78857309127441,0.941649623071482,-0.629483794032927,-0.820471201867039,-0.932537617561474,NaN,0.00255723791476165,1.30321825051114,-0.284308766838167,-0.417048377468348,-0.28430876683839,-0.11086951913437,NaN,NaN,-0.599470843294276,0.410592914634442,NaN,NaN,-1.55006282731282,-0.281713446643742,0.251108826683429,0.97502346044497,0.524360024389583,1.56383826911733,1.57600913131761,1.84181776820399,-0.750094949930668,1.06769469894553,1.0676946989467,-0.357363271084525,0.845450308940511,1.13965238803504,1.13227181922602,-0.690159369798879,0.511384414798122,-3.2258965865561,-1.60907076992874,-1.60907076992945,1.26303320512796,-1.18285439836229,NaN
183.808,1.78585926728831,-0.741490560027686,0.875061785564585,-1.32420993087397,-0.00595241040321589,-0.00595241040069955,NaN,0.305322214837825,1.2226352341812,0.940300910589951,1.79769891075069,0.94030091059034,-0.605349658020981,-0.793831684838292,-0.899049359604806,NaN,-0.0177787701499689,1.30920021296886,-0.262790791780354,-0.40827311221829,-0.262790791780585,-0.131001123131683,NaN,NaN,-0.597466977584487,0.468779114269631,NaN,NaN,-1.54791989369186,-0.295181203725182,0.252596168057231,0.983292729319597,0.528295071792182,1.53217881912485,1.57798998051814,1.82417899348489,-0.73410131984596,1.03789017346687,1.03789017346802,-0.352806079679542,0.829007969983741,1.11297887570259,1.14519564218223,-0.698624647033916,0.516380676920904,-3.20445335771866,-1.58834075009495,-1.58834075009565,1.25201319766792,-1.16946193963191,NaN
183.9104,1.75666994282389,-0.705262592504027,0.877534436582627,-1.31798576307325,-0.010396057805998,-0.0103960578034918,NaN,0.318653590843325,1.21013557509511,0.938848369731598,1.80586179076663,0.938848369731983,-0.581662747834358,-0.766814550028615,-0.865772017558008,NaN,-0.0389431772019356,1.31438612722477,-0.241111279239157,-0.399576501393308,-0.241111279239394,-0.151278925852129,NaN,NaN,-0.594766927964603,0.526741461832827,NaN,NaN,-1.54492131515865,-0.30838254583265,0.254532839886194,0.991054429405196,0.532419595847298,1.50007691501645,1.57966715810255,1.80610158229326,-0.717594407023294,1.00739859389586,1.007398593897,-0.348482557085636,0.81232113684364,1.08534065025933,1.15820068200143,-0.707345240699501,0.521119230736975,-3.18121048549624,-1.56588579034448,-1.56588579034517,1.24132404629285,-1.15591785620433,NaN
184.0128,1.72750046990354,-0.66874234706283,0.880225923672174,-1.31130592361091,-0.0151467953651447,-0.015146795362646,NaN,0.331028990610988,1.19673657234851,0.93731471375333,1.81305403854319,0.937314713753708,-0.558463851617799,-0.739434006988272,-0.832747701165958,NaN,-0.0608691576780803,1.31875119762289,-0.219282378439614,-0.390925918276837,-0.219282378439858,-0.171708524532955,NaN,NaN,-0.591395313845363,0.58443840645303,NaN,NaN,-1.54108138698885,-0.321333293869076,0.256935126217937,0.998299187521261,0.536743462671187,1.46751472888917,1.58104380158638,1.78757677441806,-0.700624352457426,0.976292856968086,0.9762928569692,-0.344451061020211,0.795454886682005,1.05676729395736,1.17125910050657,-0.716326011063722,0.525556280049273,-3.1561831756475,-1.54174095241862,-1.54174095241931,1.2310069208834,-1.14225455392733,NaN
184.1152,1.69834879913169,-0.631936581258925,0.883129948494885,-1.30419621397303,-0.0201598484717781,-0.0201598484692859,NaN,0.342395754468639,1.18245229432891,0.935722698095042,1.81926710343049,0.935722698095418,-0.535796569585981,-0.711703604017707,-0.800020651847097,NaN,-0.0834847747246793,1.32227211108169,-0.197316871909646,-0.382286662761709,-0.197316871909897,-0.192295749747436,NaN,NaN,-0.587377007257579,0.64183123777105,NaN,NaN,-1.53641386504997,-0.33404813322361,0.259817818266171,1.00501873298879,0.541275714770142,1.43447460404365,1.58212464294377,1.76859683574773,-0.683241251616217,0.944647341970311,0.944647341971404,-0.340770849332209,0.778476873662982,1.02729221926038,1.18434299499268,-0.725572068668778,0.529647585269896,-3.12939082112948,-1.51594727984574,-1.51594727984643,1.22110282452947,-1.12850719027686,NaN
184.2176,1.66920944855587,-0.594851756068815,0.886237745455731,-1.29668050507334,-0.0253883566692978,-0.0253883566668071,NaN,0.352703326222885,1.16730011767147,0.934094829782014,1.82449164722048,0.934094829782389,-0.513706891295658,-0.683636279368797,-0.767636899583604,NaN,-0.106713620863762,1.32492719742769,-0.17522799832317,-0.373622111988327,-0.175227998323426,-0.213046454549956,NaN,NaN,-0.582736957714609,0.698883978363689,NaN,NaN,-1.53093203965052,-0.346540351256711,0.26319394504047,1.01120578742946,0.546024319647713,1.40093944665291,1.58291592473675,1.74915524206357,-0.665494818919356,0.912537495004913,0.912537495005983,-0.337501818822874,0.761457103278821,0.996952677085882,1.19742463627268,-0.735088891545766,0.533348610814756,-3.10085695702773,-1.48855155975554,-1.48855155975622,1.21165225775553,-1.11471337814005,NaN
184.32,1.64007375259358,-0.557494182419308,0.889538173634452,-1.28878043281634,-0.0307837797140617,-0.0307837797115721,NaN,0.361903554785241,1.15130069307061,0.932453090844052,1.82871762350607,0.932453090844425,-0.492242734493933,-0.655244410604589,-0.73564388557066,NaN,-0.130475497764021,1.3266965816846,-0.153029264131478,-0.364893883719426,-0.153029264131741,-0.233966281547566,NaN,NaN,-0.577500042066128,0.755563254369088,NaN,NaN,-1.52464883112577,-0.358821602162882,0.267074517587708,1.01685395994998,0.55099593105418,1.36689312399547,1.58342531669625,1.72924686699066,-0.647434084647526,0.880039441600594,0.880039441601644,-0.334704230456152,0.744467700846348,0.965789778196248,1.21047671234701,-0.744882432090026,0.536614694730817,-3.07060920097558,-1.45960603291133,-1.45960603291201,1.2026948651904,-1.10091285027375,NaN
184.4224,1.61093014455859,-0.519870156797158,0.893017842485323,-1.28051515105411,-0.0362962823305036,-0.0362962823280134,NaN,0.369950971803784,1.13447790849203,0.930818690860312,1.8319343611179,0.930818690860684,-0.471453461863966,-0.626539862011576,-0.704090064751624,NaN,-0.154687115587683,1.32756232693333,-0.130734264399576,-0.356062016060723,-0.130734264399844,-0.255060416579406,NaN,NaN,-0.571690935096723,0.811838150777456,NaN,NaN,-1.51757690132509,-0.370901705230933,0.271468292368288,1.02195765349101,0.556195669203064,1.33232086182831,1.5836618338621,1.70886817034208,-0.629107133436224,0.847229646876043,0.847229646877072,-0.332438427254446,0.727582676981663,0.93384852189458,1.22347256278736,-0.754959195425595,0.539401246814736,-3.03867918231591,-1.42916806467656,-1.42916806467723,1.19426908745383,-1.08714710566714,NaN
184.5248,1.58176445725766,-0.48198608640158,0.896661258888326,-1.27190114587661,-0.0418750889003908,-0.0418750888979005,NaN,0.376803049936369,1.11685884483743,0.929211857765482,1.83413064745818,0.929211857765855,-0.45138938995397,-0.59753403403041,-0.673024502512616,NaN,-0.179262789584107,1.32750856551428,-0.108356526054329,-0.347085159862207,-0.108356526054602,-0.276333347179139,NaN,NaN,-0.565333994111485,0.867680054508509,NaN,NaN,-1.50972877326351,-0.382788477885984,0.276381557378479,1.02651198578576,0.561626923979128,1.29720962889498,1.58363575018728,1.68801737619911,-0.610560884472822,0.814184627550923,0.814184627551929,-0.330764545553808,0.710877683219922,0.901177816100657,1.23638639004691,-0.765326278036963,0.541663973026322,-3.00510245750982,-1.39729979541527,-1.39729979541593,1.18641183444978,-1.07345905679588,NaN
184.6272,1.55256022972026,-0.443848613897867,0.900450979254861,-1.26295210755308,-0.047468814311741,-0.0474688143092498,NaN,0.382420445823463,1.09847371345341,0.927651668266733,1.83529481037823,0.927651668267107,-0.43210130172112,-0.568237921834531,-0.642496478818155,NaN,-0.204115118145892,1.32652161163754,-0.0859093829883841,-0.337920777019539,-0.0859093829886615,-0.297788641498744,NaN,NaN,-0.558453154929107,0.923062484402103,NaN,NaN,-1.5011169567832,-0.394487601651113,0.281817944039782,1.03051272734338,0.567291184349235,1.26154849619699,1.58335849563725,1.66669462644546,-0.591840909171784,0.780980707315047,0.780980707316031,-0.329742212408528,0.694429744961629,0.867830474904579,1.2491934369661,-0.775991365327651,0.543359113911768,-2.96991840545079,-1.36406778909407,-1.36406778909473,1.17915818784051,-1.05989269160592,NaN
184.7296,1.52329901477784,-0.405464752913589,0.904367754820229,-1.25367884987932,-0.05302578455975,-0.0530257845572601,NaN,0.386767223361546,1.07935576786936,0.926155914179259,1.83541480246323,0.926155914179637,-0.41363996955078,-0.538662188423106,-0.612555108269963,NaN,-0.229155638476012,1.32459004663805,-0.0634058903979604,-0.328525344286621,-0.0634058903982425,-0.31942874881093,NaN,NaN,-0.55107183958864,0.977960904900941,NaN,NaN,-1.49175408241791,-0.406002515673877,0.287778267476901,1.03395625777268,0.573187896503563,1.22532896467749,1.58284252703188,1.64490210033213,-0.57299128043627,0.747693801106438,0.747693801107393,-0.329430225658333,0.678316966358433,0.833863188616406,1.26187012491301,-0.786962693379431,0.544443682132994,-2.93317010170694,-1.32954269088995,-1.32954269089061,1.1725411319134,-1.04649275524392,NaN
184.832,1.49396068878565,-0.36684203781294,0.90839066866994,-1.2440892624377,-0.05849435993947,-0.0584943599369881,NaN,0.389811045914105,1.05954119100631,0.924741000624237,1.83447829857727,0.924741000624618,-0.396055687913591,-0.508817252089578,-0.583248975296314,NaN,-0.254295464845595,1.32170477289173,-0.0408587793738539,-0.318854572702737,-0.0408587793741405,-0.341254810731238,NaN,NaN,-0.543212873016274,1.03235252042287,NaN,NaN,-1.48165304044611,-0.417334330153736,0.294260397096726,1.03683953791294,0.579314351409505,1.18854526252843,1.58210117203266,1.6226441004453,-0.554054445910398,0.714399215188623,0.714399215189551,-0.329886226332843,0.662618217002855,0.799336469233996,1.27439415663671,-0.798248982850719,0.544875693145724,-2.8949041826742,-1.29379889011566,-1.29379889011632,1.16659130495101,-1.03330444499716,NaN
184.9344,1.46452376667004,-0.327988682605112,0.912497270558298,-1.23418828192955,-0.0638232654489987,-0.0638232654465313,NaN,0.39152332795004,1.03906896585537,0.923421873940552,1.83247282047541,0.923421873940934,-0.379397810035469,-0.478713383458964,-0.554625777326022,NaN,-0.279445912980058,1.31785903906117,-0.0182804445851594,-0.308863655097618,-0.0182804445854511,-0.363266472341838,NaN,NaN,-0.534898401561824,1.08621605185984,NaN,NaN,-1.47082711624805,-0.428481752826077,0.301259157161483,1.03916009234764,0.585665599730301,1.15119461598653,1.58114845419338,1.59992711196211,-0.535071116316471,0.681171456308243,0.68117145630914,-0.331166376557205,0.6474128142085,0.764314576086691,1.28674459356409,-0.809859350307035,0.54461439433406,-2.85517071489963,-1.25691417633875,-1.2569141763394,1.16133676234388,-1.02037310658251,NaN
185.0368,1.43496572447265,-0.288913737317828,0.916663719330193,-1.22397787675298,-0.0689619189178188,-0.0689619189153592,NaN,0.391879347392773,1.01798073524061,0.922211974620394,1.82938589728883,0.922211974620779,-0.363714283550326,-0.448360802733944,-0.526731967176955,NaN,-0.304519104283248,1.31304844647563,0.00431704860180918,-0.298507545392853,0.00431704860151256,-0.385461691679568,NaN,NaN,-0.526149806230787,1.13953150463249,NaN,NaN,-1.45929011572989,-0.439441026539059,0.308766252111735,1.04091599845438,0.592234388648545,1.1132774969829,1.57999891362863,1.57675984563007,-0.516080161884283,0.648084049638987,0.648084049639855,-0.333325047340578,0.632780205318322,0.728865422913901,1.29890191112759,-0.821803192846347,0.543620503267091,-2.81402307470802,-1.21896938034291,-1.21896938034355,1.15680274738137,-1.00774392334824,NaN
185.1392,1.40526333209756,-0.249627225877208,0.92086494615828,-1.21345705336574,-0.0738607370966265,-0.0738607370941813,NaN,0.390858330946492,0.996320648108262,0.921123204468482,1.82520526211292,0.921123204468867,-0.349051183262175,-0.41776976307141,-0.499612386412662,NaN,-0.329428536600931,1.30727095230626,0.0269219519490586,-0.287741264227592,0.0269219519487561,-0.407836557636787,NaN,NaN,-0.516987608264065,1.19227994292479,NaN,NaN,-1.44705648100414,-0.450205883569413,0.316770209335503,1.04210588125971,0.599011114528404,1.07479785173785,1.57866744209704,1.55315327779702,-0.497118517505334,0.615209368845364,0.615209368846206,-0.336414513233665,0.618799646284879,0.693060464003124,1.31084802786027,-0.834090034120337,0.541856466454875,-2.77151782873808,-1.18004799932307,-1.1800479993237,1.15301147283526,-0.995461597281937,NaN
185.2416,1.37539299779921,-0.210140252367214,0.925074848927266,-1.20262190207891,-0.0784714038729224,-0.0784714038704944,NaN,0.388443528255724,0.974135188410934,0.920165897119095,1.81991907507336,0.920165897119483,-0.335452245220644,-0.386950608673068,-0.473309887950979,NaN,-0.354089611996562,1.30052688121639,0.0495228222700043,-0.276520221104219,0.0495228222696965,-0.430385129844474,NaN,NaN,-0.507431372065671,1.24444328158463,NaN,NaN,-1.43414140115163,-0.460767526733044,0.325256339052315,1.042728915757,0.605983791703981,1.03576331408706,1.57716914600951,1.52912069757192,-0.478221106647547,0.582618480906601,0.582618480907417,-0.34048464746055,0.60554986981943,0.656974557063612,1.32256630894029,-0.846729327828711,0.539286745117576,-2.72771459993834,-1.14023581049346,-1.14023581049409,1.14998192097381,-0.983570026984341,NaN
185.344,1.34533112029129,-0.170465072580598,0.929266516705166,-1.19146569333513,-0.0827470974057239,-0.082747097403312,NaN,0.384622289034457,0.951472991088525,0.91934878882833,1.81351615189635,0.91934878882872,-0.32295841433974,-0.355913807400354,-0.447864958458381,NaN,-0.37842011961361,1.29281894432155,0.0721085035128012,-0.264800540303361,0.0721085035124879,-0.453099304920899,NaN,NaN,-0.497499616430209,1.29600409965731,NaN,NaN,-1.4205609242354,-0.471114644232232,0.334206721061932,1.04278484005061,0.613138046284768,0.9961854034719,1.57551923737652,1.50467776108477,-0.459420796095631,0.550381002485665,0.550381002486455,-0.34558260998411,0.593108737104503,0.62068580416789,1.33404155527025,-0.859730233702178,0.535878121161612,-2.68267590993927,-1.09962047857263,-1.09962047857325,1.14772966546904,-0.972111988685091,NaN
185.4464,1.31505444046656,-0.130615135432048,0.933412474882056,-1.17997902255095,-0.0866426793813395,-0.0866426793789479,NaN,0.379386150412839,0.928384655012271,0.918678993022724,1.80598617559219,0.918678993023117,-0.311607422251854,-0.324669965697027,-0.423315358688252,NaN,-0.402340674659177,1.28415225547923,0.094668098064201,-0.252539379082941,0.0946680980638821,-0.475968702226956,NaN,NaN,-0.487209746667795,1.34694547557753,NaN,NaN,-1.40633207396279,-0.481233459627488,0.343600229681832,1.04227398286628,0.62045714518331,0.956079702975528,1.57373294375881,1.47984254492391,-0.440748386010045,0.518564959929272,0.518564959930041,-0.351752528606548,0.58155287489586,0.584275374485627,1.34525998696776,-0.873101387711525,0.531600004017767,-2.63646700204876,-1.05829116203977,-1.05829116204038,1.14626671082265,-0.961128823133061,NaN
185.5488,1.28454038652332,-0.0906050981233938,0.937484943437209,-1.16814999743724,-0.0901148455472684,-0.0901148455449009,NaN,0.372730926692245,0.904922556375191,0.918161982195649,1.7973198895566,0.918161982196044,-0.301433410356659,-0.293229831241452,-0.399695797306495,NaN,-0.42577511581653,1.27453433524268,0.11719093333314,-0.239695237837162,0.117190933332815,-0.498980559814185,NaN,NaN,-0.476578016544502,1.39725084492524,NaN,NaN,-1.39147297004605,-0.491107817007352,0.353412599437097,1.04119730802681,0.627922063273009,0.915466011141848,1.57182543020305,1.4546355909648,-0.422232630755983,0.487236649948617,0.487236649949366,-0.359035187241518,0.570957310535934,0.547827309022836,1.3562092191889,-0.886850676803084,0.526424720857454,-2.58915566091337,-1.01633812338305,-1.01633812338365,1.14560134428363,-0.950660129532403,NaN
185.6512,1.25376740816603,-0.0504508136458166,0.94145610594464,-1.15596446473535,-0.0931222317663064,-0.0931222317639685,NaN,0.364656782130594,0.881140655324419,0.917801578111346,1.78750929687596,0.91780157811174,-0.292466607176575,-0.261604282825399,-0.377037645882275,NaN,-0.448650864154519,1.26397509736988,0.139666533640416,-0.226228275882133,0.139666533640085,-0.522119638358713,NaN,NaN,-0.46561951949951,1.44690388304657,NaN,NaN,-1.37600294635379,-0.500719302179253,0.363616524833051,1.03955647700425,0.635511583728115,0.874368464216379,1.56981173388727,1.42907994101594,-0.403900282703416,0.456460508586755,0.456460508587485,-0.367467738219833,0.561395117661097,0.51142830300104,1.36687822513091,-0.900985016359003,0.520327785942867,-2.54081204789059,-0.973852348872135,-0.973852348872733,1.14573800178256,-0.940743469892111,NaN
185.7536,1.22271529313532,-0.0101692884329683,0.945298385584565,-1.14340627202558,-0.0956254755099563,-0.0956254755076454,NaN,0.35516827425266,0.857094286100383,0.917599949905006,1.7765478904021,0.917599949905402,-0.28473306239438,-0.229804307438108,-0.355368697097381,NaN,-0.470899244525429,1.25248681648466,0.162084596804674,-0.212100646667332,0.162084596804337,-0.545368142848699,NaN,NaN,-0.454348197929735,1.49588841268566,NaN,NaN,-1.35994265530578,-0.510047397643543,0.37418178654452,1.03735392834554,0.643202425034206,0.832815629772296,1.56770671585469,1.40320116439249,-0.385776151608798,0.426298997710342,0.426298997711055,-0.377083441687532,0.552937073814421,0.475167462710394,1.37725728433184,-0.915510125880684,0.513288153059216,-2.49150856096947,-0.930925181607309,-0.930925181607899,1.14667715478404,-0.931414090631801,NaN
185.856,1.19136545630595,0.0302213840335709,0.948984716521092,-1.13045755202132,-0.0975872461177886,-0.0975872461155158,NaN,0.344274372633023,0.832839930230103,0.917557621450473,1.76443091145317,0.917557621450867,-0.278254435265309,-0.197840971631204,-0.334712967496509,NaN,-0.492455770356943,1.24008407484476,0.184434963926565,-0.197276849001389,0.184434963926222,-0.568705679033728,NaN,NaN,-0.442776857146935,1.54418833168809,NaN,NaN,-1.34331414609791,-0.519069663352517,0.385075402094956,1.0345929716672,0.650969392366867,0.790840572306615,1.56552502882531,1.37702737817873,-0.367883170903482,0.396812508135119,0.396812508135816,-0.387911425218476,0.545651324415567,0.439136037899696,1.38733791492996,-0.93043030215824,0.50528845031329,-2.44131971127867,-0.88764797067584,-0.887647970676422,1.14841522255078,-0.922704667840172,NaN
185.9584,1.15970119394848,0.0707021007471367,0.952488795889025,-1.11709901254179,-0.0989722620669339,-0.0989722620646914,NaN,0.331988465175829,0.808434983448887,0.91767349382573,1.75115561536777,0.917673493826126,-0.273047832200124,-0.165725397410106,-0.315090545075915,NaN,-0.513260395730256,1.22678368399197,0.206707575754623,-0.181724074615431,0.206707575754276,-0.59210925841442,NaN,NaN,-0.430917179806538,1.59178755391949,NaN,NaN,-1.32614091096246,-0.527761934915571,0.396261804566514,1.03127789399149,0.658785555421052,0.748480886081209,1.56328109389961,1.35058925320879,-0.350242462034198,0.368059270631722,0.368059270632407,-0.399976463935994,0.539603054557702,0.403427132300688,1.39711279060906,-0.945748195806802,0.496315189847857,-2.39032199932434,-0.844111741118771,-0.844111741119348,1.15094450641745,-0.914645077214517,NaN
186.0608,1.12770790440601,0.111252827792813,0.955785310382684,-1.10331022499122,-0.099747305123542,-0.0997473051213366,NaN,0.318328353531182,0.783937526205707,0.917944889328861,1.73672152486089,0.917944889329255,-0.269125685320717,-0.133468746071121,-0.296517476196857,NaN,-0.533257736659258,1.21260458066347,0.228892421800655,-0.165412532887974,0.228892421800305,-0.615553358508546,NaN,NaN,-0.418779749163415,1.63866996010911,NaN,NaN,-1.30844790341601,-0.53609853892334,0.407703053081938,1.02741407355087,0.666622454053468,0.705778685487632,1.56098907943745,1.32391999610247,-0.332873395260799,0.340095268300559,0.340095268301231,-0.413298790615493,0.534854177457885,0.368135393364781,1.40657564870548,-0.961464599706894,0.486358948831065,-2.33859377723169,-0.800406890694049,-0.800406890694618,1.15425314054936,-0.90726218607428,NaN
186.1632,1.09537328385514,0.151852677569548,0.958850142467278,-1.0890699191866,-0.099881230564942,-0.0998812305627697,NaN,0.303316228177189,0.759406096900282,0.918367616922503,1.72113066213931,0.918367616922897,-0.266495664004296,-0.101082204079878,-0.279005682112875,NaN,-0.552397255982174,1.19756770304801,0.250979489342058,-0.148315743914496,0.250979489341702,-0.639010042017218,NaN,NaN,-0.406374095527218,1.68481935959576,NaN,NaN,-1.29026153966032,-0.544052532455103,0.419359074296659,1.02300809395762,0.674450328769066,0.662780543636865,1.55866287713957,1.29705529895469,-0.315793655101294,0.312974150420177,0.312974150420831,-0.427893940569309,0.531463044198037,0.333356682108457,1.41572119634215,-0.977578253005926,0.475414525576323,-2.28621509114007,-0.756622918342575,-0.756622918343137,1.15832506119763,-0.900579667054238,NaN
186.2656,1.06268750291201,0.192479986973625,0.961660562339399,-1.07435629711962,-0.0993449667786792,-0.099344966776548,NaN,0.286978621137367,0.734899462887396,0.918936053377249,1.70438775416279,0.918936053377642,-0.26516061810037,-0.0685769624246897,-0.262562899940267,NaN,-0.570633402771166,1.18169585340029,0.272958708614971,-0.130410796113337,0.272958708614611,-0.662449138457872,NaN,NaN,-0.393708776396427,1.73021946636034,NaN,NaN,-1.27160969320058,-0.551595972845961,0.431187930491406,1.01806785643619,0.682238371770685,0.619537376486592,1.55631606957216,1.27003325174448,-0.299019320944452,0.286747153705383,0.286747153706019,-0.443772621614925,0.529484168675624,0.299187728304891,1.42454501524924,-0.994085660374572,0.463481072103552,-2.23326750340631,-0.712848188637181,-0.712848188637735,1.16314000431963,-0.894617838587063,NaN
186.368,1.02964335826662,0.233112400304027,0.964195403722613,-1.05914737232807,-0.0981114972767173,-0.0981114972746323,NaN,0.269346350363048,0.710476390680253,0.919643237446297,1.6865004011,0.919643237446688,-0.265118559853365,-0.0359641851728177,-0.247192652171924,NaN,-0.587925702368775,1.16501354580758,0.294819883822191,-0.111678562169087,0.294819883821827,-0.685838490727026,NaN,NaN,-0.380791492672106,1.77485389372734,NaN,NaN,-1.25252168349092,-0.558700218775547,0.443146111801751,1.01260269455725,0.689954998083463,0.576104276043649,1.55396188337193,1.24289421622131,-0.282564969632431,0.261463039165309,0.261463039165931,-0.460940590235461,0.528967955578883,0.265725780491992,1.43304346191391,-1.01098092896449,0.450562195198732,-2.17983389384495,-0.669169738531349,-0.669169738531894,1.16867354339998,-0.889393543151091,NaN
186.4704,0.996236384619212,0.273726959223698,0.966435213651986,-1.04342133439424,-0.0961558228757232,-0.0961558228736847,NaN,0.250454470901247,0.686195419564081,0.920480981166994,1.66747919364105,0.920480981167386,-0.266362695313933,-0.00325496895732442,-0.232894254913071,NaN,-0.604238801695755,1.14754683240043,0.316552601690449,-0.0921038659978236,0.316552601690081,-0.709144266297616,NaN,NaN,-0.367629238353906,1.81870617013108,NaN,NaN,-1.23302825110532,-0.565336260882111,0.455188855674082,1.0066234962569,0.69756814080757,0.532540296885674,1.55161312522037,1.21568066209943,-0.266443802751754,0.237168048076575,0.237168048077182,-0.479398523637694,0.529960425288704,0.233068257120908,1.44121355985887,-1.02825562888046,0.436666013421333,-2.12599823572778,-0.62567313605862,-0.625673136059158,1.17489717637198,-0.884920077075574,NaN
186.5728,0.962464913503113,0.314300199278676,0.968362365451462,-1.02715693293153,-0.0934549077768724,-0.0934549077748824,NaN,0.2303422354573,0.662114636870056,0.921440002251853,1.6473377702161,0.921440002252243,-0.268881512646207,0.029539701175683,-0.219662873825822,NaN,-0.619542479528334,1.12932310316669,0.338146113212221,-0.071675598148045,0.338146113211852,-0.732331330639461,NaN,NaN,-0.354228479069076,1.86175977323841,NaN,NaN,-1.21316150973258,-0.571475078635624,0.46727049910093,1.00014283378777,0.705045575141212,0.488908199045217,1.54928210332443,1.18843696895314,-0.250667796612136,0.213905871670151,0.213905871670743,-0.499141896203784,0.532502942098109,0.201312396539025,1.4490528814658,-1.04589868161622,0.421805160275475,-2.0718453433299,-0.582442399945851,-0.582442399946379,1.18177846367395,-0.881207181286594,NaN
186.6752,0.928330073733958,0.354808250695814,0.969961129221171,-1.01033387163237,-0.0899876178581404,-0.0899876178561958,NaN,0.209053058021065,0.638291451104745,0.922510074708134,1.6260928166857,0.922510074708526,-0.272658925478837,0.0624089925215108,-0.207489629482801,NaN,-0.633811632543642,1.11037086039078,0.359589188508084,-0.0503867836577375,0.359589188507713,-0.755363675574457,NaN,NaN,-0.340595352694249,1.90399817549104,NaN,NaN,-1.19295486692386,-0.577088018075985,0.479344866091692,0.993175097716852,0.712355271840378,0.445274151148641,1.54698054159659,1.16120920029333,-0.235247868421429,0.191717624450619,0.191717624451201,-0.520160875096926,0.536631955217133,0.170554898294721,1.45655941872351,-1.06389627767195,0.405996730981919,-2.0174605956442,-0.539559978568126,-0.539559978568644,1.18928121163811,-0.878261091095837,NaN
186.7776,0.893835735296962,0.395226941350013,0.971217699778071,-0.992933201818413,-0.0857346618456384,-0.0857346618437436,NaN,0.18663447461123,0.614782367731374,0.923680191896036,1.60376401546867,0.923680191896428,-0.277674460872392,0.0953422542435308,-0.196361746753811,NaN,-0.64702624719556,1.09071947248589,0.380869953844706,-0.0282346098453356,0.380869953844335,-0.778204880749099,NaN,NaN,-0.32673588386722,1.94540489452266,NaN,NaN,-1.17244291162384,-0.582147182943232,0.491365689012324,0.985736626466518,0.719465776198771,0.401707399350271,1.54471949170451,1.13404485611119,-0.220194050860378,0.170641813116078,0.170641813116653,-0.542440239207562,0.542378752717186,0.140891548204176,1.46373144719487,-1.082231823687,0.389262178057101,-1.9629296497549,-0.497106770564678,-0.497106770565186,1.197365690979,-0.876084631256235,NaN
186.88,0.858988401298444,0.435531901619456,0.972120185457581,-0.974937705670818,-0.0806785436981229,-0.0806785436962772,NaN,0.163138099979446,0.591642781005455,0.924938739360719,1.58037394710796,0.924938739361115,-0.283903479433397,0.128329029209818,-0.186262740432561,NaN,-0.659171363773199,1.07039891393989,0.401975731779249,-0.00522042182464269,0.401975731778879,-0.800818572055222,NaN,NaN,-0.312656204059667,1.98596354650751,NaN,NaN,-1.15166127585035,-0.586625830284958,0.503287060484475,0.977845820075827,0.72634660614485,0.358279907857201,1.5425092438556,1.10699260782959,-0.205515666798289,0.150714294729224,0.150714294729794,-0.565959317065625,0.549769220390797,0.112416818216117,1.47056739288684,-1.10088592156857,0.371627164967854,-1.90833815987125,-0.455162161407886,-0.455162161408384,1.20598888029018,-0.874677338182122,NaN
186.9824,0.823797053337665,0.475698673091758,0.972658563313719,-0.956332258846945,-0.0748035281450257,-0.0748035281432366,NaN,0.138619582015136,0.568926793141679,0.926273676359699,1.55594794527821,0.9262736763601,-0.291317418259298,0.161359046559644,-0.177172629754849,NaN,-0.670237031562387,1.04943950113243,0.422892910329519,0.0186503077302594,0.422892910329149,-0.823168846989891,NaN,NaN,-0.298362768922481,2.0256579054066,NaN,NaN,-1.1306464812527,-0.590498760509866,0.515063908660709,0.96952322872713,0.732968660585687,0.315065975378438,1.54035923802286,1.08010201922344,-0.191221494389958,0.131968216394066,0.131968216394635,-0.590691941927272,0.558823598563483,0.0852234295175558,1.47706571294055,-1.11983638381061,0.353121386311511,-1.85377151080041,-0.413804055880629,-0.413804055881116,1.2151047282319,-0.874035597114437,NaN
187.0848,0.788272957559155,0.515702823185184,0.972824607809123,-0.937104163510443,-0.0680956166381631,-0.0680956166364319,NaN,0.113138554218847,0.546687061908999,0.927672723806846,1.5305139097803,0.927672723807251,-0.299884050562466,0.194422199524993,-0.16906817433691,NaN,-0.680218246287191,1.02787163569415,0.443606859814334,0.0433680316490291,0.443606859813963,-0.845220660620736,NaN,NaN,-0.283862566135058,2.06447197223313,NaN,NaN,-1.10943577708386,-0.593742692692432,0.526652483810661,0.960791611649546,0.739304626919643,0.272141830563258,1.53827798042076,1.05342325791599,-0.177319915604133,0.114433932644049,0.114433932644617,-0.616606423172584,0.569556232890969,0.0594018720007962,1.48322479463603,-1.1390582844354,0.333778361281516,-1.79931456201758,-0.373108897827315,-0.373108897827789,1.22466443398898,-0.874152791346997,NaN
187.1872,0.752429442711413,0.555520065137707,0.972611801435831,-0.917243451372185,-0.0605425299019569,-0.0605425299002881,NaN,0.0867585842560742,0.524974669086106,0.929123554955952,1.5041020850573,0.92912355495636,-0.309567756085809,0.227508516838157,-0.16192312250308,NaN,-0.689114857559731,1.00572556577496,0.464101902604958,0.0689192059838553,0.464101902604586,-0.866940183724814,NaN,NaN,-0.269163311757903,2.10239005573952,NaN,NaN,-1.08806697382985,-0.596336619811271,0.538010843980113,0.951675965958014,0.745329377814487,0.22958521095865,1.53627297007306,1.02700680294643,-0.163819050870148,0.0981389091716384,0.0981389091722044,-0.643665524236433,0.581975312884324,0.0350398850994337,1.48904286714031,-1.1585240352316,0.313635207815551,-1.74505138954779,-0.333151677875705,-0.333151677876167,1.23461675121452,-0.875019466128642,NaN
187.2896,0.716281663713921,0.595126380195708,0.972015235579059,-0.896743165549268,-0.0521336922504096,-0.0521336922488058,NaN,0.05954711568441,0.503839000671869,0.930613981941569,1.47674481211933,0.930613981941983,-0.320329796191197,0.260608136325245,-0.155708462644544,NaN,-0.696931436727407,0.983031173189149,0.484361329081193,0.0952863956802356,0.48436132908082,-0.888295145058439,NaN,NaN,-0.254273637210375,2.13939686337897,NaN,NaN,-1.06657827872958,-0.598262141540108,0.549099329556586,0.942203527361602,0.751020349788689,0.187474933258535,1.53435063861789,1.00090315484535,-0.150726889449878,0.0831076322729717,0.0831076322735445,-0.671826430058757,0.596082589711602,0.0122219139328422,1.49451791422885,-1.17820347163339,0.292732404241461,-1.69106501327542,-0.294005936162226,-0.294005936162676,1.24490832171733,-0.876623511344432,NaN
187.392,0.679846360493176,0.634498138085001,0.971031506500782,-0.875599628792063,-0.042860213249347,-0.0428602132478058,NaN,0.0315753970414209,0.483327633321017,0.932132128874705,1.44847626489603,0.932132128875123,-0.332128589247431,0.293711285903529,-0.150392671357141,NaN,-0.703677101860212,0.959817791326365,0.504367444033569,0.122448408163353,0.504367444033196,-0.909255159017837,NaN,NaN,-0.239203267133603,2.17547760087172,NaN,NaN,-1.04500813929756,-0.599503771397027,0.55988101615347,0.932403748134787,0.756357896947889,0.145890463922723,1.53251630472769,0.975162554403446,-0.138051421548508,0.0693615434042336,0.0693615434048155,-0.701040692644229,0.611873071180113,-0.00897144223228672,1.49964757655669,-1.19806393521979,0.271113541926304,-1.63743710648825,-0.255743768214783,-0.255743768215222,1.25548403773667,-0.878950364758117,NaN
187.4944,0.643141615441671,0.673612212775518,0.969658606975985,-0.853812696885905,-0.0327148681245208,-0.0327148681230433,NaN,0.00291838582910676,0.463486224512112,0.933666586174267,1.41933218871175,0.933666586174691,-0.344919983222324,0.326808271257192,-0.145941956010651,NaN,-0.709365301979081,0.936114053455182,0.524101622141418,0.150380449504938,0.524101622141045,-0.929792031611839,NaN,NaN,-0.223963181920889,2.21061807833054,NaN,NaN,-1.0233950964272,-0.600049213821832,0.570322136269068,0.922308261158596,0.761325615195956,0.104911497649493,1.5307741431114,0.949834714555958,-0.125800770542833,0.0569190092838389,0.0569190092844353,-0.731254157232394,0.629334704856347,-0.028463970418611,1.50442904001491,-1.21807034714888,0.248825072476057,-1.58424769577508,-0.218435834445461,-0.218435834445891,1.26628742082128,-0.881983230575182,NaN
187.5968,0.606186609222841,0.712446093047747,0.967895813023486,-0.831385989713606,-0.021692084365243,-0.02169208436383,NaN,-0.0263453860549043,0.444358404287774,0.935206546868587,1.3893496618333,0.935206546869016,-0.358657521688401,0.359889465834342,-0.1423204905057,NaN,-0.714013564045652,0.911947766512028,0.543544352365244,0.179054293984733,0.543544352364869,-0.949880040624951,NaN,NaN,-0.208565753566856,2.2448048209852,NaN,NaN,-1.00177764394554,-0.599889606747979,0.580392464627898,0.911950837994689,0.765910635507989,0.0646175490999476,1.52912716902888,0.924968569125252,-0.113983319978941,0.0457953285563729,0.0457953285569801,-0.762406881944915,0.648448068323451,-0.0461843567745372,1.50885891750984,-1.23818527388011,0.225916057260876,-1.53157486263372,-0.182151363519164,-0.182151363519585,1.27726100225912,-0.885703302405886,NaN
187.6992,0.569001374619959,0.750977990899114,0.965743567610214,-0.808327090420864,-0.00978794036973883,-0.00978794036839339,NaN,-0.05613398622238,0.425985667111186,0.936741925361778,1.35856689676906,0.936741925362215,-0.373292698806637,0.392945302019575,-0.139490640904251,NaN,-0.717643204598241,0.887345806569983,0.562675259680399,0.208438457820326,0.562675259680022,-0.969496194783366,NaN,NaN,-0.193024843245177,2.27802518501222,NaN,NaN,-0.980194090736888,-0.599019724038754,0.590065663578236,0.901367343645061,0.770103884256369,0.0250875623640031,1.52757724203251,0.900612043240056,-0.102607828469678,0.0360027712744811,0.036002771275103,-0.794433062376529,0.669186079090551,-0.0620666665825647,1.51293313332799,-1.25836898793946,0.2024379274535,-1.47949445065727,-0.146958138838624,-0.146958138839037,1.28834669664246,-0.890089982682095,NaN
187.8016,0.531606549904085,0.789186952966316,0.963203366079405,-0.784647702667764,0.00299982408227543,0.00299982408353598,NaN,-0.0863622835566273,0.408407263178151,0.938263453893128,1.32702308816542,0.938263453893572,-0.388775199539806,0.42596626942049,-0.137413174885642,NaN,-0.720279004677954,0.862334038332669,0.581473103596068,0.238498373811168,0.581473103595687,-0.988620479248424,NaN,NaN,-0.177355853551653,2.31026748208952,NaN,NaN,-0.958682424258698,-0.597438130692154,0.59931958173061,0.890595685138826,0.773900304206011,-0.0136004579613497,1.52612509392338,0.87681185061994,-0.0916835241136086,0.0275506442910298,0.0275506442916713,-0.827260959352924,0.691513719084517,-0.0760507989626309,1.5166468106169,-1.2785795233475,0.178444255825426,-1.4280797704274,-0.112922465904815,-0.112922465905222,1.2994861695212,-0.895121099624697,NaN
187.904,0.49402313585947,0.827052978926961,0.960277649284,-0.760363758692588,0.0166717878367761,0.0166717878379576,NaN,-0.116942172028814,0.391660083419105,0.939762748718582,1.29475830322976,0.939762748719034,-0.405053123517894,0.45894292920859,-0.13604744945437,NaN,-0.721948842283444,0.836937266674261,0.599915760814506,0.269196573816347,0.599915760814121,-1.00723608882957,NaN,NaN,-0.161575735744653,2.34152111564852,NaN,NaN,-0.937280177700147,-0.595147286381492,0.608136498008595,0.879675747467637,0.777299027783592,-0.0513697920107546,1.52477038486232,0.853613321238578,-0.0812201728541579,0.020445371340159,0.0204453713408157,-0.86081281416119,0.715387754582119,-0.088082927744723,1.51999415485,-1.29877272411147,0.153990533149169,-1.37740128486728,-0.0801091262907164,-0.0801091262911163,1.31062120767398,-0.900773129579801,NaN
188.0064,0.456272264583238,0.864557146657995,0.95696971059251,-0.735495479477525,0.0312268193411013,0.0312268193422024,NaN,-0.14778282285893,0.37577852637462,0.941232341057168,1.26181340387785,0.941232341057624,-0.422073193404831,0.491865948335296,-0.135351575840864,NaN,-0.722683276924546,0.81117922725855,0.617980202061016,0.300492890361502,0.617980202060626,-1.02532964423572,NaN,NaN,-0.145702959617414,2.37177672560699,NaN,NaN,-0.916024305424031,-0.59215359975588,0.616503307262726,0.8686493080941,0.780303496634366,-0.0881453270723139,1.52351178799401,0.831060259059577,-0.0712281232741587,0.0146905735973701,0.0146905735980419,-0.895004739475229,0.740756437929359,-0.0981159355949697,1.52296832724544,-1.31890228685724,0.129133939686605,-1.32752626035905,-0.0485813240101185,-0.0485813240105131,1.32169410140941,-0.9070214310746,NaN
188.1088,0.418374991611648,0.901681737702709,0.953283621278757,-0.710067397109292,0.0466620399307471,0.0466620399317707,NaN,-0.178790968879079,0.360794342817043,0.942665676114141,1.22822998817814,0.942665676114599,-0.439780949142712,0.524726148224949,-0.13528256532866,NaN,-0.722515093008341,0.785082613381747,0.635642472750739,0.332344680954774,0.635642472750346,-1.04289138438807,NaN,NaN,-0.129757459041231,2.40102633097017,NaN,NaN,-0.894951071938997,-0.588467441578803,0.624411647916436,0.857559921413255,0.782921524974562,-0.123853861781574,1.52234709489721,0.809194822664497,-0.0617183348462895,0.0102871373036036,0.0102871373042904,-0.92974660185438,0.767559205951617,-0.106109839357403,1.52556130841192,-1.33891980120611,0.103933106968388,-1.27851838971607,-0.0184006242135776,-0.0184006242139688,1.33264803779318,-0.913840487922957,NaN
188.2112,0.380352120038212,0.938410352234645,0.949224173521792,-0.684108350205302,0.0629727855197767,0.0629727855207206,NaN,-0.209871215806462,0.346736471038905,0.944057090722005,1.19405033807957,0.944057090722467,-0.458120929686679,0.557514557482649,-0.135796462328239,NaN,-0.721478823514587,0.758669125410004,0.652877687051589,0.364707068453515,0.652877687051191,-1.05991532706377,NaN,NaN,-0.113760568222719,2.42926345873777,NaN,NaN,-0.874095958564906,-0.584103125459526,0.631857974238857,0.846452767852417,0.785165307041117,-0.158424400193394,1.52127332584231,0.788057414674904,-0.052702392523366,0.00723326050418299,0.00723326050488543,-0.96494194058078,0.795726419940602,-0.112032194714903,1.52776375775882,-1.35877479191416,0.0784478714461709,-1.23043741572538,0.0103731193376854,0.0103731193372979,1.34342749099233,-0.921204150877852,NaN
188.3136,0.342224055553075,0.974728005429661,0.944796834553769,-0.657651457564579,0.0801525757036479,0.0801525757045199,NaN,-0.240926377479585,0.333630881963631,0.945401779625132,1.15931735997891,0.945401779625598,-0.477036846294798,0.590222460753163,-0.136848471925162,NaN,-0.719610275510063,0.731959529305659,0.669660044589386,0.397533189815783,0.669660044588984,-1.07639939108068,NaN,NaN,-0.0977349590728437,2.45648325454185,NaN,NaN,-0.853493590011235,-0.579078861288184,0.638843576345828,0.835374467791936,0.787051371171959,-0.191788442865796,1.52028682899623,0.767686566538988,-0.0441925049039412,0.00552448104567691,0.00552448104639794,-1.00048796939323,0.825179195369611,-0.115858464647313,1.52956487762143,-1.37841476807622,0.0527390242803976,-1.18333878549165,0.0376818491270616,0.0376818491266773,1.35397859561872,-0.929085868267372,NaN
188.416,0.304010684983647,1.01062120318066,0.940007704739152,-0.630734069719717,0.0981930971251538,0.098193097125945,NaN,-0.27185783845496,0.321500445436079,0.946695752744433,1.12407450863615,0.946695752744901,-0.496471752110605,0.62284144120266,-0.138393087206379,NaN,-0.716946067275851,0.704973720840424,0.685962876912588,0.430774450363891,0.685962876912179,-1.09234547756359,NaN,NaN,-0.0817045807753267,2.48268257699085,NaN,NaN,-0.833177681629472,-0.573416681047619,0.645374548350459,0.824372867443925,0.788600483225626,-0.223880274864818,1.51938335950428,0.748118813477535,-0.0362014819792491,0.00515369740262159,0.00515369740336071,-1.03627568365389,0.855829347136559,-0.11757233882969,1.5309522901909,-1.39778528486237,0.0268680601488185,-1.13727335110249,0.0634693984316777,0.0634693984312956,1.3642494984517,-0.93745890253622,NaN
188.5184,0.265731273596949,1.04607799720443,0.934863475928003,-0.603397693436225,0.117084203250347,0.117084203251059,NaN,-0.302565944796978,0.31036482001201,0.947935777455893,1.08836569344492,0.947935777456363,-0.516368208629986,0.655363417179537,-0.140384216617117,NaN,-0.713523179036627,0.677730800487517,0.70175872687621,0.464380782645708,0.701758726875795,-1.1077595142259,NaN,NaN,-0.0656945961509618,2.50786007764137,NaN,NaN,-0.81318100732862,-0.567142331726073,0.65146170039238,0.813496808767495,0.789837499951004,-0.254637243338949,1.51855813381681,0.729388561265861,-0.0287426881276473,0.00611119484884771,0.00611119484960437,-1.07219006844103,0.887579451411824,-0.117165993167482,1.53191192649033,-1.41683001668105,0.000896925653869694,-1.09228712018526,0.0876815913311181,0.0876815913307372,1.37419069163303,-0.946296535929366,NaN
188.6208,0.227404379340594,1.08108801923408,0.929371388450042,-0.575687877188139,0.136813928058475,0.136813928059101,NaN,-0.332950419992869,0.300240363728587,0.949119296010663,1.05223516964407,0.949119296011136,-0.536668446043356,0.687780675054961,-0.142775307794023,NaN,-0.70937851898065,0.650249164632472,0.717019459362549,0.49830091050059,0.717019459362128,-1.12265147060195,NaN,NaN,-0.0497313071498743,2.53201626598845,NaN,NaN,-0.79353538568233,-0.560285126054347,0.657120409008365,0.802795893881903,0.790791171370654,-0.284000015643888,1.5178058563114,0.711527948493831,-0.0218299628296173,0.00838468417576036,0.00838468417653334,-1.10811038816046,0.920323012195015,-0.114640278404718,1.53242791621302,-1.43549083166946,-0.0251122330273196,-1.04842105123516,0.1102663442953,0.11026634429492,1.38375533350553,-0.955572273392993,NaN
188.7232,0.189047779504213,1.11564249384208,0.923539182913707,-0.547654037625709,0.157368506674713,0.157368506675248,NaN,-0.362910804189997,0.29114006037594,0.95024430903979,1.01572741049087,0.950244309040268,-0.557314513887195,0.720085900118709,-0.145519463895313,NaN,-0.704548507583072,0.622546615491892,0.731716401131825,0.532482624162638,0.731716401131398,-1.13703535056798,NaN,NaN,-0.0338420598149742,2.5551535576477,NaN,NaN,-0.774271676057562,-0.552877738313982,0.662370403273933,0.792320247417369,0.791493891272133,-0.311912812172219,1.51712071801173,0.69456670765751,-0.0154774976681944,0.0119593571871742,0.0119593571879657,-1.14391053817336,0.95394471977617,-0.110004828512142,1.53248246581237,-1.45370785568569,-0.0510973230256084,-1.0057108779997,0.131173768895545,0.131173768895167,1.39289956133844,-0.965260049984107,NaN
188.8256,0.150678403930667,1.14973422953827,0.917375041990113,-0.519349203100401,0.178732392849001,0.178732392849446,NaN,-0.392346918646582,0.283073454701882,0.951309218278722,0.978886950825269,0.951309218279204,-0.578248416686794,0.752272205332511,-0.148569547901578,NaN,-0.699068683620747,0.594640491330686,0.7458205140765,0.566873074809491,0.745820514076065,-1.15092916305255,NaN,NaN,-0.0180551159718549,2.57727630345202,NaN,NaN,-0.755419771524982,-0.544955929453194,0.667235486749958,0.782120272551496,0.791981394420703,-0.33832361242751,1.51649637189512,0.67853202855364,-0.00969965588754543,0.0168179617806362,0.0168179617814513,-1.17945944971493,0.988320794703673,-0.103278086130559,1.53205572279881,-1.47141952263995,-0.0769965563772751,-0.964186943733451,0.150356282497841,0.150356282497463,1.40158279237166,-0.975334439725252,NaN
188.928,0.112312274369649,1.18335759107558,0.910887523905134,-0.490829653456647,0.200888264858676,0.200888264859024,NaN,-0.421159365855141,0.276046590991288,0.952312622742918,0.941758199277277,0.952312622743403,-0.599412226341321,0.784333158486624,-0.15187826746562,NaN,-0.692973335022456,0.566547821597636,0.759302612199445,0.60141909085502,0.759302612199,-1.16435486471343,NaN,NaN,-0.00239947701519679,2.59839079938447,NaN,NaN,-0.737008576365196,-0.536558185026321,0.671743194622531,0.772246391162721,0.792292396824548,-0.363184333903865,1.51592589612605,0.663448430811043,-0.00451072003064731,0.0229408939583958,0.0229408939592266,-1.21462155381047,1.02331941951685,-0.0944872509825399,1.53112564039628,-1.48856262171321,-0.10274869669349,-0.923874037485038,0.16776874314444,0.167768743144063,1.40976800172408,-0.985770849623976,NaN
189.0304,0.0739644573073475,1.21650846082374,0.90408549882135,-0.462154450126673,0.223817017920622,0.223817017920875,NaN,-0.449250082406778,0.270061951788466,0.953253068011934,0.904385232578744,0.953253068012423,-0.620748163014255,0.816262812642346,-0.155398230860936,NaN,-0.68629515834143,0.538285511685342,0.772133627138491,0.636067506500546,0.772133627138037,-1.17733826231198,NaN,NaN,0.0130953489953776,2.61850528107795,NaN,NaN,-0.71906596248921,-0.527725259412233,0.675924385841063,0.762748758004267,0.792468175540155,-0.386450981596663,1.515401760731,0.649337655845459,7.54395949262891e-05,0.0303062971225275,0.0303062971233767,-1.24925731764733,1.05880126426033,-0.0836681637116066,1.52966786577447,-1.50507235954929,-0.128293296044619,-0.8847912444818,0.183368629496633,0.183368629496254,1.41742196240948,-0.996545676828104,NaN
189.1328,0.03564903975615,1.24918419704616,0.896978100948706,-0.433384881752361,0.24749774849182,0.247497748491976,NaN,-0.476522946099969,0.265118399068348,0.954128764031144,0.866811598824942,0.954128764031635,-0.642198640670737,0.8480557442549,-0.159081968611237,NaN,-0.67906495390342,0.509870553077597,0.784284908059983,0.670765481524888,0.784284908059518,-1.18990886457555,NaN,NaN,0.0283996284799997,2.63762990648694,NaN,NaN,-0.701618706935062,-0.518499646552484,0.67981278014602,0.753676944861641,0.79255209456165,-0.408083768157562,1.51491580924562,0.636218584915861,0.00404575805551304,0.0388901580977918,0.0388901580986647,-1.28322385623881,1.09462010038459,-0.0708651420654631,1.52765567152364,-1.52088245127167,-0.15357091584291,-0.846951837315741,0.197116276181036,0.197116276180657,1.42451543062636,-1.00763641048218,NaN
189.2352,-0.00262086807338081,1.28138359328285,0.889574702363403,-0.404583882800315,0.271907741818726,0.271907741818784,NaN,-0.502884405611313,0.261211127712991,0.954937302128582,0.829080152608226,0.954937302129074,-0.663706281020871,0.879707096398148,-0.162881925278478,NaN,-0.671311367143231,0.481320243510463,0.795728524482757,0.705460788044944,0.795728524482284,-1.20209968453351,NaN,NaN,0.0434837055388129,2.65577672762656,NaN,NaN,-0.684692419452245,-0.508925024602156,0.683444465619177,0.745079600325132,0.792589099102077,-0.428047210087073,1.51445925949563,0.624107182494772,0.0073883831373731,0.048666395849037,0.0486663958499303,-1.31637559913826,1.13062347655299,-0.0561307880632379,1.52505994126294,-1.53592524461425,-0.178523323444307,-0.810363231460646,0.208975151999699,0.208975151999319,1.43102325947227,-1.01902166916321,NaN
189.3376,-0.0408331071580085,1.31310684051345,0.881884906631256,-0.375815485183914,0.297022477083566,0.297022477083526,NaN,-0.528244083134711,0.258331642623909,0.955675399702439,0.791232921858943,0.955675399702936,-0.685213907445397,0.911212620300831,-0.166750434657368,NaN,-0.663060683548108,0.452652399981921,0.806437544653796,0.740102052513015,0.806437544653311,-1.21394700471863,NaN,NaN,0.0583182986102813,2.67295965170431,NaN,NaN,-0.668311472381319,-0.499045722476592,0.686857406854751,0.737004096763349,0.792625206114393,-0.446310206834023,1.5140227224906,0.613016460284169,0.0100930451942864,0.0596069452688274,0.0596069452697403,-1.34856498242425,1.16665342410339,-0.039525779192098,1.52184921128444,-1.55013187308457,-0.203093656113836,-0.775027008025928,0.218912153073386,0.218912153073006,1.43692443481536,-1.03068117772274,NaN
189.44,-0.0789764301284469,1.3443554909835,0.873918554429762,-0.347144333212946,0.322815661676213,0.322815661676061,NaN,-0.552515310341982,0.256467763461124,0.956338684735859,0.753310984589496,0.956338684736361,-0.706664534285129,0.942568710732372,-0.170639693834592,NaN,-0.654336674941378,0.423885553673491,0.816386281866099,0.774638961641908,0.816386281865602,-1.22549012255404,NaN,NaN,0.0728747736413751,2.68919439146774,NaN,NaN,-0.652498943453076,-0.488906231791635,0.69009097403946,0.729496174916968,0.792707010690855,-0.462846108204188,1.51359623399532,0.602956455519768,0.0121513624440951,0.0716818397079203,0.0716818397088533,-1.37964314716141,1.20254717476043,-0.0211186455352374,1.51798976243838,-1.56343242944858,-0.227226547563771,-0.740938985867695,0.226897885159522,0.226897885159143,1.44220204569168,-1.04259570039251,NaN
189.5424,-0.117040458812301,1.37513241883468,0.865685729223576,-0.31863526107607,0.349259298518362,0.349259298518097,NaN,-0.575615577702402,0.255603654569332,0.956921518853935,0.715354331043924,0.956921518854441,-0.728001365137652,0.973772434697485,-0.174501748217848,NaN,-0.645160490874685,0.395039120133581,0.82555051278081,0.809022449454302,0.8255505127803,-1.23677109089292,NaN,NaN,0.0871253857595547,2.70449840224477,NaN,NaN,-0.637276578861739,-0.478550765438154,0.693185502069488,0.722599593934521,0.792881218218529,-0.477632776663123,1.51316928858774,0.593934213746898,0.0135570800229896,0.0848592948400216,0.0848592948409756,-1.40946063580036,1.23813788595186,-0.000985526708351054,1.51344575471161,-1.57575615315625,-0.250868217927476,-0.708089321527534,0.232906921167444,0.232906921167067,1.44684321191872,-1.05474695268937,NaN
189.6448,-0.155015648567207,1.40544176996087,0.857196750154155,-0.290352918144356,0.376323781631064,0.376323781630698,NaN,-0.597466893266361,0.255719878710534,0.957416853328724,0.677401697561133,0.957416853329238,-0.749167808834392,1.00482155435771,-0.178288494636438,NaN,-0.635550597770129,0.366133537524731,0.833907669747826,0.843204873976518,0.833907669747305,-1.24783446031121,NaN,NaN,0.101043480100431,2.71889080151619,NaN,NaN,-0.622664780808074,-0.468022857805904,0.696181882363064,0.716355796011932,0.793194207456551,-0.490652654541689,1.51273086179605,0.585953761775086,0.0143062513907265,0.0991057936356739,0.0991057936366389,-1.43786807909221,1.27325537118304,0.0207900999279512,1.50817939888004,-1.58703163150668,-0.273966534318102,-0.676462626765755,0.236918032299612,0.236918032299235,1.45083898708049,-1.06711750975185,NaN
189.7472,-0.192893263848552,1.43528889164902,0.848462142112623,-0.262361424500202,0.403978007519261,0.403978007518776,NaN,-0.617996061177774,0.256793473643715,0.957816113827137,0.639490371877691,0.957816113827653,-0.770107515620042,1.03571454291169,-0.181951705300399,NaN,-0.625522777433046,0.337190365216298,0.841437007192187,0.877140181500163,0.841437007191655,-1.25872702030059,NaN,NaN,0.114603642704808,2.73239226549522,NaN,NaN,-0.608682619271653,-0.457365002912856,0.699121186934823,0.710803594692029,0.793691627200147,-0.501892846881027,1.51226940513392,0.579016055637581,0.0143973733380372,0.114386166793557,0.114386166794542,-1.46471686996036,1.30772683678144,0.0441177292969653,1.5021511592994,-1.59718701606803,-0.296471051995528,-0.646038103838588,0.23891439881438,0.238914398814005,1.45418424528306,-1.07969071870788,NaN
189.8496,-0.230665362765082,1.46468023199726,0.839492577782215,-0.234724040040123,0.432189484965117,0.43218948496452,NaN,-0.63713490181986,0.258798045251446,0.958109112985909,0.601655981223803,0.95810911298643,-0.790764429203805,1.06645058807372,-0.185443071376903,NaN,-0.615090191593291,0.308232337769192,0.848119743805126,0.910784056147101,0.848119743804581,-1.26949753233095,NaN,NaN,0.127781803787263,2.74502489494178,NaN,NaN,-0.595347862595734,-0.446618325902228,0.70204432347033,0.705978888738909,0.794418026162311,-0.511345225980054,1.51177280473991,0.573118894569049,0.0138314879423576,0.130663660575381,0.130663660576382,-1.48985983108962,1.34137763632374,0.0689001883972297,1.49531998211185,-1.60615025403993,-0.318333043268676,-0.616789700595405,0.238883806651599,0.238883806651226,1.45687755398615,-1.09245061506851,NaN
189.952,-0.268324784971971,1.49362320270922,0.830298791597515,-0.20750283300043,0.460924425295462,0.460924425294752,NaN,-0.654820436325956,0.261703869218501,0.958283990828528,0.563932281755367,0.958283990829055,-0.81108284558958,1.09702957739026,-0.188714260994241,NaN,-0.604263507635555,0.279283373208449,0.853939177816559,0.944094057449768,0.853939177816,-1.28019644938338,NaN,NaN,0.14055530872867,2.75681204374321,NaN,NaN,-0.58267701784671,-0.435822279694027,0.704991718225619,0.701914395373717,0.795416511475873,-0.519006556288591,1.51122830359863,0.568256801793707,0.0126122658414377,0.147899988983093,0.147899988984101,-1.51315189162053,1.37403206193208,0.0950340580029787,1.48764354684717,-1.61384933584539,-0.339505518649012,-0.588686286018404,0.236818833180165,0.236818833179796,1.45892103186259,-1.10538183935141,NaN
190.0544,-0.305865138456278,1.52212600668929,0.820891470074137,-0.180758335891067,0.490147801341086,0.490147801340266,NaN,-0.670995045225944,0.26547799935409,0.958327180525596,0.526350967761047,0.958327180526128,-0.831007470038774,1.1274520650946,-0.191716984304095,NaN,-0.593051078420068,0.250368536643159,0.858880767633016,0.977029750154867,0.858880767632444,-1.29087561991551,NaN,NaN,0.152902974592609,2.76777811130752,NaN,NaN,-0.570685372001838,-0.425014355664857,0.708003019800131,0.698639394325116,0.796728427432402,-0.524878632800645,1.51062239380774,0.564420879934,0.0107460833095891,0.166055373596786,0.166055373597811,-1.53445078716631,1.40551418806091,0.122410162981337,1.4790785435299,-1.62021256368262,-0.359943244227463,-0.561691845926428,0.232717023233525,0.232717023233161,1.46032018594626,-1.11846954680459,NaN
190.1568,-0.343280782434888,1.55019743794815,0.811281125899194,-0.154549181893705,0.519823374914988,0.519823374914057,NaN,-0.685606595958552,0.270084384466671,0.958223394412254,0.488941508241693,0.958223394412792,-0.850483467058456,1.15771922501352,-0.194403059043588,NaN,-0.581459174975273,0.22151396315367,0.862932179043496,1.00955283024251,0.86293217904291,-1.3015879770429,NaN,NaN,0.164805141951756,2.77794830679017,NaN,NaN,-0.559387031511409,-0.414229800351936,0.711116816063652,0.696179476630674,0.798393046287605,-0.528968423528503,1.50994068777665,0.56159865178181,0.00824209919324241,0.185088574543365,0.185088574544398,-1.55361778355731,1.43564876621703,0.150914127123437,1.4695809785677,-1.62516884410083,-0.379602755322318,-0.535765696647493,0.226581053874019,0.22658105387366,1.46108372028825,-1.1316993030724,NaN
190.2592,-0.380566802377183,1.57784666100132,0.801477963886608,-0.128931727880964,0.549913701835614,0.549913701834577,NaN,-0.698608532678853,0.275483991791889,0.957955623964627,0.451731001116145,0.957955623965174,-0.869456502149363,1.18783279245725,-0.196724474119683,NaN,-0.569492271413454,0.192746749340289,0.866083312255914,1.04162725117333,0.866083312255312,-1.31238721591312,NaN,NaN,0.17624372014386,2.78734839253895,NaN,NaN,-0.54879496770916,-0.403501341154544,0.714370361384921,0.694556297830562,0.800447268739981,-0.531288205029407,1.50916777724324,0.559773898129014,0.00511232684358324,0.204956911886331,0.204956911887377,-1.57051840749401,1.46426214997542,0.180426979927038,1.45910650851039,-1.6286480008437,-0.398442362230585,-0.510862711356639,0.218418882598125,0.218418882597772,1.46122331630929,-1.14505696724308,NaN
190.3616,-0.41771897185517,1.60508297440074,0.791491746151981,-0.103959684363689,0.580380124515006,0.580380124513869,NaN,-0.709959933818165,0.281634931991148,0.957505148980313,0.414744028620261,0.957505148980863,-0.887872778797392,1.2177949932183,-0.198633455123146,NaN,-0.557153372009077,0.164094825432934,0.868326317683784,1.07321935060239,0.868326317683168,-1.32332746308563,NaN,NaN,0.187202217296166,2.79600440956411,NaN,NaN,-0.538921078214255,-0.39285893472956,0.717799317921141,0.693787342826707,0.802925339497918,-0.531855679964552,1.50828708766923,0.558926503580822,0.00137168724846594,0.225616275123617,0.225616275124679,-1.58502316329455,1.49118322573863,0.21082580190362,1.44761079280032,-1.63058109895253,-0.41642214694963,-0.486933553367392,0.208243872125141,0.208243872124795,1.46075339670297,-1.15852857296082,NaN
190.464,-0.454733697324412,1.63191556399901,0.781331663438346,-0.0796837749113601,0.611182758727803,0.611182758726574,NaN,-0.719625550372406,0.288492586319063,0.956851558029204,0.378002510414037,0.956851558029759,-0.905679077147492,1.24760845541419,-0.200082539370225,NaN,-0.544444359803037,0.135586815673347,0.869655596544042,1.10429797063054,0.869655596543411,-1.33446294092976,NaN,NaN,0.197665750187499,2.8039423867853,NaN,NaN,-0.529776265409892,-0.382329552096033,0.721437517337145,0.693885714406244,0.805858587001848,-0.530694069658992,1.5072807341634,0.559032318089883,-0.00296196955452098,0.247021121185118,0.247021121186187,-1.59700822518434,1.51624433540164,0.241984398619287,1.43504985023344,-1.63090077005955,-0.433503956690111,-0.463924916560025,0.196074886125874,0.196074886125535,1.45969088636681,-1.17210021696131,NaN
190.5664,-0.491607945206218,1.65835325474442,0.771006219205267,-0.0561514381804216,0.642280479272252,0.64228047927093,NaN,-0.727575829674928,0.296009744577645,0.955972789935713,0.341525567742,0.955972789936276,-0.922822797982179,1.27727610171401,-0.201024664774966,NaN,-0.531366344845675,0.107251889600185,0.870067780642682,1.13483456021617,0.870067780642034,-1.34584763090088,NaN,NaN,0.20762103860128,2.81118803890199,NaN,NaN,-0.521370521708319,-0.371937005953402,0.725316747670163,0.694859955485781,0.809275194404784,-0.527832181873828,1.50612938545409,0.560063037867152,-0.00786787907105016,0.269124463885361,0.269124463886443,-1.6063561028062,1.53928218467934,0.273773994456807,1.42138040196226,-1.62954152804726,-0.449651401420531,-0.441779780840922,0.181936351745531,0.181936351745199,1.45805497612244,-1.18575795815384,NaN
190.6688,-0.528339154721077,1.68440427123092,0.760523130908109,-0.0334065745846831,0.673630908330772,0.673630908329361,NaN,-0.733786916331187,0.304136763798456,0.954845205801759,0.305329415360448,0.954845205802327,-0.939252010904258,1.30680102386122,-0.201413270697207,NaN,-0.517919999307667,0.0791196062317464,0.8695616937465,1.16480324969818,0.869561693745834,-1.35753494336293,NaN,NaN,0.217056395382248,2.81776646098932,NaN,NaN,-0.513713007358778,-0.361701817052337,0.729466567396478,0.696713908906856,0.813200004724016,-0.523304459524996,1.5048121447906,0.56198610741509,-0.0133224084372706,0.291877855986433,0.291877855987518,-1.61295627721262,1.56013872789197,0.306063931519298,1.40656018910781,-1.6264400665128,-0.464829858991525,-0.420437690593895,0.165858286803485,0.16585828680316,1.45586688850158,-1.19948772836774,NaN
190.7712,-0.564925141391166,1.71007601531313,0.749889250419534,-0.0114893321181016,0.705190407729673,0.70519040772819,NaN,-0.738240620790018,0.312821753051118,0.953443692143577,0.269427293587928,0.95344369214415,-0.95491550383264,1.3361863442228,-0.201202406031003,NaN,-0.504105878260545,0.051219755611746,0.868138299683526,1.19418089125519,0.868138299682846,-1.36957740148463,NaN,NaN,0.225961724013275,2.82370182780594,NaN,NaN,-0.506812108862911,-0.351641111245054,0.733914144478825,0.699446612806687,0.817654357736302,-0.517151013301936,1.50330645841736,0.564764647102319,-0.019299123934174,0.3152313612275,0.315231361228592,-1.61670580300413,1.57866201569561,0.3387223528678,1.39054826625425,-1.62153554234509,-0.479006492315504,-0.399835058379114,0.147876295658634,0.147876295658316,1.45314964232475,-1.21327525381429,NaN
