time,S1-D1,S1-D8,S1-D9,S1-D15,S2-D1,S2-D2,S2-D3,S2-D9,S3-D1,S3-D2,S3-D16,S4-D2,S4-D3,S4-D5,S5-D3,S5-D4,S5-D5,S6-D2,S6-D5,S6-D17,S7-D6,S7-D7,S8-D6,S8-D7,S8-D18,S9-D3,S9-D4,S9-D9,S9-D11,S9-D19,S10-D8,S10-D9,S10-D10,S10-D11,S11-D8,S11-D10,S11-D20,S12-D10,S12-D11,S12-D12,S13-D4,S13-D11,S13-D12,S14-D10,S14-D12,S14-D21,S15-D13,S15-D14,S16-D13,S16-D14,S16-D22,SART_Target,SART_NonTarget,SART_Probe,t_rel_s,eye_n,xp,yp,ps,xpl_i,xpr_i,ypl_i,ypr_i,psl_i,psr_i,blink_prop
2138.3168,-1.74624362926563e-07,-4.18808940726964e-09,-1.78812452333918e-07,3.8994843369984e-08,-2.08388009755564e-09,-2.08388009770139e-09,-9.75295704658746e-08,3.16808089345578e-08,-6.58487615312145e-08,-9.11564575426706e-07,1.08430818957158e-07,-9.11564575426876e-07,1.65554795935544e-07,,1.3749488235621e-07,8.31437074207088e-08,-3.24362538030671e-08,5.07074536176412e-08,1.41635026329862e-07,6.72356439146408e-08,1.41635026330426e-07,,,,4.11879123302098e-09,8.62281102468221e-08,,-2.39160139252041e-08,,3.62180537745425e-07,-1.04841469642308e-07,-1.83499737407265e-08,,8.80955577690296e-08,1.83427268441907e-08,1.06438284613216e-07,-1.8294021876702e-07,6.12079988734367e-08,6.12079988734673e-08,,-1.78951087407108e-07,-5.55185211092752e-08,-1.01810234950699e-07,5.120197591725e-09,-9.66900373589235e-08,-1.02108972860085e-07,5.18605326527151e-08,5.18605326527716e-08,,-4.77862413716104e-08,-3.03583259284384e-07,1,0,0,0,103,937.973300970874,528.83932038835,1663.63106796117,929.303883495146,946.642718446602,515.863106796117,541.815533980583,1718.10679611651,1609.15533980583,0
2138.4192,-1.62489491640675e-07,1.33960649125203e-09,-1.61149885149512e-07,3.15574554802336e-08,-5.22755281689325e-09,-5.22755281703824e-09,-8.95031816706483e-08,2.97758790953046e-08,-5.97273025752405e-08,-8.81647748195778e-07,1.13849372053217e-07,-8.8164774819595e-07,1.48732522112792e-07,,1.15885440572055e-07,8.45869743926463e-08,-1.46422186042284e-08,6.99447557884139e-08,1.08198565976069e-07,7.43614672629112e-08,1.08198565976628e-07,,,,-9.48309309748671e-09,9.04814274425585e-08,,-3.47059265156953e-08,,3.65417679889671e-07,-9.96949694783522e-08,-1.02502950906489e-08,,9.85924488760814e-08,2.96187069595422e-08,1.28211155835618e-07,-1.8191968035661e-07,6.34590279992516e-08,6.3459027999282e-08,,-2.17870498115938e-07,-4.80212034569953e-08,-8.90914390401429e-08,1.52648609763225e-08,-7.38265780637685e-08,-9.88817672041037e-08,5.43709532062647e-08,5.43709532063206e-08,,-4.74976862961271e-08,-3.12055378646682e-07,1,0,0,0.102399999999761,102,939.412254901961,530.860784313726,1684.19607843137,926.766666666667,952.057843137255,519.787254901961,541.93431372549,1742.32352941176,1626.06862745098,0
2138.5216,-1.49071838989664e-07,6.89576467349624e-09,-1.4217607431626e-07,2.73008061613398e-08,-9.14570808781171e-09,-9.14570808795548e-09,-7.90441562200188e-08,2.77961976949896e-08,-5.1247958524925e-08,-8.5390848510253e-07,1.19829488813265e-07,-8.53908485102704e-07,1.34205138290262e-07,,9.65776669235471e-08,8.51748739147489e-08,1.70487339955233e-09,8.68797473142946e-08,7.72333309935821e-08,8.56855780940518e-08,7.72333309941383e-08,,,,-2.22167887088064e-08,9.39119138699261e-08,,-4.53254267367012e-08,,3.67799489755534e-07,-9.19156179113421e-08,-9.867185968371e-10,,1.08764476797387e-07,4.03397133384899e-08,1.4910419013587e-07,-1.80732181585706e-07,6.55053630007115e-08,6.55053630007424e-08,,-2.52783809455316e-07,-4.26813294079731e-08,-7.62224650023707e-08,2.59089403141666e-08,-5.03135246881514e-08,-9.67004495760456e-08,5.62834995934603e-08,5.62834995935161e-08,,-4.56198448901843e-08,-3.17455210863586e-07,1,0,0,0.204799999999977,103,945.583980582524,537.379611650486,1702.18446601942,930.861165048544,960.306796116505,527.834951456311,546.92427184466,1763.27184466019,1641.09708737864,0
2138.624,-1.35367811525517e-07,1.24718727960203e-08,-1.22895938729593e-07,2.64996664655448e-08,-1.36045026485451e-08,-1.36045026486875e-08,-6.70346551191984e-08,2.6031062681402e-08,-4.10035924376912e-08,-8.28240779935939e-07,1.26378175215818e-07,-8.28240779936113e-07,1.22191931004019e-07,,7.98641266401156e-08,8.50092059703558e-08,1.62233428638267e-08,1.01232548834174e-07,4.94398592076326e-08,1.00531742768098e-07,4.94398592081884e-08,,,,-3.41004668532985e-08,9.63386396436574e-08,,-5.52953871557407e-08,,3.69068262629733e-07,-8.16066704355036e-08,9.13254347010364e-09,,1.18214971989121e-07,5.01684708226446e-08,1.68383442811759e-07,-1.79114673807535e-07,6.75176030182926e-08,6.75176030183246e-08,,-2.83678025714404e-07,-3.89139792770893e-08,-6.35905468433788e-08,3.6273837872802e-08,-2.73167089705241e-08,-9.5991774261775e-08,5.78238849324897e-08,5.78238849325459e-08,,-4.21910478540709e-08,-3.20841063814545e-07,0,0,0,0.307199999999739,102,956.423039215686,540.738235294118,1708.4068627451,942.466666666667,970.379411764706,531.389215686275,550.087254901961,1772.27450980392,1644.53921568627,0
2138.7264,-1.2234602041711e-07,1.79631850183617e-08,-1.04382835398846e-07,2.91657255396915e-08,-1.83988210190399e-08,-1.83988210191808e-08,-5.46152457153112e-08,2.46410190339174e-08,-2.99742266812874e-08,-8.04425623301754e-07,1.3352447643317e-07,-8.0442562330193e-07,1.1273046821071e-07,,6.58068624310337e-08,8.41398852968804e-08,2.86362813357611e-08,1.12776166632632e-07,2.52351146955162e-08,1.1788973579396e-07,2.52351146960734e-08,,,,-4.50940642159275e-08,9.76206293543765e-08,,-6.41875423043489e-08,,3.69129175303253e-07,-6.89374272522822e-08,1.97348807705658e-08,,1.26573493230629e-07,5.88038745524117e-08,1.85377367783033e-07,-1.76862866630363e-07,6.96129293057305e-08,6.9612929305764e-08,,-3.1084296368875e-07,-3.63981163614198e-08,-5.14655050532133e-08,4.57805607069469e-08,-5.68494434621442e-09,-9.69233638534037e-08,5.91684375828754e-08,5.91684375829327e-08,,-3.72881399943535e-08,-3.22943857550151e-07,0,0,0,0.409599999999955,102,953.553921568627,541.182843137255,1700.27450980392,939.359803921569,967.748039215686,530.23431372549,552.13137254902,1768.70588235294,1631.8431372549,0
2138.8288,-1.10869291540952e-07,2.31611134615317e-08,-8.77081780795202e-08,3.51185508462728e-08,-2.33638207169493e-08,-2.33638207170887e-08,-4.30215239384406e-08,2.36170145176711e-08,-1.94045094206616e-08,-7.82034902058611e-07,1.41303340770117e-07,-7.82034902058787e-07,1.05688785115005e-07,,5.42388870741136e-08,8.25992515706347e-08,3.87611420765223e-08,1.21360393647146e-07,4.76689331099907e-09,1.36518557882721e-07,4.76689331155943e-09,,,,-5.51277941829794e-08,9.76511605355509e-08,,-7.16399432863079e-08,,3.67996447438253e-07,-5.418589987171e-08,3.04069727275484e-08,,1.3348262690414e-07,6.59865068195039e-08,1.99469133723637e-07,-1.73815476469248e-07,7.18572897047607e-08,7.1857289704796e-08,,-3.34774651837185e-07,-3.50438772571079e-08,-3.99807805406e-08,5.40456725528267e-08,1.40648920122771e-08,-9.94282586184831e-08,6.04593490996658e-08,6.04593490997246e-08,,-3.09924314879855e-08,-3.2415628135951e-07,0,0,0,0.511999999999716,103,953.888834951456,541.638834951456,1693.89805825243,940.1,967.677669902913,533.48640776699,549.791262135922,1766.05825242718,1621.73786407767,0
2138.9312,-1.0163219686306e-07,2.77677295677607e-08,-7.38644672954004e-08,4.40803997952954e-08,-2.83816282655042e-08,-2.83816282656424e-08,-3.34093600956644e-08,2.27672666622528e-08,-1.06420934333022e-08,-7.60415951698316e-07,1.49731543987515e-07,-7.60415951698494e-07,1.00802303015606e-07,,4.48099895654846e-08,8.04285024973314e-08,4.65097383101876e-08,1.26938240807508e-07,-1.20442790280812e-08,1.55150377235503e-07,-1.20442790275165e-08,,,,-6.41409957883956e-08,9.63648994157649e-08,,-7.73764324309435e-08,,3.65744399064341e-07,-3.77554456669668e-08,4.07412791315173e-08,,1.38613266585782e-07,7.15134926301782e-08,2.10126759215954e-07,-1.69845230817938e-07,7.42709467692049e-08,7.42709467692422e-08,,-3.56075962108066e-07,-3.4911920860168e-08,-2.91463666589888e-08,6.08486204323271e-08,3.1702253773386e-08,-1.03259594708621e-07,6.18217943445645e-08,6.18217943446252e-08,,-2.33644355791238e-08,-3.24570894832987e-07,0,0,0,0.614399999999932,102,955.152450980392,540.952941176471,1692.79411764706,939.575490196079,970.729411764706,529.352941176471,552.552941176471,1760.90196078431,1624.6862745098,0
2139.0336,-9.51220409836804e-08,3.14407517083035e-08,-6.36812892754799e-08,5.57451564605729e-08,-3.33760862115726e-08,-3.33760862117097e-08,-2.67231198108833e-08,2.17586318411626e-08,-4.96448796960933e-09,-7.38807010499704e-07,1.58790883418613e-07,-7.38807010499882e-07,9.77165576495085e-08,,3.70548705579148e-08,7.76855887343341e-08,5.18884409179285e-08,1.29574029652252e-07,-2.54429160522102e-08,1.72693029054688e-07,-2.54429160516404e-08,,,,-7.21091387593867e-08,9.37499844191468e-08,,-8.1219740582386e-08,,3.62478141494744e-07,-2.01469772195788e-08,5.03901918540812e-08,,1.41703891728471e-07,7.52560345838184e-08,2.16959926312284e-07,-1.64863062424482e-07,7.68274915374972e-08,7.68274915375364e-08,,-3.75361590964743e-07,-3.61207599830296e-08,-1.88890528205712e-08,6.60937510434893e-08,4.72046982229626e-08,-1.0805293832416e-07,6.33700657867588e-08,6.33700657868217e-08,,-1.44494527068571e-08,-3.24058744124148e-07,0,0,0,0.716800000000148,103,956.865048543689,535.062621359223,1707.20388349515,939.279611650485,974.450485436893,522.131067961165,547.994174757282,1771.90291262136,1642.50485436893,0
2139.136,-9.16046608089682e-08,3.38577105005178e-08,-5.77469503085546e-08,6.97958211259819e-08,-3.82974489615184e-08,-3.82974489616547e-08,-2.36317118401783e-08,2.02027335119427e-08,-3.42897832812248e-09,-7.1652370783345e-07,1.68428023035763e-07,-7.1652370783363e-07,9.6023503368219e-08,,3.04614257631977e-08,7.44368770863551e-08,5.4987455697248e-08,1.29424332783592e-07,-3.57760059224346e-08,1.88313597936729e-07,-3.57760059218595e-08,,,,-7.90472407062753e-08,8.98530603274992e-08,,-8.30892795287026e-08,,3.58324267192551e-07,-1.90807893670924e-09,5.9107616186805e-08,,1.42603069097016e-07,7.71700289884514e-08,2.19773098085462e-07,-1.58830541391275e-07,7.94478044114492e-08,7.94478044114905e-08,,-3.93198237259903e-07,-3.87864073524074e-08,-9.10486751218022e-09,6.97886482451054e-08,6.06837807329662e-08,-1.13379027771136e-07,6.51989724438706e-08,6.51989724439361e-08,,-4.31206433558581e-09,-3.22365932987563e-07,0,0,0,0.81919999999991,102,958.869607843137,537.708333333333,1725.12254901961,937.926470588235,979.812745098039,524.914705882353,550.501960784314,1779.95098039216,1670.29411764706,0
2139.2384,-9.11314907782839e-08,3.47741264339345e-08,-5.63573643444546e-08,8.58891998015885e-08,-4.31081839155319e-08,-4.31081839156676e-08,-2.45111480745036e-08,1.774747491609e-08,-6.76367315829874e-09,-6.93086812141084e-07,1.78564553701848e-07,-6.93086812141265e-07,9.52909641070148e-08,,2.45256623332557e-08,7.07463940340438e-08,5.59557449516926e-08,1.26702138985726e-07,-4.34392777931217e-08,2.01386039823036e-07,-4.34392777925409e-08,,,,-8.49958461776178e-08,8.47708824152129e-08,,-8.29835245956099e-08,,3.53430608922734e-07,1.64007545558123e-08,6.67638903289403e-08,,1.41293546083368e-07,7.72948860007397e-08,2.18588432084104e-07,-1.51768191902873e-07,8.19958825586959e-08,8.19958825587394e-08,,-4.10090685549499e-07,-4.30128347957628e-08,2.94440375832566e-10,7.20371968326835e-08,7.23316372085532e-08,-1.18791815372595e-07,6.73714730155868e-08,6.7371473015655e-08,,6.9352398541688e-09,-3.19202995065976e-07,0,0,0,0.921600000000126,102,961.202450980392,537.464705882353,1741.94117647059,937.140196078431,985.264705882353,524.622549019608,550.306862745098,1791.87254901961,1692.00980392157,0
2139.3408,-9.3564454440433e-08,3.40523792095107e-08,-5.95120752310284e-08,1.03649896182645e-07,-4.77798247858121e-08,-4.77798247859476e-08,-2.94379529162872e-08,1.41325340081915e-08,-1.53054189079792e-08,-6.68198821391918e-07,1.89105331634906e-07,-6.68198821392101e-07,9.50953911687645e-08,,1.87969674897969e-08,6.66753706000999e-08,5.49711415624674e-08,1.21646512162557e-07,-4.88266760809931e-08,2.11394333970031e-07,-4.88266760804069e-08,,,,-9.00070208180439e-08,7.86339953056622e-08,,-8.09613650189549e-08,,3.47964001715862e-07,3.42045304976488e-08,7.33316960674873e-08,,1.37888011925198e-07,7.57438154938094e-08,2.13631827419003e-07,-1.43749700165677e-07,8.42848570260098e-08,8.42848570260554e-08,,-4.26499390236546e-07,-4.89159390397773e-08,9.35581114081327e-09,7.30273175365202e-08,8.23831286773666e-08,-1.23879342199434e-07,6.99163162708189e-08,6.99163162708899e-08,,1.91422396456643e-08,-3.14315334247482e-07,0,0,0,1.02399999999989,103,959.535922330097,540.78932038835,1757.11650485437,933.243689320388,985.828155339806,527.915533980583,553.663106796117,1805.11650485437,1709.11650485437,0
2139.4432,-9.86153532773416e-08,3.16543001602917e-08,-6.69610531171569e-08,1.22697209073256e-07,-5.23004173805477e-08,-5.23004173806833e-08,-3.81822794241341e-08,9.19202422558557e-09,-2.89902551984307e-08,-6.41600579726603e-07,1.9994169019025e-07,-6.41600579726788e-07,9.50653562803001e-08,,1.29246127106051e-08,6.22916884359255e-08,5.22247321866216e-08,1.14516420622537e-07,-5.22901287197004e-08,2.1788838245934e-07,-5.22901287191091e-08,,,,-9.41474461168252e-08,7.15961838007691e-08,,-7.7142367969436e-08,,3.42101995011129e-07,5.08997376444515e-08,7.88554832047098e-08,,1.32604085580514e-07,7.26944726621895e-08,2.052985582427e-07,-1.34886649010233e-07,8.61000201247172e-08,8.61000201247649e-08,,-4.42875982852641e-07,-5.66487074228967e-08,1.80852553144104e-08,7.29978867854971e-08,9.10831420999366e-08,-1.28306883160678e-07,7.28370701469886e-08,7.28370701470623e-08,,3.21630192413006e-08,-3.07535836748719e-07,0,0,0,1.1264000000001,102,959.306862745098,539.891666666667,1776.27450980392,931.471568627451,987.142156862745,534.563725490196,545.219607843137,1826.23529411765,1726.3137254902,0
2139.5456,-1.05894093334061e-07,2.76115855276615e-08,-7.82825078065065e-08,1.42691420076985e-07,-5.66830768707089e-08,-5.6683076870845e-08,-5.02183353085535e-08,2.82422389750212e-09,-4.73941114109326e-08,-6.12938479446509e-07,2.10952899432777e-07,-6.12938479446695e-07,9.49231526212078e-08,,6.69747267719633e-09,5.76758365201536e-08,4.79287236536471e-08,1.0560456017379e-07,-5.41311190106144e-08,2.20512339022901e-07,-5.41311190100191e-08,,,,-9.7518357207725e-08,6.38369205437704e-08,,-7.17283076152419e-08,,3.36019948449534e-07,6.58655681429554e-08,8.34239675085093e-08,,1.25733925439537e-07,6.83851897640746e-08,1.94119115203608e-07,-1.25316649086419e-07,8.72349222718368e-08,8.72349222718866e-08,,-4.59692167820936e-07,-6.6401830973374e-08,2.64668119753003e-08,7.21867735603124e-08,9.86535855356381e-08,-1.31839099981415e-07,7.61237777334016e-08,7.61237777334778e-08,,4.58950556839583e-08,-2.98821923577095e-07,0,1,0,1.22879999999986,103,983.607281553398,537.73932038835,1794.55339805825,956.08932038835,1011.12524271845,527.352427184466,548.126213592233,1850.66019417476,1738.44660194175,0
2139.648,-1.14956789169652e-07,2.19974346919857e-08,-9.29593544777736e-08,1.63366134589867e-07,-6.09670085339878e-08,-6.09670085341246e-08,-6.47733084787033e-08,-5.0323885831303e-09,-6.98056970617139e-08,-5.8176184515293e-07,2.2200811798449e-07,-5.81761845153118e-07,9.45011127990738e-08,,5.36770383578883e-11,5.29115212692309e-08,4.23348463174412e-08,9.52463675866608e-08,-5.4624477650106e-08,2.19069974671181e-07,-5.46244776495068e-08,,,,-1.00274111494209e-07,5.55693846825388e-08,,-6.50243406350951e-08,,3.29878617771935e-07,7.85165989616471e-08,8.71559627822012e-08,,1.17617951998109e-07,6.31116859586348e-08,1.80729637956741e-07,-1.15200602167799e-07,8.7524892915338e-08,8.75248929153899e-08,,-4.77421079810429e-07,-7.83650541211887e-08,3.44836342425885e-08,7.07785951110125e-08,1.05262229353623e-07,-1.34339945877143e-07,7.97577496053478e-08,7.97577496054264e-08,,6.02870977269211e-08,-2.88275733192673e-07,0,1,0,1.33120000000008,102,984.414705882353,533.860784313726,1807.47058823529,958.327450980392,1010.50196078431,530.577450980392,537.144117647059,1865.93137254902,1749.00980392157,0
2139.7504,-1.25340414394381e-07,1.49119075312638e-08,-1.10428506863224e-07,1.84520973234005e-07,-6.52106302119497e-08,-6.52106302120874e-08,-8.09170052024689e-08,-1.43932888049079e-08,-9.53102940072566e-08,-5.47663710042547e-07,2.32970363079169e-07,-5.47663710042738e-07,9.37266530209623e-08,,-6.94758469155199e-09,4.80656730112107e-08,3.57413866198603e-08,8.38070596310592e-08,-5.40502831671236e-08,2.13592810357533e-07,-5.40502831665221e-08,,,,-1.02624435010673e-07,4.70401238238372e-08,,-5.74351478902681e-08,,3.23818541633513e-07,8.83800922192359e-08,9.0193449917924e-08,,1.08621266813948e-07,5.7214488544582e-08,1.65835755358527e-07,-1.04724611016583e-07,8.68652539263817e-08,8.68652539264357e-08,,-4.96458102427569e-07,-9.26551333863587e-08,4.21254247870444e-08,6.88784246182205e-08,1.11003849405283e-07,-1.35752512576974e-07,8.37032420544925e-08,8.37032420545734e-08,,7.53111329478062e-08,-2.76141891647239e-07,0,1,0,1.43359999999984,103,960.380582524272,544.032524271845,1804.73786407767,938.143689320388,982.617475728155,535.93786407767,552.12718446602,1862.50485436893,1746.97087378641,0
2139.8528,-1.36572635914504e-07,6.47486135701796e-09,-1.30097774557592e-07,2.05975936526383e-07,-6.94818967783881e-08,-6.94818967785269e-08,-9.76745408126821e-08,-2.52016410156744e-08,-1.22876181828236e-07,-5.10460729720072e-07,2.43704411626461e-07,-5.10460729720265e-07,9.25922494464303e-08,,-1.41765397938614e-08,4.31750535219194e-08,2.84771737654817e-08,7.16522272873884e-08,-5.2717174642933e-08,2.04383777554964e-07,-5.27171746423298e-08,,,,-1.048181285526e-07,3.85114698294074e-08,,-4.94282183059751e-08,,3.17961981831616e-07,9.51603153557991e-08,9.26884076903181e-08,,9.91041825601317e-08,5.10529977989598e-08,1.50157180359089e-07,-9.40965788270267e-08,8.52146405542474e-08,8.52146405543036e-08,,-5.17022151499517e-07,-1.09243120669606e-07,4.9379937542896e-08,6.65242909603938e-08,1.15904228503305e-07,-1.36064000718854e-07,8.78883763682427e-08,8.78883763683254e-08,,9.0921669575256e-08,-2.62773388065992e-07,0,0,0,1.53600000000006,102,958.21568627451,541.404411764706,1799.79901960784,937.932352941176,978.499019607843,531.408823529412,551.4,1856.07843137255,1743.51960784314,0
2139.9552,-1.48162317315555e-07,-3.18600088958754e-09,-1.51348318205248e-07,2.27516595187586e-07,-7.3849329204256e-08,-7.38493292043959e-08,-1.14135615575334e-07,-3.73093753597538e-08,-1.51444990934967e-07,-4.70274786706554e-07,2.54085307252779e-07,-4.70274786706749e-07,9.11291662569224e-08,,-2.14826793968211e-08,3.82512961929085e-08,2.08674959504981e-08,5.91187921433929e-08,-5.09692297406621e-08,1.92013485899488e-07,-5.09692297400583e-08,,,,-1.07111578922042e-07,3.02290649098611e-08,,-4.1474800772236e-08,,3.12417578610065e-07,9.87600891797093e-08,9.47782057903484e-08,,8.93854972123754e-08,4.4971752698337e-08,1.34357249910709e-07,-8.35324042075699e-08,8.25923148249163e-08,8.25923148249747e-08,,-5.3909916117832e-07,-1.27916642942335e-07,5.62213104087866e-08,6.37231119501301e-08,1.19944422358929e-07,-1.35272683119743e-07,9.21905542031963e-08,9.21905542032805e-08,,1.07037114272261e-07,-2.4856334143623e-07,0,0,0,1.63839999999982,102,957.902941176471,542.2,1790.11764705882,936.717647058824,979.088235294118,535.420588235294,548.979411764706,1840.74509803922,1739.49019607843,0
2140.0576,-1.59594135265596e-07,-1.39543189022796e-08,-1.7354845416798e-07,2.48860131964356e-07,-7.83730841226257e-08,-7.83730841227668e-08,-1.29537296964424e-07,-5.04833365587848e-08,-1.80020633523089e-07,-4.27464463374883e-07,2.64001246862684e-07,-4.27464463375081e-07,8.9392981727381e-08,,-2.87247389569399e-08,3.33027236239346e-08,1.31982867077079e-08,4.65010103316278e-08,-4.91652510932345e-08,1.7726444400606e-07,-4.91652510926314e-08,,,,-1.09731112526843e-07,2.23888225440578e-08,,-3.39896054232019e-08,,3.07284570189506e-07,9.92607420975706e-08,9.65594016068434e-08,,7.9714145429992e-08,3.92709972513046e-08,1.18985142681294e-07,-7.32423701972269e-08,7.90762457769371e-08,7.90762457769978e-08,,-5.62461830551608e-07,-1.48292139011482e-07,6.26091684512406e-08,6.04814323310985e-08,1.23090600782349e-07,-1.33373630166698e-07,9.64426508459584e-08,9.64426508460435e-08,,1.23550347212869e-07,-2.33862535480416e-07,0,0,0,1.74080000000004,103,956.313106796116,539.233009708738,1782.83009708738,935.444660194175,977.181553398058,526.75145631068,551.714563106796,1830.50485436893,1735.15533980583,0
2140.16,-1.70346276525778e-07,-2.57413981976627e-08,-1.96087674723545e-07,2.69649101720413e-07,-8.309413743907e-08,-8.30941374392124e-08,-1.43307705105821e-07,-6.44326293906357e-08,-2.07740334496337e-07,-3.82476364335892e-07,2.73354014187533e-07,-3.82476364336093e-07,8.74595136550943e-08,,-3.57714272253846e-08,2.83619527168556e-08,5.69556154774075e-09,3.40575142645802e-08,-4.76319502605204e-08,1.61032977309019e-07,-4.76319502599194e-08,,,,-1.12845479399593e-07,1.51209230481416e-08,,-2.72929619195939e-08,,3.02653850119136e-07,9.68822919089714e-08,9.80744862996272e-08,,7.02659260428847e-08,3.41927724501532e-08,1.04458698493035e-07,-6.34332084401625e-08,7.48011588274179e-08,7.4801158827481e-08,,-5.8675012998135e-07,-1.69868951695499e-07,6.85003033049619e-08,5.68155808026739e-08,1.25315884107644e-07,-1.30361229948024e-07,1.00459106040089e-07,1.00459106040174e-07,,1.40340315614032e-07,-2.18919554694008e-07,0,0,0,1.8431999999998,102,957.250980392157,540.932352941177,1777.99509803922,937.967647058823,976.53431372549,527.140196078431,554.724509803922,1824.21568627451,1731.77450980392,0
2140.2624,-1.79928028422035e-07,-3.84874112439176e-08,-2.18415439666055e-07,2.89468149007021e-07,-8.80235370268152e-08,-8.80235370269587e-08,-1.55067044870215e-07,-7.88431178586383e-08,-2.33910162728735e-07,-3.357299738598e-07,2.82065909893298e-07,-3.35729973860003e-07,8.54257844870502e-08,,-4.24799887197191e-08,2.35049851822995e-08,-1.47097120593847e-09,2.20340139763434e-08,-4.66135234390637e-08,1.4421400804443e-07,-4.66135234384659e-08,,,,-1.16558820452907e-07,8.49773057360114e-09,,-2.16097020780611e-08,,2.98599403952749e-07,9.19380142814349e-08,9.93170589744451e-08,,6.1163700364458e-08,2.99252035992166e-08,9.1088903963672e-08,-5.43239493787803e-08,6.99530656238875e-08,6.99530656239529e-08,,-6.11561788140734e-07,-1.9209439094283e-07,7.38610358880117e-08,5.27462348146195e-08,1.26607270702638e-07,-1.26236881906994e-07,1.0406623346482e-07,1.04066233464905e-07,,1.57265724196401e-07,-2.03869813393345e-07,0,0,0,1.94560000000001,102,960.272549019608,532.388235294118,1777.8137254902,938.756862745098,981.788235294118,532.805882352941,531.970588235294,1823.78431372549,1731.8431372549,0
2140.3648,-1.87919986728762e-07,-5.21433123048247e-08,-2.40063299033687e-07,3.07881014698527e-07,-9.3137551745766e-08,-9.31375517459106e-08,-1.64595466183545e-07,-9.34053756670996e-08,-2.58000841850527e-07,-2.87598589326152e-07,2.90090956572228e-07,-2.87598589326358e-07,8.34104636949913e-08,,-4.86724155334834e-08,1.88528283882059e-08,-8.16338113965072e-09,1.06894472485359e-08,-4.62428786535709e-08,1.27615768127287e-07,-4.6242878652977e-08,,,,-1.20915420555867e-07,2.55643927319269e-09,,-1.70958122552757e-08,,2.95158754682476e-07,8.47848692144041e-08,1.00250182362132e-07,,5.25060719830605e-08,2.66169686641151e-08,7.91230406471724e-08,-4.61570199987873e-08,6.47605471016033e-08,6.47605471016712e-08,,-6.36505190503927e-07,-2.14406656318662e-07,7.8664811934627e-08,4.82919167570663e-08,1.26956728691699e-07,-1.21017696695896e-07,1.07122019426488e-07,1.07122019426573e-07,,1.74152939996908e-07,-1.88766199146912e-07,0,0,0,2.04799999999977,103,962.000970873786,529.512621359223,1777.52912621359,940.432038834951,983.569902912621,526.799029126214,532.226213592233,1824.92233009709,1730.1359223301,0
2140.4672,-1.94003420368966e-07,-6.6641672757743e-08,-2.60645093126808e-07,3.24476779853871e-07,-9.83807360434249e-08,-9.83807360435704e-08,-1.7179601205299e-07,-1.0782814820197e-07,-2.79624160254844e-07,-2.3846172479416e-07,2.97419413489981e-07,-2.38461724794369e-07,8.15508580690159e-08,,-5.41257830628729e-08,1.45605961145332e-08,-1.42462020501502e-08,3.14394064361863e-10,-4.65450205425956e-08,1.11930125241366e-07,-4.65450205420063e-08,,,,-1.25896705845963e-07,-2.68121033353263e-09,,-1.38643585948804e-08,,2.92315081792188e-07,7.57745548587923e-08,1.00826626853348e-07,,4.43885867104033e-08,2.43878520239736e-08,6.87764387343728e-08,-3.91881581491446e-08,5.94846497779676e-08,5.94846497780381e-08,,-6.61203647099404e-07,-2.36254287001086e-07,8.28710217446141e-08,4.34741939072985e-08,1.26345215651918e-07,-1.14741629632919e-07,1.09517235854445e-07,1.09517235854528e-07,,1.90786442691176e-07,-1.73618555765413e-07,0,0,0,2.15039999999999,102,959.721568627451,528.022058823529,1786.96078431373,937.023529411765,982.419607843137,520.467647058824,535.576470588235,1832.67647058824,1741.24509803922,0
2140.5696,-1.97977743158842e-07,-8.18717734616052e-08,-2.79849516620545e-07,3.38907050073435e-07,-1.0367106106148e-07,-1.03671061061626e-07,-1.76683025126112e-07,-1.21841202264215e-07,-2.98524227390213e-07,-1.88751243015336e-07,3.04073673104469e-07,-1.88751243015547e-07,7.99960252978023e-08,,-5.85793916443228e-08,1.08090285310554e-08,-1.95740025997865e-08,-8.76497406875419e-09,-4.74624465293896e-08,9.77207553940021e-08,-4.74624465288053e-08,,,,-1.31401229141804e-07,-7.20552570790961e-09,,-1.19859242212226e-08,,2.89997838213186e-07,6.52181779176022e-08,1.00999531903581e-07,,3.69063051493155e-08,2.33238813345626e-08,6.02301864838735e-08,-3.36530882334266e-08,5.4407302400203e-08,5.4407302400276e-08,,-6.85281917378174e-07,-2.57111558113429e-07,8.63965955938623e-08,3.83404352453113e-08,1.24737030839179e-07,-1.07456973614589e-07,1.11158457706439e-07,1.11158457706521e-07,,2.06889602632653e-07,-1.58415799837552e-07,0,0,0,2.25279999999975,103,961.81213592233,522.825242718447,1805.2572815534,937.560194174757,986.064077669903,515.68640776699,529.964077669903,1850.45631067961,1760.05825242718,0
2140.672,-1.99771407580693e-07,-9.7668680842357e-08,-2.97440088423147e-07,3.50906802777311e-07,-1.08900691698803e-07,-1.08900691698949e-07,-1.79399900825668e-07,-1.3519701093333e-07,-3.14596911758887e-07,-1.38943991515508e-07,3.10105053448848e-07,-1.3894399151572e-07,7.88959917301411e-08,,-6.17521430329471e-08,7.80735901351329e-09,-2.40068325605618e-08,-1.61994735470738e-08,-4.88824950673354e-08,8.53782325481696e-08,-4.88824950667564e-08,,,,-1.37218705962604e-07,-1.10316877628012e-08,,-1.14617849199657e-08,,2.88105196834106e-07,5.33757865458767e-08,1.00720806567361e-07,,3.01390377812038e-08,2.34574501911705e-08,5.35964879723695e-08,-2.97245941046927e-08,4.98180278401045e-08,4.98180278401799e-08,,-7.08379085699338e-07,-2.76498360283504e-07,8.90943313411704e-08,3.30001142379331e-08,1.22094445579109e-07,-9.91945004427982e-08,1.11947501428183e-07,1.11947501428263e-07,,2.22095264887348e-07,-1.43130015827922e-07,0,1,0,2.35519999999997,102,961.589705882353,525.958823529412,1827.83823529412,933.540196078431,989.639215686275,510.692156862745,541.225490196079,1869.16666666667,1786.50980392157,0
2140.7744,-1.99445220807993e-07,-1.13815030844161e-07,-3.13260251652251e-07,3.6030306749433e-07,-1.1393400862876e-07,-1.13934008628906e-07,-1.80235222390281e-07,-1.47675028436226e-07,-3.27910250826397e-07,-8.95255767934099e-08,3.15598269819696e-07,-8.95255767936239e-08,7.83894621759712e-08,,-6.33620903276821e-08,5.80063395044445e-09,-2.74432362997325e-08,-2.16426023493156e-08,-5.06537754594719e-08,7.50519668271194e-08,-5.06537754588985e-08,,,,-1.43019965245958e-07,-1.42157132779311e-08,,-1.21918889173044e-08,,2.86534462494646e-07,4.0468529074686e-08,9.99357019909905e-08,,2.41337810813142e-08,2.47469023999538e-08,4.88806834812628e-08,-2.74809404535411e-08,4.59996619019557e-08,4.59996619020333e-08,,-7.30198553941523e-07,-2.94006094913733e-07,9.0741308644924e-08,2.76593367105974e-08,1.18400645355528e-07,-8.99438642985899e-08,1.11778578006742e-07,1.1177857800682e-07,,2.3593407585695e-07,-1.27717367248283e-07,0,1,0,2.45759999999973,102,960.871568627451,529.266666666667,1847.6862745098,931.150980392157,990.592156862745,518.787254901961,539.746078431373,1888.85294117647,1806.51960784314,0
2140.8768,-1.97181583651647e-07,-1.30049644373498e-07,-3.27231228025241e-07,3.67018335546026e-07,-1.18611023997463e-07,-1.1861102399761e-07,-1.79596541635855e-07,-1.59087758261817e-07,-3.38684299897565e-07,-4.09686716695757e-08,3.20678010772729e-07,-4.09686716697914e-08,7.85956548027164e-08,,-6.31429606403024e-08,5.0665223213155e-09,-2.98477073376913e-08,-2.47811850164056e-08,-5.25874060261089e-08,6.66164363838212e-08,-5.25874060255408e-08,,,,-1.48378467154702e-07,-1.6858248798732e-08,,-1.39667101734107e-08,,2.85200827941785e-07,2.66932594433069e-08,9.85841543891302e-08,,1.88978525478326e-08,2.70728752655434e-08,4.59707278133708e-08,-2.68985125818245e-08,4.3212367981032e-08,4.32123679811115e-08,,-7.50556157675477e-07,-3.09325647604173e-07,9.10353483213551e-08,2.26340688124581e-08,1.1366941713382e-07,-7.96625525883976e-08,1.10562894099801e-07,1.10562894099878e-07,,2.47870979976754e-07,-1.1213101406579e-07,0,1,0,2.55999999999995,103,959.32427184466,528.821844660194,1862.34951456311,930.241747572816,988.406796116505,518.040776699029,539.602912621359,1901.25242718447,1823.44660194175,0
2140.9792,-1.93260504757777e-07,-1.46077969417199e-07,-3.39338474175071e-07,3.71079880571594e-07,-1.22762232136155e-07,-1.22762232136302e-07,-1.779345662744e-07,-1.69285433137998e-07,-3.47219999412293e-07,6.2646675134305e-09,3.25505939992605e-07,6.26466751321461e-09,7.96119639407704e-08,,-6.08596180531544e-08,5.89429159749702e-09,-3.12575318607558e-08,-2.53632402632909e-08,-5.44489174948261e-08,5.97106209112843e-08,-5.44489174942633e-08,,,,-1.52821291876243e-07,-1.90920228788386e-08,,-1.64935861515822e-08,,2.84033476608117e-07,1.22161880916785e-08,9.66125894525988e-08,,1.44030733891977e-08,3.02555424047451e-08,4.46586157939375e-08,-2.78617069937695e-08,4.1672730044696e-08,4.16727300447769e-08,,-7.69375186353397e-07,-3.22253660629656e-07,8.96050335454508e-08,1.83324362220905e-08,1.07937469767549e-07,-6.83239921481973e-08,1.08268968994104e-07,1.08268968994179e-07,,2.5739389768601e-07,-9.63538975798993e-08,0,0,0,2.66240000000016,102,957.503921568627,537.471078431373,1869.47549019608,927.874509803922,987.133333333333,528.506862745098,546.435294117647,1903.97058823529,1834.98039215686,0
2141.0816,-1.88032358482973e-07,-1.615825284043e-07,-3.49614886887368e-07,3.72643973457009e-07,-1.26232385626437e-07,-1.26232385626585e-07,-1.75659979194725e-07,-1.78153913457597e-07,-3.53813892652219e-07,5.17130367084366e-08,3.30263718516211e-07,5.17130367082201e-08,8.1511186204303e-08,,-5.63305059645441e-08,8.55270718680351e-09,-3.17743957955057e-08,-2.32216886087367e-08,-5.59628067263316e-08,5.38404417147263e-08,-5.59628067257739e-08,,,,-1.55887589184521e-07,-2.1063342111343e-08,,-1.94409477031967e-08,,2.82955228457532e-07,-2.85679866338466e-09,9.39902690015698e-08,,1.05898221276465e-08,3.40803703751557e-08,4.46701925027966e-08,-3.01674184841941e-08,4.15274263005899e-08,4.15274263006715e-08,,-7.86617807933633e-07,-3.32656456698764e-07,8.60438228353184e-08,1.5211278828747e-08,1.01255101664075e-07,-5.59798611388867e-08,1.04953951132885e-07,1.04953951132958e-07,,2.64125752438025e-07,-8.04403063554127e-08,0,0,0,2.76479999999992,103,956.454368932039,536.052912621359,1874.94174757282,928.6,984.308737864078,530.68932038835,541.416504854369,1909.79611650485,1840.08737864078,0
2141.184,-1.81895303237724e-07,-1.76238188029923e-07,-3.58133491267743e-07,3.72024436663769e-07,-1.2890402634679e-07,-1.28904026346939e-07,-1.73104988168975e-07,-1.85607337429926e-07,-3.587123255988e-07,9.49215072255652e-08,3.35127001369512e-07,9.49215072253496e-08,8.43320659122819e-08,,-4.94606986956844e-08,1.32578648453433e-08,-3.15557928179271e-08,-1.82979279726205e-08,-5.68453811951965e-08,4.85059874743092e-08,-5.68453811946438e-08,,,,-1.57168579188922e-07,-2.29200972079221e-08,,-2.2477580194898e-08,,2.81865231818113e-07,-1.85103659830451e-08,9.07190889811573e-08,,7.36086733139698e-09,3.83172727907325e-08,4.56781401221233e-08,-3.35102517313992e-08,4.2829569419555e-08,4.28295694196369e-08,,-8.02202041474336e-07,-3.40410686446104e-07,7.99692749074675e-08,1.37172764829769e-08,9.36865513904542e-08,-4.27980736822601e-08,1.00768247586796e-07,1.00768247586867e-07,,2.67910644351515e-07,-6.45346205532275e-08,0,0,0,2.86720000000014,102,956.728921568627,543.973039215686,1875.45098039216,929.754901960784,983.702941176471,541.712745098039,546.233333333333,1912.04901960784,1838.85294117647,0
2141.2864,-1.75274856223625e-07,-1.89739464316934e-07,-3.65014320540655e-07,3.69694668479115e-07,-1.30712334266677e-07,-1.30712334266828e-07,-1.70538877269673e-07,-1.91585986073358e-07,-3.62124863342934e-07,1.35477072184925e-07,3.40236905696697e-07,1.35477072184711e-07,8.8063788309502e-08,,-4.0278495790161e-08,2.01441544048683e-08,-3.08103029195985e-08,-1.06661485147694e-08,-5.68456628164087e-08,4.3317822485921e-08,-5.68456628158607e-08,,,,-1.56327546406024e-07,-2.48063416314507e-08,,-2.529966671981e-08,,2.80640342795345e-07,-3.48220757653162e-08,8.68309369240908e-08,,4.57041654568072e-09,4.27307074659401e-08,4.73011240116143e-08,-3.74667306763176e-08,4.55268179146451e-08,4.55268179147267e-08,,-8.15974368083543e-07,-3.45365027620421e-07,7.10939733876909e-08,1.4220897549005e-08,8.53148709367061e-08,-2.90543740761566e-08,9.59342276067437e-08,9.59342276068129e-08,,2.68831099230748e-07,-4.88440700130353e-08,0,0,0,2.9695999999999,103,957.236893203883,543.616504854369,1876.28640776699,931.052427184466,983.421359223301,536.62427184466,550.608737864078,1916.01941747573,1836.55339805825,0
2141.3888,-1.68596502993703e-07,-2.0183705114451e-07,-3.70433554138308e-07,3.66236295261764e-07,-1.31647625541342e-07,-1.31647625541494e-07,-1.68199500671427e-07,-1.96064983888099e-07,-3.6426448455943e-07,1.73059031958841e-07,3.45674964235973e-07,1.73059031958629e-07,9.26280677062848e-08,,-2.89643240496553e-08,2.92354104476102e-08,-2.97868176960722e-08,-5.51407248503568e-10,-5.57595074397763e-08,3.80691990611074e-08,-5.57595074392327e-08,,,,-1.53124466819224e-07,-2.68534193185818e-08,,-2.76520228216403e-08,,2.79152836676924e-07,-5.19248043356876e-08,8.23780553863486e-08,,2.02695187771142e-09,4.70904868425938e-08,4.91174387202979e-08,-4.15169490917119e-08,4.94589157799251e-08,4.94589157800055e-08,,-8.27760293032607e-07,-3.47350483637198e-07,5.92888681783136e-08,1.69546942951329e-08,7.62435624734564e-08,-1.5087847150924e-08,9.07102166668783e-08,9.0710216666946e-08,,2.67149668997375e-07,-3.35805435588249e-08,0,0,0,3.07200000000012,102,957.823529411765,542.683823529412,1882.5637254902,932.86862745098,982.778431372549,538.642156862745,546.725490196079,1930.19607843137,1834.93137254902,0
2141.4912,-1.62247523836914e-07,-2.12369330290042e-07,-3.74616854127052e-07,3.62238622262007e-07,-1.31747433266182e-07,-1.31747433266335e-07,-1.66293508772795e-07,-1.99069668061283e-07,-3.65363176833984e-07,2.07473314149605e-07,3.51446303968225e-07,2.07473314149394e-07,9.7863367037634e-08,,-1.58629626200544e-08,4.04159962254926e-08,-2.8747436376514e-08,1.16685598489347e-08,-5.34142384823709e-08,3.27356787261226e-08,-5.34142384818314e-08,,,,-1.47464746596322e-07,-2.91599268940655e-08,,-2.93524977119943e-08,,2.77290142043216e-07,-6.99415121969879e-08,7.74269371398818e-08,,-4.7683608228655e-10,5.11925249162817e-08,5.07156888339866e-08,-4.51232722643137e-08,5.43562823425919e-08,5.43562823426707e-08,,-8.3744672337063e-07,-3.46234660263036e-07,4.462704838985e-08,2.19707071289406e-08,6.65977555187998e-08,-1.25064382389202e-09,8.53496985143876e-08,8.53496985144544e-08,,2.6321124895784e-07,-1.89139399603186e-08,0,0,0,3.17439999999988,102,952.320588235294,549.202941176471,1885.88725490196,923.864705882353,980.776470588235,542.535294117647,555.870588235294,1940.03921568627,1831.73529411765,0
2141.5936,-1.56533560570364e-07,-2.2127662113962e-07,-3.77810181710081e-07,3.5818606906327e-07,-1.31086129567591e-07,-1.31086129567747e-07,-1.64945421106353e-07,-2.00690708856865e-07,-3.65636129963126e-07,2.3865437180184e-07,3.57469448940957e-07,2.38654371801631e-07,1.03520224893489e-07,,-1.47223814214832e-09,5.34088830947043e-08,-2.79229841413036e-08,2.54858989533549e-08,-4.96535283083415e-08,2.74187015265189e-08,-4.96535283078057e-08,,,,-1.3946389469201e-07,-3.17619082294459e-08,,-3.03238221539887e-08,,2.74966734184603e-07,-8.89199641563663e-08,7.2059786541552e-08,,-3.11110519749398e-09,5.48888879614532e-08,5.177778276395e-08,-4.78459454728749e-08,5.9841536445193e-08,5.98415364452693e-08,,-8.45032657497568e-07,-3.41991834362796e-07,2.74097308270994e-08,2.91212118442566e-08,5.65309426713636e-08,1.21245836567321e-08,8.00625691206327e-08,8.0062569120699e-08,,2.57356143992749e-07,-4.9666618970425e-09,0,0,0,3.27680000000009,103,949.639805825243,549.278640776699,1882.83009708738,922.656310679612,976.623300970874,543.533980582524,555.023300970874,1940.90291262136,1824.7572815534,0
2141.696,-1.51640175269862e-07,-2.28596115271615e-07,-3.80236290541573e-07,3.54378510813079e-07,-1.29769801057865e-07,-1.29769801058024e-07,-1.64120804228299e-07,-2.01088899677248e-07,-3.65209703905456e-07,2.66643068901425e-07,3.6356950862606e-07,2.66643068901217e-07,1.0927723113258e-07,,1.35951656415461e-08,6.7773919595698e-08,-2.74610566050378e-08,4.03128629906125e-08,-4.43485717471372e-08,2.22965152580144e-08,-4.43485717466046e-08,,,,-1.29494337997895e-07,-3.46050567683493e-08,,-3.06253070479872e-08,,2.72129870906646e-07,-1.08794223262289e-07,6.63774647528246e-08,,-5.95381955266156e-09,5.81167374301586e-08,5.21629178774869e-08,-4.94479441542578e-08,6.54496009761179e-08,6.54496009761915e-08,,-8.5062177528723e-07,-3.34754339026807e-07,8.17620167778115e-09,3.80576018376459e-08,4.62338035154327e-08,2.4738408494003e-08,7.49846143802205e-08,7.49846143802869e-08,,2.49874252425002e-07,8.15843416287281e-09,0,0,0,3.37919999999986,102,949.419607843137,546.108823529412,1882.07352941176,926.799019607843,972.040196078431,536.007843137255,556.209803921569,1940.6862745098,1823.46078431373,0
2141.7984,-1.47613571978148e-07,-2.34441242756385e-07,-3.82054814734631e-07,3.50909776586778e-07,-1.27934766700068e-07,-1.27934766700229e-07,-1.63583017721253e-07,-2.00476513287343e-07,-3.64059531008507e-07,2.91562434103154e-07,3.69480404155884e-07,2.91562434102948e-07,1.14778015908628e-07,,2.86734839628584e-08,8.29379253164897e-08,-2.73852532212082e-08,5.55526720952322e-08,-3.74379165112542e-08,1.76201487204451e-08,-3.74379165107245e-08,,,,-1.18172528826425e-07,-3.75361293201005e-08,,-3.0465261731122e-08,,2.68767887417237e-07,-1.29384365935177e-07,6.0494840201214e-08,,-8.96052828494864e-09,6.09124374388331e-08,5.19519091538734e-08,-4.99420555755183e-08,7.06814479804141e-08,7.0681447980485e-08,,-8.54374145426237e-07,-3.24827557172279e-07,-1.23175645129368e-08,4.82527556306924e-08,3.59351911177587e-08,3.63346723703438e-08,7.01615096992393e-08,7.01615096993061e-08,,2.41003755840939e-07,2.03469546107487e-08,0,0,0,3.48160000000007,102,950.789215686275,551.108823529412,1876.67156862745,930.652941176471,970.925490196078,544.567647058824,557.65,1933.13725490196,1820.20588235294,0
2141.9008,-1.44373613458068e-07,-2.38970038896855e-07,-3.83343652355022e-07,3.47700237321144e-07,-1.25741008105989e-07,-1.25741008106154e-07,-1.62928962677501e-07,-1.99073236524119e-07,-3.62002199201532e-07,3.13604944393394e-07,3.7486599272041e-07,3.13604944393188e-07,1.19677099423837e-07,,4.31171453709205e-08,9.82552196945176e-08,-2.75843623559619e-08,7.06708573385047e-08,-2.89718712191936e-08,1.37267161713871e-08,-2.89718712186664e-08,,,,-1.06269744704052e-07,-4.03234530649239e-08,,-3.01776296523367e-08,,2.64924721653041e-07,-1.50422967285533e-07,5.45253534104223e-08,,-1.19726212346793e-08,6.34020975643138e-08,5.14294763296229e-08,-4.95623603497199e-08,7.50849611390924e-08,7.50849611391606e-08,,-8.56453063804456e-07,-3.1267226555578e-07,-3.31704386652731e-08,5.90615461290048e-08,2.58911074637323e-08,4.67187367111559e-08,6.55529968707327e-08,6.55529968708004e-08,,2.30959266280481e-07,3.14606432981192e-08,0,1,0,3.58399999999983,103,950.585922330097,546.509223300971,1868.29126213592,933.929126213592,967.242718446602,537.943689320388,555.074757281553,1925.04854368932,1811.53398058252,0
2142.0032,-1.41757239740971e-07,-2.42346776114062e-07,-3.84104015855132e-07,3.44556924982013e-07,-1.23354436103167e-07,-1.23354436103335e-07,-1.6169161769797e-07,-1.97053236819142e-07,-3.58744854517025e-07,3.33021084795718e-07,3.79360151273991e-07,3.33021084795512e-07,1.23675885242139e-07,,5.6366284937406e-08,1.13080622223586e-07,-2.78380971288651e-08,8.52425250946683e-08,-1.91245312432428e-08,1.10194700550495e-08,-1.9124531242718e-08,,,,-9.45765416144274e-08,-4.27003507150448e-08,,-3.01630642868351e-08,,2.60710672301909e-07,-1.71583487912148e-07,4.8560633765829e-08,,-1.47524994731148e-08,6.57708086960037e-08,5.10183092228767e-08,-4.86830989955319e-08,7.83310561323784e-08,7.83310561324445e-08,,-8.56996116483177e-07,-2.98858143696607e-07,-5.3454696320353e-08,6.98183404795003e-08,1.63636441591453e-08,5.57770398030275e-08,6.10596396242623e-08,6.10596396243312e-08,,2.1996441954705e-07,4.13441957880666e-08,0,1,0,3.68640000000005,102,949.262254901961,549.891176470588,1848.27941176471,933.603921568628,964.920588235294,543.471568627451,556.310784313726,1909.23529411765,1787.32352941176,0
2142.1056,-1.39571806512696e-07,-2.44701453745533e-07,-3.8427326025833e-07,3.41228272548496e-07,-1.20919407293041e-07,-1.20919407293211e-07,-1.59451546256825e-07,-1.94503329357783e-07,-3.53954875614522e-07,3.50085999281756e-07,3.82613918183375e-07,3.50085999281553e-07,1.26537287032862e-07,,6.79896675705272e-08,1.26832137922095e-07,-2.78677909195656e-08,9.89643470024755e-08,-8.16012756705872e-09,9.9011050744534e-09,-8.16012756653648e-09,,,,-8.37743954609669e-08,-4.44133164655995e-08,,-3.0813204271162e-08,,2.56295515058748e-07,-1.92494451494725e-07,4.26560266494893e-08,,-1.70196431039054e-08,6.8224255057719e-08,5.1204611953801e-08,-4.77310095750194e-08,8.0254675738065e-08,8.02546757381296e-08,,-8.5611736997315e-07,-2.83982321633348e-07,-7.23550462485048e-08,7.99423220695364e-08,7.58727582102736e-09,6.34773377824051e-08,5.65669768755463e-08,5.65669768756167e-08,,2.08263511921136e-07,4.98400068322669e-08,0,1,0,3.78879999999981,103,944.773300970874,550.630582524272,1834.53398058252,930.687378640777,958.859223300971,534.829126213592,566.432038834951,1895.78640776699,1773.28155339806,0
2142.208,-1.37633325273819e-07,-2.46096132122231e-07,-3.83729457396153e-07,3.37434822451106e-07,-1.18530848048119e-07,-1.18530848048292e-07,-1.55902912541655e-07,-1.91402767485606e-07,-3.47305680027176e-07,3.65035942391431e-07,3.84336089900809e-07,3.6503594239123e-07,1.28086531341969e-07,,7.77066351542245e-08,1.39030325347841e-07,-2.73891541095157e-08,1.11641171238271e-07,3.62215063558897e-09,1.07006406031031e-08,3.62215063610859e-09,,,,-7.4353341022312e-08,-4.5256741364453e-08,,-3.2446725386704e-08,,2.51880880650557e-07,-2.12745348113088e-07,3.6828788467645e-08,,-1.84725601457077e-08,7.09591595309011e-08,5.24865993851803e-08,-4.71234503390886e-08,8.08562338259536e-08,8.08562338260173e-08,,-8.53925760274573e-07,-2.68556806669715e-07,-8.92901664807911e-08,8.90084087961117e-08,-2.81757684685525e-10,6.98398345953219e-08,5.19912351199414e-08,5.19912351200132e-08,,1.96101595258145e-07,5.68020242060352e-08,0,0,0,3.89120000000003,102,942.512745098039,547.780882352941,1823.71568627451,928.214705882353,956.810784313725,533.848039215686,561.713725490196,1885.66666666667,1761.76470588235,0
2142.3104,-1.35778332439203e-07,-2.46512314150892e-07,-3.822906465902e-07,3.32882744413541e-07,-1.16219874504529e-07,-1.16219874504704e-07,-1.50858590070532e-07,-1.87630464573607e-07,-3.38489054644055e-07,3.77996684362889e-07,3.84320098033861e-07,3.7799668436269e-07,1.2821776457593e-07,,8.54005316683418e-08,1.49313831354059e-07,-2.61488998073763e-08,1.23164931546627e-07,1.59328310361353e-08,1.36393313377181e-08,1.59328310366519e-08,,,,-6.65858368489494e-08,-4.5087581036838e-08,,-3.52792234978967e-08,,2.47658923154002e-07,-2.31904974131004e-07,3.10658787617116e-08,,-1.88060448888281e-08,7.41486903734096e-08,5.53426454845678e-08,-4.72277024126383e-08,8.02763668907287e-08,8.02763668907921e-08,,-8.50536788607613e-07,-2.52898130306615e-07,-1.03978980759723e-07,9.67609467423269e-08,-7.21803401740377e-09,7.48966862950126e-08,4.73054502852387e-08,4.73054502853117e-08,,1.83685426502076e-07,6.21058228439634e-08,0,0,0,3.99359999999979,103,941.316990291262,554.773300970874,1807.30582524272,926.421359223301,956.212621359223,550.919417475728,558.62718446602,1868.93203883495,1745.67961165049,0
2142.4128,-1.33860228741695e-07,-2.45868568192206e-07,-3.79728796934008e-07,3.2728070088608e-07,-1.13960976668666e-07,-1.13960976668843e-07,-1.44220934694074e-07,-1.83001872234088e-07,-3.27222806928079e-07,3.88945485938461e-07,3.82455737325672e-07,3.88945485938264e-07,1.26916907122512e-07,,9.11308855214815e-08,1.57438261351808e-07,-2.39417663547208e-08,1.33496494997031e-07,2.85096396385701e-08,1.88285567546334e-08,2.85096396390834e-08,,,,-6.05445737791119e-08,-4.38268152464209e-08,,-3.94276316144009e-08,,2.43769384874265e-07,-2.49566501034667e-07,2.53342400699107e-08,,-1.77418919649308e-08,7.79359153041172e-08,6.01940233391723e-08,-4.83193053798567e-08,7.87569388579871e-08,7.8756938858051e-08,,-8.4606318543334e-07,-2.37066777593252e-07,-1.16431668822533e-07,1.030858533455e-07,-1.33458154770413e-08,7.86693118377694e-08,4.25336095783778e-08,4.2533609578452e-08,,1.7114602821271e-07,6.56530435106209e-08,0,0,0,4.096,102,938.985294117647,549.747058823529,1786.96568627451,925.664705882353,952.305882352941,535.471568627451,564.022549019608,1847.55882352941,1726.37254901961,0
2142.5152,-1.31751024644392e-07,-2.44062022050487e-07,-3.75813046694988e-07,3.2037181927162e-07,-1.11695162774889e-07,-1.11695162775067e-07,-1.35959247823688e-07,-1.77325286446772e-07,-3.13284534270378e-07,3.97735324713357e-07,3.78726744361967e-07,3.97735324713162e-07,1.24290991059075e-07,,9.51393650129714e-08,1.6326850634144e-07,-2.06148653584711e-08,1.42653640982913e-07,4.11061928882967e-08,2.62604724815847e-08,4.11061928888064e-08,,,,-5.61430542975189e-08,-4.14573391261918e-08,,-4.49307452260844e-08,,2.40271430186213e-07,-2.6540875089249e-07,1.95923081557102e-08,,-1.50731952522899e-08,8.24262942211037e-08,6.73530989687993e-08,-5.0537566933426e-08,7.6599279770274e-08,7.65992797703391e-08,,-8.40590447356024e-07,-2.20883068716575e-07,-1.26875749871678e-07,1.0797284500906e-07,-1.89029048626261e-08,8.11751003281797e-08,3.77190621141999e-08,3.7719062114275e-08,,1.58513792199878e-07,6.73684840770374e-08,0,0,0,4.19839999999977,102,938.94362745098,548.137254901961,1768.66666666667,929.140196078431,948.74705882353,533.835294117647,562.439215686275,1830.01960784314,1707.3137254902,0
2142.6176,-1.2935612269124e-07,-2.41014146229064e-07,-3.70370268920415e-07,3.11973406690136e-07,-1.09354271507138e-07,-1.09354271507317e-07,-1.26114337471192e-07,-1.70454354778698e-07,-2.9656869224981e-07,4.04167133139139e-07,3.73196830995965e-07,4.04167133138947e-07,1.20581008905429e-07,,9.78348013707316e-08,1.66771909157438e-07,-1.60689727706114e-08,1.5070293638677e-07,5.34620171375135e-08,3.57839732365192e-08,5.34620171380191e-08,,,,-5.31816339141328e-08,-3.80215264352732e-08,,-5.17645506458812e-08,,2.37142737505492e-07,-2.7924112535322e-07,1.38065628400527e-08,,-1.07011795030468e-08,8.76775476506883e-08,7.69763681476271e-08,-5.38590148139959e-08,7.41272628833689e-08,7.41272628834355e-08,,-8.34153590687891e-07,-2.04015531821852e-07,-1.35650825828643e-07,1.11481673923935e-07,-2.41691519047157e-08,8.24480267793493e-08,3.28878650776533e-08,3.28878650777293e-08,,1.45711453405156e-07,6.71950950246346e-08,0,0,0,4.30079999999998,103,938.303883495146,555.949514563107,1734.19902912621,933.404854368932,943.202912621359,545.342718446602,566.556310679612,1802.80582524272,1665.59223300971,0
2142.72,-1.26630926624291e-07,-2.36700053234404e-07,-3.63330979858808e-07,3.020054170046e-07,-1.06872868095061e-07,-1.0687286809524e-07,-1.14821361674254e-07,-1.62314069851604e-07,-2.77135431525778e-07,4.0806119168589e-07,3.65989060930381e-07,4.080611916857e-07,1.16137896431964e-07,,9.97431746245068e-08,1.6801232663955e-07,-1.02653686723229e-08,1.57746957967172e-07,6.52734036752329e-08,4.70909364183303e-08,6.52734036757341e-08,,,,-5.13886157928493e-08,-3.36168863686275e-08,,-5.98426350751214e-08,,2.34302835637881e-07,-2.91003238944893e-07,7.97303848675862e-09,,-4.64522038553105e-09,9.36912689050817e-08,8.90460485195363e-08,-5.81035271547271e-08,7.16542746066447e-08,7.16542746067135e-08,,-8.2671776070439e-07,-1.86117369762786e-07,-1.43110429547429e-07,1.13712260432395e-07,-2.93981691150405e-08,8.25489970113488e-08,2.80267699867699e-08,2.80267699868466e-08,,1.32569843755499e-07,6.50954692724156e-08,0,0,0,4.40319999999974,102,939.511764705882,550.455882352941,1691.01470588235,935.264705882353,943.758823529412,534.133333333333,566.778431372549,1760.82352941176,1621.20588235294,0
2142.8224,-1.2358584087109e-07,-2.31150756994175e-07,-3.5473659786538e-07,2.90494524514656e-07,-1.04183632698525e-07,-1.04183632698704e-07,-1.02326727592278e-07,-1.52894400483025e-07,-2.55221128075225e-07,4.09289654469047e-07,3.57265737449197e-07,4.09289654468861e-07,1.11360525311978e-07,,1.01426080554378e-07,1.67138379245107e-07,-3.23934219057175e-09,1.6389903705448e-07,7.61921873420365e-08,5.97200501830736e-08,7.61921873425331e-08,,,,-5.04538238754088e-08,-2.8386578678279e-08,,-6.90093893378053e-08,,2.3164517319616e-07,-3.00720366494311e-07,2.13748211244986e-09,,2.97475340193896e-09,1.0041151820392e-07,1.03386271605844e-07,-6.29704556609073e-08,6.94493093513304e-08,6.94493093514016e-08,,-8.18156843484037e-07,-1.6696731820159e-07,-1.49557224265847e-07,1.14785742022853e-07,-3.47714822429998e-08,8.1555210539683e-08,2.30824960244885e-08,2.30824960245659e-08,,1.18860367450016e-07,6.10560093159025e-08,0,0,0,4.50559999999996,102,942.475980392157,548.352450980392,1659.72549019608,937.817647058824,947.13431372549,528.332352941177,568.372549019608,1723.86274509804,1595.58823529412,0
2142.9248,-1.20274966880387e-07,-2.24431970934631e-07,-3.44706937815136e-07,2.7755866134173e-07,-1.01205330822808e-07,-1.01205330822988e-07,-8.89734475478099e-08,-1.42225345283436e-07,-2.31198792831169e-07,4.07770916298331e-07,3.47214402203333e-07,4.07770916298147e-07,1.06617691688502e-07,,1.03391019302772e-07,1.64358854403539e-07,4.89073772562462e-09,1.69249592129109e-07,8.58713378519253e-08,7.30697214536815e-08,8.58713378524167e-08,,,,-5.00596755085849e-08,-2.25014288658538e-08,,-7.9043759240259e-08,,2.29064128741928e-07,-3.08448434842435e-07,-3.59323038774972e-09,,1.19701893823487e-08,1.07733109508001e-07,1.19703298890336e-07,-6.80938370710051e-08,6.77049074436011e-08,6.77049074436748e-08,,-8.08236096217551e-07,-1.46561473097183e-07,-1.55216418080794e-07,1.14844783329143e-07,-4.03716347516548e-08,7.95325344952613e-08,1.79793427767458e-08,1.7979342776824e-08,,1.04335593104018e-07,5.50815953724665e-08,0,0,0,4.60799999999972,103,945.322330097087,548.114563106796,1651.44660194175,940.388349514563,950.256310679612,528.543689320388,567.685436893204,1710.07766990291,1592.81553398058,0
2143.0272,-1.16772054671547e-07,-2.16612658246924e-07,-3.33384712918592e-07,2.63389509013507e-07,-9.78390023508003e-08,-9.78390023509798e-08,-7.51480391946994e-08,-1.3035238379789e-07,-2.05500422992513e-07,4.03451051107462e-07,3.36039074297944e-07,4.03451051107278e-07,1.02183497659992e-07,,1.06018317548436e-07,1.59907727916822e-07,1.39316132538525e-08,1.7383934117062e-07,9.40424149061019e-08,8.64343082967147e-08,9.40424149065877e-08,,,,-4.99101528475163e-08,-1.61353235271303e-08,,-8.96824261363284e-08,,2.26472596247006e-07,-3.14248875254243e-07,-9.05318304122588e-09,,2.21137457013631e-08,1.15516739759318e-07,1.37630485460666e-07,-7.31013030694624e-08,6.65195793494887e-08,6.65195793495649e-08,,-7.96609679375488e-07,-1.25122176249193e-07,-1.60234988621988e-07,1.14066773082353e-07,-4.6168215539638e-08,7.64997121786607e-08,1.26493343667872e-08,1.26493343668663e-08,,8.87858152381462e-08,4.7181365146399e-08,0,0,0,4.71039999999994,102,945.917156862745,546.01568627451,1648.42647058824,938.440196078431,953.394117647059,542.812745098039,549.21862745098,1703.93137254902,1592.92156862745,0
2143.1296,-1.13147176075737e-07,-2.07738435194212e-07,-3.20885611270074e-07,2.48247816493446e-07,-9.39810069879008e-08,-9.39810069880804e-08,-6.12146930223054e-08,-1.17324524595324e-07,-1.78539217617555e-07,3.9629907075355e-07,3.2395077020022e-07,3.96299070753368e-07,9.82054276321277e-08,,1.09519674763496e-07,1.54011212513632e-07,2.3640140489995e-08,1.77651353003574e-07,1.00584072744998e-07,9.90839715164329e-08,1.00584072745478e-07,,,,-4.97468339305822e-08,-9.44335969204235e-09,,-1.00652175675044e-07,,2.23814202381753e-07,-3.18207690850048e-07,-1.40342174522906e-08,,3.31566928618897e-08,1.23602598675131e-07,1.56759291537007e-07,-7.76590151136772e-08,6.59061406984751e-08,6.59061406985538e-08,,-7.82841038417224e-07,-1.03032643886734e-07,-1.64688213306601e-07,1.12673824763458e-07,-5.20143885431439e-08,7.24003436591568e-08,7.06361569667513e-09,7.06361569675511e-09,,7.21153521832966e-08,3.73595807518432e-08,0,1,0,4.81280000000015,103,945.997572815534,548.340776699029,1645.54368932039,937.055339805825,954.939805825243,544.743689320388,551.93786407767,1696.81553398058,1594.27184466019,0
2143.232,-1.09461475989356e-07,-1.97820770688461e-07,-3.07282246677945e-07,2.32473590618655e-07,-8.95489193296403e-08,-8.95489193298202e-08,-4.74737487489447e-08,-1.0320029439403e-07,-1.50674043142901e-07,3.86327151294568e-07,3.11153213022991e-07,3.86327151294387e-07,9.4709108069506e-08,,1.13934691405473e-07,1.46864216915913e-07,3.37536235144246e-08,1.80617840430285e-07,1.05548109345758e-07,1.10375328371359e-07,1.05548109346232e-07,,,,-4.93460246955519e-08,-2.55182747237804e-09,,-1.11693926010442e-07,,2.21077864014951e-07,-3.20476365267825e-07,-1.83155414845653e-08,,4.48353493932511e-08,1.31815072189552e-07,1.7665042158279e-07,-8.1491163993821e-08,6.58232012184709e-08,6.58232012185521e-08,,-7.66458200048648e-07,-8.0744729496318e-08,-1.68578718666464e-07,1.10927555196038e-07,-5.76511634704246e-08,6.71063705927686e-08,1.25009247701377e-09,1.25009247709488e-09,,5.44113560831606e-08,2.56233186851563e-08,0,1,0,4.91519999999991,102,947.14362745098,550.342647058824,1641.83823529412,936.955882352941,957.33137254902,552.439215686275,548.246078431373,1685.50980392157,1598.16666666667,0
2143.3344,-1.0578330874181e-07,-1.86844370679031e-07,-2.92627679420974e-07,2.16498112286286e-07,-8.45074942738551e-08,-8.45074942740355e-08,-3.41617230872217e-08,-8.80676582219517e-08,-1.22229381309099e-07,3.73617197167478e-07,2.97826865584545e-07,3.736171971673e-07,9.16287822236845e-08,,1.19159645544686e-07,1.3861137105123e-07,4.40145845097177e-08,1.82625955560896e-07,1.09130446898153e-07,1.19860602533768e-07,1.09130446898619e-07,,,,-4.8505971745662e-08,4.43866788983401e-09,,-1.22569850532292e-07,,2.18316392806404e-07,-3.21293214033867e-07,-2.17015752519368e-08,,5.68743391488251e-08,1.39958795488302e-07,1.96833134637115e-07,-8.43725084400367e-08,6.62130888600175e-08,6.62130888601012e-08,,-7.47045433725297e-07,-5.87096729332733e-08,-1.71829709072272e-07,1.09109010157427e-07,-6.27206989148415e-08,6.04650099598182e-08,-4.71048711387739e-09,-4.71048711379493e-09,,3.5967297764552e-08,1.2009898075877e-08,0,1,0,5.01760000000013,102,947.326470588235,545.229901960784,1646.34803921569,936.324509803922,958.328431372549,544.755882352941,545.703921568628,1686.58823529412,1606.10784313725,0
2143.4368,-1.02210277522122e-07,-1.7478522788692e-07,-2.76995505409178e-07,2.00836623045251e-07,-7.88798912195271e-08,-7.88798912197084e-08,-2.14849033034518e-08,-7.20614641322351e-08,-9.35463674356126e-08,3.58318213461776e-07,2.84119807271039e-07,3.58318213461599e-07,8.88428117679954e-08,,1.24990535669845e-07,1.29329588865167e-07,5.4183176979004e-08,1.83512765844121e-07,1.11597960013081e-07,1.27369306206526e-07,1.1159796001354e-07,,,,-4.70350439194572e-08,1.1442373777283e-08,,-1.33056009293001e-07,,2.15657910737512e-07,-3.20956932904588e-07,-2.40593449110367e-08,,6.89915074320865e-08,1.47813690972085e-07,2.16805198404159e-07,-8.61022158903195e-08,6.70277154514215e-08,6.70277154515077e-08,,-7.24345768780904e-07,-3.73478797386536e-08,-1.74294201295393e-07,1.07496401839431e-07,-6.6797799455957e-08,5.23730100335778e-08,-1.07061457199211e-08,-1.07061457198369e-08,,1.72455598454452e-08,-3.3729427856206e-09,0,0,0,5.11999999999989,103,946.500970873787,548.095631067961,1648.52912621359,935.516504854369,957.485436893204,552.081553398058,544.109708737864,1683.80582524272,1613.25242718447,0
2143.5392,-9.88779146920569e-08,-1.61628329067218e-07,-2.60506243759416e-07,1.86048422105643e-07,-7.27373487692899e-08,-7.27373487694721e-08,-9.65974039401321e-09,-5.53628201238607e-08,-6.50225605177992e-08,3.4060263461981e-07,2.70152035275348e-07,3.40602634619635e-07,8.62001722603753e-08,,1.31166295945106e-07,1.19019714528428e-07,6.40382262505081e-08,1.83057940778888e-07,1.13206121070369e-07,1.3303382101732e-07,1.1320612107082e-07,,,,-4.47472521569362e-08,1.83789411660553e-08,,-1.42930924494912e-07,,2.13293858585674e-07,-3.1975933640031e-07,-2.53439766901529e-08,,8.09076592201752e-08,1.55139342302201e-07,2.36047001522364e-07,-8.64791481477432e-08,6.82341813250619e-08,6.82341813251508e-08,,-6.98350378216621e-07,-1.70481364685829e-08,-1.75797705437124e-07,1.06351145790538e-07,-6.94465596465803e-08,4.28453648745892e-08,-1.66219219319953e-08,-1.6621921931909e-08,,-1.20901032620796e-09,-2.03114481304669e-08,0,0,0,5.22240000000011,102,948.024019607843,554.607843137255,1654.97549019608,939.809803921569,956.238235294118,556.794117647059,552.421568627451,1686.80392156863,1623.14705882353,0
2143.6416,-9.59445229391813e-08,-1.47379920322472e-07,-2.43324443261798e-07,1.72670699906245e-07,-6.61753492567998e-08,-6.61753492569833e-08,1.07511723454798e-09,-3.81827552190175e-08,-3.71076379843942e-08,3.20608657584164e-07,2.56032873673767e-07,3.2060865758399e-07,8.35421090482234e-08,,1.37412944898998e-07,1.07615570956208e-07,7.33796493611771e-08,1.80995220317339e-07,1.14144424827742e-07,1.37234329886946e-07,1.14144424828186e-07,,,,-4.1472904849078e-08,2.51743996635885e-08,,-1.51976044000924e-07,,2.11438079393253e-07,-3.17913111043405e-07,-2.56037498049958e-08,,9.23656296395854e-08,1.61695700782539e-07,2.54061330422113e-07,-8.53023939372234e-08,6.98057898053474e-08,6.9805789805439e-08,,-6.69367867176766e-07,1.81441143764457e-09,-1.76201517967242e-07,1.05907550009921e-07,-7.02939679573142e-08,3.20507386082868e-08,-2.23608860416698e-08,-2.23608860415813e-08,,-1.88732616639379e-08,-3.84752618738776e-08,0,0,0,5.32479999999987,103,948.702912621359,550.120388349515,1660.81553398058,939.681553398058,957.72427184466,552.338834951456,547.901941747573,1691.53398058252,1630.09708737864,0
2143.744,-9.3552683119265e-08,-1.32076222627005e-07,-2.25628905746419e-07,1.61149829300282e-07,-5.92925407783196e-08,-5.92925407785045e-08,1.0493679169396e-08,-2.07460383303125e-08,-1.02523591608402e-08,2.98404355636069e-07,2.41885044993092e-07,2.98404355635896e-07,8.07302667840767e-08,,1.43491382972476e-07,9.50123183710293e-08,8.20432606925646e-08,1.7705557906355e-07,1.14518761808903e-07,1.40481109168229e-07,1.14518761809338e-07,,,,-3.70864317567591e-08,3.17730666568379e-08,,-1.5999761526566e-07,,2.10268415985746e-07,-3.15513338752368e-07,-2.4963561724156e-08,,1.03156064984613e-07,1.67276412111682e-07,2.70432477096285e-07,-8.24016007531531e-08,7.17108882284206e-08,7.17108882285149e-08,,-6.38047112515309e-07,1.88578604896357e-08,-1.75453388612882e-07,1.06355869274611e-07,-6.90975193382634e-08,2.0302778262002e-08,-2.78485676469137e-08,-2.78485676468227e-08,,-3.53297476477247e-08,-5.74421118333948e-08,0,0,0,5.42720000000008,102,931.170620929278,628.189488670359,1575.52135472759,916.252609108159,946.088632750397,646.13894686907,610.240030471648,1587.16002530044,1563.88268415474,0.42156862745098
2143.8464,-9.17790880016665e-08,-1.15791495724798e-07,-2.07570583726618e-07,1.51798054831657e-07,-5.21828351352106e-08,-5.2182835135397e-08,1.844556253997e-08,-3.28545766314093e-09,1.51601048769065e-08,2.73991206203674e-07,2.27866603155126e-07,2.73991206203504e-07,7.76825434278512e-08,,1.49240243556162e-07,8.11108315268137e-08,8.99206531667584e-08,1.7103148469353e-07,1.14350730703776e-07,1.43285605179748e-07,1.14350730704203e-07,,,,-3.1536180447257e-08,3.81486072219885e-08,,-1.66861698577873e-07,,2.09873162984021e-07,-3.12551169721318e-07,-2.35955328780966e-08,,1.13133342255693e-07,1.71739328559689e-07,2.84872670815372e-07,-7.76712478026199e-08,7.39083674478806e-08,7.39083674479779e-08,,-6.05315509624928e-07,3.3694581507681e-08,-1.73601068932871e-07,1.07820914696076e-07,-6.57801542367871e-08,8.01767847126132e-09,-3.30258227921547e-08,-3.30258227920609e-08,,-5.03089737370529e-08,-7.67490734538299e-08,0,0,0,5.52959999999985,103,909.923511312753,717.830797627411,1467.50069726005,883.261979329784,936.585043295723,779.369683683057,656.291911571766,1437.00657688694,1497.99481763317,0.0388349514563107
2143.9488,-9.05925744416909e-08,-9.86455019722624e-08,-1.89238076414111e-07,1.44789717887142e-07,-4.49377155957205e-08,-4.49377155959084e-08,2.49013753986741e-08,1.39589110369744e-08,3.88602864357274e-08,2.47343585799901e-07,2.14183491765378e-07,2.47343585799736e-07,7.44042216313631e-08,,1.54597972805215e-07,6.58692340136746e-08,9.69648536231405e-08,1.62834087636776e-07,1.13572929457686e-07,1.46049535534789e-07,1.13572929458106e-07,,,,-2.48521980727495e-08,4.42995383157543e-08,,-1.72520169461043e-07,,2.10223369928291e-07,-3.0896664103495e-07,-2.16926005252868e-08,,1.22204640400366e-07,1.75017676127119e-07,2.97222316527475e-07,-7.10757487167283e-08,7.63507854053687e-08,7.63507854054691e-08,,-5.72244050280988e-07,4.59604237316063e-08,-1.70769752626511e-07,1.10351820589977e-07,-6.04179320365252e-08,-4.33957028276751e-09,-3.78438450257725e-08,-3.78438450256759e-08,,-6.36932820809458e-08,-9.59468313199829e-08,0,0,0,5.63200000000006,102,944.245588235294,553.764215686275,1654.05882352941,934.577450980392,953.913725490196,554.098039215686,553.430392156863,1691.20588235294,1616.91176470588,0
2144.0512,-8.98375582294313e-08,-8.08078834388358e-08,-1.7064544166843e-07,1.40187910813971e-07,-3.76473597234569e-08,-3.76473597236466e-08,2.99446698828066e-08,3.07495073783439e-08,6.06941772612309e-08,2.1845922264648e-07,2.01088009244574e-07,2.18459222646321e-07,7.0995085205552e-08,,1.59589466730101e-07,4.9348480550604e-08,1.03168825843815e-07,1.52517306394383e-07,1.12023350153168e-07,1.48979238449172e-07,1.12023350153578e-07,,,,-1.71208288374831e-08,5.0224907235812e-08,,-1.7700549009677e-07,,2.11177946951412e-07,-3.04702742675261e-07,-1.945602210459e-08,,1.30295350800782e-07,1.77106597210755e-07,3.07401948011527e-07,-6.26211180428318e-08,7.89898564533124e-08,7.8989856453416e-08,,-5.39899471559766e-07,5.5357734558118e-08,-1.67127366005441e-07,1.13933605085878e-07,-5.31937609195555e-08,-1.63075261312495e-08,-4.22648860187035e-08,-4.22648860186041e-08,,-7.54931131589209e-08,-1.14633704232165e-07,0,0,0,5.73439999999982,102,948.140196078431,541.781862745098,1668.21568627451,936.936274509804,959.344117647059,545.158823529412,538.404901960784,1711.22549019608,1625.20588235294,0
2144.1536,-8.92455493607195e-08,-6.24961010421183e-08,-1.51741650403004e-07,1.37978304685903e-07,-3.03929793430396e-08,-3.0392979343231e-08,3.37161296157749e-08,4.68776270229728e-08,8.05937566388298e-08,1.87389348262598e-07,1.88859914376665e-07,1.87389348262446e-07,6.76204187153274e-08,,1.64273987521938e-07,3.17396409959621e-08,1.08521765028412e-07,1.40261406024342e-07,1.09460451921801e-07,1.5205410816965e-07,1.09460451922203e-07,,,,-8.4404320055296e-09,5.58913127108875e-08,,-1.80388862907865e-07,,2.12512318427427e-07,-2.99725726641495e-07,-1.70938807368158e-08,,1.37312587940106e-07,1.78033765725249e-07,3.15346353665345e-07,-5.23230404816604e-08,8.17778233624177e-08,8.17778233625242e-08,,-5.0922959549953e-07,6.16989023247148e-08,-1.62862378608231e-07,1.18509098509072e-07,-4.43532800991511e-08,-2.74812148664654e-08,-4.6259826090686e-08,-4.62598260905837e-08,,-8.58013724861608e-08,-1.32461576970854e-07,0,0,0,5.83680000000004,103,947.171359223301,532.918446601942,1670.05339805825,936.62718446602,957.715533980583,531.25145631068,534.585436893204,1719.22330097087,1620.88349514563,0
2144.256,-8.84623354210871e-08,-4.39653789842069e-08,-1.32427714405464e-07,1.38089469042324e-07,-2.32335081610932e-08,-2.32335081612866e-08,3.63504390836288e-08,6.21995349387814e-08,9.85499740224939e-08,1.5424163244937e-07,1.77773193344594e-07,1.54241632449224e-07,6.44555542555328e-08,,1.68674074656409e-07,1.33642203336811e-08,1.12965855605892e-07,1.26330075939544e-07,1.05611080720823e-07,1.55078788399175e-07,1.05611080721217e-07,,,,1.11215270808876e-09,6.12099182766083e-08,,-1.82722903741088e-07,,2.13956167316369e-07,-2.9400743405839e-07,-1.48200775543141e-08,,1.43125840193742e-07,1.77830066925197e-07,3.20955907118929e-07,-4.02027964735421e-08,8.46624077983055e-08,8.46624077984145e-08,,-4.80985844814094e-07,6.49415128662074e-08,-1.58176965462671e-07,1.23987588612857e-07,-3.4189376849808e-08,-3.75655685276153e-08,-4.97963919684168e-08,-4.97963919683115e-08,,-9.47341141141272e-08,-1.49123873692424e-07,0,0,0,5.9391999999998,102,949.538235294118,536.136274509804,1641.25,939.401960784314,959.674509803922,543.186274509804,529.086274509804,1696.79411764706,1585.70588235294,0
2144.3584,-8.70766501625502e-08,-2.54939998056514e-08,-1.12570649968375e-07,1.40394409572375e-07,-1.61968735739582e-08,-1.61968735741537e-08,3.79445769092198e-08,7.66635480964227e-08,1.14608125005728e-07,1.19175979166843e-07,1.68062858841313e-07,1.19175979166705e-07,6.16330815456431e-08,,1.72722418663578e-07,-5.35509442405942e-09,1.16380031479635e-07,1.11024937055549e-07,1.00240096935869e-07,1.57792662152017e-07,1.00240096936254e-07,,,,1.14839604150187e-08,6.60357239552976e-08,,-1.84004107061274e-07,,2.15228316971106e-07,-2.87495653993792e-07,-1.28462136675623e-08,,1.475684412378e-07,1.76514346451373e-07,3.24082787689164e-07,-2.63143342655437e-08,8.75793255722024e-08,8.75793255723136e-08,,-4.55673441085249e-07,6.52050875719727e-08,-1.53283075327388e-07,1.30233861852448e-07,-2.30492134749354e-08,-4.64180358091764e-08,-5.28221148033277e-08,-5.28221148032193e-08,,-1.02373575166268e-07,-1.64343554771291e-07,0,1,0,6.04160000000002,102,950.076960784314,532.76568627451,1602.08333333333,941.19705882353,958.956862745098,540.656862745098,524.874509803922,1661.42156862745,1542.74509803922,0
2144.4608,-8.46488061728176e-08,-7.37021653966821e-09,-9.20190227126633e-08,1.44710202179219e-07,-9.28552917544515e-09,-9.28552917564311e-09,3.85705310423481e-08,9.03078333150538e-08,1.28878364357489e-07,8.24185413628119e-08,1.59904741386496e-07,8.24185413626807e-08,5.92199245895328e-08,,1.76255017040261e-07,-2.39458387868751e-08,1.18600980941568e-07,9.46551421546687e-08,9.32250422574015e-08,1.59975814591677e-07,9.32250422577788e-08,,,,2.2620917114281e-08,7.01880692217495e-08,,-1.84175772418995e-07,,2.16059295498471e-07,-2.80105857596827e-07,-1.13651487887847e-08,,1.50452988683898e-07,1.74096658095075e-07,3.24549646778965e-07,-1.07800370534332e-08,9.04499143923246e-08,9.04499143924375e-08,,-4.33528764120023e-07,6.27640428699205e-08,-1.48392028602087e-07,1.37053707750417e-07,-1.13383208516667e-08,-5.40673860892354e-08,-5.52515456991713e-08,-5.52515456990599e-08,,-1.08727852164518e-07,-1.77875275216343e-07,0,1,0,6.14399999999978,103,948.444174757281,538.992233009709,1557.37378640777,942.134951456311,954.753398058253,547.02718446602,530.957281553398,1617.41747572816,1497.33009708738,0
2144.5632,-8.07496049218792e-08,1.01164786954174e-08,-7.06331262266427e-08,1.50822514566711e-07,-2.4988151817488e-09,-2.49881518194952e-09,3.83180390510391e-08,1.0322399883576e-07,1.41542037886889e-07,4.43073555228527e-08,1.5340402421922e-07,4.43073555227286e-08,5.72311891411238e-08,,1.79051475420606e-07,-4.19443790356026e-08,1.19467897389805e-07,7.75235183541816e-08,8.46256137116068e-08,1.61520811508565e-07,8.46256137119764e-08,,,,3.44379116475663e-08,7.34812871497121e-08,,-1.83161747751752e-07,,2.16199734816666e-07,-2.71750462099474e-07,-1.05315211712325e-08,,1.51593086286466e-07,1.70592481009561e-07,3.2218556729602e-07,6.19250603327617e-09,9.3188063205611e-08,9.31880632057253e-08,,-4.14520704257642e-07,5.80148664949295e-08,-1.4369361678299e-07,1.44189844209617e-07,4.96227426626841e-10,-6.07049928396441e-08,-5.69649493820831e-08,-5.69649493819684e-08,,-1.13710906711724e-07,-1.89525386530149e-07,0,1,0,6.24639999999999,102,944.671568627451,533.119607843137,1544.66666666667,939.653921568627,949.689215686274,536.602941176471,529.636274509804,1603.10784313725,1486.22549019608,0
2144.6656,-7.50169822873882e-08,2.66811426331613e-08,-4.83358396544114e-08,1.5854258308422e-07,4.13600419912088e-09,4.13600419891724e-09,3.73333507390514e-08,1.15500689699498e-07,1.5283404043864e-07,5.35397966162057e-09,1.48582407060056e-07,5.35397966150447e-09,5.56684614388481e-08,,1.80902427148806e-07,-5.89501121174493e-08,1.18867592014165e-07,5.99174798966973e-08,7.47248091654693e-08,1.62469034016625e-07,7.47248091658319e-08,,,,4.68056625324629e-08,7.57526617903066e-08,,-1.80905692852163e-07,,2.15424463031806e-07,-2.62389546646322e-07,-1.04475471996357e-08,,1.50828939757935e-07,1.66035416235002e-07,3.16864355992929e-07,2.43272296893661e-08,9.5713575138734e-08,9.57135751388494e-08,,-3.98373469371279e-07,5.14158401155271e-08,-1.39326772245454e-07,1.51330533865201e-07,1.20037616197447e-08,-6.6648652321993e-08,-5.78207956390895e-08,-5.78207956389713e-08,,-1.17145942629053e-07,-1.99180166902488e-07,0,0,0,6.34879999999976,103,946.817961165049,525.205339805825,1552.15533980583,945.332038834952,948.303883495146,529.910679611651,520.5,1613.1067961165,1491.20388349515,0
2144.768,-6.72235521276754e-08,4.20482312533751e-08,-2.51753208744883e-08,1.6777308819061e-07,1.05406206724793e-08,1.05406206722726e-08,3.58184279514732e-08,1.27169246601346e-07,1.62987674552913e-07,-3.372706497435e-08,1.45368051214809e-07,-3.37270649744586e-08,5.45598816239191e-08,,1.81676393792134e-07,-7.46714899311561e-08,1.16763338165792e-07,4.20918482346194e-08,6.40073053767322e-08,1.63005987301481e-07,6.4007305377089e-08,,,,5.95607434606136e-08,7.68797960718687e-08,,-1.77395703020345e-07,,2.13543802618352e-07,-2.52063609717927e-07,-1.11578273242911e-08,,1.48056641039872e-07,1.60480737219752e-07,3.08537378259617e-07,4.33221821389092e-08,9.79645066021395e-08,9.79645066022558e-08,,-3.8462396713036e-07,4.34057186225524e-08,-1.35354669235178e-07,1.58132389854891e-07,2.27777206197085e-08,-7.22754617309061e-08,-5.76818786445093e-08,-5.76818786443874e-08,,-1.18801759166898e-07,-2.06822832330224e-07,0,0,0,6.45119999999997,102,947.099509803922,533.931862745098,1574.63725490196,947.192156862745,947.006862745098,538.990196078431,528.873529411765,1636.27450980392,1513,0
2144.8704,-5.73346951241144e-08,5.59590015621258e-08,-1.37569356218016e-09,1.78544090151621e-07,1.65862027789783e-08,1.65862027787683e-08,3.39804298923431e-08,1.38172404182029e-07,1.72152834074468e-07,-7.20660362909012e-08,1.43602261639134e-07,-7.20660362910029e-08,5.39768380374291e-08,,1.81358221267756e-07,-8.89615788417094e-08,1.13201698921887e-07,2.42401200801631e-08,5.30721984606826e-08,1.63407050415513e-07,5.30721984610349e-08,,,,7.25295316045202e-08,7.67864718565425e-08,,-1.72665383121206e-07,,2.10423815829749e-07,-2.40878890187566e-07,-1.2651200082439e-08,,1.43256191472604e-07,1.54000153567496e-07,2.97256345040094e-07,6.28939216150072e-08,9.98992103165535e-08,9.98992103166705e-08,,-3.72720913873153e-07,3.43189461530035e-08,-1.31759225191228e-07,1.64259317959053e-07,3.25000927678162e-08,-7.7928770831105e-08,-5.64510404940621e-08,-5.64510404939363e-08,,-1.18461566562589e-07,-2.12524057500955e-07,0,0,0,6.55359999999973,102,946.539215686274,534.193137254902,1598.08333333333,946.249019607843,946.829411764706,532.982352941177,535.403921568627,1657.3431372549,1538.82352941176,0
2144.9728,-4.55335638174933e-08,6.81855278615805e-08,2.26519640438924e-08,1.90989134456974e-07,2.21203506250204e-08,2.21203506248072e-08,3.19634359155811e-08,1.48366102650432e-07,1.80329538566111e-07,-1.08758979098398e-07,1.43067928537995e-07,-1.08758979098493e-07,5.40156440082888e-08,,1.80046346544689e-07,-1.01837923595372e-07,1.08303490766651e-07,6.46556717126719e-09,4.252334790056e-08,1.63941821461603e-07,4.25233479009091e-08,,,,8.55477317277956e-08,7.54430239449957e-08,,-1.66778307701697e-07,,2.06008309890003e-07,-2.28952935516838e-07,-1.48672150965159e-08,,1.36511014061074e-07,1.46674816992123e-07,2.83185831053192e-07,8.27971198155388e-08,1.01483504815621e-07,1.01483504815739e-07,,-3.62143488072929e-07,2.43250641259659e-08,-1.28458569437506e-07,1.69431106534954e-07,4.0972537097436e-08,-8.38253941984775e-08,-5.41049990544029e-08,-5.41049990542727e-08,,-1.16005319270143e-07,-2.16409906061967e-07,0,0,0,6.65599999999995,103,946.273786407767,538.060194174757,1630.43203883495,944.233980582524,948.31359223301,542.441747572816,533.678640776699,1688.2427184466,1572.6213592233,0
2145.0752,-3.21997610370276e-08,7.85500271296554e-08,4.63502660924299e-08,2.05263687515269e-07,2.70060904745731e-08,2.70060904743566e-08,2.98160629628903e-08,1.57547187782296e-07,1.87363250745286e-07,-1.43007111016653e-07,1.43528274171169e-07,-1.43007111016742e-07,5.47577860337398e-08,,1.77921571990894e-07,-1.13478682863738e-07,1.02253196255532e-07,-1.1225486608216e-08,3.28874174442259e-08,1.64778477109564e-07,3.28874174445729e-08,,,,9.84595841367868e-08,7.28699175157657e-08,,-1.59816736349516e-07,,2.00332121978375e-07,-2.16360486703933e-07,-1.77045044644457e-08,,1.28016301845202e-07,1.38595794691573e-07,2.66612096536771e-07,1.02805535836667e-07,1.02671227432658e-07,1.02671227432776e-07,,-3.52502747022666e-07,1.34248376815883e-08,-1.2533859315937e-07,1.73464203307963e-07,4.81256101485769e-08,-9.0000111093096e-08,-5.07114301302405e-08,-5.07114301301057e-08,,-1.11480665074619e-07,-2.1862737216738e-07,0,0,0,6.75840000000017,102,947.441666666667,536.723529411765,1649.26470588235,942.847058823529,952.036274509804,542.45,530.997058823529,1704.32352941176,1594.20588235294,0
2145.1776,-1.78458448287135e-08,8.69427507216801e-08,6.90969058927659e-08,2.21446991847554e-07,3.11508896802304e-08,3.11508896800109e-08,2.75230455827738e-08,1.65493348862792e-07,1.93016394445668e-07,-1.74209238820439e-07,1.4475646670959e-07,-1.74209238820522e-07,5.62360163120247e-08,,1.75210614778615e-07,-1.24186924714764e-07,9.52944975901785e-08,-2.88924271245927e-08,2.45801226937108e-08,1.65952339198797e-07,2.45801226940565e-08,,,,1.11099180094558e-07,6.91460027740244e-08,,-1.5188843817363e-07,,1.93517569481549e-07,-2.03122469982128e-07,-2.1027148508432e-08,,1.18075003271407e-07,1.29874835696943e-07,2.47949838968347e-07,1.22670118555715e-07,1.03393131659714e-07,1.03393131659834e-07,,-3.43593776548705e-07,1.51414476193864e-09,-1.22283991307021e-07,1.76286451037778e-07,5.40024597307361e-08,-9.63122808362453e-08,-4.64207063655922e-08,-4.64207063654527e-08,,-1.05134367668134e-07,-2.19324793048568e-07,0,0,0,6.86079999999993,103,946.254368932039,538.820388349515,1656.83009708738,941.422330097087,951.08640776699,535.636893203883,542.003883495146,1710.20388349515,1603.45631067961,0
2145.28,-3.02983606191258e-09,9.33318524617544e-08,9.03020163996393e-08,2.3948175122226e-07,3.45114597560155e-08,3.45114597557931e-08,2.50818070536102e-08,1.72003987562945e-07,1.9708579461666e-07,-2.01970697171883e-07,1.46543533108483e-07,-2.01970697171959e-07,5.84261889727016e-08,,1.72159107175151e-07,-1.3432445080269e-07,8.77265590984623e-08,-4.65978917042317e-08,1.79115864948065e-08,1.67425297668558e-07,1.79115864951513e-08,,,,1.23275186159627e-07,6.44124328831021e-08,,-1.43144488096496e-07,,1.85754083919622e-07,-1.89253219884428e-07,-2.4669019570628e-08,,1.07076876223948e-07,1.20657915189486e-07,2.27734791413434e-07,1.42095254648881e-07,1.03561667915999e-07,1.0356166791612e-07,,-3.35382683262361e-07,-1.15126507946152e-08,-1.19196385759818e-07,1.7792286880386e-07,5.87264830440162e-08,-1.02510902335675e-07,-4.14362774803728e-08,-4.14362774802288e-08,,-9.73791873766251e-08,-2.18649542435982e-07,0,0,0,6.96320000000014,102,945.582843137255,535.819117647059,1661.90196078431,939.122549019608,952.043137254902,539.637254901961,532.000980392157,1715.88235294118,1607.92156862745,0
2145.3824,1.17308804153993e-08,9.77617372938703e-08,1.09492617709066e-07,2.59180126518656e-07,3.70774174576327e-08,3.70774174574076e-08,2.25785168346689e-08,1.76929221211474e-07,1.9950773804625e-07,-2.26040601133254e-07,1.48688580858194e-07,-2.26040601133325e-07,6.12652648836955e-08,,1.69015881934144e-07,-1.44233337240087e-07,7.98928409193309e-08,-6.43404963207578e-08,1.31086913784282e-08,1.69179728380084e-07,1.31086913787723e-08,,,,1.34778729334178e-07,5.88624768549947e-08,,-1.33790281069679e-07,,1.77269431959534e-07,-1.74838611897566e-07,-2.84418569753601e-08,,9.54591468818509e-08,1.11130052047066e-07,2.06589198928917e-07,1.60760763037443e-07,1.03089430232226e-07,1.03089430232348e-07,,-3.27950639568869e-07,-2.56651887585892e-08,-1.15997494071345e-07,1.78466734446182e-07,6.24692403748062e-08,-1.08325596252971e-07,-3.59785462887201e-08,-3.59785462885717e-08,,-8.87053518244007e-08,-2.16754593810956e-07,0,0,0,7.0655999999999,103,942.230097087379,531.780582524272,1674.00485436893,935.202912621359,949.257281553398,535.554368932039,528.006796116505,1733.06796116505,1614.94174757282,0
2145.4848,2.60204535629149e-08,1.00341492279859e-07,1.26361945842569e-07,2.80279950489424e-07,3.8851325565439e-08,3.88513255652115e-08,2.02195910087123e-08,1.80178921123063e-07,2.00398512131884e-07,-2.46236491091242e-07,1.50988905896025e-07,-2.46236491091308e-07,6.46767025641624e-08,,1.6602016954349e-07,-1.54171659936762e-07,7.21588230852693e-08,-8.20128368514921e-08,1.0332385858357e-08,1.71257930991483e-07,1.03323858586999e-08,,,,1.45415230575724e-07,5.27165587910769e-08,,-1.24076132656258e-07,,1.68303836901992e-07,-1.60087864216343e-07,-3.21513903368495e-08,,8.36589184943504e-08,1.01504908811891e-07,1.85163827306244e-07,1.7837514995947e-07,1.01914035746476e-07,1.019140357466e-07,,-3.21447544140863e-07,-4.0801888672048e-08,-1.12627652257963e-07,1.78052008439684e-07,6.5424356181686e-08,-1.13540269277517e-07,-3.02572623173923e-08,-3.02572623172397e-08,,-7.95867975608207e-08,-2.13802749182045e-07,0,0,0,7.16800000000012,102,944.234803921569,533.784803921569,1671.59803921569,937.051960784314,951.417647058824,534.308823529412,533.260784313726,1731.23529411765,1611.96078431373,0
2145.5872,3.95495900751054e-08,1.01229652978295e-07,1.40779243053196e-07,3.02504892886792e-07,3.98430792741493e-08,3.98430792739196e-08,1.82979159461032e-08,1.81719177808997e-07,2.00017093755211e-07,-2.62421904555806e-07,1.53245307116241e-07,-2.62421904555865e-07,6.85801699668329e-08,,1.63380476850095e-07,-1.64281386087002e-07,6.48797748856454e-08,-9.94016112013539e-08,9.67881880536591e-09,1.73721608161396e-07,9.67881880570732e-09,,,,1.55043212898423e-07,4.61912388538984e-08,,-1.14265908109257e-07,,1.59094074032797e-07,-1.45315287893759e-07,-3.56181527380918e-08,,7.20735858260742e-08,9.20018253575438e-08,1.64075411183621e-07,1.94720531498422e-07,1.00019935406524e-07,1.00019935406649e-07,,-3.16074953803534e-07,-5.66363215668797e-08,-1.0905248905312e-07,1.76832533525799e-07,6.77800444726395e-08,-1.18021966828528e-07,-2.44584252474492e-08,-2.44584252472931e-08,,-7.04321338852399e-08,-2.09961359609423e-07,0,1,0,7.27039999999988,102,942.928921568627,535.086764705882,1682.55392156863,935.353921568628,950.503921568627,534.498039215686,535.675490196078,1743.40196078431,1621.70588235294,0
2145.6896,5.21519463180834e-08,1.00619914406727e-07,1.52771860724607e-07,3.25586135577638e-07,4.00834250349017e-08,4.00834250346705e-08,1.71128173178007e-08,1.81569954483553e-07,1.98682771801466e-07,-2.74549182925384e-07,1.55282073562914e-07,-2.74549182925437e-07,7.28794983164877e-08,,1.61245750323005e-07,-1.7459023660185e-07,5.83678406502029e-08,-1.16222395951642e-07,1.11689932724071e-08,1.76583572440051e-07,1.11689932727465e-08,,,,1.63596932732877e-07,3.94755934649753e-08,,-1.04598798872914e-07,,1.49865361197668e-07,-1.30860850579794e-07,-3.86941092718849e-08,,6.1038048074236e-08,8.28214205982836e-08,1.43859468672524e-07,2.09658492512686e-07,9.74506889561668e-08,9.74506889562943e-08,,-3.12065681163281e-07,-7.28000561437851e-08,-1.05279821911318e-07,1.74964141979314e-07,6.96843200679508e-08,-1.2170568267293e-07,-1.87448167455112e-08,-1.87448167453521e-08,,-6.1595861275454e-08,-2.05389281137538e-07,0,1,0,7.3728000000001,103,943.743689320388,537.149029126214,1692.49029126214,936.446601941748,951.040776699029,538.393203883495,535.904854368932,1750.69902912621,1634.28155339806,0
2145.792,6.3768635994301e-08,9.87273947945002e-08,1.62496030788598e-07,3.49234240845399e-07,3.96459093203503e-08,3.96459093201182e-08,1.68932684510758e-08,1.7980666222194e-07,1.96699930673131e-07,-2.82720059740392e-07,1.56970053150681e-07,-2.82720059740441e-07,7.74448326153727e-08,,1.59685933089122e-07,-1.85037200953229e-07,5.28743012446977e-08,-1.32162899708523e-07,1.47380255282348e-08,1.79763250019975e-07,1.47380255285716e-08,,,,1.71076367732398e-07,3.2726359212898e-08,,-9.5268744158563e-08,,1.40821475395074e-07,-1.1700214382935e-07,-4.1267231721097e-08,,5.08163807492041e-08,7.41335309302631e-08,1.24949911679473e-07,2.23092922395493e-07,9.43112927641407e-08,9.43112927642699e-08,,-3.09639431374762e-07,-8.89336425353917e-08,-1.01375915241987e-07,1.72585138039836e-07,7.12092227978004e-08,-1.24556680376138e-07,-1.32652976539727e-08,-1.32652976538112e-08,,-5.34273463632374e-08,-2.00224312468963e-07,0,1,0,7.47519999999986,102,943.323039215686,533.246568627451,1701.29901960784,933.36862745098,953.277450980392,532.121568627451,534.371568627451,1758.44117647059,1644.1568627451,0
2145.8944,7.44331768101214e-08,9.57738681974113e-08,1.70207045007331e-07,3.73085680614503e-07,3.86591869906171e-08,3.86591869903842e-08,1.7768124536225e-08,1.76555649277776e-07,1.94323773814117e-07,-2.87206631817241e-07,1.58241892228276e-07,-2.87206631817284e-07,8.21097099226579e-08,,1.58697194754815e-07,-1.95507120402298e-07,4.85940923937247e-08,-1.46913028008562e-07,2.02310981718297e-08,1.83071335497541e-07,2.02310981721629e-08,,,,1.77507458740177e-07,2.60816674016966e-08,,-8.6433821289556e-08,,1.32123841880425e-07,-1.03910916177317e-07,-4.32534576975179e-08,,4.15998265463898e-08,6.6082361076754e-08,1.0768218762315e-07,2.34914268785837e-07,9.07609246423808e-08,9.07609246425122e-08,,-3.08947944975268e-07,-1.04768639091246e-07,-9.74664655739031e-08,1.69794737945592e-07,7.23282723716359e-08,-1.26539039742882e-07,-8.16275119114409e-09,-8.16275119098085e-09,,-4.63060372693178e-08,-1.9457874803733e-07,0,0,0,7.57760000000008,102,944.214215686275,529.529901960784,1704.95588235294,932.78431372549,955.644117647059,520.525490196078,538.53431372549,1755.99019607843,1653.92156862745,0
2145.9968,8.42572056232369e-08,9.1972240788515e-08,1.76229446411552e-07,3.96670642549432e-07,3.72963187957419e-08,3.72963187955087e-08,1.97897295229848e-08,1.71974021974374e-07,1.91763751497476e-07,-2.88404295532768e-07,1.59091751722809e-07,-2.88404295532804e-07,8.66907537449176e-08,,1.58227874125387e-07,-2.05862392608737e-07,4.56801300786653e-08,-1.60182262530059e-07,2.74071357672096e-08,1.86214877742218e-07,2.74071357675385e-08,,,,1.8289843191616e-07,1.96784354390765e-08,,-7.82424073386987e-08,,1.23859602015534e-07,-9.16726226705994e-08,-4.45857075156384e-08,,3.35011481393096e-08,5.87976520571724e-08,9.22988001964891e-08,2.44967692935187e-07,8.69944633667528e-08,8.69944633668866e-08,,-3.10014169099252e-07,-1.20170265856769e-07,-9.37139954350625e-08,1.66633295627074e-07,7.29193001919549e-08,-1.27608642642597e-07,-3.57313925885313e-09,-3.57313925868871e-09,,-4.06193231034463e-08,-1.88545650803529e-07,0,0,0,7.67999999999984,103,944.116504854369,528.516504854369,1705.19902912621,931.090291262136,957.142718446602,513.136893203884,543.896116504854,1751.05825242718,1659.33980582524,0
2146.0992,9.34095530138335e-08,8.75113904334889e-08,1.80920943447124e-07,4.19441467754709e-07,3.5741987210263e-08,3.57419872100299e-08,2.29766566426688e-08,1.66217769268159e-07,1.89194425910946e-07,-2.86728814224141e-07,1.59557840019962e-07,-2.8672881422417e-07,9.10221938016948e-08,,1.58207885292833e-07,-2.15965170426665e-07,4.4245863351758e-08,-1.71719307074892e-07,3.59400105491539e-08,1.88822965034772e-07,3.59400105494778e-08,,,,1.87223514453599e-07,1.36548541403226e-08,,-7.08486019987483e-08,,1.16012154250242e-07,-8.03419806330294e-08,-4.52139587265418e-08,,2.65402963632494e-08,5.23935464693117e-08,7.89338428325681e-08,2.53078323486608e-07,8.32149142338458e-08,8.32149142339817e-08,,-3.12663494840979e-07,-1.35133723590775e-07,-9.02768644156605e-08,1.63072795002023e-07,7.2795930586302e-08,-1.27723448772139e-07,3.80399628186691e-10,3.80399628351433e-10,,-3.6693846342339e-08,-1.82210301848521e-07,0,0,0,7.78240000000005,102,944.986764705882,531.792156862745,1713.22058823529,930.546078431373,959.427450980392,516.306862745098,547.277450980392,1755.23529411765,1671.20588235294,0
2146.2016,1.0208304428609e-07,8.25431315219704e-08,1.84626175807865e-07,4.40857217716769e-07,3.41534731013335e-08,3.41534731011004e-08,2.73290657882368e-08,1.59416530845794e-07,1.86745596634149e-07,-2.82512130173866e-07,1.59697193490208e-07,-2.82512130173887e-07,9.49876461798382e-08,,1.58565326577037e-07,-2.25687859830606e-07,4.43447328276106e-08,-1.81343127002977e-07,4.5400738468439e-08,1.9049113014362e-07,4.54007384687574e-08,,,,1.9044449481185e-07,8.13213160776233e-09,,-6.43973412333194e-08,,1.08453086314292e-07,-6.99806602035033e-08,-4.512133100749e-08,,2.06318878859672e-08,4.69473143961826e-08,6.75792022821568e-08,2.59122370281621e-07,7.96060110535571e-08,7.96060110536955e-08,,-3.16472630326744e-07,-1.49754218945819e-07,-8.72703374713872e-08,1.59025705425853e-07,7.17553679544033e-08,-1.26851047414535e-07,3.59259180434557e-09,3.59259180451009e-09,,-3.47300848412481e-08,-1.75654770048995e-07,0,0,0,7.88479999999981,103,949.165048543689,519.27718446602,1735.26699029126,932.660194174757,965.669902912621,509.525242718447,529.029126213592,1779.71844660194,1690.81553398058,0
2146.304,1.10450452195781e-07,7.71770174818846e-08,1.87627469677473e-07,4.60474209850971e-07,3.26363225603779e-08,3.26363225601452e-08,3.2797473010431e-08,1.51675414389623e-07,1.84472887400172e-07,-2.75963879649139e-07,1.59565537245136e-07,-2.75963879649153e-07,9.8529562956443e-08,,1.59222003820484e-07,-2.34914454119624e-07,4.59337139912976e-08,-1.88980740128307e-07,5.52261520410164e-08,1.90841009051618e-07,5.52261520413284e-08,,,,1.92553163246612e-07,3.186762825645e-09,,-5.89805520454821e-08,,1.00964571166334e-07,-6.06397898568695e-08,-4.43461570218035e-08,,1.55956356502424e-08,4.24674413254386e-08,5.80630769756878e-08,2.63089730208736e-07,7.63128670184796e-08,7.63128670186206e-08,,-3.20772070107487e-07,-1.64192433345294e-07,-8.47529822212288e-08,1.54371403296511e-07,6.96184210752162e-08,-1.24968171830074e-07,5.98381819187045e-09,5.98381819203424e-09,,-3.47729151751453e-08,-1.68950806390711e-07,0,0,0,7.98720000000003,102,947.965196078431,523.497058823529,1740.44117647059,928.643137254902,967.287254901961,515.33137254902,531.662745098039,1786.64705882353,1694.23529411765,0
2146.4064,1.18620111943275e-07,7.14911964307035e-08,1.90111308373789e-07,4.77991454935146e-07,3.12469530770859e-08,3.12469530768538e-08,3.92290620632818e-08,1.43109790021565e-07,1.82338852084966e-07,-2.67221072990026e-07,1.59206854269205e-07,-2.67221072990033e-07,1.01628264557827e-07,,1.60072841371596e-07,-2.43537971039013e-07,4.88401678873251e-08,-1.94697803151666e-07,6.47131023396184e-08,1.89591035130433e-07,6.47131023399231e-08,,,,1.93606618090686e-07,-1.1684944467397e-09,,-5.45858001498047e-08,,9.32860634286356e-08,-5.2298233557985e-08,-4.29951273455689e-08,,1.11980173038135e-08,3.8869820148403e-08,5.0067837452223e-08,2.65091887867935e-07,7.34277386414158e-08,7.34277386415588e-08,,-3.24709585790432e-07,-1.78639098812525e-07,-8.2746135913674e-08,1.48992863733951e-07,6.62467278202089e-08,-1.22063183499857e-07,7.51510967413987e-09,7.51510967430246e-09,,-3.67232194196897e-08,-1.62152293818864e-07,0,0,0,8.08959999999979,103,947.042718446602,529.090776699029,1748.73786407767,926.764077669903,967.321359223301,523.33786407767,534.843689320388,1796.59223300971,1700.88349514563,0
2146.5088,1.26609076350281e-07,6.55578373139647e-08,1.92166913664059e-07,4.93233047828691e-07,3.00171216968891e-08,3.00171216966574e-08,4.63385122782148e-08,1.33892869591484e-07,1.80231381869817e-07,-2.56447221659589e-07,1.5865262352212e-07,-2.56447221659589e-07,1.04265650302667e-07,,1.60969696001265e-07,-2.51457330837694e-07,5.2753463216041e-08,-1.98703867621631e-07,7.30769170963535e-08,1.86618708526797e-07,7.30769170966499e-08,,,,1.93732636446428e-07,-4.98167181353918e-09,,-5.10694158147859e-08,,8.51705044942686e-08,-4.4802720946828e-08,-4.12395899796564e-08,,7.21019240536623e-09,3.59785658971002e-08,4.31887583024723e-08,2.65313537456992e-07,7.09758385405135e-08,7.09758385406586e-08,,-3.27354042569617e-07,-1.93275184286378e-07,-8.12757441060741e-08,1.4281836693706e-07,6.15426228309157e-08,-1.18147103320292e-07,8.20458353734599e-09,8.204583537507e-09,,-4.03882001345903e-08,-1.55301742459136e-07,0,0,0,8.19200000000001,102,947.935784313726,527.401960784314,1756.32843137255,930.385294117647,965.486274509804,521.76862745098,533.035294117647,1804.47058823529,1708.1862745098,0
2146.6112,1.34347152763101e-07,5.94667617179898e-08,1.93813914480907e-07,5.06081994844279e-07,2.8980660252858e-08,2.89806602526268e-08,5.37374873643892e-08,1.24277710185512e-07,1.7801519755002e-07,-2.43919232850333e-07,1.57932287456697e-07,-2.43919232850326e-07,1.06402869405957e-07,,1.61731771984563e-07,-2.58575576666384e-07,5.72565367919577e-08,-2.01319039874403e-07,7.9569596619833e-08,1.81981666527424e-07,7.95695966201206e-08,,,,1.93097273227068e-07,-8.33472338439519e-09,,-4.81790530143157e-08,,7.64329516912409e-08,-3.78529496156459e-08,-3.92950583981198e-08,,3.45925111928139e-09,3.35572936199816e-08,3.70165447392682e-08,2.6393672198878e-07,6.8908282075289e-08,6.89082820754354e-08,,-3.2781504333632e-07,-2.08227141950248e-07,-8.04167113914111e-08,1.35863291458864e-07,5.54465800673813e-08,-1.13266053969594e-07,8.13535266307821e-09,8.13535266323735e-09,,-4.55537218614285e-08,-1.48453261368817e-07,0,0,0,8.29439999999977,102,949.881862745098,528.798039215686,1750.21568627451,935.678431372549,964.085294117647,516.286274509804,541.309803921569,1798.47058823529,1701.96078431373,0
2146.7136,1.41707344608046e-07,5.33317668834538e-08,1.95039111491318e-07,5.16404337876238e-07,2.81826193178582e-08,2.81826193176276e-08,6.1017915647729e-08,1.14571346024791e-07,1.75589261672637e-07,-2.30054257724399e-07,1.57091270588534e-07,-2.30054257724387e-07,1.07988862910934e-07,,1.62183745123161e-07,-2.64799797267086e-07,6.18928867596707e-08,-2.02906910507393e-07,8.36057043054267e-08,1.75877356147016e-07,8.36057043057049e-08,,,,1.91851986805688e-07,-1.13054033033717e-08,,-4.56210204591914e-08,,6.69782388683714e-08,-3.10472271501279e-08,-3.73900503986918e-08,,-1.42525453742819e-10,3.13609036845819e-08,3.12183782308437e-08,2.61073981407401e-07,6.71138613379242e-08,6.71138613380712e-08,,-3.25355964492759e-07,-2.23520312475888e-07,-8.03182266750047e-08,1.28261809851373e-07,4.79435831762958e-08,-1.07509704257859e-07,7.4520618204628e-09,7.4520618206197e-09,,-5.20381441015431e-08,-1.41700886553176e-07,0,0,0,8.39679999999999,103,953.332038834952,522.869417475728,1740.18446601942,940.355339805825,966.308737864078,515.08932038835,530.649514563107,1788.33980582524,1692.02912621359,0
2146.816,1.48543847986657e-07,4.72794617107856e-08,1.95823309697264e-07,5.24006392580862e-07,2.76666279995488e-08,2.76666279993184e-08,6.7843517741867e-08,1.05079711557056e-07,1.7292322929904e-07,-2.15359700212698e-07,1.56204013663827e-07,-2.15359700212681e-07,1.08990201304312e-07,,1.62198714447591e-07,-2.70038932037691e-07,6.62384461218306e-08,-2.03800485915839e-07,8.48388967530258e-08,1.68552056210883e-07,8.48388967532938e-08,,,,1.9009805964561e-07,-1.39408879561341e-08,,-4.31331954491005e-08,,5.68060962141721e-08,-2.39697882476141e-08,-3.57371633395699e-08,,-3.5967576526347e-09,2.91851445976814e-08,2.55883869450504e-08,2.56742741515794e-07,6.5448770341556e-08,6.54487703417036e-08,,-3.19473658352318e-07,-2.39046750366843e-07,-8.11956459803997e-08,1.20277049680821e-07,3.90814037003476e-08,-1.01016648488624e-07,6.34965612196787e-09,6.34965612212245e-09,,-5.96942168491134e-08,-1.3519235315122e-07,0,1,0,8.49919999999975,102,952.377450980392,529.169117647059,1734.23039215686,939.101960784314,965.652941176471,525.635294117647,532.702941176471,1781.89215686275,1686.56862745098,0
2146.9184,1.5472135643494e-07,4.14307062155965e-08,1.9615206265036e-07,5.28640639864711e-07,2.7454450394443e-08,2.7454450394213e-08,7.39962010037904e-08,9.60621942773765e-08,1.70058395281282e-07,-2.00334875864438e-07,1.55371224490089e-07,-2.00334875864416e-07,1.09417565051244e-07,,1.61719818832096e-07,-2.7419798482634e-07,6.99424900931525e-08,-2.04255494733167e-07,8.31714756832759e-08,1.60201445784986e-07,8.31714756835335e-08,,,,1.87895631235482e-07,-1.62605674515849e-08,,-4.0517701564126e-08,,4.60037379117528e-08,-1.62735150944519e-08,-3.45202656633844e-08,,-6.84418652548817e-09,2.68915011660226e-08,2.00473146405372e-08,2.50890548037968e-07,6.3770522005751e-08,6.37705220058987e-08,,-3.09924963807184e-07,-2.54572291594667e-07,-8.32912726778494e-08,1.12283954125811e-07,2.89926814478873e-08,-9.39725695810605e-08,5.0568481955592e-09,5.0568481957114e-09,,-6.83677747637031e-08,-1.29109657314665e-07,0,1,0,8.60159999999996,102,951.658823529412,540.34362745098,1733.70588235294,937.588235294118,965.729411764706,535.798039215686,544.889215686275,1780.64705882353,1686.76470588235,0
2147.0208,1.6013206505697e-07,3.58850309918893e-08,1.96017096048685e-07,5.30044778314758e-07,2.75357948896566e-08,2.7535794889427e-08,7.93598277063774e-08,8.77179764788466e-08,1.67077804185338e-07,-1.85387628879846e-07,1.54700320744523e-07,-1.85387628879821e-07,1.09328966655425e-07,,1.60749642175623e-07,-2.77175779750388e-07,7.27269142100879e-08,-2.04448865540281e-07,7.8715213583189e-08,1.50920898547675e-07,7.87152135834361e-08,,,,1.853085597759e-07,-1.82853534081162e-08,,-3.76166574078125e-08,,3.47370353278702e-08,-7.71455073805559e-09,-3.39001763605328e-08,,-9.80300096524919e-09,2.43993901476957e-08,1.45963891824484e-08,2.43448835290352e-07,6.19608562232638e-08,6.19608562234111e-08,,-2.96700033202689e-07,-2.69791415458414e-07,-8.68231480658054e-08,1.04727589108533e-07,1.79044410426535e-08,-8.65940867735991e-08,3.81522805244505e-09,3.81522805259486e-09,,-7.78480238230534e-08,-1.23615684214966e-07,0,1,0,8.70399999999972,103,949.240291262136,543.246116504854,1726.72330097087,933.781553398058,964.699029126214,535.520388349515,550.971844660194,1766.31067961165,1687.1359223301,0
2147.1232,1.64705818869732e-07,3.07141065794246e-08,1.95419925448984e-07,5.27988593914848e-07,2.78754705786308e-08,2.78754705784015e-08,8.38687824695947e-08,8.02000432730892e-08,1.64068825742796e-07,-1.7081346214335e-07,1.54276528821787e-07,-1.70813462143324e-07,1.08808459853047e-07,,1.59317917810367e-07,-2.78874646262862e-07,7.43643710989299e-08,-2.04510275163915e-07,7.17281852241204e-08,1.40737971564034e-07,7.17281852243572e-08,,,,1.82449803135464e-07,-2.00724225858117e-08,,-3.42571575710737e-08,,2.32426954401752e-08,1.86574989525304e-09,-3.40259264033458e-08,,-1.24025197164943e-08,2.16574793663906e-08,9.2549596498973e-09,2.34379862641473e-07,5.99311187611574e-08,5.99311187613034e-08,,-2.7995797383347e-07,-2.84412255532704e-07,-9.1945495824858e-08,9.80677906505806e-08,6.12229482564808e-09,-7.91012984894687e-08,2.85765226772928e-09,2.85765226787673e-09,,-8.78349540088166e-08,-1.18790670178115e-07,0,0,0,8.80639999999994,102,947.45931372549,535.666176470588,1720.02450980392,931.01862745098,963.9,524.113725490196,547.21862745098,1752.78431372549,1687.26470588235,0
2147.2256,1.68420886344827e-07,2.59625460092797e-08,1.94383432353935e-07,5.22309479970758e-07,2.8430788817997e-08,2.84307888177682e-08,8.74697030048364e-08,7.36353875591604e-08,1.61105090564108e-07,-1.56830277868757e-07,1.54137989982015e-07,-1.5683027786873e-07,1.07940109255623e-07,,1.57455350480875e-07,-2.79223050170634e-07,7.46674118420831e-08,-2.04555638328535e-07,6.25488570038771e-08,1.29699897836627e-07,6.25488570041039e-08,,,,1.79492598597524e-07,-2.17300077290806e-08,,-3.02192463603424e-08,,1.18132900592451e-08,1.2573170614168e-08,-3.50348528374078e-08,,-1.46014016021682e-08,1.86192943216119e-08,4.01789271944335e-09,2.23694218255801e-07,5.76164217443229e-08,5.76164217444675e-08,,-2.59957803061059e-07,-2.98236277297336e-07,-9.87321078618032e-08,9.27213456289959e-08,-6.01076223288185e-09,-7.1690657179524e-08,2.39152571396767e-09,2.39152571411284e-09,,-9.79354724405902e-08,-1.14592354175328e-07,0,0,0,8.90880000000016,103,949.367961165049,542.811650485437,1721.99514563107,932.074757281553,966.661165048544,539.08932038835,546.533980582524,1754.21359223301,1689.77669902913,0
2147.328,1.71320938263597e-07,2.16487706545942e-08,1.92969708918022e-07,5.12934114523728e-07,2.91640332013779e-08,2.91640332011492e-08,9.01381838743334e-08,6.81250608033078e-08,1.58263244677751e-07,-1.43626362910091e-07,1.54267139524997e-07,-1.43626362910064e-07,1.06802412527251e-07,,1.55197986304712e-07,-2.7820505961548e-07,7.3508729872115e-08,-2.04696329743351e-07,5.15428886152189e-08,1.17958005507085e-07,5.15428886154368e-08,,,,1.76634145493304e-07,-2.33980918598819e-08,,-2.5268499007672e-08,,7.65788937463687e-10,2.44589834802375e-08,-3.70344890946899e-08,,-1.63911189519425e-08,1.52449067318389e-08,-1.1462122201053e-09,2.11441787622217e-07,5.4970276809806e-08,5.49702768099489e-08,,-2.37030084757156e-07,-3.1119806256986e-07,-1.07174548231857e-07,8.900421403317e-08,-1.81703341987608e-08,-6.45208213183302e-08,2.59089637213112e-09,2.59089637227419e-09,,-1.07685913457297e-07,-1.10860501633016e-07,0,0,0,9.01119999999992,102,950.904901960784,543.90931372549,1737.10784313725,933.51862745098,968.291176470588,538.08431372549,549.73431372549,1772.41176470588,1701.80392156863,0
2147.4304,1.73537932865212e-07,1.77617262212257e-08,1.91299659086268e-07,4.99901080801999e-07,3.00377448540882e-08,3.00377448538595e-08,9.19574491019413e-08,6.37122395376731e-08,1.55669688639723e-07,-1.31383216132063e-07,1.54597208237165e-07,-1.31383216132035e-07,1.0549047015986e-07,,1.52618946001279e-07,-2.75886674489234e-07,7.08682661795931e-08,-2.05018408309629e-07,3.90680580797391e-08,1.05816179489735e-07,3.90680580799488e-08,,,,1.74030822321759e-07,-2.5201863209226e-08,,-1.92466739187365e-08,,-9.6033845824215e-09,3.74641019120129e-08,-4.00708626941252e-08,,-1.7794149218425e-08,1.15302517167167e-08,-6.26389750171162e-09,1.97700544747965e-07,5.19656767928679e-08,5.19656767930086e-08,,-2.11604994084859e-07,-3.23355075015431e-07,-1.1717799293138e-07,8.7072527594206e-08,-3.01054653372474e-08,-5.77217132037943e-08,3.59573854585912e-09,3.59573854600033e-09,,-1.16577514120813e-07,-1.07358745644961e-07,0,0,0,9.11360000000013,102,949.666666666667,533.663235294118,1768.40196078431,930.772549019608,968.560784313726,525.516666666667,541.809803921569,1810.39215686275,1726.41176470588,0
2147.5328,1.75309986345806e-07,1.42542738587987e-08,1.89564260204436e-07,4.83397763457494e-07,3.099331475489e-08,3.09933147546608e-08,9.32179039319812e-08,6.03304271621132e-08,1.53548331094201e-07,-1.20247444074745e-07,1.55018906049408e-07,-1.20247444074718e-07,1.04150511757415e-07,,1.49861438499497e-07,-2.72426705955121e-07,6.68833953109187e-08,-2.05543310644194e-07,2.54627474542491e-08,9.37402255761913e-08,2.54627474544517e-08,,,,1.71744906934697e-07,-2.72018539225485e-08,,-1.21717843523211e-08,,-1.90603497493367e-08,5.13308799915803e-08,-4.40942286988829e-08,,-1.88684108736675e-08,7.5439281172033e-09,-1.1324482756469e-08,1.82584888426885e-07,4.86030828325596e-08,4.86030828326979e-08,,-1.84261006023309e-07,-3.3484129917439e-07,-1.2854202585152e-07,8.68689510570338e-08,-4.16730747945595e-08,-5.14225776610635e-08,5.50786285675207e-09,5.50786285689163e-09,,-1.24064057002125e-07,-1.038276533592e-07,0,0,0,9.21599999999989,103,947.980582524272,533.006310679612,1786.15533980583,925.252427184466,970.708737864078,519.614563106796,546.398058252427,1831.08737864078,1741.22330097087,0
2147.6352,1.76976932841035e-07,1.10343925664157e-08,1.88011325407281e-07,4.63805566636251e-07,3.19259884253938e-08,3.19259884251642e-08,9.44766372412399e-08,5.77542958462022e-08,1.52230933087548e-07,-1.10241520741574e-07,1.55377502972164e-07,-1.10241520741546e-07,1.03004442171602e-07,,1.47150705606855e-07,-2.68061618165084e-07,6.18746718330293e-08,-2.06186946332048e-07,1.10659768181091e-08,8.23225634053692e-08,1.1065976818306e-08,,,,1.69730154517668e-07,-2.93648665182144e-08,,-4.29575468106863e-09,,-2.74568061489655e-08,6.55331676164547e-08,-4.89367009524593e-08,,-1.97222875779423e-08,3.44573345952473e-09,-1.62765541184236e-08,1.66270229455283e-07,4.49241550693993e-08,4.49241550695355e-08,,-1.55748134018266e-07,-3.45801540797944e-07,-1.40925309011984e-07,8.80906332139215e-08,-5.28346757981349e-08,-4.57731012232045e-08,8.37081268758364e-09,8.37081268772201e-09,,-1.29565782749972e-07,-1.00029543316966e-07,0,0,0,9.31840000000011,102,944.53137254902,523.157843137255,1798.39215686275,918.923529411765,970.139215686275,509.963725490196,536.351960784314,1845.6862745098,1751.09803921569,0
2147.7376,1.78945178193597e-07,7.95577740323493e-09,1.86900955596662e-07,4.41724387000847e-07,3.2673563458953e-08,3.26735634587236e-08,9.65371880237103e-08,5.55728734407531e-08,1.52110061464568e-07,-1.01146292414639e-07,1.55469580978383e-07,-1.01146292414611e-07,1.02348300975292e-07,,1.44777787930026e-07,-2.63063022145852e-07,5.63293091789158e-08,-2.06733712966931e-07,-3.74423593635242e-09,7.21892193102746e-08,-3.74423593615994e-09,,,,1.67852255527392e-07,-3.15659400326452e-08,,3.90718204455455e-09,,-3.47304795456377e-08,7.92786341140702e-08,-5.43149093033511e-08,,-2.05312568863903e-08,-5.26112022792449e-10,-2.10573689091896e-08,1.49010857645797e-07,4.10250307373204e-08,4.10250307374547e-08,,-1.26967791994306e-07,-3.56319030607016e-07,-1.53812455107737e-07,9.0197793912285e-08,-6.36146611955232e-08,-4.09317546525369e-08,1.21350778421692e-08,1.21350778423066e-08,,-1.32502391502316e-07,-9.5782736212368e-08,0,0,0,9.42079999999987,103,941.014563106796,528.34854368932,1817.69902912621,915.58932038835,966.439805825243,513.833980582524,542.863106796117,1865.6213592233,1769.77669902913,0
2147.84,1.81631458938491e-07,4.8122268260591e-09,1.86443685764379e-07,4.17935215969766e-07,3.30299826697628e-08,3.30299826695335e-08,1.00347913633323e-07,5.31996848143369e-08,1.53547598447763e-07,-9.24297163861259e-08,1.55055523901041e-07,-9.24297163860999e-08,1.02519803679498e-07,,1.4305911669703e-07,-2.57679382023509e-07,5.08414650149773e-08,-2.06837917008529e-07,-1.85326005549209e-08,6.38508740997104e-08,-1.85326005547316e-08,,,,1.65922412733066e-07,-3.36159697236263e-08,,1.18167882073108e-08,,-4.08898624632858e-08,9.16092568061323e-08,-5.98605581779601e-08,,-2.15384407584155e-08,-4.0927744169732e-09,-2.56312151753964e-08,1.31128680287871e-07,3.70583149516537e-08,3.70583149517867e-08,,-9.89161529058729e-08,-3.66350881146206e-07,-1.665159797129e-07,9.24727341792203e-08,-7.40432455337502e-08,-3.70221359514908e-08,1.66269642061087e-08,1.66269642062452e-08,,-1.32363745589331e-07,-9.09873079471582e-08,0,0,0,9.52320000000009,102,943.63137254902,525.558823529412,1819.69117647059,918.404901960784,968.857843137255,514.435294117647,536.682352941176,1871.13725490196,1768.24509803922,0
2147.9424,1.85406810559818e-07,1.34104445282257e-09,1.86747855012468e-07,3.93285761890436e-07,3.27798729413158e-08,3.2779872941087e-08,1.06859053115863e-07,4.99211041973109e-08,1.56780157313275e-07,-8.32745120597481e-08,1.5388874942171e-07,-8.32745120597234e-08,1.03845547235072e-07,,1.42285999619845e-07,-2.52085544883852e-07,4.60300063509646e-08,-2.06055538532886e-07,-3.28286532992047e-08,5.75332990264126e-08,-3.28286532990174e-08,,,,1.63724201495085e-07,-3.52985082195391e-08,,1.87733282683096e-08,,-4.59922214778707e-08,1.01568008278826e-07,-6.51672042118556e-08,,-2.30271614528846e-08,-6.97843605313826e-09,-3.00055975060311e-08,1.12967030712162e-07,3.32178361982141e-08,3.32178361983469e-08,,-7.26218607467029e-08,-3.75682670909839e-07,-1.78231068545928e-07,9.41146063213674e-08,-8.41164622246288e-08,-3.4082480256063e-08,2.15413013373032e-08,2.1541301337439e-08,,-1.28789066660821e-07,-8.56375259515938e-08,0,0,0,9.62559999999985,103,943.47572815534,533.634466019417,1820.3786407767,918.852427184466,968.099029126214,522.22427184466,545.044660194175,1874.66990291262,1766.08737864078,0
2148.0448,1.90560142743853e-07,-2.76074428078833e-09,1.8779939846289e-07,3.68541607621243e-07,3.17359049601709e-08,3.17359049599429e-08,1.16906907896788e-07,4.49647022903074e-08,1.61871610187195e-07,-7.26892946379536e-08,1.51745040873428e-07,-7.26892946379293e-08,1.06590269585132e-07,,1.4268451556858e-07,-2.46366385812142e-07,4.24686368825251e-08,-2.03897748929617e-07,-4.61647426538024e-08,5.30509527942398e-08,-4.61647426536162e-08,,,,1.61024579579855e-07,-3.63963468046518e-08,,2.41661385388448e-08,,-5.01220779139802e-08,1.08352306014687e-07,-6.98332971618931e-08,,-2.52684276895855e-08,-8.94018044076925e-09,-3.42086081303633e-08,9.48249008715532e-08,2.97102950209504e-08,2.97102950210838e-08,,-4.9125663808372e-08,-3.83897861961615e-07,-1.88126069296078e-07,9.43325336727186e-08,-9.37935356234264e-08,-3.20382909498814e-08,2.64659493165253e-08,2.64659493166605e-08,,-1.21610942580135e-07,-7.98139394926327e-08,0,1,0,9.72800000000007,102,944.763235294118,532.021568627451,1816.41666666667,922.999019607843,966.527450980392,516.263725490196,547.779411764706,1871.98039215686,1760.85294117647,0
2148.1472,1.97286087966711e-07,-7.80583298579629e-09,1.89480254980739e-07,3.44272702020647e-07,2.97618310455609e-08,2.9761831045334e-08,1.31170539689424e-07,3.75674658092681e-08,1.68738005498791e-07,-5.96535924605924e-08,1.48436146371737e-07,-5.96535924605694e-08,1.10926141152401e-07,,1.44398638110261e-07,-2.40541959682963e-07,4.06513438832604e-08,-1.99890615799703e-07,-5.80950967082032e-08,4.97754240206133e-08,-5.80950967080179e-08,,,,1.57573748384057e-07,-3.66987613785088e-08,,2.74759572815271e-08,,-5.33765461700765e-08,1.11388613504419e-07,-7.34874181431038e-08,,-2.84562745352932e-08,-9.77529525260517e-09,-3.82315697879071e-08,7.68964964050749e-08,2.67234388270704e-08,2.67234388272053e-08,,-2.95119707259677e-08,-3.90353530934598e-07,-1.95436399167093e-07,9.24084504307698e-08,-1.03027948736387e-07,-3.07168986780443e-08,3.09309163155198e-08,3.09309163156544e-08,,-1.10844972632452e-07,-7.36585712806368e-08,0,1,0,9.83039999999983,102,942.846078431373,535.311764705882,1815.95588235294,921.093137254902,964.599019607843,521.11862745098,549.504901960784,1871.02941176471,1760.88235294118,0
2148.2496,2.05684029952201e-07,-1.40741120322315e-08,1.91609917919792e-07,3.20814830488687e-07,2.67788820801284e-08,2.67788820799029e-08,1.50176716993392e-07,2.70445376433746e-08,1.77221254636864e-07,-4.32704235395398e-08,1.43808680859099e-07,-4.32704235395183e-08,1.16919606065882e-07,,1.47487601013455e-07,-2.34615635393459e-07,4.09841127717871e-08,-1.93631522621672e-07,-6.81851843190685e-08,4.67016127430199e-08,-6.81851843188846e-08,,,,1.53109637518817e-07,-3.59994394117451e-08,,2.8280734532494e-08,,-5.58643863339453e-08,1.10325241287758e-07,-7.57989052363874e-08,,-3.26488268258495e-08,-9.31277272715252e-09,-4.19615995530106e-08,5.92387843871598e-08,2.43993277731435e-08,2.43993277732808e-08,,-1.49324921692794e-08,-3.94179196275446e-07,-1.99545324001836e-07,8.77388755579788e-08,-1.11806448443918e-07,-2.99006392178188e-08,3.44642162979086e-08,3.44642162980422e-08,,-9.66561229869576e-08,-6.73470720267264e-08,0,1,0,9.93280000000004,103,942.706310679612,533.940291262136,1815.40291262136,919.411650485437,966.000970873786,517.770873786408,550.109708737864,1871.82524271845,1758.98058252427,0
2148.352,2.15749481357987e-07,-2.17650253213815e-08,1.93984456036426e-07,2.98301675931001e-07,2.27660247763996e-08,2.27660247761755e-08,1.742804080982e-07,1.28734511584057e-08,1.87153859256701e-07,-2.29278688110005e-08,1.37743184130886e-07,-2.29278688109801e-08,1.24515728203904e-07,,1.51912549854703e-07,-2.28621209006479e-07,4.3772979977926e-08,-1.84848229028554e-07,-7.59751965279322e-08,4.2579099660845e-08,-7.59751965277507e-08,,,,1.47382466156097e-07,-3.41065208909192e-08,,2.62557377012648e-08,,-5.77217564497543e-08,1.04991988256536e-07,-7.64920974471431e-08,,-3.77372404241932e-08,-7.40731471447515e-09,-4.51445551386769e-08,4.1785889029391e-08,2.2817669362326e-08,2.28176693624664e-08,,-6.55198155276788e-09,-3.94340150615143e-07,-2.00053998966456e-07,7.98871004299368e-08,-1.20166898536577e-07,-2.93897826523925e-08,3.66340300020593e-08,3.66340300021916e-08,,-7.93653184533037e-08,-6.10647204456046e-08,0,0,0,10.0351999999998,102,943.10931372549,526.888725490196,1817.36764705882,920.978431372549,965.240196078431,510.361764705882,543.41568627451,1875.19607843137,1759.53921568627,0
2148.4544,2.27349735064059e-07,-3.09551443772448e-08,1.96394590686634e-07,2.76736691886986e-07,1.7764734059912e-08,1.77647340596897e-08,2.03570594326369e-07,-5.20429877720464e-09,1.98366295549257e-07,1.53656656448984e-09,1.30167735610641e-07,1.5365665645088e-09,1.33507317030016e-07,,1.57501055894201e-07,-2.22652804297111e-07,4.91862439048663e-08,-1.73466560392245e-07,-8.09249723748614e-08,3.60759904313523e-08,-8.09249723746836e-08,,,,1.40201025566205e-07,-3.08775942953734e-08,,2.11914852421235e-08,,-5.91340443484347e-08,9.53821689041538e-08,-7.53811369097246e-08,,-4.34581981631855e-08,-3.95249431483928e-09,-4.74106924780336e-08,2.44149645549054e-08,2.19902362383659e-08,2.199023623851e-08,,-5.40716625313769e-09,-3.8979075958203e-07,-1.96843260978577e-07,6.86578852831267e-08,-1.28185375695503e-07,-2.90356314806814e-08,3.70654905972846e-08,3.7065490597415e-08,,-5.95321665819798e-08,-5.49803846702323e-08,0,0,0,10.1376,102,938.200490196079,521.574019607843,1818.36274509804,915.045098039216,961.355882352941,501.829411764706,541.318627450981,1875.92156862745,1760.80392156863,0
2148.5568,2.40193629285638e-07,-4.1572373871472e-08,1.98621255413986e-07,2.56060477594762e-07,1.18893079620998e-08,1.18893079618794e-08,2.37721510621297e-07,-2.70884317051469e-08,2.10633078916241e-07,2.9699562267303e-08,1.21089185035704e-07,2.96995622673203e-08,1.43502908400329e-07,,1.63910397024184e-07,-2.16864055634912e-07,5.71932996706696e-08,-1.59670755964243e-07,-8.23596340831894e-08,2.59553318562777e-08,-8.23596340830171e-08,,,,1.31483777774464e-07,-2.62702858318433e-08,,1.30317290323025e-08,,-6.03424983293105e-08,8.16793544357609e-08,-7.24215523391158e-08,,-4.94436460984959e-08,1.08561579367777e-09,-4.83580303048271e-08,7.03772263609774e-09,2.18631147319929e-08,2.18631147321412e-08,,-1.22235323436421e-08,-3.79685963412025e-07,-1.90119253637709e-07,5.41731241167162e-08,-1.35946129521041e-07,-2.87243540130695e-08,3.54407406393563e-08,3.5440740639484e-08,,-3.80717790632579e-08,-4.92180163543411e-08,0,0,0,10.2399999999998,103,934.694465454956,524.751667983743,1803.80136599684,911.104854368932,958.28407654098,498.681553398058,550.821782569429,1859.63106796117,1747.97166403251,0
2148.6592,2.53817758089999e-07,-5.33928440291664e-08,2.00424914060653e-07,2.36180396519438e-07,5.33403385883226e-09,5.33403385861387e-09,2.7587033129556e-07,-5.22689475429416e-08,2.23601383752707e-07,6.04885150971751e-08,1.10630039079174e-07,6.04885150971907e-08,1.53923781887397e-07,,1.70624594650773e-07,-2.11431387998647e-07,6.7506092343837e-08,-1.4392529565481e-07,-7.94513483374025e-08,1.12492114578482e-08,-7.94513483372377e-08,,,,1.21290750514933e-07,-2.03824994243196e-08,,1.91423314523719e-09,,-6.16239221203129e-08,6.43029171923824e-08,-6.77511865142877e-08,,-5.52823630170704e-08,7.63044113937375e-09,-4.7651921877706e-08,-1.03283853341714e-08,2.23237858582851e-08,2.23237858584383e-08,,-2.72426482243125e-08,-3.63565592645301e-07,-1.804267942384e-07,3.69114382575904e-08,-1.43515355980852e-07,-2.83331815710668e-08,3.15089083117844e-08,3.15089083119088e-08,,-1.63058310043894e-08,-4.3841437036021e-08,0,0,0,10.3424,102,911.678643805465,639.927640321185,1665.44543974417,864.11455505279,959.24273255814,700.279989944696,579.575290697674,1634.80367018602,1696.08720930233,0.598039215686275
2148.7616,2.67611090360859e-07,-6.60576823956995e-08,2.0155340796498e-07,2.16969885243911e-07,-1.63395617758136e-09,-1.63395617779791e-09,3.16612236487705e-07,-7.98485868770167e-08,2.36763649610772e-07,9.22381908965714e-08,9.90489064847132e-08,9.22381908965845e-08,1.64053015866161e-07,,1.77007268743488e-07,-2.06497471071877e-07,7.95621817819652e-08,-1.26935289289913e-07,-7.12817968573139e-08,-8.58901052260029e-09,-7.12817968571584e-08,,,,1.09823979882566e-07,-1.34579963146407e-08,,-1.18103804513613e-08,,-6.32499230994799e-08,4.39214646982098e-08,-6.1690525882135e-08,,-6.05702737002629e-08,1.54750622723829e-08,-4.50952114278898e-08,-2.75405710649499e-08,2.32162109641675e-08,2.32162109643258e-08,,-5.01022896043022e-08,-3.41435358423774e-07,-1.68610428124177e-07,1.76802122677827e-08,-1.50930215856431e-07,-2.7704037546618e-08,2.51259749443204e-08,2.51259749444411e-08,,4.13322492141756e-09,-3.88691516177193e-08,0,0,0,10.4447999999998,103,909.378382427011,669.589649368093,1618.4856742565,859.784615384615,958.972149469406,734.465446850884,604.713851885301,1582.000248942,1654.97109957101,0.0970873786407767
2148.864,2.80886087788568e-07,-7.91047141495816e-08,2.01781373638808e-07,1.98270015455583e-07,-8.7011310361079e-09,-8.70113103632278e-09,3.58151592162018e-07,-1.08645004311737e-07,2.49506587850363e-07,1.22891689498724e-07,8.67266843872706e-08,1.22891689498735e-07,1.73139540851367e-07,,1.82409568220288e-07,-2.02123481717966e-07,9.25810981899901e-08,-1.09542383527978e-07,-5.70179939365516e-08,-3.35757719194565e-08,-5.70179939364076e-08,,,,9.7402087506019e-08,-5.84994070066535e-09,,-2.75968610266156e-08,,-6.54386859956248e-08,2.14027751076443e-08,-5.46941173753116e-08,,-6.49446643363152e-08,2.42944947371187e-08,-4.06501695992069e-08,-4.43602257073456e-08,2.43683602853864e-08,2.43683602855497e-08,,-7.97980510546505e-08,-3.13733196445622e-07,-1.55712799855752e-07,-2.48783286990316e-09,-1.58200632725685e-07,-2.66603609078135e-08,1.63142158172482e-08,1.63142158173648e-08,,2.15489822898103e-08,-3.4319294479803e-08,0,0,0,10.5472,102,935.627450980392,547.713235294118,1746.70588235294,911.572549019608,959.682352941176,523.103921568628,572.322549019608,1802.41176470588,1691,0
2148.9664,2.92981768636162e-07,-9.2012121717247e-08,2.00969646918737e-07,1.79907093508229e-07,-1.55477714252408e-08,-1.55477714254543e-08,3.985639266353e-07,-1.37347016272637e-07,2.61216910362741e-07,1.50301463683532e-07,7.41192256817535e-08,1.50301463683539e-07,1.80532778372712e-07,,1.86304607591624e-07,-1.982711208229e-07,1.05692343399297e-07,-9.25787774236054e-08,-3.61823464238546e-08,-6.31478615157752e-08,-3.61823464237236e-08,,,,8.44222774626186e-08,2.04378678031652e-09,,-4.475680123864e-08,,-6.83118930509586e-08,-2.28798940282985e-09,-4.7270559708416e-08,,-6.81097344456834e-08,3.36869335558998e-08,-3.44228008897947e-08,-6.05089617742277e-08,2.56268981050689e-08,2.56268981052372e-08,,-1.14734207515135e-07,-2.81221316996612e-07,-1.42832362969353e-07,-2.24827677220434e-08,-1.65315130691419e-07,-2.50556038655273e-08,5.30754966740716e-09,5.30754966751907e-09,,3.44997993193904e-08,-3.02660940630867e-08,0,0,0,10.6495999999997,102,935.515196078431,530.231862745098,1736.82352941176,912.001960784314,959.028431372549,511.062745098039,549.400980392157,1790.19607843137,1683.45098039216,0
2149.0688,3.03365998368098e-07,-1.04248357759224e-07,1.99117640608698e-07,1.61713054210728e-07,-2.18897200369718e-08,-2.18897200371844e-08,4.3607003441337e-07,-1.64677669526631e-07,2.71392364886814e-07,1.72518708642871e-07,6.16958145899001e-08,1.72518708642875e-07,1.85799605493797e-07,,1.88396042420801e-07,-1.94821362112016e-07,1.18092290795731e-07,-7.67290713162896e-08,-8.92233538604887e-09,-9.61905373013728e-08,-8.92233538593227e-09,,,,7.1319231445296e-08,9.84676616668979e-09,,-6.25289288354686e-08,,-7.18692899648634e-08,-2.62015628928761e-08,-3.99015743893358e-08,,-6.98575165016666e-08,4.32273545985131e-08,-2.66301619031655e-08,-7.57274458706948e-08,2.68845644532218e-08,2.68845644533945e-08,,-1.52856820702062e-07,-2.44857936603119e-07,-1.30989790335236e-07,-4.12543150585865e-08,-1.72244105393839e-07,-2.28222709688794e-08,-7.4471159381211e-09,-7.44711593801403e-09,,4.20654202746616e-08,-2.68755553942068e-08,0,0,0,10.752,103,939.056310679612,520.684951456311,1711.99514563107,916.169902912621,961.942718446602,505.726213592233,535.643689320388,1756.68932038835,1667.30097087379,0
2149.1712,3.11705681930495e-07,-1.1532013514904e-07,1.96385546781279e-07,1.43535597457856e-07,-2.75106252781107e-08,-2.75106252783226e-08,4.69238087098186e-07,-1.89525714692528e-07,2.79712372405729e-07,1.87980113531737e-07,4.98854820154202e-08,1.87980113531738e-07,1.88779802937815e-07,,1.88655611506902e-07,-1.91622553427591e-07,1.29170715068397e-07,-6.24518383592005e-08,2.38518972673526e-08,-1.3116106713705e-07,2.38518972674537e-08,,,,5.85246683401627e-08,1.72485972716548e-08,,-8.01558847038332e-08,,-7.59866944286514e-08,-4.94925089722377e-08,-3.29869154420912e-08,,-7.00817486316705e-08,5.25150453613022e-08,-1.75667032703815e-08,-8.98161262122667e-08,2.80896161613067e-08,2.80896161614831e-08,,-1.91856924055742e-07,-2.05697892059695e-07,-1.21036607617812e-07,-5.79026651018173e-08,-1.78939272719638e-07,-1.99923961660244e-08,-2.13411683868583e-08,-2.13411683867562e-08,,4.39660981557984e-08,-2.43887689559931e-08,1,0,0,10.8544000000002,102,945.662254901961,527.002941176471,1645.6568627451,924.262745098039,967.061764705882,513.6,540.405882352941,1681.91176470588,1609.40196078431,0
2149.2736,3.17890224175237e-07,-1.24812355694949e-07,1.93077868480113e-07,1.25243793295891e-07,-3.22777236374318e-08,-3.22777236376434e-08,4.97084374303751e-07,-2.11031664554381e-07,2.86052709749438e-07,1.95598972142857e-07,3.90397205213635e-08,1.95598972142856e-07,1.89569654273567e-07,,1.87285358509116e-07,-1.88544799865756e-07,1.38568591262986e-07,-4.997620860278e-08,6.05448920709767e-08,-1.66298333815174e-07,6.05448920710621e-08,,,,4.64309579773007e-08,2.40216787937418e-08,,-9.69571265181831e-08,,-8.04351825685017e-08,-7.14683953432791e-08,-2.6823408104317e-08,,-6.87814302530533e-08,6.12054049763259e-08,-7.57602527674201e-09,-1.02644530732287e-07,2.92383446877757e-08,2.92383446879549e-08,,-2.29415528096054e-07,-1.64848072894102e-07,-1.13601683875069e-07,-7.17319069266191e-08,-1.8533359080169e-07,-1.66784667850462e-08,-3.56928102841811e-08,-3.56928102840836e-08,,4.05208414532708e-08,-2.30525379648763e-08,1,0,0,10.9567999999999,103,951.042718446602,530.531553398058,1581.68932038835,934.974757281553,967.110679611651,515.968932038835,545.094174757282,1616.28155339806,1547.09708737864,0
2149.376,3.22008716085945e-07,-1.32415176277471e-07,1.89593539808299e-07,1.06741757085367e-07,-3.61378816772239e-08,-3.61378816774355e-08,5.19087206238748e-07,-2.28627249946593e-07,2.90459956292219e-07,1.94822975009568e-07,2.94077946834051e-08,1.94822975009564e-07,1.88454184740088e-07,,1.84637306744879e-07,-1.85517157964745e-07,1.46168806854694e-07,-3.93483511100637e-08,9.91444712708954e-08,-1.99876251296083e-07,9.91444712709653e-08,,,,3.53627524969695e-08,3.0021138916247e-08,,-1.12387685088499e-07,,-8.49191296075874e-08,-9.16076446941171e-08,-2.16050587284344e-08,,-6.60504672560121e-08,6.90287963022783e-08,2.97832904625025e-09,-1.1413634105394e-07,3.03574597513061e-08,3.03574597514875e-08,,-2.63443106857242e-07,-1.2346029281224e-07,-1.0905984976385e-07,-8.2287368385414e-08,-1.9134721814926e-07,-1.30311340786319e-08,-4.98408366939862e-08,-4.98408366938928e-08,,3.24947849272702e-08,-2.30404474455789e-08,1,0,0,11.0592000000001,102,953.918137254902,524.53431372549,1539.25980392157,940.035294117647,967.800980392157,509.596078431373,539.472549019608,1573.07843137255,1505.44117647059,0
