time,S1-D1,S1-D8,S1-D9,S1-D15,S2-D1,S2-D2,S2-D3,S2-D9,S3-D1,S3-D2,S3-D16,S4-D2,S4-D3,S4-D5,S5-D3,S5-D4,S5-D5,S6-D2,S6-D5,S6-D17,S7-D6,S7-D7,S8-D6,S8-D7,S8-D18,S9-D3,S9-D4,S9-D9,S9-D11,S9-D19,S10-D8,S10-D9,S10-D10,S10-D11,S11-D8,S11-D10,S11-D20,S12-D10,S12-D11,S12-D12,S13-D4,S13-D11,S13-D12,S14-D10,S14-D12,S14-D21,S15-D13,S15-D14,S16-D13,S16-D14,S16-D22,SART_Target,SART_NonTarget,SART_Probe,t_rel_s,eye_n,xp,yp,ps,xpl_i,xpr_i,ypl_i,ypr_i,psl_i,psr_i,blink_prop
1674.4448,9.61937793725653e-09,-5.61723548268564e-08,-4.65529768895643e-08,-4.19031131802701e-07,7.82029215813757e-08,7.82029215815429e-08,,,-2.56727079665586e-07,4.92196394109013e-08,-3.03188852237695e-07,4.92196394109544e-08,1.36594734542426e-07,,2.15177160346928e-07,,,4.11417992862045e-07,,1.20895495708878e-08,1.62814769711617e-07,,,,2.1035805035832e-07,1.04791332869127e-07,,,-1.88326381797541e-07,1.60628086910285e-07,3.8592715785023e-07,2.15512907583924e-07,,,-2.65079096535899e-08,8.60425293566118e-08,3.61928921720023e-07,3.01697279565754e-08,3.01697279564266e-08,2.23903750874398e-08,,6.64222782743905e-08,,-2.81736144702001e-07,-1.78146497390523e-07,8.87217179458763e-07,,,,-1.77866115284699e-07,2.91206935666377e-07,0,1,0,0,103,882.283495145631,542.334466019418,2153.34951456311,875.188349514563,889.378640776699,551.036893203884,533.632038834952,2297.28155339806,2009.41747572816,0
1674.5472,-2.82772287378561e-09,-4.23757362906514e-08,-4.52034591643961e-08,-3.63882035488262e-07,8.46466539960969e-08,8.46466539962535e-08,,,-2.24167468452374e-07,3.57993680985549e-08,-3.01371913040366e-07,3.57993680986092e-08,1.13820691863329e-07,,1.95200421827143e-07,,,3.98734605131646e-07,,2.80755972404712e-08,1.60337822464723e-07,,,,2.1525959748096e-07,1.0097963129525e-07,,,-1.21240517802273e-07,1.75792173415771e-07,3.66762513694787e-07,2.30662270114336e-07,,,-1.73029312671507e-08,9.5886593040049e-08,3.66191192838729e-07,2.89145314153804e-08,2.89145314152418e-08,2.60098647832963e-08,,7.64704692693503e-08,,-2.84397310666278e-07,-1.85251450037372e-07,8.65723725989189e-07,,,,-8.93053004190168e-08,2.40340749898098e-07,0,1,0,0.102399999999989,102,889.599509803922,542.358333333333,2163.67647058824,884.573529411765,894.625490196079,556.932352941176,527.78431372549,2301.06862745098,2026.28431372549,0
1674.6496,-1.62895260202579e-08,-2.80100896540513e-08,-4.42996156742627e-08,-3.1000447909479e-07,9.15903477464761e-08,9.15903477466218e-08,,,-1.90523722679145e-07,2.12083253792887e-08,-2.99230967388423e-07,2.12083253793438e-08,9.08685117241219e-08,,1.73710887336222e-07,,,3.84792086498981e-07,,5.03371940548399e-08,1.56785849495157e-07,,,,2.19458313287055e-07,9.48916929230053e-08,,,-4.96888981819462e-08,1.85186385640916e-07,3.4554532626249e-07,2.50340173865877e-07,,,-5.4608057834028e-09,1.05020148962993e-07,3.71372852729305e-07,3.00183148422006e-08,3.0018314842073e-08,3.10073825819282e-08,,8.8708063242932e-08,,-2.87085984362468e-07,-1.93578953222564e-07,8.46929635274168e-07,,,,-2.92477024013642e-10,1.87686302817108e-07,0,1,0,0.204799999999977,103,952.742718446602,545.085922330097,2166.83495145631,944.779611650485,960.705825242719,568.749514563107,521.422330097087,2307.22330097087,2026.44660194175,0
1674.752,-3.02287251311294e-08,-1.3742918876973e-08,-4.39716440080504e-08,-2.5896948458473e-07,9.8966794525476e-08,9.89667945256109e-08,,,-1.57770229248651e-07,6.11390547206064e-09,-2.97024769786352e-07,6.11390547211578e-09,6.89568025720527e-08,,1.51832297963956e-07,,,3.7028073238605e-07,,7.69341154130971e-08,1.52577956013092e-07,,,,2.23161190159573e-07,8.70873333222648e-08,,,2.08330956579268e-08,1.87181729609743e-07,3.23529641978054e-07,2.73598083514442e-07,,,8.08275803781726e-09,1.13026101162675e-07,3.7802019520795e-07,3.29641298893161e-08,3.29641298891994e-08,3.71691131100201e-08,,1.02606376568781e-07,,-2.89782108724396e-07,-2.02807018115175e-07,8.32033072287134e-07,,,,8.27768037820195e-08,1.36178996313667e-07,0,0,0,0.307199999999966,102,952.475980392157,548.191176470588,2166.37254901961,946.44705882353,958.504901960784,569.945098039216,526.437254901961,2308.00980392157,2024.73529411765,0
1674.8544,-4.39539383992616e-08,-2.15630961422141e-10,-4.41695693606266e-08,-2.11890449020611e-07,1.06814412836185e-07,1.0681441283631e-07,,,-1.27944409919827e-07,-8.65692418357347e-09,-2.9500875106605e-07,-8.65692418351873e-09,4.9557190370192e-08,,1.30986969225963e-07,,,3.561107402566e-07,,1.05638712339462e-07,1.48228997320895e-07,,,,2.26559839404888e-07,7.83514479815718e-08,,,8.49209584759914e-08,1.81465095285929e-07,3.02219403187606e-07,2.98935133999097e-07,,,2.22147866277995e-08,1.19620989153815e-07,3.86600715944003e-07,3.69953565110112e-08,3.69953565109048e-08,4.42662601830482e-08,,1.17579724138258e-07,,-2.92435277637905e-07,-2.12336148462949e-07,8.21036559320494e-07,,,,1.54645108972143e-07,8.88865065751177e-08,0,0,0,0.409599999999955,102,954.863725490196,544.358823529412,2151.52450980392,949.33137254902,960.396078431373,559.995098039216,528.722549019608,2290.29411764706,2012.75490196078,0
1674.9568,-5.66904499737936e-08,1.20496251061471e-08,-4.4640824867585e-08,-1.69540066380689e-07,1.15351243573119e-07,1.15351243573235e-07,,,-1.02881698951203e-07,-2.22316075939971e-08,-2.93414084007592e-07,-2.22316075939434e-08,3.42503432074328e-08,,1.12734491091918e-07,,,3.4331386480831e-07,,1.34331161540022e-07,1.44299259820467e-07,,,,2.29802311992569e-07,6.96121795595337e-08,,,1.38192341535065e-07,1.69033794051989e-07,2.83300279104918e-07,3.24397791119097e-07,,,3.57845588480712e-08,1.24705169448684e-07,3.97372695493522e-07,4.12751765603512e-08,4.12751765602546e-08,5.20784214235323e-08,,1.33055462201842e-07,,-2.95030680491266e-07,-2.21386893637079e-07,8.12977893144076e-07,,,,2.11726779150781e-07,4.84496175023794e-08,0,0,0,0.511999999999944,103,959.670388349515,542.467961165049,2124.16504854369,954.612621359223,964.728155339806,553.966990291262,530.968932038835,2257.22330097087,1991.10679611651,0
1675.0592,-6.76910790543261e-08,2.27229858591699e-08,-4.49680931950906e-08,-1.32446552524283e-07,1.24943758689176e-07,1.24943758689283e-07,,,-8.39400188877441e-08,-3.38249687944737e-08,-2.9243823457072e-07,-3.38249687944215e-08,2.450465689275e-08,,9.85342306569481e-08,,,3.32885206678457e-07,,1.61251977380344e-07,1.41324294268078e-07,,,,2.33008977197314e-07,6.18264756947374e-08,,,1.77832976725127e-07,1.51906815555733e-07,2.68549004515803e-07,3.47703160724279e-07,,,4.77588336034465e-08,1.28384469870663e-07,4.10301050133483e-07,4.5039829062208e-08,4.503982906212e-08,6.03709889103437e-08,,1.48477771803811e-07,,-2.97637869075641e-07,-2.29143542568446e-07,8.06440884873006e-07,,,,2.52481672691065e-07,1.65785218294201e-08,0,0,0,0.614399999999932,102,965.79362745098,542.038725490196,2066.63725490196,958.866666666667,972.720588235294,550.374509803922,533.702941176471,2189.17647058824,1944.09803921569,0
1675.1616,-7.63798164592698e-08,3.17018041340867e-08,-4.46780123251145e-08,-1.00928067538902e-07,1.35957956669761e-07,1.35957956669862e-07,,,-7.17668399702954e-08,-4.28755817624203e-08,-2.92245251260121e-07,-4.28755817623702e-08,2.13630474353596e-08,,8.94471328135179e-08,,,3.25578896504456e-07,,1.8502585188139e-07,1.39728228330759e-07,,,,2.36338124947071e-07,5.58323443042503e-08,,,2.02730615932213e-07,1.32703698895721e-07,2.59645076050363e-07,3.66413510027851e-07,,,5.73697043297936e-08,1.3094182613596e-07,4.25061462977239e-07,4.76974061491194e-08,4.76974061490385e-08,6.88335757731147e-08,,1.63246378655838e-07,,-3.00420104904816e-07,-2.34923380194302e-07,8.00163303258982e-07,,,,2.77504829483316e-07,-6.23264538558743e-09,0,0,0,0.716799999999921,103,967.617961165049,546.326699029126,2023.83009708738,960.347572815534,974.888349514563,552.672815533981,539.980582524272,2141,1906.66019417476,0
1675.264,-8.25002125866097e-08,3.91002858657826e-08,-4.33999267207559e-08,-7.50414289911601e-08,1.48547538876868e-07,1.48547538876964e-07,,,-6.61560266323303e-08,-4.91620762283025e-08,-2.9296926788638e-07,-4.91620762282548e-08,2.50955874623331e-08,,8.58361199026256e-08,,,3.21703776097789e-07,,2.04495307459101e-07,1.3973372670814e-07,,,,2.40075686461513e-07,5.21969204143309e-08,,,2.1327757650377e-07,1.14181373203418e-07,2.57850256924052e-07,3.78201790795614e-07,,,6.4222699323753e-08,1.32753816992505e-07,4.41127497963481e-07,4.88596334566442e-08,4.88596334565691e-08,7.70082993822842e-08,,1.76629764017984e-07,,-3.0358368957684e-07,-2.38330082957088e-07,7.93528513423161e-07,,,,2.89275569461991e-07,-2.06943776681598e-08,0,0,0,0.81919999999991,102,969.561274509804,545.442156862745,2020.16176470588,961.992156862745,977.130392156863,550.228431372549,540.655882352941,2139.10784313725,1901.21568627451,0
1675.3664,-8.62193416563487e-08,4.51988927510845e-08,-4.10204489051912e-08,-5.4440929842604e-08,1.62464731102868e-07,1.6246473110296e-07,,,-6.60229495485555e-08,-5.28639146484864e-08,-2.94714400169481e-07,-5.28639146484411e-08,3.4956820243697e-08,,8.71741346522347e-08,,,3.20997056847957e-07,,2.1850115904826e-07,1.41296739869734e-07,,,,2.44718153917102e-07,5.11027173831657e-08,,,2.10964678484816e-07,9.87812067360714e-08,2.63617508488436e-07,3.8120222248143e-07,,,6.8330224145615e-08,1.3416800397673e-07,4.57909723581881e-07,4.8324577916748e-08,4.83245779166771e-08,8.42570462816733e-08,,1.87721384647163e-07,,-3.07261442710144e-07,-2.39328377828499e-07,7.86786764720457e-07,,,,2.91643227820682e-07,-2.8429600659068e-08,0,0,0,0.921600000000126,103,971.673786407767,544.251941747573,2039.95145631068,964.406796116505,978.940776699029,547.096116504855,541.407766990291,2161.00970873786,1918.8932038835,0
1675.4688,-8.81363583619192e-08,5.03710794919487e-08,-3.77652788698965e-08,-3.82079541621406e-08,1.7697901264346e-07,1.7697901264355e-07,,,-6.95136645346219e-08,-5.45350914181836e-08,-2.97549363866248e-07,-5.45350914181408e-08,4.91866767468141e-08,,9.20621224397538e-08,,,3.22648069617322e-07,,2.25761020194819e-07,1.44104683345439e-07,,,,2.51020728012099e-07,5.2303377179926e-08,,,1.97889465070361e-07,8.82508589870946e-08,2.76281352004054e-07,3.74350705351071e-07,,,7.00555825968733e-08,1.3538110559927e-07,4.74907797938843e-07,4.60338102310066e-08,4.60338102309378e-08,8.98054914312269e-08,,1.95489868873404e-07,,-3.11369754455284e-07,-2.38195386774613e-07,7.80984300430406e-07,,,,2.89216638812899e-07,-3.15200862194454e-08,0,0,0,1.02400000000011,102,972.573039215686,543.812254901961,2067.87745098039,964.143137254902,981.002941176471,552.592156862745,535.032352941177,2192.62745098039,1943.12745098039,0
1675.5712,-8.91747155689513e-08,5.50103937260105e-08,-3.41643218428663e-08,-2.47728381022955e-08,1.90960851625609e-07,1.90960851625697e-07,,,-7.42647534691451e-08,-5.49885793471875e-08,-3.01498428897448e-07,-5.49885793471467e-08,6.5288670927074e-08,,9.84712381073457e-08,,,3.25476899508727e-07,,2.24935147913361e-07,1.47656454221039e-07,,,,2.59968057215922e-07,5.51685382289835e-08,,,1.76302161434638e-07,8.34265868210967e-08,2.93982713477937e-07,3.57579356109736e-07,,,6.99910685896565e-08,1.36370727192266e-07,4.91823113322719e-07,4.20190553122417e-08,4.20190553121736e-08,9.28509759297752e-08,,1.9890974604058e-07,,-3.1551844678346e-07,-2.35369431973195e-07,7.77652410202977e-07,,,,2.86782480354064e-07,-3.20595508884543e-08,0,0,0,1.1264000000001,102,969.989705882353,542.362745098039,2097.25,960.593137254902,979.386274509804,553.971568627451,530.753921568627,2225.63725490196,1968.86274509804,0
1675.6736,-9.03853768397153e-08,5.94740064173568e-08,-3.09113704222838e-08,-1.20311563176834e-08,2.03115893576582e-07,2.03115893576671e-07,,,-7.78040616302593e-08,-5.5126600995429e-08,-3.06530402934377e-07,-5.51266009953894e-08,8.04927930484231e-08,,1.04122711612255e-07,,,3.28189802007102e-07,,2.14870427718625e-07,1.51397433385689e-07,,,,2.72630315510196e-07,5.88185141815758e-08,,,1.48286453837065e-07,8.42437291970457e-08,3.13888916632016e-07,3.31788293889471e-07,,,6.88144172987379e-08,1.3691027806875e-07,5.08581920933688e-07,3.6350556576619e-08,3.635055657655e-08,9.26819625265809e-08,,1.97110779660931e-07,,-3.19036207846335e-07,-2.31276994835627e-07,7.78326028527845e-07,,,,2.88790968465808e-07,-3.18358687018433e-08,0,1,0,1.22880000000009,103,967.527184466019,537.827669902913,2128.61165048544,959.702912621359,975.35145631068,550.219417475728,525.435922330097,2258.73786407767,1998.4854368932,0
1675.776,-9.27242772161544e-08,6.40456903741519e-08,-2.86785868419281e-08,2.33866364953697e-09,2.12273377412318e-07,2.12273377412409e-07,,,-7.80195107570468e-08,-5.57696038250739e-08,-3.12548153249017e-07,-5.57696038250346e-08,9.22534892416072e-08,,1.06885040814888e-07,,,3.2961263533841e-07,,1.94931073955734e-07,1.54856792995601e-07,,,,2.89922295511065e-07,6.23133244352669e-08,,,1.15608868983969e-07,8.99574857853402e-08,3.32649800096606e-07,2.98631705332961e-07,,,6.71569469546563e-08,1.36650209724607e-07,5.25259259123338e-07,2.91023229575371e-08,2.91023229574661e-08,8.87651709405711e-08,,1.89491430608393e-07,,-3.21108932237543e-07,-2.26219212093813e-07,7.84038030342024e-07,,,,2.98932665434115e-07,-3.21818219363745e-08,0,1,0,1.33120000000008,102,965.797058823529,531.348039215686,2156.96568627451,956.582352941177,975.011764705882,538.103921568628,524.592156862745,2293.71568627451,2020.21568627451,0
1675.8784,-9.68712864760347e-08,6.89110124227662e-08,-2.79602740531945e-08,2.0448639213858e-08,2.17607495886464e-07,2.17607495886558e-07,,,-7.35885232498564e-08,-5.75265422206838e-08,-3.1938063102585e-07,-5.75265422206435e-08,9.86464512274872e-08,,1.05096105012828e-07,,,3.28846568902801e-07,,1.6529261784575e-07,1.57746961948425e-07,,,,3.12337176636874e-07,6.48375424627546e-08,,,7.97309714216064e-08,9.94565427954676e-08,3.46939623553757e-07,2.60241158568313e-07,,,6.55035294036227e-08,1.35222880781723e-07,5.41942960727342e-07,2.03430948909006e-08,2.03430948908263e-08,8.07835174630122e-08,,1.75770100405697e-07,,-3.20971705670359e-07,-2.20351474242493e-07,7.95010171165293e-07,,,,3.19827888312341e-07,-3.39615187188235e-08,0,1,0,1.43360000000007,103,965.808737864078,532.014563106796,2182.53883495146,956.019417475728,975.598058252427,537.128155339806,526.900970873786,2322.94174757282,2042.1359223301,0
1675.9808,-1.03127940182981e-07,7.41372183467412e-08,-2.89907218361659e-08,4.37874542543443e-08,2.18726127041065e-07,2.18726127041162e-07,,,-6.42857985443977e-08,-6.07202339708244e-08,-3.26776533970104e-07,-6.07202339707822e-08,9.85895913461177e-08,,9.77686482582495e-08,,,3.25344076351141e-07,,1.27097604457011e-07,1.60010299705096e-07,,,,3.39734068943672e-07,6.58344476929953e-08,,,4.19646123219106e-08,1.11534485200906e-07,3.53930647456588e-07,2.1899241621547e-07,,,6.41444939959476e-08,1.3233836946444e-07,5.58597106244224e-07,1.01487573188494e-08,1.01487573187717e-08,6.86250522268414e-08,,1.55965846735722e-07,,-3.18085136708741e-07,-2.13738345084957e-07,8.10658033284721e-07,,,,3.52805637150369e-07,-3.76175540289996e-08,0,0,0,1.53600000000006,102,966.934803921569,532.828431372549,2193.51960784314,957.835294117647,976.03431372549,539.511764705882,526.145098039216,2337.70588235294,2049.33333333333,0
1676.0832,-1.11389461816503e-07,7.96596699644709e-08,-3.17297918519589e-08,7.29088384870108e-08,2.15647165857886e-07,2.15647165857988e-07,,,-5.11203279639172e-08,-6.53551339503336e-08,-3.34398221655805e-07,-6.53551339502888e-08,9.18932851084286e-08,,8.46837074018857e-08,,,3.18934403462378e-07,,8.24283558080145e-08,1.61813630822761e-07,,,,3.71238460272731e-07,6.50686797474075e-08,,,3.70723001766385e-09,1.25045415007187e-07,3.51627309796572e-07,1.77333884146382e-07,,,6.319273786954e-08,1.27859740895917e-07,5.74979970768479e-07,-1.37374026656301e-09,-1.37374026664442e-09,5.23342879726781e-08,,1.30316398991543e-07,,-3.12245343784991e-07,-2.06436363872972e-07,8.29816777429709e-07,,,,3.97752938886577e-07,-4.32194972837056e-08,0,0,0,1.63840000000005,102,961.131604030501,657.628909654139,2033.28861996187,938.223774509804,984.039433551198,670.755422794118,644.502396514161,2170.45741421569,1896.11982570806,0.284313725490196
1676.1856,-1.21171247897856e-07,8.5284734769398e-08,-3.58865131283849e-08,1.07294635562032e-07,2.08721419087454e-07,2.0872141908756e-07,,,-3.62548510335528e-08,-7.11140952886569e-08,-3.41818666718465e-07,-7.11140952886086e-08,7.91815794852213e-08,,6.6387035042496e-08,,,3.09820645603831e-07,,3.41099856684519e-08,1.63498651685505e-07,,,,4.05289882757259e-07,6.26123683832846e-08,,,-3.33816119670874e-08,1.3893645660186e-07,3.3905731363541e-07,1.37649722110357e-07,,,6.26531589034251e-08,1.21856396994367e-07,5.90655360073441e-07,-1.40617945334275e-08,-1.40617945335124e-08,3.20462725576563e-08,,9.915988273644e-08,,-3.03599013380209e-07,-1.98557630109476e-07,8.51037021197527e-07,,,,4.53107391817805e-07,-5.05153134285279e-08,0,0,0,1.74080000000004,103,933.439819309601,1073.04758461435,1476.40592974649,858.572572815534,1008.30706580367,1140.93686286408,1005.15830636462,1545.18294902913,1407.62891046386,0.485436893203884
1676.288,-1.31682028869373e-07,9.07175048569739e-08,-4.09645240123262e-08,1.45457455815472e-07,1.98542173960819e-07,1.98542173960929e-07,,,-2.26785250713071e-08,-7.73893647644563e-08,-3.48530696997012e-07,-7.73893647644041e-08,6.17187801694255e-08,,4.40890306640325e-08,,,2.98541138202047e-07,,-1.46078292101739e-08,1.6550237539719e-07,,,,4.39833709442544e-07,5.87621081983797e-08,,,-6.74302668260448e-08,1.52201911042747e-07,3.16319124680394e-07,1.02141426423562e-07,,,6.25036118196987e-08,1.14631266839609e-07,6.05098547477556e-07,-2.76853739528877e-08,-2.76853739529749e-08,7.92767531032094e-09,,6.28196633940504e-08,,-2.92567797762945e-07,-1.90292117957421e-07,8.72888809106601e-07,,,,5.16109161947658e-07,-5.90253501009604e-08,0,0,0,1.84320000000002,102,972.69068627451,768.898039215686,1853.92647058824,938.333333333333,1007.04803921569,764.661764705882,773.13431372549,2008.27450980392,1699.57843137255,0
1676.3904,-1.41938911023959e-07,9.56122937263481e-08,-4.63266172975369e-08,1.85264365881373e-07,1.85854425724312e-07,1.85854425724424e-07,,,-1.36875739106412e-08,-8.33596994180697e-08,-3.5397997512987e-07,-8.33596994180135e-08,4.11799777394526e-08,,1.94774732679395e-08,,,2.85882650428357e-07,,-6.04293496785479e-08,1.68269340134881e-07,,,,4.72606728394855e-07,5.39160376956737e-08,,,-9.66741840471944e-08,1.63842439474385e-07,2.84482271004248e-07,7.27139238547235e-08,,,6.27458558273688e-08,1.06710520252083e-07,6.17843388380635e-07,-4.19575570324423e-08,-4.19575570325312e-08,-1.98557302254799e-08,,2.15304736619734e-08,,-2.79727538123938e-07,-1.81893276284e-07,8.94233479324021e-07,,,,5.83310113394513e-07,-6.81863324964124e-08,0,0,0,1.94560000000001,103,973.512621359223,551.632038834952,2129.61165048544,959.21359223301,987.811650485437,544.700970873786,558.563106796117,2297.78640776699,1961.43689320388,0
1676.4928,-1.50906514102286e-07,9.96324120869392e-08,-5.12741020152724e-08,2.24351717121802e-07,1.71467913810196e-07,1.7146791381031e-07,,,-1.23223843052177e-08,-8.8112287448218e-08,-3.57626217471871e-07,-8.81122874481577e-08,1.94168970965527e-08,,-5.51819081953374e-09,,,2.72756708410306e-07,,-1.00390802577525e-07,1.72178805099748e-07,,,,5.01441281350587e-07,4.8459539152823e-08,,,-1.19860879799179e-07,1.72905212347886e-07,2.4536954699202e-07,5.08460877172914e-08,,,6.34131220055785e-08,9.87838560950486e-08,6.28589550082164e-07,-5.65662226392098e-08,-5.65662226392993e-08,-5.11349479961596e-08,,-2.45647053528376e-08,,-2.65704068628018e-07,-1.73642529384913e-07,9.14391434418721e-07,,,,6.51174975715559e-07,-7.74969091623305e-08,0,0,0,2.048,102,969.390196078431,546.021078431373,2131.87254901961,955.880392156863,982.9,544.595098039216,547.447058823529,2297.21568627451,1966.52941176471,0
1676.5952,-1.57636974026255e-07,1.02503986600948e-07,-5.51329874252316e-08,2.60487518294525e-07,1.56180247078615e-07,1.5618024707873e-07,,,-2.09064410435921e-08,-9.07933998616735e-08,-3.59025100789655e-07,-9.07933998616094e-08,-1.74826968687185e-09,,-2.89686589420127e-08,,,2.60063165429823e-07,,-1.32186446885382e-07,1.7749583436064e-07,,,,5.24529807868854e-07,4.27015642730009e-08,,,-1.36472243684761e-07,1.78616704634523e-07,2.01284046906352e-07,3.74484300063541e-08,,,6.4547738766895e-08,9.15937593783344e-08,6.37223320783952e-07,-7.12180382857943e-08,-7.12180382858834e-08,-8.56886259105646e-08,,-7.53230760544268e-08,,-2.51119942735758e-07,-1.65809680102925e-07,9.33180065725351e-07,,,,7.16582087045229e-07,-8.6611578274413e-08,0,0,0,2.15039999999999,102,968.883333333333,538.000980392157,2140.88235294118,957.348039215686,980.41862745098,545.078431372549,530.923529411765,2300.50980392157,1981.25490196078,0
1676.6976,-1.61392007056852e-07,1.04056002129878e-07,-5.73360049268992e-08,2.91808059466511e-07,1.40721505948861e-07,1.40721505948977e-07,,,-4.0740374631801e-08,-9.07627257469308e-08,-3.57913557193788e-07,-9.07627257468633e-08,-2.07006065415558e-08,,-4.9171729284813e-08,,,2.48558442722666e-07,,-1.54407362041121e-07,1.84336367730498e-07,,,,5.40625845935661e-07,3.68698823075808e-08,,,-1.46649826392958e-07,1.8054743222856e-07,1.547373662309e-07,3.27486999374732e-08,,,6.61703698074323e-08,8.57904556493114e-08,6.437737546216e-07,-8.56779164278011e-08,-8.56779164278894e-08,-1.23144890107896e-07,,-1.30413671486623e-07,,-2.36581223906563e-07,-1.58626743910278e-07,9.50864089881481e-07,,,,7.77119700431256e-07,-9.53676106253908e-08,0,0,0,2.25279999999998,103,970.810679611651,535.999514563107,2151.91262135922,960.357281553398,981.264077669903,542.538834951456,529.460194174757,2307.11650485437,1996.70873786408,0
1676.8,-1.61731642725001e-07,1.04245234434901e-07,-5.74864082900235e-08,3.16923385308186e-07,1.25733677978755e-07,1.25733677978871e-07,,,-7.19372934912699e-08,-8.77211373240538e-08,-3.54278622174874e-07,-8.7721137323983e-08,-3.61779296747688e-08,,-6.4845826814123e-08,,,2.38744531047982e-07,,-1.66667448562014e-07,1.92634682124245e-07,,,,5.4917637695787e-07,3.11376508263797e-08,,,-1.5091964543555e-07,1.78735196863429e-07,1.08214254666405e-07,3.62465657278263e-08,,,6.82590009167086e-08,8.17860726207432e-08,6.48364321165924e-07,-9.97817266050889e-08,-9.97817266051757e-08,-1.62850551822989e-07,,-1.89075642366716e-07,,-2.22673584316789e-07,-1.52284764774082e-07,9.68053752642569e-07,,,,8.31164920508174e-07,-1.03755742974158e-07,0,0,0,2.35519999999997,102,973.861764705882,538.89068627451,2164.72549019608,960.721568627451,987.001960784314,548.114705882353,529.666666666667,2317.99019607843,2011.46078431373,0
1676.9024,-1.58559277944069e-07,1.03165286423296e-07,-5.53939915206976e-08,3.34926596231483e-07,1.11781731288284e-07,1.117817312884e-07,,,-1.13390288390797e-07,-8.17838315177298e-08,-3.48393988393881e-07,-8.17838315176565e-08,-4.73571684987086e-08,,-7.52550604302476e-08,,,2.30804194096349e-07,,-1.69595660874309e-07,2.02117692524473e-07,,,,5.50379960190093e-07,2.56454081803765e-08,,,-1.49885024749385e-07,1.73727936127484e-07,6.39947261545721e-08,4.67496110372159e-08,,,7.07460620760463e-08,7.9645276890281e-08,6.51199508745244e-07,-1.1340988019688e-07,-1.13409880196965e-07,-2.03747795773756e-07,,-2.49902405194609e-07,,-2.09948569046219e-07,-1.46943815567583e-07,9.85555199932591e-07,,,,8.77792242023331e-07,-1.1185019924277e-07,0,1,0,2.45759999999996,102,971.84362745098,537.780392156863,2174.70588235294,960.169607843137,983.517647058824,543.003921568628,532.556862745098,2330.29411764706,2019.11764705882,0
1677.0048,-1.52118844762846e-07,1.01035568191756e-07,-5.10832765710145e-08,3.45354850015129e-07,9.93623038711679e-08,9.93623038712847e-08,,,-1.62893870756301e-07,-7.3478169358976e-08,-3.40810735864657e-07,-7.34781693589006e-08,-5.38605220774249e-08,,-8.02358850028566e-08,,,2.24608959642393e-07,,-1.64688449530567e-07,2.12306722127892e-07,,,,5.45156088316307e-07,2.05027390394542e-08,,,-1.43996206837848e-07,1.66521204421921e-07,2.40284365749451e-08,6.24906398603244e-08,,,7.35311932473008e-08,7.9041586352951e-08,6.52576285681777e-07,-1.26431436597668e-07,-1.26431436597752e-07,-2.44317297162063e-07,,-3.10747464751924e-07,,-1.98894120102001e-07,-1.42734642082839e-07,1.00418585861472e-06,,,,9.16587443153182e-07,-1.19719484832891e-07,0,1,0,2.55999999999995,103,972.68932038835,537.819417475728,2164.7572815534,962.876699029126,982.501941747573,537.957281553398,537.681553398058,2316.65048543689,2012.8640776699,0
1677.1072,-1.42941989229817e-07,9.81659048059111e-08,-4.47760844238307e-08,3.48138632301844e-07,8.88756054664037e-08,8.88756054665214e-08,,,-2.17453100922378e-07,-6.36554780073278e-08,-3.32289908284849e-07,-6.36554780072508e-08,-5.56836236283155e-08,,-8.01241559128267e-08,,,2.19804772380057e-07,,-1.54038970447816e-07,2.22566095112506e-07,,,,5.35010636329594e-07,1.5772415090213e-08,,,-1.33454015658705e-07,1.58376217166657e-07,-1.01599663359143e-08,8.13170575841942e-08,,,7.65054947416086e-08,7.92974144712536e-08,6.52885848009364e-07,-1.38647040499948e-07,-1.38647040500031e-07,-2.82653109148401e-07,,-3.6884442924349e-07,,-1.89888397201004e-07,-1.39738852104688e-07,1.02458458387211e-06,,,,9.47442321247562e-07,-1.27352461552764e-07,0,1,0,2.66239999999993,102,973.775980392157,539.160784313726,2145.62745098039,966.622549019608,980.929411764706,538.666666666667,539.654901960784,2291.90196078431,1999.35294117647,0
1677.2096,-1.31747914036124e-07,9.49004110986187e-08,-3.68475029374316e-08,3.43557666835402e-07,8.05723968172367e-08,8.05723968173563e-08,,,-2.7376138810992e-07,-5.33297619481123e-08,-3.23679355120945e-07,-5.33297619480345e-08,-5.30638659201012e-08,,-7.5605739014813e-08,,,2.1594696623167e-07,,-1.39983821946729e-07,2.32195297976786e-07,,,,5.21808634748224e-07,1.14426274960745e-08,,,-1.18304355912501e-07,1.50557467011643e-07,-3.75399752071652e-08,1.00924692072611e-07,,,7.95866514530112e-08,7.9508415642226e-08,6.52587087743179e-07,-1.49757047656004e-07,-1.49757047656089e-07,-3.16693078184693e-07,,-4.21165493039603e-07,,-1.83146907994224e-07,-1.37952254178685e-07,1.04703210335779e-06,,,,9.70389885982391e-07,-1.3463507430648e-07,0,0,0,2.76479999999992,103,973.38640776699,541.581067961165,2130.31067961165,966.87281553398,979.9,541.947572815534,541.214563106796,2271.42718446602,1989.19417475728,0
1677.312,-1.1931000824428e-07,9.15541469611235e-08,-2.77558612830842e-08,3.32204355911074e-07,7.45255422133331e-08,7.4525542213455e-08,,,-3.28720836952436e-07,-4.34886216282226e-08,-3.15764565275477e-07,-4.34886216281442e-08,-4.63260614839431e-08,,-6.75301037679679e-08,,,2.12638589751829e-07,,-1.24737239314515e-07,2.40536583182523e-07,,,,5.07507391781445e-07,7.39581207809412e-09,,,-9.87233488585042e-08,1.44071439525586e-07,-5.76056404979499e-08,1.1909993089173e-07,,,8.27584770080632e-08,7.87243477395784e-08,6.52155849484124e-07,-1.59361405272623e-07,-1.59361405272709e-07,-3.44544542378405e-07,,-4.64919434818272e-07,,-1.78685646838122e-07,-1.37248170562115e-07,1.0712782329568e-06,,,,9.85515904713232e-07,-1.41390945526977e-07,0,0,0,2.86719999999991,102,968.493576477552,574.621767781698,2076.65740826717,958.654484887878,978.332668067227,576.332786263677,572.91074929972,2214.4338641534,1938.88095238095,0
1677.4144,-1.0631625187403e-07,8.83594924218069e-08,-1.79567594521527e-08,3.14946756327192e-07,7.06563108542501e-08,7.0656310854375e-08,,,-3.79836789975993e-07,-3.49311774918057e-08,-3.09140176369131e-07,-3.49311774917273e-08,-3.5759667067032e-08,,-5.67379446892627e-08,,,2.09631541305448e-07,,-1.1010460646355e-07,2.47065687631869e-07,,,,4.93920208308049e-07,3.39238642741922e-09,,,-7.53450086225105e-08,1.39468324403666e-07,-7.0351363320646e-08,1.33926224726664e-07,,,8.60960024855915e-08,7.61335172663192e-08,6.52017239092705e-07,-1.66986997763424e-07,-1.66986997763511e-07,-3.64791742732744e-07,,-4.98015454056553e-07,,-1.76320037472942e-07,-1.37359679492297e-07,1.09639922013451e-06,,,,9.92964634551858e-07,-1.47467949709184e-07,0,0,0,2.9695999999999,103,925.490881159094,917.64632145676,1630.30984327433,883.395027624309,967.586734693878,955.703867403315,879.588775510204,1713.49723756906,1547.12244897959,0.922330097087379
1677.5168,-9.32608044676003e-08,8.54349730978151e-08,-7.82583136971705e-09,2.92891263094158e-07,6.87923298038485e-08,6.8792329803977e-08,,,-4.25397694487309e-07,-2.81670673592896e-08,-3.04142329539936e-07,-2.81670673592121e-08,-2.15682160438389e-08,,-4.39471604249688e-08,,,2.06866087963829e-07,,-9.7355296420051e-08,2.51447429209515e-07,,,,4.82557794507469e-07,-9.09323977900536e-10,,,-4.93921587430587e-08,1.36735747365986e-07,-7.61931431524199e-08,1.43914248198887e-07,,,8.97556975616148e-08,7.11946443955875e-08,6.52467245875437e-07,-1.7213947655994e-07,-1.7213947656003e-07,-3.76684037418562e-07,,-5.19341300974209e-07,,-1.75703393805573e-07,-1.37894286533747e-07,1.12076852735533e-06,,,,9.93038569886387e-07,-1.52821184544695e-07,0,0,0,3.07200000000012,102,907.8952886265,1124.5601331002,1365.15225979895,846.440732315026,969.349844937975,1175.82997508396,1073.29029111645,1430.03461163471,1300.26990796319,0
1677.6192,-8.0401167203296e-08,8.27796267605489e-08,2.37845955731852e-09,2.67347409318382e-07,6.87034732256578e-08,6.87034732257917e-08,,,-4.64462495915552e-07,-2.33843723447981e-08,-3.00856560778166e-07,-2.33843723447217e-08,-3.89045382012968e-09,,-2.97137450682066e-08,,,2.04445521558526e-07,,-8.72761834160965e-08,2.53552460612811e-07,,,,4.74557877571067e-07,-5.88809561232804e-09,,,-2.24749323004035e-08,1.35307889450268e-07,-7.58664054770273e-08,1.48056860460511e-07,,,9.3926042003217e-08,6.36818354370267e-08,6.5360051939953e-07,-1.74370125345651e-07,-1.74370125345742e-07,-3.80157242379969e-07,,-5.28786016213323e-07,,-1.76390963960412e-07,-1.383829912224e-07,1.14222665594561e-06,,,,9.8634784663365e-07,-1.57527133278541e-07,0,0,0,3.17440000000011,102,960.032843137255,589.011274509804,2039.33823529412,942.218627450981,977.847058823529,580.852941176471,597.169607843137,2177.48039215686,1901.19607843137,0
1677.7216,-6.77873937934765e-08,8.02850189927786e-08,1.24976251993652e-08,2.39784600315121e-07,7.00831809277833e-08,7.00831809279226e-08,,,-4.96733217952109e-07,-2.04749518652458e-08,-2.99182035906826e-07,-2.04749518651711e-08,1.71386091424481e-08,,-1.44530566215273e-08,,,2.02565367471519e-07,,-8.03434695581726e-08,2.53440309411071e-07,,,,4.70687462016046e-07,-1.1863876808272e-08,,,3.84741273845212e-09,1.34184967602778e-07,-7.03438962483754e-08,1.45849555106025e-07,,,9.87554475218272e-08,5.36457607765927e-08,6.55269817152983e-07,-1.73336313461535e-07,-1.73336313461629e-07,-3.75707435048723e-07,,-5.27040729122886e-07,,-1.77901601176917e-07,-1.38348297401408e-07,1.15842553505749e-06,,,,9.73916048935819e-07,-1.61701933165956e-07,0,0,0,3.27680000000009,103,960.573300970874,532.490291262136,2119.35922330097,950.552427184466,970.594174757282,529.063106796117,535.917475728155,2272.09708737864,1966.6213592233,0
1677.824,-5.53336546214149e-08,7.77514425656285e-08,2.24177879442746e-08,2.11776007899869e-07,7.24924881740536e-08,7.24924881741982e-08,,,-5.22393182978335e-07,-1.90916368775014e-08,-2.98908879629561e-07,-1.90916368774287e-08,4.13234179625536e-08,,1.51440848889191e-09,,,2.0143244483537e-07,,-7.68956098323656e-08,2.51322165553764e-07,,,,4.71382945604776e-07,-1.90071820829833e-08,,,2.84743138050521e-08,1.32097288054496e-07,-6.07927034526861e-08,1.37307536533329e-07,,,1.04288239154834e-07,4.13302154832796e-08,6.57098628692924e-07,-1.68832979699651e-07,-1.68832979699748e-07,-3.64186667452e-07,,-5.1528944158021e-07,,-1.79751412461247e-07,-1.37362538156485e-07,1.16718365707241e-06,,,,9.57148759045595e-07,-1.65367062096227e-07,0,0,0,3.37920000000008,102,960.766666666667,530.241666666667,2138.85784313726,956.105882352941,965.427450980392,530.086274509804,530.397058823529,2288.8431372549,1988.87254901961,0
1677.9264,-4.28887799752394e-08,7.48992616864374e-08,3.20104817112574e-08,1.84938921176938e-07,7.5310269753036e-08,7.53102697531857e-08,,,-5.41971835248039e-07,-1.87119714915625e-08,-2.997694056721e-07,-1.87119714914922e-08,6.83661726709849e-08,,1.79288609846314e-08,,,2.01211601093914e-07,,-7.72104242264073e-08,2.47522860389395e-07,,,,4.76783664611414e-07,-2.72936476603226e-08,,,5.08916546042698e-08,1.27640271488456e-07,-4.85588112258112e-08,1.22980830468461e-07,,,1.10437272764204e-07,2.70942814450839e-08,6.58553518033011e-07,-1.60787293124363e-07,-1.60787293124463e-07,-3.46597715778001e-07,,-4.94912190735031e-07,,-1.81460278775007e-07,-1.35075944877814e-07,1.16666885287311e-06,,,,9.37632069278988e-07,-1.6833378716534e-07,0,0,0,3.48160000000007,103,963.771359223301,526.533495145631,2155.29126213592,959.905825242718,967.636893203884,525.973786407767,527.093203883495,2304.42718446602,2006.15533980583,0
1678.0288,-3.02778373720672e-08,7.13784056800482e-08,4.11005683080392e-08,1.60861958566896e-07,7.77218015934546e-08,7.77218015936091e-08,,,-5.56255674521831e-07,-1.87021053413635e-08,-3.0145374345654e-07,-1.87021053412957e-08,9.78491425750946e-08,,3.45771463299416e-08,,,2.02015994291964e-07,,-8.14700058909218e-08,2.42454484346881e-07,,,,4.86731529592449e-07,-3.65214521227131e-08,,,7.09859289294889e-08,1.19365376522003e-07,-3.51572392858599e-08,1.03957341615171e-07,,,1.17001893822019e-07,1.13666157036899e-08,6.59056532346197e-07,-1.49232038330283e-07,-1.49232038330385e-07,-3.23939861448479e-07,,-4.67276113937287e-07,,-1.8255858537394e-07,-1.31222071919228e-07,1.15537930568914e-06,,,,9.16819028948881e-07,-1.70158139938838e-07,0,0,0,3.58400000000006,102,966.872058823529,526.978921568627,2158.31862745098,962.904901960784,970.839215686274,530.256862745098,523.700980392157,2304.77450980392,2011.86274509804,0
1678.1312,-1.73136710763114e-08,6.67886110500836e-08,4.94749399738302e-08,1.40988651860651e-07,7.87634143619105e-08,7.87634143620692e-08,,,-5.66225151047101e-07,-1.83897483551866e-08,-3.03609858944237e-07,-1.83897483551214e-08,1.29219905845565e-07,,5.12815855096189e-08,,,2.03917655227613e-07,,-8.96664924621494e-08,2.36597590418807e-07,,,,5.00740641062653e-07,-4.63734982401332e-08,,,8.87484999994567e-08,1.05861722943919e-07,-2.22499786526294e-08,8.18450673473149e-08,,,1.23712990920891e-07,-5.37375570608229e-09,6.58093093579605e-07,-1.34293762436105e-07,-1.34293762436207e-07,-2.9712661160864e-07,,-4.33634085342935e-07,,-1.82618782547019e-07,-1.25626813846608e-07,1.13209556839177e-06,,,,8.95741982404174e-07,-1.70197813323154e-07,0,1,0,3.68640000000005,102,962.394607843137,529.448529411765,2166.74019607843,961.323529411765,963.46568627451,536.788235294118,522.108823529412,2305.90196078431,2027.57843137255,0
1678.2336,-3.79809598312027e-09,6.072010959871e-08,5.69220136156481e-08,1.26462819212843e-07,7.74256886578318e-08,7.74256886579936e-08,,,-5.73001535228056e-07,-1.71492142144632e-08,-3.05854757960508e-07,-1.71492142144007e-08,1.61764313505131e-07,,6.78813129988466e-08,,,2.06940550300805e-07,,-1.01519145902908e-07,2.30479158136244e-07,,,,5.17960558696892e-07,-5.64777474785586e-08,,,1.04102179682192e-07,8.58772641737719e-08,-1.16009309868563e-08,5.87199694511686e-08,,,1.30273790616072e-07,-2.26092928791692e-08,6.55269093541764e-07,-1.16232964850177e-07,-1.1623296485028e-07,-2.66972782730698e-07,,-3.95115460332407e-07,,-1.81311912823154e-07,-1.18233981890244e-07,1.09602171874464e-06,,,,8.7490577097749e-07,-1.67772365015325e-07,0,1,0,3.78880000000004,103,958.370388349515,530.555339805825,2166.78640776699,957.912621359223,958.828155339806,542.120388349515,518.990291262136,2304.18446601942,2029.38834951456,0
1678.336,1.04586731701573e-08,5.28116877014784e-08,6.32703608716955e-08,1.17999880360882e-07,7.27753100027055e-08,7.27753100028691e-08,,,-5.77799310552443e-07,-1.44908005685781e-08,-3.07810847225992e-07,-1.44908005685186e-08,1.94571943683063e-07,,8.42090975174723e-08,,,2.11024373765818e-07,,-1.16456390482726e-07,2.24641419027975e-07,,,,5.37169406787023e-07,-6.64260835029022e-08,,,1.16952253895004e-07,5.8506646582025e-08,-5.00857909339208e-09,3.7020145059807e-08,,,1.36373337884093e-07,-3.98121310119118e-08,6.50298568008063e-07,-9.5536871644634e-08,-9.55368716447352e-08,-2.34229056889851e-07,,-3.5277294893678e-07,,-1.78468491475458e-07,-1.09136921613319e-07,1.04717479199081e-06,,,,8.54417045007555e-07,-1.62362541183626e-07,0,1,0,3.89120000000003,102,959.577941176471,527.958823529412,2163,956.548039215686,962.607843137255,535.825490196079,520.092156862745,2296.66666666667,2029.33333333333,0
1678.4384,2.55786421886693e-08,4.2811476133795e-08,6.8390118322526e-08,1.15846651234282e-07,6.40312413073319e-08,6.40312413074961e-08,,,-5.81865172783656e-07,-1.01419499555717e-08,-3.091627103188e-07,-1.01419499555152e-08,2.2651049507186e-07,,1.00062004413269e-07,,,2.1597495666161e-07,,-1.33673524255242e-07,2.1959624867996e-07,,,,5.56835598156994e-07,-7.5756882108241e-08,,,1.27452358264022e-07,2.34087952978395e-08,-4.22636535734555e-09,1.93769092346068e-08,,,1.41670583883781e-07,-5.65128372167765e-08,6.42945428443651e-07,-7.3006858633808e-08,-7.30068586339067e-08,-1.99630692385159e-07,,-3.07641793479956e-07,,-1.74115099115831e-07,-9.86004968467283e-08,9.86879935482844e-07,,,,8.34239268710901e-07,-1.53738484634611e-07,0,0,0,3.99360000000002,103,960.982038834952,532.232524271845,2154.49029126214,959.017475728155,962.946601941748,540.399029126214,524.066019417476,2284.81553398058,2024.16504854369,0
1678.5408,4.1524866509471e-08,3.06208564710594e-08,7.21457229805951e-08,1.19834754500138e-07,5.05811751293039e-08,5.05811751294676e-08,,,-5.86394118080771e-07,-4.09783563450367e-09,-3.09711454172832e-07,-4.09783563445018e-09,2.56238767914323e-07,,1.15168784952754e-07,,,2.21420861510078e-07,,-1.522206071271e-07,2.15758839366268e-07,,,,5.75260863638628e-07,-8.39438162859482e-08,,,1.36363531355094e-07,-1.90466611236218e-08,-1.08651977668991e-08,8.38513036594249e-09,,,1.4577240026727e-07,-7.24065438456306e-08,6.32968945875886e-07,-4.9761380909773e-08,-4.97613809098682e-08,-1.63936756996606e-07,,-2.60784634199085e-07,,-1.68462554730504e-07,-8.70605391739659e-08,9.18114238636492e-07,,,,8.14389464066984e-07,-1.41957490105721e-07,0,0,0,4.096,102,962.884803921569,528.507843137255,2141,965.285294117647,960.48431372549,533.16568627451,523.85,2269.02941176471,2012.97058823529,0
1678.6432,5.80255052908632e-08,1.63055882279488e-08,7.43310935188801e-08,1.29497175325331e-07,3.19910540382671e-08,3.19910540384295e-08,,,-5.92447846379183e-07,3.38627637190069e-09,-3.09396183212414e-07,3.38627637195125e-09,2.82293912916352e-07,,1.29179763389392e-07,,,2.26795488449205e-07,,-1.71065818117793e-07,2.13370048030855e-07,,,,5.90776456643068e-07,-9.04285533084401e-08,,,1.45275023336935e-07,-6.78053427803406e-08,-2.625498464609e-08,6.31893167746854e-09,,,1.48244809308027e-07,-8.74447863567438e-08,6.20112300280395e-07,-2.71199206969987e-08,-2.71199206970898e-08,-1.27954975428026e-07,,-2.13320567947377e-07,,-1.61840451303624e-07,-7.50854355476623e-08,8.45432713039187e-07,,,,7.94969083478672e-07,-1.27276727927432e-07,0,0,0,4.19839999999999,102,963.586419538229,532.232468963917,2127.00037707391,963.340196078431,963.832642998028,537.41568627451,527.049251653324,2249.74509803922,2004.2556561086,0
1678.7456,7.45673054231383e-08,7.33072791856116e-11,7.46406127023959e-08,1.442172040427e-07,8.05745070377225e-09,8.05745070393303e-09,,,-6.00900482155838e-07,1.18681181443134e-08,-3.08268178073958e-07,1.18681181443614e-08,3.03260207195517e-07,,1.41704978171884e-07,,,2.31368747983579e-07,,-1.89127632652746e-07,2.12439537822467e-07,,,,6.01939831046107e-07,-9.46991248299365e-08,,,1.56507555882168e-07,-1.2135162364742e-07,-5.12721062161638e-08,1.4827156950257e-08,,,1.48681328060579e-07,-1.01848306455221e-07,6.04143187152886e-07,-6.40482833841254e-09,-6.40482833849924e-09,-9.25483795091434e-08,,-1.66437200728186e-07,,-1.54597788943597e-07,-6.32924055481018e-08,7.74351468306684e-07,,,,7.76045711836583e-07,-1.1006324855811e-07,0,0,0,4.30079999999998,103,950.53631010513,748.456436433619,1843.56799850635,926.660194174757,974.412426035503,778.922932038835,717.989940828402,1945.44368932039,1741.69230769231,0.563106796116505
1678.848,9.04741229762359e-08,-1.77649652938048e-08,7.27091576825071e-08,1.63365416175933e-07,-2.11016217220765e-08,-2.11016217219185e-08,,,-6.1240803658449e-07,2.08304705605813e-08,-3.0643432948036e-07,2.0830470560627e-08,3.17978457447261e-07,,1.52390513062119e-07,,,2.34339366709491e-07,,-2.05304760308818e-07,2.12740854620287e-07,,,,6.07678160577357e-07,-9.63794369568099e-08,,,1.72723699962386e-07,-1.78047909443002e-07,-8.61879333136104e-08,3.46909053113309e-08,,,1.46811916520031e-07,-1.16020806955761e-07,5.84935431089623e-07,1.12595368190983e-08,1.12595368190163e-08,-5.8611801108034e-08,,-1.21371064602538e-07,,-1.47004874136184e-07,-5.22375565304497e-08,7.1034019582467e-07,,,,7.57480081378538e-07,-9.07345637153033e-08,0,0,0,4.40319999999997,102,946.260247708551,1007.83823738253,1507.2520361991,896.099019607843,996.421475809259,1064.46458823529,951.21188652976,1579.64509803922,1434.85897435897,0.0980392156862745
1678.9504,1.05040038299633e-07,-3.68262904370592e-08,6.82137478626532e-08,1.86359639147569e-07,-5.49580734454518e-08,-5.49580734452969e-08,,,-6.27384463802641e-07,2.97894313512161e-08,-3.04003769513256e-07,2.97894313512601e-08,3.25727223998003e-07,,1.60994421296116e-07,,,2.34966124428264e-07,,-2.1853449823813e-07,2.13862718570227e-07,,,,6.07345302903035e-07,-9.52888518384011e-08,,,1.96414554072021e-07,-2.36443042620236e-07,-1.30592644096336e-07,6.5725583089939e-08,,,1.42611033567929e-07,-1.30396551836176e-07,5.62573607117593e-07,2.50814945351523e-08,2.50814945350753e-08,-2.70166532994288e-08,,-7.93490590127545e-08,,-1.39190826973385e-07,-4.23232493599194e-08,6.57778943387905e-07,,,,7.38803598741933e-07,-6.97190665699809e-08,0,0,0,4.50559999999996,102,977.217156862745,574.532843137255,2083.09803921569,963.508823529412,990.925490196078,569.891176470588,579.174509803922,2226.09803921569,1940.09803921569,0
1679.0528,1.17669332305569e-07,-5.66693087856904e-08,6.10000235199624e-08,2.12609208628688e-07,-9.25240017588487e-08,-9.25240017586972e-08,,,-6.45967950937174e-07,3.83661970035075e-08,-3.01062898963725e-07,3.83661970035503e-08,3.26315173593501e-07,,1.67430466314051e-07,,,2.32692684137934e-07,,-2.27904966295334e-07,2.15292867265322e-07,,,,6.00698142091534e-07,-9.14571756886979e-08,,,2.29437568886708e-07,-2.95429236083519e-07,-1.83406360204323e-07,1.06840109592126e-07,,,1.36370120113076e-07,-1.45274769055453e-07,5.3744914234757e-07,3.46483814684148e-08,3.46483814683423e-08,1.45402550204445e-09,,-4.15078936593723e-08,,-1.31134140227927e-07,-3.37606047529653e-08,6.19205406303791e-07,,,,7.1921361142566e-07,-4.74337755178419e-08,0,0,0,4.60799999999995,103,973.651941747573,544.107766990291,2157.78640776699,962.56213592233,984.741747572816,549.538834951456,538.676699029126,2301.57281553398,2014,0
1679.1552,1.27984314826309e-07,-7.67963259603116e-08,5.11879888660846e-08,2.4138553929261e-07,-1.32356602508343e-07,-1.32356602508195e-07,,,-6.67973136248106e-07,4.63125790083282e-08,-2.97681270149485e-07,4.63125790083706e-08,3.2006194184862e-07,,1.71771322700884e-07,,,2.27221874539474e-07,,-2.32818660539565e-07,2.16498297085137e-07,,,,5.87836156836614e-07,-8.51070010822376e-08,,,2.7272195164118e-07,-3.54222415773541e-07,-2.42955596576399e-07,1.56191947681746e-07,,,1.28716970159465e-07,-1.6069266555153e-07,5.10295655712615e-07,3.99053196048744e-08,3.9905319604806e-08,2.61508764178244e-08,,-8.81928223652749e-09,,-1.22697329843253e-07,-2.65875404113225e-08,5.95010654890152e-07,,,,6.97705247279372e-07,-2.42989211487242e-08,0,0,0,4.71039999999994,102,973.257352941176,540.242156862745,2186.66176470588,967.224509803922,979.290196078431,544.273529411765,536.210784313726,2325.00980392157,2048.3137254902,0
1679.2576,1.35880761363299e-07,-9.66598545924085e-08,3.92209067709808e-08,2.71723439067095e-07,-1.72618865901786e-07,-1.72618865901643e-07,,,-6.92853133682551e-07,5.35010711643019e-08,-2.93929850342171e-07,5.35010711643441e-08,3.07693339293106e-07,,1.74220158433093e-07,,,2.18517085840622e-07,,-2.33155340701534e-07,2.16972057660146e-07,,,,5.69155744696895e-07,-7.66228134309706e-08,,,3.26179898949494e-07,-4.12226986958648e-07,-3.07082293815202e-07,2.11364314179228e-07,,,1.2057966279423e-07,-1.76378121590828e-07,4.82118755145159e-07,4.11036948966743e-08,4.11036948966102e-08,4.65730660079585e-08,,1.79649964414887e-08,,-1.13676914799223e-07,-2.07098665801375e-08,5.83577654213567e-07,,,,6.73314064103202e-07,-7.96134415571409e-10,0,0,0,4.81279999999993,103,971.520873786408,545.388349514563,2208.17475728155,965.206796116505,977.834951456311,559.322330097087,531.454368932039,2344.23300970874,2072.11650485437,0
1679.36,1.4152927698451e-07,-1.15686601131239e-07,2.5842675853364e-08,3.02429216505548e-07,-2.1119923756923e-07,-2.11199237569092e-07,,,-7.19710015963417e-07,5.99015647077673e-08,-2.89886623024725e-07,5.99015647078093e-08,2.90204220432769e-07,,1.75069028072378e-07,,,2.06744515972667e-07,,-2.29367638858877e-07,2.16240615110997e-07,,,,5.45339575562511e-07,-6.65209994912737e-08,,,3.88798408304109e-07,-4.68870143857842e-07,-3.73269578759692e-07,2.69543969416585e-07,,,1.13104638913288e-07,-1.91794724102409e-07,4.54029036106375e-07,3.87480628911616e-08,3.8748062891101e-08,6.23694226056981e-08,,3.83563520277222e-08,,-1.03837875097988e-07,-1.59331059876339e-08,5.81743719837193e-07,,,,6.45390881514395e-07,2.24744081598349e-08,0,1,0,4.91519999999991,102,972.199019607843,539.394117647059,2225.72549019608,969.566666666667,974.83137254902,546.475490196078,532.312745098039,2365.29411764706,2086.1568627451,0
1679.4624,1.45333169987624e-07,-1.33323938880136e-07,1.20092311075841e-08,3.3220072066839e-07,-2.45905717181955e-07,-2.45905717181822e-07,,,-7.4738093944843e-07,6.55662545717265e-08,-2.85617489618277e-07,6.55662545717683e-08,2.68731843063968e-07,,1.74663952642483e-07,,,1.92198264776674e-07,,-2.22464678421847e-07,2.13855085632311e-07,,,,5.17349038787252e-07,-5.54162878541856e-08,,,4.58871082989752e-07,-5.23478216002766e-07,-4.38811598690215e-07,3.27742570020923e-07,,,1.07537358741436e-07,-2.06255667351726e-07,4.27042308738483e-07,3.3541841861576e-08,3.35418418615185e-08,7.33545554534619e-08,,5.21784141854259e-08,,-9.29168032313188e-08,-1.19717677089745e-08,5.85421531667963e-07,,,,6.13790635407768e-07,4.48219920167977e-08,0,1,0,5.0175999999999,103,972.822330097087,537.930097087379,2237.38834951456,968.608737864078,977.035922330097,546.936893203884,528.923300970874,2380.68932038835,2094.08737864078,0
1679.5648,1.47858950019523e-07,-1.49105265389871e-07,-1.24631537024952e-09,3.59838054055746e-07,-2.74738485198737e-07,-2.74738485198609e-07,,,-7.74604754958451e-07,7.06303749741986e-08,-2.81141508944285e-07,7.06303749742399e-08,2.44453124457993e-07,,1.73384549298905e-07,,,1.75246306656292e-07,,-2.13855899129886e-07,2.09400765030211e-07,,,,4.8636359127214e-07,-4.39621278072818e-08,,,5.34315697362646e-07,-5.75247665377497e-07,-5.01067129769375e-07,3.83103221985364e-07,,,1.05067085909254e-07,-2.19065762552381e-07,4.01915707863978e-07,2.63094126133839e-08,2.63094126133287e-08,7.95537002093698e-08,,5.96272181322319e-08,,-8.06043031318973e-08,-8.44134823712036e-09,5.90235110527387e-07,,,,5.78887334953193e-07,6.56258965828125e-08,0,1,0,5.12000000000012,102,975.379411764706,536.10931372549,2235.93137254902,968.656862745098,982.101960784314,550.573529411765,521.645098039216,2379.39215686275,2092.47058823529,0
1679.6672,1.49755998467662e-07,-1.6271729561625e-07,-1.29612971484875e-08,3.84499978786998e-07,-2.96190732639751e-07,-2.96190732639627e-07,,,-8.00223372957696e-07,7.53163210438828e-08,-2.76402121993543e-07,7.53163210439236e-08,2.18506436601621e-07,,1.71629539338677e-07,,,1.56314046903434e-07,,-2.05064687309099e-07,2.02542852622416e-07,,,,4.53653217998787e-07,-3.27597415916348e-08,,,6.12972248918684e-07,-6.23313078164439e-07,-5.57771066803036e-07,4.33243368581875e-07,,,1.06649440601473e-07,-2.29654516851918e-07,3.79051339527437e-07,1.78916545558042e-08,1.78916545557507e-08,8.12629751033251e-08,,6.13262750121048e-08,,-6.65411213215124e-08,-4.85351545336398e-09,5.92071145628678e-07,,,,5.41435364242072e-07,8.4569349846479e-08,0,0,0,5.22240000000011,102,966.39068627451,534.612254901961,2213.5,958.695098039216,974.086274509804,544.587254901961,524.637254901961,2358.48039215686,2068.51960784314,0
1679.7696,1.51676719207152e-07,-1.74043058502343e-07,-2.23663392950874e-08,4.05895281755131e-07,-3.09482409038755e-07,-3.09482409038635e-07,,,-8.23323823765933e-07,7.99181983522987e-08,-2.71265025229409e-07,7.99181983523388e-08,1.91942642573097e-07,,1.69793836093276e-07,,,1.35902280314656e-07,,-1.97399940745515e-07,1.93098118359453e-07,,,,4.20433209586449e-07,-2.22711380974013e-08,,,6.9276547789839e-07,-6.66847010573151e-07,-6.07302495087782e-07,4.76506004786333e-07,,,1.12845245963785e-07,-2.37671359558155e-07,3.58470128627093e-07,9.05150052348267e-09,9.05150052343045e-09,7.90932117686366e-08,,5.83428771432633e-08,,-5.03656792101653e-08,-6.42095561408329e-10,5.87487838800352e-07,,,,5.02390682791689e-07,1.01809823093069e-07,0,0,0,5.3248000000001,103,961.843689320388,533.577669902913,2177.59708737864,953.859223300971,969.828155339806,546.868932038835,520.28640776699,2326.31067961165,2028.88349514563,0
1679.872,1.54200032363916e-07,-1.83165866792617e-07,-2.89658344285955e-08,4.24288099019854e-07,-3.14660852631162e-07,-3.14660852631045e-07,,,-8.43270478506558e-07,8.47515536176236e-08,-2.65551207777724e-07,8.4751553617663e-08,1.6569851681171e-07,,1.68228657055475e-07,,,1.14609490796374e-07,,-1.91712253557092e-07,1.81100627335721e-07,,,,3.87757054966625e-07,-1.27806124460498e-08,,,7.71712828309423e-07,-7.0512308680398e-07,-6.48822797453266e-07,5.12039373584944e-07,,,1.23717113488621e-07,-2.43027865082183e-07,3.39855468561754e-07,4.26518449553221e-10,4.26518449501783e-10,7.39579071742069e-08,,5.21217452794624e-08,,-3.18249467433787e-08,4.75969825791539e-09,5.73986190776408e-07,,,,4.62789694763885e-07,1.17981506859678e-07,0,0,0,5.42720000000008,102,963.307843137255,532.814215686275,2150.98529411765,955.61862745098,970.997058823529,544.144117647059,521.48431372549,2292.42156862745,2009.54901960784,0
1679.9744,1.57757239029642e-07,-1.9034010636543e-07,-3.25828673356802e-08,4.40297919961421e-07,-3.12574962163535e-07,-3.12574962163421e-07,,,-8.59667705567134e-07,9.00728274883214e-08,-2.59095717815221e-07,9.00728274883603e-08,1.40568935637053e-07,,1.67186716980019e-07,,,9.31150202923607e-08,,-1.883022037546e-07,1.66826266406879e-07,,,,3.56463932443188e-07,-4.41868089259579e-09,,,8.4785725687036e-07,-7.37538667175297e-07,-6.82273327137322e-07,5.39743511290486e-07,,,1.38802455563996e-07,-2.45892287648126e-07,3.22659915939118e-07,-7.46805266109425e-09,-7.46805266114466e-09,6.69747922237271e-08,,4.43040229828201e-08,,-1.09203502984395e-08,1.17934142565814e-08,5.50199362171294e-07,,,,4.23706574160623e-07,1.34027163371504e-07,0,0,0,5.52960000000007,103,953.811552021609,686.021505999139,1909.87626197238,927.568081638438,980.05502240478,706.686365246971,665.356646751307,2038.38863298136,1781.36389096341,0.349514563106796
1680.0768,1.62563765126628e-07,-1.95939499024293e-07,-3.33757338975558e-08,4.54598530777374e-07,-3.04761769676477e-07,-3.04761769676365e-07,,,-8.72300730326001e-07,9.59918727836329e-08,-2.51808337013571e-07,9.59918727836716e-08,1.17165788477198e-07,,1.66762900965575e-07,,,7.21105190067855e-08,,-1.86965407658157e-07,1.50761871860893e-07,,,,3.2717245460105e-07,2.76955366141768e-09,,,9.19190473835933e-07,-7.63632756072895e-07,-7.08262011130886e-07,5.60157108533973e-07,,,1.57165418184375e-07,-2.46648880647973e-07,3.06242194076829e-07,-1.42053435100242e-08,-1.42053435100734e-08,5.92863481815113e-08,,3.64494730220567e-08,,1.19719361298181e-08,2.0636689858897e-08,5.16033236404736e-07,,,,3.86278718245663e-07,1.50925259963952e-07,0,0,0,5.63200000000006,102,938.386128840924,1045.90426354989,1409.84308840044,872.975368541577,1003.79688914027,1113.488278231,978.320248868778,1463.37226277372,1356.31391402715,0.186274509803922
1680.1792,1.6856836200938e-07,-2.00389251454507e-07,-3.18208894450163e-08,4.67675180899808e-07,-2.9326449921108e-07,-2.9326449921097e-07,,,-8.81050425420382e-07,1.02410035853282e-07,-2.43709461983129e-07,1.02410035853321e-07,9.5866633629421e-08,,1.66842213243487e-07,,,5.22063827305373e-08,,-1.87133597372922e-07,1.33530907735437e-07,,,,3.00311502878208e-07,8.74426969789981e-09,,,9.8360201840317e-07,-7.83128931423438e-07,-7.27881846002343e-07,5.74318849709697e-07,,,1.77529712777973e-07,-2.45828134808298e-07,2.89985630240779e-07,-1.94100561128567e-08,-1.94100561129039e-08,5.18463586239116e-08,,2.97370259561021e-08,,3.60823087262718e-08,3.11122076040572e-08,4.72723370329892e-07,,,,3.51783949372885e-07,1.69400091043267e-07,0,0,0,5.73440000000005,102,972.277941176471,600.501470588235,1978.75980392157,959.959803921569,984.596078431373,593.583333333333,607.419607843137,2111.66666666667,1845.85294117647,0
1680.2816,1.75436489356782e-07,-2.0409247041515e-07,-2.86559810582547e-08,4.79760718485763e-07,-2.80385810899462e-07,-2.80385810899356e-07,,,-8.85772142738041e-07,1.09011915044545e-07,-2.34925993116275e-07,1.09011915044584e-07,7.67514079636063e-08,,1.67069004411415e-07,,,3.38438755448763e-08,,-1.88078301463248e-07,1.15794344618254e-07,,,,2.76177395136494e-07,1.3409934710804e-08,,,1.03892310893156e-06,-7.96026166188767e-07,-7.42531368834978e-07,5.83625250695475e-07,,,1.98481646617845e-07,-2.44017356709697e-07,2.73371168947431e-07,-2.27467403784953e-08,-2.274674037854e-08,4.52379464765802e-08,,2.47384693234562e-08,,6.03839716585064e-08,4.26965180383184e-08,4.22726900117806e-07,,,,3.21719059189599e-07,1.89710884135254e-07,0,0,0,5.83680000000004,103,969.568932038835,548.709223300971,2071.18446601942,963.161165048544,975.976699029126,555.722330097087,541.696116504854,2214.42718446602,1927.94174757282,0
1680.384,1.82580630314826e-07,-2.07366192769028e-07,-2.47855624540883e-08,4.90965242122529e-07,-2.68402583466962e-07,-2.68402583466859e-07,,,-8.86165487554183e-07,1.15318128325818e-07,-2.25654097058229e-07,1.15318128325859e-07,5.95373575332766e-08,,1.66855916191121e-07,,,1.72359277603634e-08,,-1.89134217270634e-07,9.81466347305396e-08,,,,2.54998595886594e-07,1.65888179020559e-08,,,1.08311841526839e-06,-8.02728106932868e-07,-7.53788942576949e-07,5.89700738773679e-07,,,2.18696683210271e-07,-2.41771020197518e-07,2.56015302489776e-07,-2.39410871985403e-08,-2.39410871985821e-08,3.9583630040729e-08,,2.13402201106527e-08,,8.38527852696269e-08,5.46331751851862e-08,3.69385124127322e-07,,,,2.97829480060792e-07,2.11586480860286e-07,0,0,0,5.93920000000003,102,967.89068627451,544.225490196078,2100.11764705882,963.179411764706,972.601960784314,551.117647058824,537.333333333333,2245.26470588235,1954.97058823529,0
1680.4864,1.89235879552597e-07,-2.10399790287089e-07,-2.11639107343768e-08,5.01502340103338e-07,-2.59301612674458e-07,-2.5930161267436e-07,,,-8.81689132952387e-07,1.20778485356698e-07,-2.1611352658091e-07,1.2077848535674e-07,4.35571136250709e-08,,1.65443984464227e-07,,,2.36121694424336e-09,,-1.89875734024937e-07,8.1037162526071e-08,,,,2.36983448960185e-07,1.80299329388049e-08,,,1.11458734034688e-06,-8.04138842397939e-07,-7.63322319955295e-07,5.94262840025537e-07,,,2.37119375922277e-07,-2.39539886694855e-07,2.37691236652932e-07,-2.28142182836037e-08,-2.2814218283642e-08,3.4581421780032e-08,,1.88418443378604e-08,,1.05727810947305e-07,6.61002285398965e-08,3.16382384471806e-07,,,,2.82074609006344e-07,2.34302665600285e-07,0,0,0,6.04160000000002,103,965.816504854369,545.872330097087,2123.16019417476,958.691262135922,972.941747572816,564.163106796117,527.581553398058,2264.17475728155,1982.14563106796,0
1680.5888,1.94565782016169e-07,-2.13244658258155e-07,-1.86788762418701e-08,5.11854858389259e-07,-2.54588449695548e-07,-2.54588449695453e-07,,,-8.71584834093622e-07,1.24871604651956e-07,-2.06515924750341e-07,1.24871604652e-07,2.78293794936938e-08,,1.62008711824403e-07,,,-1.09793157101905e-08,,-1.90173717979606e-07,6.4743123167134e-08,,,,2.22327075396106e-07,1.74513182509256e-08,,,1.13249501868471e-06,-8.01646051286522e-07,-7.72797205538577e-07,5.98975599523949e-07,,,2.53050065925086e-07,-2.37630850408509e-07,2.18332320128978e-07,-1.93041442385817e-08,-1.93041442386163e-08,2.96492768899886e-08,,1.61930402255683e-08,,1.25650918703996e-07,7.63677433291024e-08,2.67127539445857e-07,,,,2.76486595438186e-07,2.5685653108269e-07,0,1,0,6.14400000000001,102,968.144117647059,544.298039215686,2134.53921568627,962.391176470588,973.897058823529,560.529411764706,528.066666666667,2273.07843137255,1996,0
1680.6912,1.97782846563484e-07,-2.15839508290325e-07,-1.80566617267244e-08,5.22755028430305e-07,-2.55180777049622e-07,-2.55180777049531e-07,,,-8.55052144905667e-07,1.27186272108605e-07,-1.97051198311867e-07,1.27186272108651e-07,1.12282744404614e-08,,1.55795969067969e-07,,,-2.30690567299753e-08,,-1.90104953896853e-07,4.9393460496873e-08,,,,2.11160820762059e-07,1.46119450583912e-08,,,1.13706305882845e-06,-7.96977533318258e-07,-7.83788182323498e-07,6.05335433336475e-07,,,2.66140208187716e-07,-2.36199747490162e-07,1.98007790938835e-07,-1.34705844324203e-08,-1.34705844324505e-08,2.4113872688863e-08,,1.22782355543027e-08,,1.43652262193484e-07,8.49061448239019e-08,2.24226724237991e-07,,,,2.82864007749101e-07,2.78186111052409e-07,0,1,0,6.24639999999999,102,973.139705882353,542.417647058824,2136.78431372549,968.217647058824,978.061764705882,558.612745098039,526.222549019608,2271.03921568627,2002.52941176471,0
1680.7936,1.9827292557169e-07,-2.18063941952071e-07,-1.97910163802643e-08,5.34960143258131e-07,-2.61374345950485e-07,-2.61374345950398e-07,,,-8.31538687189544e-07,1.27477763073158e-07,-1.87882504356483e-07,1.27477763073207e-07,-7.28922332250218e-09,,1.46266159313174e-07,,,-3.41829737507743e-08,,-1.89773705346887e-07,3.50255057318452e-08,,,,2.03448656207088e-07,9.39930159779361e-09,,,1.12972923432227e-06,-7.9196878597291e-07,-7.97686383046488e-07,6.14613554080697e-07,,,2.76328402167677e-07,-2.35263786049861e-07,1.76872848166585e-07,-5.49771920152699e-09,-5.49771920155258e-09,1.73795546982321e-08,,6.16162136787863e-09,,1.60023627383426e-07,9.1433955468207e-08,1.89196828274439e-07,,,,3.02347260295416e-07,2.97367953582955e-07,0,1,0,6.34879999999998,103,976.370873786408,542.482524271845,2134.37378640777,970.16213592233,982.579611650485,557.44854368932,527.516504854369,2263.95145631068,2004.79611650485,0
1680.896,1.95707864980908e-07,-2.19799496716133e-07,-2.40916317351076e-08,5.48908593804143e-07,-2.72868943500897e-07,-2.72868943500813e-07,,,-8.01030187597369e-07,1.25703658214081e-07,-1.79141863091991e-07,1.25703658214134e-07,-2.84531762567184e-08,,1.33220298785491e-07,,,-4.45114448172375e-08,,-1.8915583277409e-07,2.16528499399023e-08,,,,1.98874684770422e-07,1.90500704800905e-09,,,1.11307431730492e-06,-7.88292439748952e-07,-8.15556551516206e-07,6.27801565271152e-07,,,2.83756275610203e-07,-2.34714613411992e-07,1.55112629125165e-07,4.30207539495112e-09,4.30207539493045e-09,9.05085942581253e-09,,-2.74621957529169e-09,,1.75143320089454e-07,9.5912224117754e-08,1.62483798819498e-07,,,,3.35023063273307e-07,3.13726518771875e-07,0,0,0,6.45119999999997,102,965.467156862745,540.452941176471,2126.23039215686,960.751960784314,970.182352941177,550.166666666667,530.739215686275,2253.39215686275,1999.06862745098,0
1680.9984,1.90120768639017e-07,-2.20974106465755e-07,-3.08533378266194e-08,5.64405733487013e-07,-2.8883913535084e-07,-2.88839135350759e-07,,,-7.64215753335173e-07,1.22043045091615e-07,-1.70925882781066e-07,1.22043045091671e-07,-5.24977265277404e-08,,1.16880125746594e-07,,,-5.41023768753818e-08,,-1.88045415364483e-07,9.31876177224105e-09,,,,1.96795426012058e-07,-7.54249732021756e-09,,,1.09047537921377e-06,-7.87215327984638e-07,-8.37930215343293e-07,6.45503788307993e-07,,,2.88698035635858e-07,-2.34329451978321e-07,1.32910381656059e-07,1.54980695798666e-08,1.54980695798513e-08,-9.84928346106409e-10,,-1.4592164846384e-08,,1.89315794460424e-07,9.85063363716742e-08,1.43707946895439e-07,,,,3.79677741668602e-07,3.26842470399844e-07,0,0,0,6.55359999999996,102,962.989705882353,540.674019607843,2095.60294117647,958.994117647059,966.985294117647,551.796078431373,529.551960784314,2220.70588235294,1970.5,0
1681.1008,1.81919162092472e-07,-2.21574919131217e-07,-3.96557570386262e-08,5.80499086220377e-07,-3.08034531993928e-07,-3.08034531993848e-07,,,-7.22463750707975e-07,1.1689325127159e-07,-1.63295111049844e-07,1.16893251271649e-07,-7.90687570550653e-08,,9.78948930818069e-08,,,-6.28345281993664e-08,,-1.86113682250907e-07,-1.88689177394905e-09,,,,1.96306454878692e-07,-1.84041329708551e-08,,,1.06554742022607e-06,-7.89457767116854e-07,-8.64607974190256e-07,6.67790326780799e-07,,,2.91515959645136e-07,-2.33793857967421e-07,1.10459887547312e-07,2.75724540107563e-08,2.7572454010746e-08,-1.25055965111188e-08,,-2.90336461460064e-08,,2.02674533654396e-07,9.95337847598716e-08,1.31965672294481e-07,,,,4.33745615543749e-07,3.36494705793714e-07,0,0,0,6.65599999999995,103,962.470739216383,546.454375237194,2053.52264571514,956.638633546788,968.302844885979,549.878201817806,543.030548656582,2182.37719479446,1924.66809663581,0
1681.2032,1.71826255443863e-07,-2.21629215268014e-07,-4.9802959824031e-08,5.95627350332406e-07,-3.2890621002684e-07,-3.28906210026762e-07,,,-6.77615535958601e-07,1.10831317221692e-07,-1.56279687387974e-07,1.10831317221755e-07,-1.07253874942104e-07,,7.72576073849616e-08,,,-7.04385132473382e-08,,-1.83030449692073e-07,-1.1846685597309e-08,,,,1.96406945120634e-07,-3.00065179649596e-08,,,1.04150949740462e-06,-7.95198781207557e-07,-8.94576409254721e-07,6.9407482564066e-07,,,2.92625727538178e-07,-2.32745438359451e-07,8.80092510291782e-08,3.99657188266773e-08,3.99657188266718e-08,-2.49417893121293e-08,,-4.52407174455128e-08,,2.15162876712449e-07,9.94043307422081e-08,1.2605893894112e-07,,,,4.93452812155095e-07,3.42571757158884e-07,0,0,0,6.75839999999994,102,916.590938273132,871.88912605146,1583.47253834735,846.87420212766,986.307674418605,921.019414893617,822.758837209302,1621.34042553191,1545.60465116279,0.794117647058824
1681.3056,1.60760011371601e-07,-2.21167861270188e-07,-6.04078498984662e-08,6.08002572273677e-07,-3.49766003903612e-07,-3.49766003903535e-07,,,-6.31663731712073e-07,1.04535339812888e-07,-1.49889687447891e-07,1.04535339812953e-07,-1.35737439360388e-07,,5.61444907342701e-08,,,-7.6563831356102e-08,,-1.78575435830098e-07,-2.0450047560176e-08,,,,1.96196013965053e-07,-4.16408168564173e-08,,,1.02062336149517e-06,-8.04210444012419e-07,-9.26106805621782e-07,7.23095499319198e-07,,,2.92451068407694e-07,-2.30834358327959e-07,6.58968646706022e-08,5.21266103555001e-08,5.21266103554994e-08,-3.74299680372691e-08,,-6.19738432944926e-08,,2.26578413786918e-07,9.85565808696063e-08,1.24630525287244e-07,,,,5.54127561252237e-07,3.44987387291604e-07,0,0,0,6.86079999999993,103,872.702554920903,1277.27702420699,1014.08707359137,737.530117744268,1007.87499209754,1386.74286304483,1167.81118536916,944.402189630242,1083.7719575525,0.320388349514563
1681.408,1.49676496752527e-07,-2.20194359279756e-07,-7.05178625271063e-08,6.16080216612553e-07,-3.68979593169336e-07,-3.6897959316926e-07,,,-5.86430702601696e-07,9.86789233953881e-08,-1.44124575437894e-07,9.86789233954546e-08,-1.63047965770305e-07,,3.5721422377311e-08,,,-8.08762405105035e-08,,-1.72693199853208e-07,-2.76260188475723e-08,,,,1.95028112989795e-07,-5.26511541899185e-08,,,1.00385669231359e-06,-8.16046611954423e-07,-9.57036126189007e-07,7.53059273221164e-07,,,2.91373824827071e-07,-2.27788780859593e-07,4.45472115912314e-08,6.3558075477861e-08,6.35580754778641e-08,-4.89513193602483e-08,,-7.77673720740438e-08,,2.36655158744919e-07,9.73971314880598e-08,1.26232792393349e-07,,,,6.10637368101387e-07,3.43656268735822e-07,0,0,0,6.96319999999992,102,964.48137254902,787.835784313726,1692.8431372549,938.804901960784,990.157843137255,793.179411764706,782.492156862745,1808.88235294118,1576.80392156863,0
1681.5104,1.39412692192347e-07,-2.18677074544473e-07,-7.92643823520032e-08,6.18931581528413e-07,-3.85174908197127e-07,-3.85174908197049e-07,,,-5.43362178091802e-07,9.38232354228521e-08,-1.38976251911145e-07,9.38232354229197e-08,-1.87843820357498e-07,,1.69598865237338e-08,,,-8.31673422534515e-08,,-1.65493973009263e-07,-3.33721935592865e-08,,,,1.92581988764255e-07,-6.24932853231955e-08,,,9.90930157290658e-07,-8.30184789636283e-07,-9.85163395006567e-07,7.81935051246328e-07,,,2.89705969166818e-07,-2.23471948132252e-07,2.44211588117109e-08,7.3848509220656e-08,7.38485092206619e-08,-5.85499805293145e-08,,-9.12161915470185e-08,,2.45151913390441e-07,9.62438508724901e-08,1.29354126692773e-07,,,,6.57927534414131e-07,3.38566651709681e-07,0,0,0,7.0655999999999,103,963.844174757281,529.816019417476,2039.30097087379,963.592233009709,964.096116504854,509.555339805825,550.076699029126,2186.52427184466,1892.07766990291,0
1681.6128,1.30561414960078e-07,-2.16563416002867e-07,-8.60020010426643e-08,6.16395327445911e-07,-3.97428463600765e-07,-3.97428463600687e-07,,,-5.03462981971926e-07,9.03294301161805e-08,-1.34423494826263e-07,9.03294301162484e-08,-2.09176140676386e-07,,4.89709188436233e-10,,,-8.34509122040507e-08,,-1.57227777434857e-07,-3.77798514646197e-08,,,,1.88847126543513e-07,-7.0769885980557e-08,,,9.80796689757749e-07,-8.46059297571242e-07,-1.00865406440462e-06,8.07804014407478e-07,,,2.8769430418597e-07,-2.17916430626964e-07,5.93529694960188e-09,8.26846950740015e-08,8.26846950740097e-08,-6.55766978251592e-08,,-1.01299377502273e-07,,2.51917617527127e-07,9.52758476220294e-08,1.32467325824389e-07,,,,6.91638951090457e-07,3.29890331795787e-07,0,0,0,7.16800000000012,102,964.751470588235,521.592647058824,2081.82352941177,963.561764705882,965.941176470588,511.557843137255,531.627450980392,2230.88235294118,1932.76470588235,0
1681.7152,1.23403840482702e-07,-2.13800857720589e-07,-9.03970172377613e-08,6.0901858971487e-07,-4.05383314148128e-07,-4.0538331414805e-07,,,-4.67305590444029e-07,8.83106331868282e-08,-1.30419446529152e-07,8.83106331868955e-08,-2.26664596517201e-07,,-1.34802503644098e-08,,,-8.20120357399286e-08,,-1.48256740408133e-07,-4.10446713478801e-08,,,,1.84070882958079e-07,-7.72562148303096e-08,,,9.72369738635343e-07,-8.63015030137983e-07,-1.0263501819492e-06,8.29169275407941e-07,,,2.85540170698938e-07,-2.11318564436613e-07,-1.0621516716348e-08,8.98520504578126e-08,8.98520504578217e-08,-6.98647992740317e-08,,-1.07620750540161e-07,,2.56922756783607e-07,9.45065177817136e-08,1.34210591554334e-07,,,,7.08734680213086e-07,3.1800107786685e-07,0,0,0,7.27040000000011,102,964.220098039216,519.824509803922,2109.95588235294,961.043137254902,967.397058823529,519.385294117647,520.263725490196,2254.27450980392,1965.63725490196,0
1681.8176,1.1791557955043e-07,-2.10352223289907e-07,-9.24366437393505e-08,5.97888310779492e-07,-4.09256911531798e-07,-4.09256911531717e-07,,,-4.35041134128761e-07,8.76396515899793e-08,-1.26878009404422e-07,8.76396515900455e-08,-2.40531117167356e-07,,-2.51413046371882e-08,,,-7.93857159433227e-08,,-1.390451485985e-07,-4.3451206308863e-08,,,,1.78706105217148e-07,-8.19123581907096e-08,,,9.65142822982457e-07,-8.80264804574434e-07,-1.03791287567417e-06,8.45158370430956e-07,,,2.8341381497276e-07,-2.03982399276724e-07,-2.51345640630851e-08,9.52233343854671e-08,9.52233343854766e-08,-7.17605753354031e-08,,-1.10464805918914e-07,,2.60265342109917e-07,9.3800904450257e-08,1.33710070743242e-07,,,,7.07994856230602e-07,3.03344859369957e-07,0,1,0,7.3728000000001,103,967.631067961165,518.796116504854,2137.39805825243,963.067961165049,972.194174757282,521.977669902913,515.614563106796,2278.66990291262,1996.12621359223,0
1681.92,1.13838124597976e-07,-2.06200155382195e-07,-9.23620307840923e-08,5.84451776943167e-07,-4.09730196262782e-07,-4.09730196262699e-07,,,-4.06404659060815e-07,8.80104298714025e-08,-1.2366903447615e-07,8.80104298714671e-08,-2.51481703340064e-07,,-3.49753378376363e-08,,,-7.62734789215152e-08,,-1.30173721484625e-07,-4.53365105703445e-08,,,,1.73368482986028e-07,-8.48689315133135e-08,,,9.59354387564153e-07,-8.96915681759818e-07,-1.04375666348466e-06,8.55559949752112e-07,,,2.81461775857163e-07,-1.9622707971385e-07,-3.76457466925033e-08,9.87338740622042e-08,9.8733874062214e-08,-7.20042680931131e-08,,-1.10659068366464e-07,,2.6216486983139e-07,9.29356937540244e-08,1.30867891991562e-07,,,,6.90227773532396e-07,2.86241019960336e-07,0,1,0,7.47520000000009,102,967.807352941176,522.849019607843,2154.03921568627,960.213725490196,975.400980392157,519.044117647059,526.653921568627,2291.6568627451,2016.42156862745,0
1682.0224,1.1077631756261e-07,-2.01340265618101e-07,-9.05639480553633e-08,5.70382352169445e-07,-4.07768418287594e-07,-4.07768418287509e-07,,,-3.807475078836e-07,8.90235216009759e-08,-1.20630462023717e-07,8.90235216010387e-08,-2.60491970272009e-07,,-4.36208435286217e-08,,,-7.34361720323972e-08,,-1.22351568150847e-07,-4.70531966118228e-08,,,,1.68787775177379e-07,-8.638379005019e-08,,,9.55576573382755e-07,-9.12091506701391e-07,-1.04479759680482e-06,8.60673388049923e-07,,,2.79816333670173e-07,-1.88296748536316e-07,-4.82851674168464e-08,1.00351803298348e-07,1.00351803298358e-07,-7.15306411670505e-08,,-1.09322864452502e-07,,2.62952604908388e-07,9.16716323409641e-08,1.26416543893356e-07,,,,6.58122685563662e-07,2.66742236598721e-07,0,1,0,7.57760000000008,103,967.072815533981,529.836893203884,2162.02427184466,959.471844660194,974.673786407767,534.449514563107,525.22427184466,2294.8640776699,2029.18446601942,0
1682.1248,1.082783140789e-07,-1.95767948348347e-07,-8.74896342693182e-08,5.57493211553561e-07,-4.04454797508576e-07,-4.04454797508488e-07,,,-3.5712614595252e-07,9.02592157748536e-08,-1.17594610228144e-07,9.02592157749149e-08,-2.68585639580392e-07,,-5.17750168995712e-08,,,-7.16024516409883e-08,,-1.16378316382335e-07,-4.89463262431811e-08,,,,1.657292381889e-07,-8.6781357611624e-08,,,9.53955162222183e-07,-9.25124849425362e-07,-1.04212337106156e-06,8.61046584722327e-07,,,2.78611875564167e-07,-1.803089118198e-07,-5.71946007351953e-08,1.00060354729311e-07,1.00060354729321e-07,-7.12732154746379e-08,,-1.07605051243373e-07,,2.63061601906323e-07,8.9807886711722e-08,1.21685504759063e-07,,,,6.1581647317921e-07,2.44627509268148e-07,0,0,0,7.68000000000006,102,968.137745098039,529.673529411765,2150.51960784314,962.443137254902,973.832352941177,534.682352941176,524.664705882353,2282.3137254902,2018.72549019608,0
1682.2272,1.05882709090286e-07,-1.89467043016559e-07,-8.35843339261429e-08,5.47644506489748e-07,-4.00876895842502e-07,-4.00876895842411e-07,,,-3.34441397266673e-07,9.13210348025804e-08,-1.14414604355847e-07,9.13210348026405e-08,-2.76676110078065e-07,,-6.01427293767082e-08,,,-7.14068054317626e-08,,-1.13027627595928e-07,-5.13420906895319e-08,,,,1.64877776528971e-07,-8.63953190458091e-08,,,9.53561548913366e-07,-9.35722720330561e-07,-1.0367358626573e-06,8.57245446991413e-07,,,2.78007044034872e-07,-1.72251402731603e-07,-6.44830848905117e-08,9.78691718481072e-08,9.78691718481162e-08,-7.20225730076984e-08,,-1.0648195273443e-07,,2.63014435481061e-07,8.72100791626767e-08,1.18157116694518e-07,,,,5.68374073499306e-07,2.19519104399545e-07,0,0,0,7.78240000000005,102,967.155392156863,528.250980392157,2131.55882352941,960.976470588235,973.33431372549,533.225490196079,523.276470588235,2259.89215686275,2003.22549019608,0
1682.3296,1.03146460932364e-07,-1.82405992345944e-07,-7.92595314134501e-08,5.42576001846333e-07,-3.98036230953332e-07,-3.98036230953238e-07,,,-3.11588145216173e-07,9.18551486305657e-08,-1.10977680251918e-07,9.18551486306255e-08,-2.85491382168468e-07,,-6.94015144782731e-08,,,-7.3344893284192e-08,,-1.12865748720898e-07,-5.45362535988663e-08,,,,1.66711671643403e-07,-8.55324740776762e-08,,,9.52244668575034e-07,-9.44005156706491e-07,-1.02946490798889e-06,8.49768933034477e-07,,,2.78207242456172e-07,-1.64016610025646e-07,-7.02264243877343e-08,9.38614424613784e-08,9.38614424613863e-08,-7.43484922304886e-08,,-1.06643385077726e-07,,2.63398233138666e-07,8.38212395813283e-08,1.16969498781334e-07,,,,5.21328571433831e-07,1.91052401335965e-07,0,0,0,7.88480000000004,103,942.449608092805,705.783848220242,1876.01054073781,909.503910843703,975.395305341907,725.7796663476,685.788030092885,1975.66374948721,1776.3573319884,0.485436893203884
1682.432,9.96760622397892e-08,-1.74546459773858e-07,-7.4870397533938e-08,5.43661194901727e-07,-3.96739826697076e-07,-3.96739826696979e-07,,,-2.87583453072674e-07,9.1565834387812e-08,-1.07203420743645e-07,9.15658343878722e-08,-2.95552011904512e-07,,-8.01402470401263e-08,,,-7.77277945270941e-08,,-1.16070704471773e-07,-5.87704650305714e-08,,,,1.71415834237652e-07,-8.44592274803961e-08,,,9.47069784836657e-07,-9.50390682513095e-07,-1.02103228800788e-06,8.3911906665764e-07,,,2.7947402320366e-07,-1.55453788898111e-07,-7.44852313225388e-08,8.82565720733222e-08,8.82565720733294e-08,-7.85726189395392e-08,,-1.08462953191664e-07,,2.64813985674905e-07,7.96681226697497e-08,1.18572166039553e-07,,,,4.80227516432655e-07,1.59029705895192e-07,0,0,0,7.98720000000003,102,881.537401682824,1116.81181635266,1312.02888543382,784.518309859155,978.556493506494,1205.73661971831,1027.88701298701,1292.21361502347,1331.84415584416,0.784313725490196
1682.5344,9.51724654060883e-08,-1.65870683578165e-07,-7.06982181719446e-08,5.51663261804128e-07,-3.97487004444893e-07,-3.97487004444794e-07,,,-2.61677834448068e-07,9.02446647489851e-08,-1.0303612825386e-07,9.02446647490465e-08,-3.0715966693356e-07,,-9.27583435794222e-08,,,-8.46341951109023e-08,,-1.22353975394384e-07,-6.41947967050669e-08,,,,1.78874885528142e-07,-8.33997162376468e-08,,,9.35136015005815e-07,-9.55391060158806e-07,-1.01215625041898e-06,8.25938111656116e-07,,,2.82101655185504e-07,-1.46423204216282e-07,-7.73007901990131e-08,8.1443958896538e-08,8.14439588965451e-08,-8.47779371155264e-08,,-1.12036493490219e-07,,2.67799886518717e-07,7.48673057880646e-08,1.22688428600581e-07,,,,4.50074403743396e-07,1.23543740748202e-07,0,0,0,8.08960000000002,103,913.784227133913,1124.41415888683,1320.48512611414,840.792520169561,986.775934098264,1195.89280732941,1052.93551044425,1355.05674825653,1285.91350397176,0
1682.6368,8.94767710203483e-08,-1.56423693242421e-07,-6.69469222219398e-08,5.66602614975181e-07,-4.00405837771019e-07,-4.00405837770919e-07,,,-2.33462257845949e-07,8.78071976096261e-08,-9.8443329364485e-08,8.78071976096895e-08,-3.20389896177601e-07,,-1.07368368217256e-07,,,-9.38863323345487e-08,,-1.31047087213817e-07,-7.08309798141931e-08,,,,1.88748268072071e-07,-8.25344115041674e-08,,,9.14395684498509e-07,-9.59438484755978e-07,-1.00359870779094e-06,8.11102421570876e-07,,,2.86349980797123e-07,-1.36843671074299e-07,-7.86544891813847e-08,7.39526067921674e-08,7.39526067921744e-08,-9.28510621345272e-08,,-1.17270255847381e-07,,2.7274835520681e-07,6.96247932235807e-08,1.2858268428257e-07,,,,4.34701497826758e-07,8.50652794059146e-08,0,0,0,8.19200000000001,102,959.698529411765,589.301470588235,2036.75490196078,945.327450980392,974.069607843137,583.355882352941,595.247058823529,2186.09803921569,1887.41176470588,0
1682.7392,8.25917708243318e-08,-1.46349960628043e-07,-6.37581898035763e-08,5.87800379463962e-07,-4.05276557823661e-07,-4.0527655782356e-07,,,-2.02956966391448e-07,8.43114571490204e-08,-9.34243656039431e-08,8.43114571490862e-08,-3.35110462165817e-07,,-1.23764557526408e-07,,,-1.05077006464236e-07,,-1.41302094552499e-07,-7.85568574885894e-08,,,,2.00586137563203e-07,-8.19931654406885e-08,,,8.84111733348668e-07,-9.62845150076853e-07,-9.96126850406912e-07,7.9570896703556e-07,,,2.92348350165486e-07,-1.26730155179787e-07,-7.84206630741399e-08,6.63604604996774e-08,6.63604604996844e-08,-1.02551294957492e-07,,-1.23991253040041e-07,,2.7984355081774e-07,6.42222245802622e-08,1.35454521146534e-07,,,,4.36233008132755e-07,4.44572209259768e-08,0,0,0,8.2944,102,954.575980392157,530.946078431373,2137.5637254902,943.403921568627,965.748039215686,519.407843137255,542.48431372549,2302.48039215686,1972.64705882353,0
1682.8416,7.4669921248584e-08,-1.35904093859187e-07,-6.12341726104669e-08,6.14058714237817e-07,-4.11633082242107e-07,-4.11633082242006e-07,,,-1.70656181150156e-07,7.99435715650681e-08,-8.80210889862886e-08,7.99435715651369e-08,-3.51025722725392e-07,,-1.41472712894369e-07,,,-1.17639897790659e-07,,-1.52272673689394e-07,-8.71195663042691e-08,,,,2.13928152613365e-07,-8.18453408696325e-08,,,8.44843845793648e-07,-9.65873235542824e-07,-9.90416449812221e-07,7.80959018067971e-07,,,3.00012183452431e-07,-1.16218137611591e-07,-7.63614837002942e-08,5.91873025339606e-08,5.91873025339683e-08,-1.13585505351406e-07,,-1.32040488617049e-07,,2.89034472933403e-07,5.89923359964821e-08,1.42706524284243e-07,,,,4.54798337652676e-07,2.90603578000836e-09,0,0,0,8.39679999999999,103,958.685922330097,524.059223300971,2169.38349514563,946.381553398058,970.990291262136,517.102912621359,531.015533980583,2326.45631067961,2012.31067961165,0
1682.944,6.59837332544251e-08,-1.25431675882007e-07,-5.94479426274439e-08,6.4385291126825e-07,-4.18893697369575e-07,-4.18893697369474e-07,,,-1.37514270394287e-07,7.49810019480677e-08,-8.23186533192786e-08,7.49810019481395e-08,-3.67713244207688e-07,,-1.59837298399454e-07,,,-1.30923940521532e-07,,-1.63174020056922e-07,-9.616631827268e-08,,,,2.28350455881849e-07,-8.20965456317284e-08,,,7.98175193270091e-07,-9.68795332010657e-07,-9.86942565415679e-07,7.67991986129983e-07,,,3.09015075437468e-07,-1.05565358053619e-07,-7.21934701359069e-08,5.28249486498087e-08,5.28249486498175e-08,-1.25660232102547e-07,,-1.41312810358792e-07,,3.00040521958255e-07,5.42927202990481e-08,1.49976590540294e-07,,,,4.88600340484871e-07,-3.81944982914801e-08,0,1,0,8.49919999999997,102,959.822058823529,526.41568627451,2193.69117647059,947.711764705882,971.932352941177,526.126470588235,526.704901960784,2346.3431372549,2041.03921568627,0
1683.0464,5.69024500320145e-08,-1.15330316563796e-07,-5.84278665316411e-08,6.75441641941814e-07,-4.26465109855214e-07,-4.26465109855111e-07,,,-1.04868761851202e-07,6.97552798463255e-08,-7.64306999594107e-08,6.97552798464006e-08,-3.84618224695713e-07,,-1.7808480113684e-07,,,-1.44237670276703e-07,,-1.73230580407084e-07,-1.05275623232545e-07,,,,2.4346686670076e-07,-8.26947071029681e-08,,,7.46463586334702e-07,-9.7186074098424e-07,-9.85896612563507e-07,7.57740052162617e-07,,,3.18828121727558e-07,-9.51165898778116e-08,-6.57154782123452e-08,4.75303852365814e-08,4.75303852365913e-08,-1.38491247553508e-07,,-1.5172699286902e-07,,3.12379740245381e-07,5.04849577444895e-08,1.57064196484921e-07,,,,5.3435164867941e-07,-7.73871353667536e-08,0,1,0,8.60159999999996,102,959.819117647059,524.465196078432,2215.85784313725,945.232352941177,974.405882352941,533.187254901961,515.743137254902,2365.50980392157,2066.20588235294,0
1683.1488,4.78827719699372e-08,-1.06003393012607e-07,-5.81206210425284e-08,7.0692138319325e-07,-4.33799916859863e-07,-4.33799916859761e-07,,,-7.43011268967749e-08,6.46294630041854e-08,-7.04737605880916e-08,6.46294630042635e-08,-4.01012116683075e-07,,-1.95338204951169e-07,,,-1.56860107613419e-07,,-1.81609033361006e-07,-1.13981734008009e-07,,,,2.58915733389467e-07,-8.35379337761769e-08,,,6.92698100881663e-07,-9.7520267897989e-07,-9.87154664884785e-07,7.5085786565529e-07,,,3.28806964330975e-07,-8.52303988376306e-08,-5.69483758794174e-08,4.34674116684994e-08,4.3467411668511e-08,-1.5177087700971e-07,,-1.63138323016647e-07,,3.25419526568602e-07,4.79195163464816e-08,1.63910297383936e-07,,,,5.87967812566271e-07,-1.13310974970086e-07,0,1,0,8.70399999999995,103,958.543689320388,525.290776699029,2225.90776699029,945.885436893204,971.201941747573,536.525242718447,514.056310679612,2373.10679611651,2078.70873786408,0
1683.2512,3.94566269768954e-08,-9.78126945363482e-08,-5.83560675593099e-08,7.36320485530705e-07,-4.40425105270482e-07,-4.40425105270379e-07,,,-4.74536712473448e-08,5.99872119353518e-08,-6.45427717061317e-08,5.99872119354328e-08,-4.15970822914845e-07,,-2.10622648102957e-07,,,-1.68045838665958e-07,,-1.87428457164497e-07,-1.2179699059213e-07,,,,2.74354632371398e-07,-8.44803908269526e-08,,,6.4034872633475e-07,-9.78774468725644e-07,-9.90301266828467e-07,7.47718598373015e-07,,,3.38300439920977e-07,-7.6192012224223e-08,-4.62251790631263e-08,4.07547107419367e-08,4.07547107419501e-08,-1.65118280107475e-07,,-1.75236173007109e-07,,3.38451548292901e-07,4.69167744976018e-08,1.7061894635483e-07,,,,6.45310090850652e-07,-1.44842049198695e-07,0,0,0,8.80639999999994,102,958.617156862745,525.459803921569,2221.64215686275,947.349019607843,969.885294117647,535.733333333333,515.186274509804,2368.55882352941,2074.72549019608,0
1683.3536,3.21939813915688e-08,-9.10330965883673e-08,-5.88391151966548e-08,7.61790282379221e-07,-4.45958268687564e-07,-4.45958268687462e-07,,,-2.58515404182806e-08,5.6216147515172e-08,-5.86964171825698e-08,5.62161475152553e-08,-4.28430684966805e-07,,-2.22930429058595e-07,,,-1.77059973474726e-07,,-1.89856392703661e-07,-1.28235974667626e-07,,,,2.89452929080699e-07,-8.53383779449441e-08,,,5.93113100935864e-07,-9.82340392726667e-07,-9.9469321520998e-07,7.4841562942607e-07,,,3.46754451004393e-07,-6.81452179226646e-08,-3.42042126782528e-08,3.94736441359903e-08,3.94736441360049e-08,-1.78051824016915e-07,,-1.87480569868368e-07,,3.50774860848613e-07,4.77332375308118e-08,1.77412351479057e-07,,,,7.02760910996455e-07,-1.7117952719265e-07,0,0,0,8.90879999999993,103,958.602912621359,531.212621359223,2200.30582524272,948.180582524272,969.025242718447,545.955339805825,516.469902912621,2346.25242718447,2054.35922330097,0
1683.456,2.66434189246149e-08,-8.58186445106051e-08,-5.91752255858461e-08,7.81858137496829e-07,-4.50110493183329e-07,-4.50110493183227e-07,,,-1.07801855904321e-08,5.36741517686618e-08,-5.29522026441004e-08,5.3674151768747e-08,-4.37321508407559e-07,,-2.31357237267646e-07,,,-1.83250459726743e-07,,-1.88218094910807e-07,-1.32838386338712e-07,,,,3.03864651491863e-07,-8.58965979638493e-08,,,5.54580421193861e-07,-9.8549049053027e-07,-9.99556114308334e-07,7.52754311506137e-07,,,3.53779335349989e-07,-6.10649578341579e-08,-2.18209400364432e-08,3.96239895089015e-08,3.96239895089174e-08,-1.90005130954757e-07,,-1.99105530950625e-07,,3.61764905959666e-07,5.05232841558389e-08,1.84476298532883e-07,,,,7.57516685946433e-07,-1.91868926423561e-07,0,0,0,9.01119999999992,102,957.212685020489,554.453182404886,2134.64823282805,944.270627062706,970.154742978272,564.061531741409,544.844833068363,2285.75645505727,1983.54001059883,0
1683.5584,2.32778180539885e-08,-8.21919100484461e-08,-5.89140919943134e-08,7.9563049119829e-07,-4.52673570295207e-07,-4.52673570295105e-07,,,-3.21989772623408e-09,5.26475443188831e-08,-4.72883478838497e-08,5.26475443189697e-08,-4.41705606744124e-07,,-2.35237482146276e-07,,,-1.86119805469568e-07,,-1.82033961289592e-07,-1.35186049455121e-07,,,,3.17196440699126e-07,-8.59149019907002e-08,,,5.27868807860519e-07,-9.87665557698992e-07,-1.00411482326277e-06,7.6029200533119e-07,,,3.59159086548526e-07,-5.47753632282634e-08,-1.02056440757388e-08,4.10731434842557e-08,4.10731434842728e-08,-2.00378010238849e-07,,-2.09183629463121e-07,,3.70921726661516e-07,5.53266631233255e-08,1.91768884233313e-07,,,,8.07643823263093e-07,-2.06779665458263e-07,0,0,0,9.11359999999991,103,920.077762911426,892.625314423334,1611.35375970029,841.166336633664,998.989189189189,958.30198019802,826.948648648649,1652.65346534653,1570.05405405405,0.854368932038835
1683.6608,2.24672333940377e-08,-8.00593297157675e-08,-5.7592096321586e-08,8.02836806138804e-07,-4.53501002387331e-07,-4.53501002387229e-07,,,-3.80640978537785e-09,5.33239981229149e-08,-4.16513361830689e-08,5.33239981230025e-08,-4.40845456276623e-07,,-2.34192691058288e-07,,,-1.8534192522651e-07,,-1.70966800868845e-07,-1.34910592982695e-07,,,,3.29006021726221e-07,-8.51368254226934e-08,,,5.15287287882145e-07,-9.8821025164758e-07,-1.00772315238359e-06,7.70460629470122e-07,,,3.62814157192049e-07,-4.89988705586437e-08,-5.82977213568183e-10,4.35568085726275e-08,4.35568085726465e-08,-2.08612452129903e-07,,-2.16750744678272e-07,,3.77899473929696e-07,6.20967511333962e-08,1.98936167710615e-07,,,,8.5201514623011e-07,-2.16065105259044e-07,0,0,0,9.21600000000012,102,890.166877921894,1288.60115695194,1025.80336276871,748.176601630751,1032.15715421304,1415.78744903902,1161.41486486486,955.328771112405,1096.27795442501,0.323529411764706
1683.7632,2.44720040903841e-08,-7.92446815135435e-08,-5.47726774230162e-08,8.03708074268965e-07,-4.52506800732356e-07,-4.52506800732254e-07,,,-1.28021004148097e-08,5.57942128112189e-08,-3.59676722685547e-08,5.57942128113072e-08,-4.34202517643656e-07,,-2.28082969258796e-07,,,-1.80714547251145e-07,,-1.54749455627541e-07,-1.3169640867965e-07,,,,3.38851987489958e-07,-8.33016314219928e-08,,,5.18100702916356e-07,-9.86484732771029e-07,-1.00994419302358e-06,7.82733666990477e-07,,,3.64757244312374e-07,-4.34133592215227e-08,5.84915869180374e-09,4.67375081337053e-08,4.67375081337264e-08,-2.14298121113823e-07,,-2.20999747421515e-07,,3.82519883962793e-07,7.07498611955993e-08,2.05440405677517e-07,,,,8.90186160581293e-07,-2.20116333332343e-07,0,0,0,9.31840000000011,102,992.85,768.486764705882,1731.87254901961,961.989215686275,1023.71078431373,789.336274509804,747.637254901961,1857.17647058824,1606.56862745098,0
1683.8656,2.94256875157232e-08,-7.95267330509208e-08,-5.01010455350555e-08,7.98798189566196e-07,-4.49706841765052e-07,-4.49706841764951e-07,,,-3.00684552203076e-08,6.00682362788806e-08,-3.01588348889834e-08,6.00682362789695e-08,-4.21451271285904e-07,,-2.16940855346567e-07,,,-1.72109481039533e-07,,-1.33189155845748e-07,-1.25302178342561e-07,,,,3.4639545136621e-07,-8.01700567446982e-08,,,5.36455978729396e-07,-9.82041795820933e-07,-1.01058495948353e-06,7.96774589737622e-07,,,3.65072820279452e-07,-3.77079447396814e-08,8.07843665500261e-09,5.02759667753297e-08,5.02759667753537e-08,-2.17292449003984e-07,,-2.21507458188977e-07,,3.84779414087059e-07,8.11986090762652e-08,2.10862429710498e-07,,,,9.22229261346314e-07,-2.19502673850517e-07,0,0,0,9.4208000000001,103,985.569417475728,524.325242718447,2050.40291262136,978.291262135922,992.847572815534,512.539805825243,536.110679611651,2216.3786407767,1884.42718446602,0
1683.968,3.7287349253255e-08,-8.06669235493596e-08,-4.33795742959636e-08,7.88872063083745e-07,-4.45295058630944e-07,-4.45295058630842e-07,,,-5.5019875778172e-08,6.6076512912989e-08,-2.41602952524974e-08,6.60765129130782e-08,-4.0257465622149e-07,,-2.00977134374567e-07,,,-1.59498730369836e-07,,-1.06286514275576e-07,-1.1562398297383e-07,,,,3.51530511568607e-07,-7.5573721853599e-08,,,5.69438906597647e-07,-9.74810316456835e-07,-1.00971694868106e-06,8.12503730809423e-07,,,3.63915422589257e-07,-3.16410148953813e-08,5.47341504657824e-09,5.38695043077933e-08,5.38695043078211e-08,-2.17798378162706e-07,,-2.18393191803331e-07,,3.84860041907413e-07,9.3343384551941e-08,2.1520065454294e-07,,,,9.48573367550752e-07,-2.14902275832564e-07,0,0,0,9.52320000000009,102,955.170588235294,535.861274509804,2091.13725490196,949.503921568627,960.837254901961,536.783333333333,534.939215686275,2253.83333333333,1928.44117647059,0
1684.0704,4.77817475520562e-08,-8.24224905915204e-08,-3.46407430393248e-08,7.74903996501066e-07,-4.39700541883169e-07,-4.3970054188307e-07,,,-8.65683418174928e-08,7.36452275887414e-08,-1.79438013791403e-08,7.36452275888307e-08,-3.78010200468401e-07,,-1.80668259597292e-07,,,-1.43065301880043e-07,,-7.44180344988199e-08,-1.02785095535904e-07,,,,3.54485042865748e-07,-6.94722930074646e-08,,,6.15189034621193e-07,-9.65187594207483e-07,-1.00767881488834e-06,8.30034664002448e-07,,,3.61497163074843e-07,-2.50952055607088e-08,-2.03649316211207e-09,5.72468970158508e-08,5.72468970158831e-08,-2.1633964766032e-07,,-2.12309515154507e-07,,3.83139432690086e-07,1.07027078904478e-07,2.18962745574985e-07,,,,9.69885277909858e-07,-2.0703464043701e-07,0,0,0,9.62560000000008,103,958.400485436893,532.372330097087,2109.14077669903,953.543689320388,963.257281553398,536.06213592233,528.682524271845,2266.5145631068,1951.76699029126,0
1684.1728,6.03722147676653e-08,-8.45511848036161e-08,-2.41789700358128e-08,7.58132427593253e-07,-4.33560758006261e-07,-4.33560758006164e-07,,,-1.23124539870606e-07,8.24678034541031e-08,-1.15378158240597e-08,8.24678034541926e-08,-3.4874509033969e-07,,-1.56848709198143e-07,,,-1.2332619125412e-07,,-3.84765367753906e-08,-8.72028256671685e-08,,,,3.55825007099608e-07,-6.19809955135931e-08,,,6.7104426556504e-07,-9.53980093650931e-07,-1.00502644846696e-06,8.49485627536194e-07,,,3.58047092900699e-07,-1.81105222406346e-08,-1.38787524354854e-08,6.01430111997664e-08,6.01430111998042e-08,-2.13632717828819e-07,,-2.04260800215067e-07,,3.80180566382003e-07,1.21985381307486e-07,2.22952221701028e-07,,,,9.86954952970297e-07,-1.96595065144668e-07,0,0,0,9.72800000000007,102,959.35637254902,534.227450980392,2127.19117647059,953.611764705882,965.100980392157,534.338235294118,534.116666666667,2282.27450980392,1972.10784313725,0
1684.2752,7.42970974322702e-08,-8.68150394078165e-08,-1.251794197541e-08,7.4006466042677e-07,-4.2759476375148e-07,-4.27594763751386e-07,,,-1.62720877932968e-07,9.21044439993922e-08,-5.03849308089931e-09,9.21044439994819e-08,-3.16272738256066e-07,,-1.30718355415022e-07,,,-1.01179788252568e-07,,1.14713177760349e-10,-6.95906864097456e-08,,,,3.56346104054534e-07,-5.33472279932402e-08,,,7.33727052913893e-07,-9.42197822768285e-07,-1.00240164049962e-06,8.7073245397188e-07,,,3.53759465272544e-07,-1.0878445686322e-08,-2.8903101153302e-08,6.22844104427319e-08,6.22844104427753e-08,-2.10422397003526e-07,,-1.95352048143315e-07,,3.76677254395977e-07,1.37823166316161e-07,2.27852001814234e-07,,,,1.00053517076001e-06,-1.84194478024873e-07,0,1,0,9.83040000000005,102,959.404901960784,530.361274509804,2134.54411764706,954.303921568627,964.505882352941,529.733333333333,530.989215686275,2285.6862745098,1983.40196078431,0
1684.3776,8.86669986572182e-08,-8.89878369908501e-08,-3.20838333497506e-10,7.2235961574961e-07,-4.22432456648103e-07,-4.22432456648012e-07,,,-2.03248808204999e-07,1.02025340756578e-07,1.39628737143388e-09,1.02025340756668e-07,-2.82397692574364e-07,,-1.03725997974267e-07,,,-7.78370336030439e-08,,3.9527960525478e-08,-5.08862397557765e-08,,,,3.56905198750762e-07,-4.38898556417409e-08,,,7.99585233651629e-07,-9.30768001861457e-07,-1.00033066616541e-06,8.93206989044418e-07,,,3.48763138977208e-07,-3.69385156285868e-09,-4.55744168674562e-08,6.34016874027466e-08,6.3401687402796e-08,-2.07354762520945e-07,,-1.86585439784464e-07,,3.73349206761487e-07,1.54026221026623e-07,2.33876865146263e-07,,,,1.01118677993135e-06,-1.70331263422953e-07,0,1,0,9.93280000000004,103,954.863106796117,539.133980582524,2128.93203883495,948.190291262136,961.535922330097,541.966019417476,536.301941747573,2274.6213592233,1983.2427184466,0
1684.48,1.02591306185658e-07,-9.08690527881749e-08,1.17222533976156e-08,7.06625155550009e-07,-4.18488197905238e-07,-4.18488197905151e-07,,,-2.42733981983887e-07,1.11685467289975e-07,7.57270205340274e-09,1.11685467290065e-07,-2.48958383374001e-07,,-7.73588786451744e-08,,,-5.46600441561635e-08,,7.77567914181896e-08,-3.21232119987009e-08,,,,3.58268909780863e-07,-3.3935346002121e-08,,,8.64902801496425e-07,-9.20287190789594e-07,-9.99033074986895e-07,9.15860475624062e-07,,,3.43126913881538e-07,3.11811613330386e-09,-6.2224247849117e-08,6.32647147365554e-08,6.32647147366105e-08,-2.0490954631144e-07,,-1.78743254082879e-07,,3.70814339501148e-07,1.69999853992402e-07,2.40740907833743e-07,,,,1.01925447689464e-06,-1.55415747010082e-07,0,1,0,10.0352,102,953.645588235294,538.077941176471,2113.25,947.703921568628,959.587254901961,541.043137254902,535.112745098039,2252.64705882353,1973.85294117647,0
1684.5824,1.15286086869323e-07,-9.23026392804703e-08,2.29834475889833e-08,6.9423734974094e-07,-4.15937612403407e-07,-4.15937612403324e-07,,,-2.7956151512828e-07,1.20596473955659e-07,1.32986626891945e-08,1.2059647395575e-07,-2.17583825443568e-07,,-5.29258996442008e-08,,,-3.29777401448782e-08,,1.12876942677985e-07,-1.42868622189352e-08,,,,3.61029107145998e-07,-2.37840987462368e-08,,,9.26283326594068e-07,-9.10928350851975e-07,-9.9835555358526e-07,9.37353937807318e-07,,,3.3689264037791e-07,9.26559536146902e-09,-7.72870345623348e-08,6.17254515156374e-08,6.17254515156976e-08,-2.03370243370682e-07,,-1.72323988358869e-07,,3.69488499009034e-07,1.85117391988349e-07,2.47948153289221e-07,,,,1.02500619476967e-06,-1.39821821134703e-07,0,0,0,10.1376,103,953.284951456311,545.469417475728,2088.49029126214,945.403883495146,961.166019417476,553.595145631068,537.343689320388,2217.25242718447,1959.72815533981,0
1684.6848,1.26129942888277e-07,-9.31936123001573e-08,3.29363305882485e-08,6.86237252232737e-07,-4.14789104654387e-07,-4.14789104654308e-07,,,-3.12593523442781e-07,1.28364681581564e-07,1.84166272260852e-08,1.28364681581656e-07,-1.89566255467815e-07,,-3.14253978533369e-08,,,-1.39422691322152e-08,,1.43278397378411e-07,1.80734666446383e-09,,,,3.65584236577183e-07,-1.37146925130667e-08,,,9.81038411408532e-07,-9.02522985594214e-07,-9.97881778074516e-07,9.56394678136099e-07,,,3.30115861989468e-07,1.45168486273344e-08,-8.94735967642498e-08,5.87517464971391e-08,5.87517464972041e-08,-2.0280907949219e-07,,-1.67499411032762e-07,,3.69545673055901e-07,1.98767884504059e-07,2.5516671181654e-07,,,,1.02881214832976e-06,-1.23916948596028e-07,0,0,0,10.24,102,953.073039215686,539.679901960784,2069.49509803922,944.122549019608,962.023529411765,548.010784313726,531.349019607843,2196.95098039216,1942.03921568627,0
1684.7872,1.34679157778735e-07,-9.35145500212312e-08,4.1164607757631e-08,6.83267130686195e-07,-4.14980358180521e-07,-4.14980358180445e-07,,,-3.41168114595013e-07,1.34694789880441e-07,2.2819410754727e-08,1.34694789880533e-07,-1.65834972545351e-07,,-1.35166580090152e-08,,,1.56096813452465e-09,,1.67840041059078e-07,1.55945049312428e-08,,,,3.72147857679112e-07,-3.99911763895132e-09,,,1.02743502156996e-06,-8.94729065775223e-07,-9.97155632059869e-07,9.72041604368767e-07,,,3.2289016546825e-07,1.86957961024037e-08,-9.78720249283884e-08,5.44400679566908e-08,5.44400679567597e-08,-2.0308560586112e-07,,-1.64101000055699e-07,,3.7093242858578e-07,2.10410488612318e-07,2.62407399406248e-07,,,,1.03121857499251e-06,-1.08057718444829e-07,0,0,0,10.3424,102,954.307843137255,534.766666666667,2075.56862745098,943.425490196078,965.190196078431,547.314705882353,522.21862745098,2207.85294117647,1943.28431372549,0
1684.8896,1.4068141757576e-07,-9.32979046770382e-08,4.7383512898848e-08,6.85492277275321e-07,-4.16421963697555e-07,-4.16421963697482e-07,,,-3.65023376478939e-07,1.39385044730828e-07,2.64514764848887e-08,1.39385044730921e-07,-1.46957080228805e-07,,4.58823163426428e-10,,,1.29718095146314e-08,,1.86046027384366e-07,2.6800553017402e-08,,,,3.80751115666299e-07,5.09857018718143e-09,,,1.06467642584588e-06,-8.87169777960184e-07,-9.95892481501503e-07,9.83849145266893e-07,,,3.15342876203074e-07,2.16730968191197e-08,-1.01986567820591e-07,4.90000259736376e-08,4.90000259737093e-08,-2.03875169478026e-07,,-1.61668958513889e-07,,3.73411928227865e-07,2.19644561731389e-07,2.69904868091957e-07,,,,1.03288214590023e-06,-9.25787864222656e-08,0,0,0,10.4448,103,920.522157307705,731.745929614286,1788.92464910124,858.089679555531,982.954635059879,748.346001459117,715.145857769455,1906.32083730849,1671.52846089399,0.436893203883495
1684.992,1.4410937809332e-07,-9.2615063786809e-08,5.14943143066355e-08,6.92502132831314e-07,-4.1896140276312e-07,-4.18961402763049e-07,,,-3.8422019683207e-07,1.42336221243528e-07,2.93059143205884e-08,1.42336221243622e-07,-1.33118657296979e-07,,1.0460809460344e-08,,,2.00919203444934e-08,,1.98024779567158e-07,3.54397313047132e-08,,,,3.91240293824656e-07,1.33375814055758e-08,,,1.09262562550057e-06,-8.79470524945724e-07,-9.94068235002625e-07,9.91824169628466e-07,,,3.07615020906763e-07,2.33741879389626e-08,-1.01724237522277e-07,4.27148100991951e-08,4.27148100992686e-08,-2.04745356220377e-07,,-1.5958657841967e-07,,3.7661549085168e-07,2.26277176214103e-07,2.77820851348188e-07,,,,1.03442829127028e-06,-7.7802937552878e-08,0,0,0,10.5472,102,862.621743110847,1252.53401225224,1053.94373669188,698.058460840984,1027.18502538071,1381.46041029128,1123.6076142132,981.725036835543,1126.16243654822,0.5
1685.0944,1.45196623538551e-07,-9.15470459530789e-08,5.36495775855954e-08,7.03229571452231e-07,-4.22302528703076e-07,-4.22302528703008e-07,,,-3.99108581776881e-07,1.43572576992405e-07,3.14220626020951e-08,1.435725769925e-07,-1.24104156593345e-07,,1.67410530188812e-08,,,2.30817773688159e-08,,2.0446762934432e-07,4.17659214414554e-08,,,,4.03287547277851e-07,2.05151941958992e-08,,,1.11141403306532e-06,-8.71187437350976e-07,-9.91839397861386e-07,9.96227834308669e-07,,,2.99852470438936e-07,2.38112716184189e-08,-9.73374717058938e-08,3.58949266517478e-08,3.58949266518226e-08,-2.05278169477149e-07,,-1.57280748641831e-07,,3.80080300102482e-07,2.30344469889659e-07,2.85979615292158e-07,,,,1.03631624327089e-06,-6.40810483957248e-08,0,0,0,10.6496,102,955.137254901961,1004.92892156863,1448.76470588235,897.522549019608,1012.75196078431,1039.47450980392,970.383333333333,1546.23529411765,1351.29411764706,0
1685.1968,1.44436451565568e-07,-9.01537179642805e-08,5.42827336014093e-08,7.15955583626282e-07,-4.2594319935367e-07,-4.25943199353604e-07,,,-4.10316010150344e-07,1.4325200775877e-07,3.28817267370162e-08,1.43252007758866e-07,-1.19328194616842e-07,,1.98024496031045e-08,,,2.23942898971951e-08,,2.06415119193692e-07,4.61853100276303e-08,,,,4.164241198145e-07,2.64781451778306e-08,,,1.12111137265333e-06,-8.61697692937616e-07,-9.89332607452725e-07,9.97280438975346e-07,,,2.92221144500278e-07,2.31295983248814e-08,-8.93372894917826e-08,2.88408604032378e-08,2.88408604033127e-08,-2.05200802981334e-07,,-1.54417645814587e-07,,3.83262439870693e-07,2.3205645257955e-07,2.93769493436539e-07,,,,1.0387647045024e-06,-5.18574300038876e-08,0,0,0,10.752,103,971.928640776699,575.289805825243,2015.20873786408,952.887378640777,990.969902912621,567.329126213592,583.250485436893,2171.45631067961,1858.96116504854,0
1685.2992,1.42514198602377e-07,-8.84486221025109e-08,5.40655764999859e-08,7.2846522834186e-07,-4.29180920615151e-07,-4.29180920615087e-07,,,-4.18704879554096e-07,1.41642520818305e-07,3.38019521963055e-08,1.41642520818402e-07,-1.17956165910637e-07,,2.02939907892628e-08,,,1.86433173112186e-08,,2.0497589262989e-07,4.91497929809342e-08,,,,4.3009573530443e-07,3.11316882225347e-08,,,1.12156828901338e-06,-8.50160204113597e-07,-9.86413560449153e-07,9.9486499050573e-07,,,2.84933767613339e-07,2.16404981140975e-08,-7.83979340470864e-08,2.18188158713772e-08,2.18188158714519e-08,-2.04471792032256e-07,,-1.51009880264523e-07,,3.85541988884543e-07,2.31681958542776e-07,3.00220439221022e-07,,,,1.04175428585749e-06,-4.1742012155154e-08,0,0,0,10.8543999999999,102,969.50637254902,532.471568627451,2093.83823529412,956.670588235294,982.342156862745,522.7,542.243137254902,2253.20588235294,1934.47058823529,0
1685.4016,1.40179904355576e-07,-8.63865374347046e-08,5.37933669209905e-08,7.38358564829947e-07,-4.31199042000635e-07,-4.31199042000572e-07,,,-4.25283442163594e-07,1.3906316317464e-07,3.43264643680701e-08,1.39063163174738e-07,-1.19096182805768e-07,,1.885477743186e-08,,,1.24434517100234e-08,,2.01090834245079e-07,5.10591367873752e-08,,,,4.43728196891245e-07,3.44437327687213e-08,,,1.1124535747952e-06,-8.35611529355713e-07,-9.82565597993232e-07,9.88357915905546e-07,,,2.7826547118429e-07,1.98123193418706e-08,-6.52709604682449e-08,1.50463291191378e-08,1.50463291192114e-08,-2.03294714215803e-07,,-1.47403118213525e-07,,3.86248923165489e-07,2.29428824017429e-07,3.04187346275365e-07,,,,1.04506740514554e-06,-3.45428040470408e-08,0,0,0,10.9567999999999,103,967.876213592233,535.891747572816,2119.81553398058,958.234951456311,977.517475728155,526.733980582524,545.049514563107,2273.90291262136,1965.72815533981,0
1685.504,1.38109010697159e-07,-8.38706360798072e-08,5.42383746174693e-08,7.43410927705458e-07,-4.31203856056691e-07,-4.31203856056626e-07,,,-4.31108341104672e-07,1.35814785258462e-07,3.46200075188981e-08,1.35814785258561e-07,-1.21997053203992e-07,,1.59669641212692e-08,,,4.2878198970187e-09,,1.95423435486943e-07,5.22030623772829e-08,,,,4.5677493820793e-07,3.64486012631226e-08,,,1.09344541908951e-06,-8.1717737676523e-07,-9.76965866796204e-07,9.76696016641888e-07,,,2.72544667943517e-07,1.82150270801786e-08,-5.07188455006647e-08,8.6799679737197e-09,8.67996797379167e-09,-2.02071001926661e-07,,-1.44177650084656e-07,,3.84718989472446e-07,2.25375951656423e-07,3.04529737895619e-07,,,,1.04827186367968e-06,-3.1197715718132e-08,0,1,0,11.0591999999999,102,966.302941176471,538.648039215686,2140.05882352941,956.96862745098,975.637254901961,539.056862745098,538.239215686275,2293.25490196078,1986.86274509804,0
1685.6064,1.36815521209468e-07,-8.07800918110349e-08,5.60354293985484e-08,7.41820267622171e-07,-4.28554571950572e-07,-4.28554571950505e-07,,,-4.3721777718124e-07,1.32139263027302e-07,3.48670621998865e-08,1.32139263027401e-07,-1.26168012029675e-07,,1.18888988926519e-08,,,-5.47496992248275e-09,,1.88380006390149e-07,5.27649654092179e-08,,,,4.68725049585175e-07,3.7265202210202e-08,,,1.06447166393122e-06,-7.94308493305885e-07,-9.68744153196143e-07,9.58685584032418e-07,,,2.68117642739649e-07,1.7444685247211e-08,-3.54807426571463e-08,2.79782936039575e-09,2.79782936046457e-09,-2.0131770818596e-07,,-1.42020619394313e-07,,3.80362587737929e-07,2.19486504606597e-07,3.00207806724114e-07,,,,1.05060743749378e-06,-3.25988352095378e-08,0,1,0,11.1615999999999,103,967.232038834952,537.900970873786,2148.44660194175,956.315533980582,978.14854368932,542.78640776699,533.015533980583,2295.28155339806,2001.61165048544,0
1685.7088,1.36652637083292e-07,-7.70077634456137e-08,5.96448736377912e-08,7.32257298213075e-07,-4.2283306680859e-07,-4.22833066808519e-07,,,-4.44593476893706e-07,1.28228712269616e-07,3.52712759716218e-08,1.28228712269714e-07,-1.31361319562274e-07,,6.70015160142052e-09,,,-1.65572903570699e-08,,1.80203156989589e-07,5.28831724700577e-08,,,,4.79085166360516e-07,3.71342096554107e-08,,,1.02583770813218e-06,-7.66918667761054e-07,-9.57290391911306e-07,9.33413728981482e-07,,,2.6529220681713e-07,1.80632274549416e-08,-2.02788980607628e-08,-2.61714161511121e-09,-2.61714161504599e-09,-2.0157200796367e-07,,-1.41606217299219e-07,,3.72718449785338e-07,2.11687114664989e-07,2.90306208873437e-07,,,,1.05087847214386e-06,-3.9391786046222e-08,0,1,0,11.2640000000001,102,966.449019607843,535.682843137255,2147.04901960784,960.121568627451,972.776470588235,536.870588235294,534.495098039216,2288.52941176471,2005.56862745098,0
1685.8112,1.37874888811252e-07,-7.24939620926301e-08,6.53809267187324e-08,7.13776031925053e-07,-4.13846522247293e-07,-4.13846522247217e-07,,,-4.54130930950587e-07,1.24266803505166e-07,3.60497817851575e-08,1.24266803505264e-07,-1.3744173561942e-07,,4.16258800337548e-10,,,-2.8608832244707e-08,,1.71065839110963e-07,5.27322007585983e-08,,,,4.87373860792049e-07,3.64494892890659e-08,,,9.78156372081029e-07,-7.35351915897001e-07,-9.42444879492798e-07,9.00559282164383e-07,,,2.64277148467065e-07,2.05697594690528e-08,-5.84206257799893e-09,-7.67179354705491e-09,-7.67179354699406e-09,-2.03304992755607e-07,,-1.43505002106162e-07,,3.61472882536341e-07,2.01955179194728e-07,2.74053950825805e-07,,,,1.04750121738975e-06,-5.18486618230868e-08,0,0,0,11.3664000000001,102,965.364215686274,543.098039215686,2130.77450980392,958.153921568628,972.574509803922,548.237254901961,537.958823529412,2266.24509803922,1995.30392156863,0
1685.9136,1.40695108101496e-07,-6.72503142651246e-08,7.34447938364799e-08,6.85724112344347e-07,-4.01605996980372e-07,-4.01605996980289e-07,,,-4.66613304136077e-07,1.2046077499117e-07,3.74196967577455e-08,1.20460774991266e-07,-1.44247832363134e-07,,-6.91556924401228e-09,,,-4.11515536167301e-08,,1.6111827092854e-07,5.25698122084961e-08,,,,4.93157764323653e-07,3.57453078013983e-08,,,9.22184036115558e-07,-7.00224713415242e-07,-9.24502660563563e-07,8.60492244191021e-07,,,2.65145968750592e-07,2.53888929150478e-08,7.10327453192742e-09,-1.25238845465716e-08,-1.25238845465156e-08,-2.06861570606198e-07,,-1.48126867803101e-07,,3.46456307143418e-07,1.90356816980825e-07,2.50893903706341e-07,,,,1.03875200503939e-06,-6.9838672037821e-08,0,0,0,11.4688000000001,103,967.818932038835,536.817961165049,2097.97572815534,959.036893203884,976.600970873787,546.471844660194,527.164077669903,2227.32038834951,1968.63106796117,0
1686.016,1.4528357093023e-07,-6.13739991573746e-08,8.39095717729615e-08,6.47779973277775e-07,-3.86326853789135e-07,-3.86326853789044e-07,,,-4.8268746538003e-07,1.17037549167183e-07,3.95791991171743e-08,1.17037549167276e-07,-1.51539435368888e-07,,-1.5199660246375e-08,,,-5.36262255747808e-08,,1.50490265967425e-07,5.27166391349922e-08,,,,4.96128520425722e-07,3.56239389105425e-08,,,8.58740134143211e-07,-6.62270843367418e-07,-9.04097268639136e-07,8.14203741332616e-07,,,2.67843444694047e-07,3.28456857027059e-08,1.78999342813945e-08,-1.73271632423591e-08,-1.73271632423094e-08,-2.12422518974957e-07,,-1.5567864102296e-07,,3.27658407980088e-07,1.77029792539569e-07,2.20605352955325e-07,,,,1.02314920972598e-06,-9.2851660582571e-08,0,0,0,11.5712000000001,102,967.739705882353,535.372549019608,2068.97549019608,963.099019607843,972.380392156863,541.005882352941,529.739215686275,2198.67647058824,1939.27450980392,0
1686.1184,1.51704000968569e-07,-5.50504584751918e-08,9.66535424934798e-08,6.0015841561235e-07,-3.68461304978706e-07,-3.68461304978606e-07,,,-5.02820759806243e-07,1.14206968369505e-07,4.26885807624423e-08,1.14206968369596e-07,-1.59042227034558e-07,,-2.43445318605129e-08,,,-6.55206724168816e-08,,1.3929600665877e-07,5.34796154737288e-08,,,,4.96194825015626e-07,3.66438668348935e-08,,,7.88780015245665e-07,-6.22291511221644e-07,-8.82088881467692e-07,7.63192562917143e-07,,,2.72225242317153e-07,4.31080668273922e-08,2.60606290718343e-08,-2.21865534433746e-08,-2.21865534433317e-08,-2.19976680909717e-07,,-1.661182225142e-07,,3.05295365661995e-07,1.62153368321054e-07,1.83438935260367e-07,,,,9.99853912634783e-07,-1.2002576220805e-07,0,0,0,11.6736000000001,103,966.223786407767,532.850970873786,2057.5,964.977669902913,967.469902912621,536.05145631068,529.650485436893,2188.28155339806,1926.71844660194,0
1686.2208,1.59825471398005e-07,-4.85404572217322e-08,1.11285014176372e-07,5.43905698939038e-07,-3.48734199086216e-07,-3.48734199086106e-07,,,-5.27221354842835e-07,1.12114494307687e-07,4.6856440742864e-08,1.12114494307775e-07,-1.66534079416423e-07,,-3.43296517411646e-08,,,-7.65018385351702e-08,,1.27686193041298e-07,5.50614019475461e-08,,,,4.93553092471758e-07,3.92093123445655e-08,,,7.13565670611369e-07,-5.81218975468949e-07,-8.59538108847833e-07,7.09407505740674e-07,,,2.78102066439149e-07,5.61081877879882e-08,3.13505367267767e-08,-2.71365821693042e-08,-2.71365821692691e-08,-2.29303549009217e-07,,-1.79114558950469e-07,,2.79919792099919e-07,1.45951291741075e-07,1.40208677592085e-07,,,,9.68971257115304e-07,-1.50166034543301e-07,0,0,0,11.7760000000001,102,937.907352941176,537.166176470588,2053.05882352941,938.01568627451,937.799019607843,542.912745098039,531.419607843137,2180.21568627451,1925.90196078431,0
1686.3232,1.69273637150477e-07,-4.21504584482729e-08,1.27123178702301e-07,4.81114951452412e-07,-3.28122250701648e-07,-3.28122250701528e-07,,,-5.55741802569913e-07,1.10813890534279e-07,5.2132885518365e-08,1.10813890534364e-07,-1.73900556902828e-07,,-4.52253436092105e-08,,,-8.64846735990809e-08,,1.15938420636057e-07,5.7499823002212e-08,,,,4.88698153442705e-07,4.35060140571553e-08,,,6.34793095808642e-07,-5.40200476295396e-07,-8.37730768522548e-07,6.55224490277505e-07,,,2.85262626396056e-07,7.14867352497797e-08,3.38181279075589e-08,-3.21503798288018e-08,-3.21503798287748e-08,-2.39971027342122e-07,,-1.94034308263212e-07,,2.52518248441452e-07,1.28745988626601e-07,9.22687099087315e-08,,,,9.31668245763747e-07,-1.81777833152993e-07,0,0,0,11.8784000000001,102,908.760294117647,547.040196078431,2069.64215686275,907.188235294118,910.332352941177,551.270588235294,542.809803921569,2197.33333333333,1941.95098039216,0
1686.4256,1.79471081995409e-07,-3.61907334452765e-08,1.43280348550226e-07,4.14892978932029e-07,-3.07718776556288e-07,-3.07718776556157e-07,,,-5.87812875477036e-07,1.10280011011249e-07,5.85077850077583e-08,1.10280011011331e-07,-1.81112420271546e-07,,-5.71347399730083e-08,,,-9.56145170939892e-08,,1.0453360903818e-07,6.06642548669461e-08,,,,4.82346932515331e-07,4.95131270935958e-08,,,5.54510354754059e-07,-5.00577841544292e-07,-8.18129000430018e-07,6.03328405542215e-07,,,2.93470974498695e-07,8.86110632643789e-08,3.37775804636367e-08,-3.71803873680099e-08,-3.71803873679908e-08,-2.51348553926955e-07,,-2.09964409355978e-07,,2.24520993078207e-07,1.11037940815405e-07,4.13045049719088e-08,,,,8.90071324654671e-07,-2.13159622542144e-07,0,0,0,11.9808,103,933.983980582524,541.346116504854,2095.02427184466,931.840776699029,936.127184466019,543.327184466019,539.365048543689,2227.56310679612,1962.4854368932,0
1686.528,1.89760943183379e-07,-3.09317538836709e-08,1.58829189299798e-07,3.49012330139091e-07,-2.8848736263939e-07,-2.88487362639249e-07,,,-6.22455241280214e-07,1.10449769206133e-07,6.59113121989679e-08,1.10449769206211e-07,-1.88135959777202e-07,,-7.00814699715113e-08,,,-1.04182078131953e-07,,9.41842504336636e-08,6.43113744098849e-08,,,,4.75283789701725e-07,5.70836426646118e-08,,,4.74804514480652e-07,-4.63729914800896e-07,-8.02170130120637e-07,5.5641541262272e-07,,,3.02460619319702e-07,1.06678930481685e-07,3.1762688938144e-08,-4.22115691592677e-08,-4.2211569159256e-08,-2.62641040519464e-07,,-2.25771604516488e-07,,1.97673419535107e-07,9.35495156364608e-08,-1.10148466990521e-08,,,,8.46933046625743e-07,-2.42584005194883e-07,0,0,0,12.0832,102,960.446078431373,537.544117647059,2119.1862745098,957.057843137255,963.83431372549,541.325490196079,533.762745098039,2255.74509803922,1982.62745098039,0
1686.6304,1.99552569257928e-07,-2.65731012343854e-08,1.72979468023629e-07,2.87338916608443e-07,-2.70996936552597e-07,-2.70996936552446e-07,,,-6.58389980211095e-07,1.11256134625359e-07,7.42143608738252e-08,1.11256134625434e-07,-1.94835336910666e-07,,-8.39057980665918e-08,,,-1.12512303522329e-07,,8.58187616468943e-08,6.81773392871626e-08,,,,4.6818200635686e-07,6.60471381365593e-08,,,3.97454274907806e-07,-4.30869110193651e-07,-7.9097359799773e-07,5.16788881712555e-07,,,3.11949281469356e-07,1.24860927876836e-07,2.84639433089793e-08,-4.72952038160774e-08,-4.7295203816073e-08,-2.72951835621124e-07,,-2.40195657774972e-07,,1.73780906719149e-07,7.71835353689347e-08,-6.33248168435686e-08,,,,8.05103436620158e-07,-2.68537109756888e-07,0,0,0,12.1856,103,959.138349514563,541.505825242718,2141.09708737864,956.684466019418,961.592233009709,547.994174757282,535.017475728155,2282.32038834951,1999.87378640777,0
1686.7328,2.08420391833724e-07,-2.32328976264212e-08,1.85187494207388e-07,2.33232738230779e-07,-2.5527351539858e-07,-2.55273515398421e-07,,,-6.94214068260356e-07,1.12629819579009e-07,8.32264150887358e-08,1.12629819579081e-07,-2.00930553532306e-07,,-9.82261475710349e-08,,,-1.2087217764343e-07,,8.05212733990538e-08,7.20642277324126e-08,,,,4.61475681368385e-07,7.62757805587266e-08,,,3.23754240001311e-07,-4.02898569360622e-07,-7.85087135721736e-07,4.86001633219868e-07,,,3.2166939655609e-07,1.42412355101094e-07,2.46565507505226e-08,-5.25445234214779e-08,-5.2544523421479e-08,-2.81369398855799e-07,,-2.51964186052792e-07,,1.5439831411993e-07,6.28948561157647e-08,-1.14619150282288e-07,,,,7.66951372849529e-07,-2.899396330813e-07,1,0,0,12.288,102,960.521568627451,543.492156862745,2158.36274509804,957.793137254902,963.25,549.043137254902,537.941176470588,2300.62745098039,2016.09803921569,0
1686.8352,2.16128571921863e-07,-2.09518324282103e-08,1.95176739493736e-07,1.8909776171349e-07,-2.40854437995355e-07,-2.4085443799519e-07,,,-7.28568647929414e-07,1.1447208548657e-07,9.26924355083695e-08,1.1447208548664e-07,-2.06045404538973e-07,,-1.12487397916313e-07,,,-1.29432835612454e-07,,7.93900988793308e-08,7.58773294978864e-08,,,,4.55328217629794e-07,8.7677712144698e-08,,,2.54505890362641e-07,-3.80351008813999e-07,-7.84358611016788e-07,4.64644505693576e-07,,,3.31391357704769e-07,1.58720215237019e-07,2.11314760649538e-08,-5.81008048718647e-08,-5.81008048718699e-08,-2.87062476181278e-07,,-2.59916450730356e-07,,1.40557984660772e-07,5.15129897646007e-08,-1.64097328850158e-07,,,,7.33950856954677e-07,-3.06289935326472e-07,1,0,0,12.3904,102,962.254411764706,542.612745098039,2171.19117647059,957.203921568627,967.304901960784,542.189215686275,543.036274509804,2310.60784313726,2031.77450980392,0
1686.9376,2.22604823738812e-07,-1.9698555190509e-08,2.02906268548385e-07,1.56156364498152e-07,-2.27018725026606e-07,-2.27018725026438e-07,,,-7.60254329368448e-07,1.1662688493279e-07,1.0229736269388e-07,1.16626884932858e-07,-2.09826060748983e-07,,-1.26071725366769e-07,,,-1.38290225407964e-07,,8.32866539848164e-08,7.95981359812148e-08,,,,4.49689099371073e-07,1.00130222380253e-07,,,1.9002545226586e-07,-3.63358874477435e-07,-7.87941873397485e-07,4.52290025921708e-07,,,3.40927674528034e-07,1.7330511714492e-07,1.86331735053439e-08,-6.40958505186931e-08,-6.40958505187005e-08,-2.89371932017443e-07,,-2.6312972253109e-07,,1.32611183120675e-07,4.35712970248212e-08,-2.10999667087957e-07,,,,7.06563389543721e-07,-3.17712595849489e-07,1,0,0,12.4928,103,964.126699029126,543.773786407767,2173.37378640777,958.625242718447,969.628155339806,543.791262135922,543.756310679612,2311.2427184466,2035.50485436893,0
1687.04,2.2790396085736e-07,-1.93695261889137e-08,2.08534434668526e-07,1.34444591781312e-07,-2.13082036611434e-07,-2.13082036611265e-07,,,-7.88296996720486e-07,1.18883649454146e-07,1.11687527401262e-07,1.18883649454212e-07,-2.12058914425213e-07,,-1.3841564220398e-07,,,-1.47507100350214e-07,,9.25265360993927e-08,8.32209117779507e-08,,,,4.44395381204923e-07,1.1340135720268e-07,,,1.30078768629271e-07,-3.51607637065922e-07,-7.94394953697781e-07,4.4754354540126e-07,,,3.50122847680069e-07,1.8581918847998e-07,1.77969882907986e-08,-7.06292033664158e-08,-7.06292033664235e-08,-2.87888171751836e-07,,-2.6103592906519e-07,,1.30211865098371e-07,3.91994001840449e-08,-2.54596420185608e-07,,,,6.84383316630354e-07,-3.24912225350168e-07,0,0,0,12.5952,102,962.490196078431,546.810294117647,2166.04411764706,958.525490196078,966.454901960784,552.213725490196,541.406862745098,2306.44117647059,2025.64705882353,0
1687.1424,2.32178359581229e-07,-1.97886139246086e-08,2.123897456567e-07,1.22981730973076e-07,-1.98644093532683e-07,-1.98644093532514e-07,,,-8.11975008915981e-07,1.2101589207039e-07,1.20508596939254e-07,1.21015892070454e-07,-2.12720666393998e-07,,-1.49086221657635e-07,,,-1.57129618976107e-07,,1.06646165961809e-07,8.66995282140678e-08,,,,4.39275916296162e-07,1.27104733594423e-07,,,7.37964611888979e-08,-3.44283113566788e-07,-8.01823935577109e-07,4.48162299713404e-07,,,3.58839518685347e-07,1.96057199353116e-07,1.90892844254841e-08,-7.77559330111317e-08,-7.77559330111377e-08,-2.82498186984681e-07,,-2.53501503714324e-07,,1.32424848210187e-07,3.81128324742909e-08,-2.94325095912622e-07,,,,6.66408956245888e-07,-3.29038681592206e-07,0,0,0,12.6976,102,961.527450980392,548.345098039216,2159.12254901961,961.157843137255,961.897058823529,555.480392156863,541.209803921569,2303.36274509804,2014.88235294118,0
1687.2448,2.35645245038413e-07,-2.07169524780554e-08,2.14928292560437e-07,1.20049826629383e-07,-1.83719161176303e-07,-1.83719161176137e-07,,,-8.30804576392294e-07,1.22830407768076e-07,1.2844775509462e-07,1.22830407768139e-07,-2.11945834943985e-07,,-1.57804157150532e-07,,,-1.67165511323798e-07,,1.24381415746159e-07,8.99303297030519e-08,,,,4.34234030196016e-07,1.40706444197842e-07,,,1.9685183932028e-08,-3.40082406144496e-07,-8.08059181144094e-07,4.51256519700855e-07,,,3.66949633354851e-07,2.03963625171572e-07,2.2768634582051e-08,-8.54713923408519e-08,-8.54713923408553e-08,-2.7338744800318e-07,,-2.4083995160036e-07,,1.3791679388908e-07,3.96958537509254e-08,-3.29937114649062e-07,,,,6.51298813367376e-07,-3.31488793231042e-07,0,0,0,12.8,103,960.618446601942,548.477669902913,2153.30097087379,959.553398058253,961.683495145631,557.830097087379,539.125242718447,2297.03883495146,2009.56310679612,0
1687.3472,2.38542025834994e-07,-2.18766539396729e-08,2.166653718954e-07,1.2352523623479e-07,-1.68710366701982e-07,-1.68710366701819e-07,,,-8.44485465822235e-07,1.24198724285527e-07,1.35265050731478e-07,1.24198724285587e-07,-2.09936767874385e-07,,-1.64424364639344e-07,,,-1.77547609120679e-07,,1.43904476521751e-07,9.27635430154993e-08,,,,4.2929540921439e-07,1.53581420851905e-07,,,-3.42245412674676e-08,-3.37347372284686e-07,-8.10874875386324e-07,4.53601600826682e-07,,,3.74335576608211e-07,2.09612624903293e-07,2.88818575132907e-08,-9.36914735452817e-08,-9.3691473545282e-08,-2.60994841028781e-07,,-2.2374595131036e-07,,1.45183289043891e-07,4.31429940418632e-08,-3.61552288942589e-07,,,,6.37532028908152e-07,-3.33685046911158e-07,0,0,0,12.9023999999999,102,960.136764705882,544.198039215686,2149.30882352941,959.93137254902,960.342156862745,555.53431372549,532.861764705882,2291.10784313726,2007.50980392157,0
1687.4496,2.4107975948045e-07,-2.29825849997221e-08,2.18097174480809e-07,1.31197885502428e-07,-1.54233624186189e-07,-1.54233624186029e-07,,,-8.5281664120385e-07,1.25059766090786e-07,1.40806085070542e-07,1.25059766090845e-07,-2.06860842994659e-07,,-1.68893350958061e-07,,,-1.88113501681734e-07,,1.6323465824029e-07,9.50234808661906e-08,,,,4.24611833245244e-07,1.65098560818678e-07,,,-9.01423403501124e-08,-3.34307309604093e-07,-8.08247272204452e-07,4.52041861244424e-07,,,3.80899384900183e-07,2.13158970083425e-07,3.72889015707359e-08,-1.02237706085692e-07,-1.02237706085689e-07,-2.45937414957579e-07,,-2.03174367221651e-07,,1.52760357685131e-07,4.76069269875227e-08,-3.89629385879265e-07,,,,6.2347404761387e-07,-3.36872168379931e-07,0,0,0,13.0047999999999,103,959.507281553398,533.303398058253,2142.38834951456,956.428155339806,962.58640776699,544.76213592233,521.844660194175,2279.82524271845,2004.95145631068,0
1687.552,2.4341044138108e-07,-2.37746733099425e-08,2.19635768071218e-07,1.41004133418015e-07,-1.40875010838618e-07,-1.40875010838462e-07,,,-8.55591815767544e-07,1.25396955604963e-07,1.44997332536327e-07,1.2539695560502e-07,-2.02796319360493e-07,,-1.71209390799672e-07,,,-1.9861676259999e-07,,1.80648305648592e-07,9.65275882941659e-08,,,,4.20416585284879e-07,1.74703859070641e-07,,,-1.50201144830655e-07,-3.29370362817419e-07,-7.98625349194261e-07,4.43926841105641e-07,,,3.86567520518842e-07,2.14778813944606e-07,4.76911510077821e-08,-1.10837576507428e-07,-1.10837576507422e-07,-2.28933414198908e-07,,-1.80212778998397e-07,,1.59374126226794e-07,5.22986349866126e-08,-4.14869083899746e-07,,,,6.07427248134641e-07,-3.41971072413459e-07,0,0,0,13.1071999999999,102,958.802450980392,531.109803921569,2148.54411764706,952.05,965.554901960784,546.840196078431,515.379411764706,2283.67647058824,2013.41176470588,0
1687.6544,2.45610826381111e-07,-2.40448546898138e-08,2.2156597169138e-07,1.51153535782712e-07,-1.29001053893036e-07,-1.29001053892883e-07,,,-8.52502851025582e-07,1.25200851939971e-07,1.47831257148106e-07,1.25200851940025e-07,-1.97771959302092e-07,,-1.71410360734914e-07,,,-2.08768375953854e-07,,1.94921451124003e-07,9.71027987088534e-08,,,,4.16941197194524e-07,1.81981876138863e-07,,,-2.16006606326393e-07,-3.21403137296937e-07,-7.8118447022621e-07,4.27513033409048e-07,,,3.91277263926158e-07,2.14624352188441e-07,5.9634864333178e-08,-1.19152968352332e-07,-1.19152968352324e-07,-2.1074685508228e-07,,-1.55988905704426e-07,,1.64016185093355e-07,5.65175711724564e-08,-4.3802559913786e-07,,,,5.87766546343709e-07,-3.49519498172881e-07,0,0,0,13.2095999999999,103,960.505825242718,530.922330097087,2158.17961165049,951.253398058252,969.758252427185,546.38640776699,515.458252427184,2295.93203883495,2020.42718446602,0
1687.7568,2.47675929511318e-07,-2.36516607510835e-08,2.24024268760317e-07,1.60212490929697e-07,-1.18691367029583e-07,-1.18691367029433e-07,,,-8.431008224256e-07,1.24435966879947e-07,1.49348503348323e-07,1.24435966879999e-07,-1.91869834748442e-07,,-1.69586053834067e-07,,,-2.18290101849799e-07,,2.0534915094942e-07,9.65970238759947e-08,,,,4.14331557590821e-07,1.86691719135261e-07,,,-2.88126675514252e-07,-3.09925600905472e-07,-7.560158059192e-07,4.02244260265197e-07,,,3.94945483732525e-07,2.12801162494287e-07,7.24921927108457e-08,-1.26840976352433e-07,-1.26840976352424e-07,-1.92153539383509e-07,,-1.31616532294882e-07,,1.65970059162829e-07,5.96445140149624e-08,-4.59657021370342e-07,,,,5.63163066437121e-07,-3.59690074383179e-07,0,0,0,13.3120000000001,102,960.342647058824,528.032843137255,2176.55882352941,949.528431372549,971.156862745098,548.074509803922,507.991176470588,2317.57843137255,2035.53921568627,0
