time,S1-D1,S1-D8,S1-D9,S1-D15,S2-D1,S2-D2,S2-D3,S2-D9,S3-D1,S3-D2,S3-D16,S4-D2,S4-D3,S4-D5,S5-D3,S5-D4,S5-D5,S6-D2,S6-D5,S6-D17,S7-D6,S7-D7,S8-D6,S8-D7,S8-D18,S9-D3,S9-D4,S9-D9,S9-D11,S9-D19,S10-D8,S10-D9,S10-D10,S10-D11,S11-D8,S11-D10,S11-D20,S12-D10,S12-D11,S12-D12,S13-D4,S13-D11,S13-D12,S14-D10,S14-D12,S14-D21,S15-D13,S15-D14,S16-D13,S16-D14,S16-D22,SART_Target,SART_NonTarget,SART_Probe,t_rel_s,eye_n,xp,yp,ps,xpl_i,xpr_i,ypl_i,ypr_i,psl_i,psr_i,blink_prop
2486.6816,-1.85810310634723e-07,8.69195230636486e-08,-9.88907875712973e-08,8.17698835732237e-08,-9.73293001968269e-08,-9.73293001964442e-08,,9.55598742212688e-07,-3.97273595863775e-07,-2.97368179853309e-08,,2.85197919810949e-08,-1.73305303417429e-07,,,9.24548980350365e-08,,1.53128233194807e-07,-9.63901668535315e-09,1.05367697756576e-08,-9.63901668550197e-09,1.03301005849095e-06,2.17732685469254e-07,1.25074274395994e-06,-2.89830682107981e-07,3.88717721075387e-08,,5.06024200910953e-08,-5.06024200907789e-08,1.75370612228492e-07,1.67129886907466e-07,-1.98443117059429e-10,,,3.81437301021839e-08,3.93538885095523e-09,-3.62182494095229e-07,-8.87105678367151e-08,-8.87105678365781e-08,,,,,2.46453749663348e-07,1.97953130995114e-07,-4.18922178246869e-08,2.53692470794077e-07,2.53692470793679e-07,-8.23614044013617e-07,8.23614044013656e-07,-1.65985184352619e-07,1,0,0,0,103,958.857281553398,533.276699029126,1661.89805825243,964.738834951456,952.97572815534,541.039805825243,525.51359223301,1745.87378640777,1577.92233009709,0
2486.784,-1.95648135970365e-07,7.53254055763024e-08,-1.20322730394284e-07,6.66160939130139e-08,-1.08530037397926e-07,-1.08530037397548e-07,,8.59061257239058e-07,-4.90866047822337e-07,-2.24914963864648e-08,,3.40435425233447e-08,-1.50125430507114e-07,,,1.05332981148026e-07,,1.66249432723833e-07,3.84243528725267e-09,1.17507308161063e-08,3.84243528710301e-09,1.02019240423444e-06,2.18238466802475e-07,1.23843087103665e-06,-3.02860842601612e-07,3.48644306933182e-08,,8.71179703965436e-08,-8.71179703962246e-08,1.6946192907182e-07,1.81870067950671e-07,-7.68010750687615e-09,,,3.61122813215411e-08,1.1670911656701e-08,-4.02149518430255e-07,-8.49341800491785e-08,-8.49341800490416e-08,,,,,2.45612663737139e-07,2.08328492163267e-07,-5.03248225589698e-08,2.65732628726264e-07,2.65732628725877e-07,-8.2092653041059e-07,8.20926530410633e-07,-1.79469767767458e-07,1,0,0,0.102400000000216,102,961.556862745098,534.527450980392,1675.55882352941,963.794117647059,959.319607843137,541.112745098039,527.942156862745,1759.32352941176,1591.79411764706,0
2486.8864,-2.04120132820059e-07,6.38126307600586e-08,-1.40307502060218e-07,4.61211889871386e-08,-1.24106357303247e-07,-1.24106357302874e-07,,7.52087573620491e-07,-5.83259102417303e-07,-1.28877971429438e-08,,4.12257062892104e-08,-1.22576078550851e-07,,,1.21119357587914e-07,,1.82908334252483e-07,2.03293368896888e-08,1.33094347966895e-08,2.03293368895381e-08,1.00633287493764e-06,2.1431401014843e-07,1.22064688508581e-06,-3.17096320241429e-07,3.02324525920051e-08,,1.29913511711649e-07,-1.29913511711327e-07,1.64221235964045e-07,1.95466675087576e-07,-1.52324045509231e-08,,,3.42201267580694e-08,2.08435420797181e-08,-4.47847991171986e-07,-7.96471956254678e-08,-7.9647195625334e-08,,,,,2.47154610095935e-07,2.22040449634394e-07,-5.61000306550752e-08,2.82728141070981e-07,2.82728141070606e-07,-8.18015683856853e-07,8.18015683856902e-07,-1.93997735233024e-07,1,0,0,0.204799999999977,103,959.329611650485,535.704368932039,1714.56310679612,957.543689320388,961.115533980583,534.21359223301,537.195145631068,1800,1629.12621359223,0
2486.9888,-2.10753842620391e-07,5.27695455916631e-08,-1.57984297028943e-07,2.18473915664642e-08,-1.44287839094951e-07,-1.44287839094584e-07,,6.38443313629844e-07,-6.75537161828165e-07,-1.28192946693179e-09,,4.98467143132092e-08,-9.18784521666141e-08,,,1.39432129728696e-07,,2.02728375620703e-07,3.93562924297923e-08,1.50569793887163e-08,3.93562924296409e-08,9.92827926339803e-07,2.06420426822613e-07,1.19924835316215e-06,-3.32813909114381e-07,2.48476917699467e-08,,1.75542085583744e-07,-1.75542085583417e-07,1.59597275127065e-07,2.0724910130067e-07,-2.26166816296513e-08,,,3.21461843651279e-08,3.08658254384416e-08,-4.98903072415589e-07,-7.33426156094401e-08,-7.33426156093072e-08,,,,,2.50692527153278e-07,2.38485985821809e-07,-5.96497000394856e-08,3.0345124694668e-07,3.03451246946319e-07,-8.16179303870925e-07,8.16179303870982e-07,-2.08630917645511e-07,0,0,0,0.307200000000194,102,960.674019607843,539.250980392157,1732.28431372549,957.509803921569,963.838235294118,535.493137254902,543.008823529412,1814.98039215686,1649.58823529412,0
2487.0912,-2.14929810472525e-07,4.25903684174132e-08,-1.72339442055324e-07,-4.44080814118207e-09,-1.68728124020003e-07,-1.68728124019642e-07,,5.21520861707128e-07,-7.68814906131505e-07,1.18873529239002e-08,,5.96549615272421e-08,-5.94062718748715e-08,,,1.59743253405704e-07,,2.25118708365585e-07,6.03428980584177e-08,1.68645897700853e-08,6.03428980582655e-08,9.8122322488176e-07,1.95423563338363e-07,1.17664678821986e-06,-3.50230968333607e-07,1.85499620599606e-08,,2.20784993605428e-07,-2.20784993605096e-07,1.55452795360196e-07,2.1666024205204e-07,-2.97812223354351e-08,,,2.95325869993224e-08,4.10437448305767e-08,-5.54538724450191e-07,-6.66045818249614e-08,-6.66045818248293e-08,,,,,2.5559792957525e-07,2.56779278429124e-07,-6.14503954440315e-08,3.26345243659223e-07,3.26345243658875e-07,-8.16226347447156e-07,8.16226347447221e-07,-2.22515574663416e-07,0,0,0,0.409599999999955,103,958.847087378641,539.57427184466,1740.75242718447,954.133009708738,963.561165048544,537.281553398058,541.866990291262,1821.45631067961,1660.04854368932,0
2487.1936,-2.16011404651041e-07,3.36348469608898e-08,-1.8237655769036e-07,-3.09072831721657e-08,-1.96476257853467e-07,-1.96476257853113e-07,,4.04406760496224e-07,-8.63986676562096e-07,2.60862380223631e-08,,7.0338787180811e-08,-2.66452745897104e-08,,,1.81350728435712e-07,,2.49251843830694e-07,8.25676895754959e-08,1.86273180903207e-08,8.25676895753433e-08,9.72974503492051e-07,1.82427784312885e-07,1.15540228780467e-06,-3.69444784000731e-07,1.12038725019352e-08,,2.62746525566114e-07,-2.62746525565774e-07,1.51567571711738e-07,2.23272650707903e-07,-3.67852502411819e-08,,,2.60522770941307e-08,5.06426087379538e-08,-6.1356697694049e-07,-6.00493834587421e-08,-6.00493834586097e-08,,,,,2.61106417074787e-07,2.75802525642429e-07,-6.18939422114284e-08,3.49678163604412e-07,3.49678163604078e-07,-8.18468400872821e-07,8.18468400872895e-07,-2.34881466976425e-07,0,0,0,0.512000000000171,102,952.990160368783,541.801876379691,1752.13118426178,944.803921568628,961.176399168939,538.587254901961,545.016497857421,1829.41176470588,1674.85060381769,0
2487.296,-2.13521278715676e-07,2.61772505177573e-08,-1.87344028198124e-07,-5.57718665939073e-08,-2.26035743588878e-07,-2.26035743588531e-07,,2.8998837398974e-07,-9.61496301925727e-07,4.06899934979296e-08,,8.15047931357391e-08,4.87665995584794e-09,,,2.03369001373343e-07,,2.74068084435788e-07,1.05154279743351e-07,2.0255898095692e-08,1.05154279743198e-07,9.69136872053738e-07,1.68607786207685e-07,1.13774465826115e-06,-3.90383198557505e-07,2.74867845363373e-09,,2.98942908728615e-07,-2.98942908728266e-07,1.47687863630104e-07,2.2682753775237e-07,-4.37466993793862e-08,,,2.14682591117014e-08,5.89567717256698e-08,-6.74437101013971e-07,-5.4270082424537e-08,-5.42700824244026e-08,,,,,2.66439713203426e-07,2.94287329518161e-07,-6.11816792889637e-08,3.71700041523152e-07,3.71700041522834e-07,-8.22825092530211e-07,8.22825092530294e-07,-2.45051805829078e-07,0,0,0,0.614399999999932,102,959.689539820003,582.617423374087,1704.7986924775,950.321794871795,969.057284768212,611.967628205128,553.267218543046,1742.85897435897,1666.73841059603,0.53921568627451
2487.3984,-2.07295487680929e-07,2.03625896501092e-08,-1.86932898031023e-07,-7.7418499379341e-08,-2.55508104874361e-07,-2.5550810487402e-07,,1.8097879831578e-07,-1.06118631029292e-06,5.50151873979475e-08,,9.26812626023309e-08,3.36931088305153e-08,,,2.24761094752815e-07,,2.98327009103901e-07,1.27098480765104e-07,2.16727421503822e-08,1.27098480764951e-07,9.70083117117057e-07,1.55082176753982e-07,1.12516529387077e-06,-4.12778878497316e-07,-6.76879604842085e-09,,3.27409092722061e-07,-3.27409092721702e-07,1.43591858837611e-07,2.2727722197565e-07,-5.08045379900188e-08,,,1.56716351366359e-08,6.53733967256783e-08,-7.35349916216869e-07,-4.97874312938571e-08,-4.97874312937199e-08,,,,,2.70903535292532e-07,3.10924764127736e-07,-5.92586487709468e-08,3.90785310966027e-07,3.90785310965723e-07,-8.2897381748793e-07,8.2897381748802e-07,-2.52457786836657e-07,0,0,0,0.716800000000148,103,964.527869715959,539.143751700142,1776.38497643294,957.550261389096,971.505478042821,534.704387602689,543.583115797595,1885.90664675131,1666.86330611458,0
2487.5008,-1.97542145034942e-07,1.61911972887573e-08,-1.81350947746386e-07,-9.44859374066527e-08,-2.82809408439525e-07,-2.82809408439192e-07,,7.98049881105744e-08,-1.16223247036874e-06,6.8385849786875e-08,,1.03362343092565e-07,5.8530634256184e-08,,,2.44432545367224e-07,,3.20724081306582e-07,1.47357458479872e-07,2.28162878287531e-08,1.47357458479718e-07,9.75377378805555e-07,1.42838476805916e-07,1.1182158556112e-06,-4.36176675192868e-07,-1.71844352532131e-08,,3.46830753868159e-07,-3.46830753867788e-07,1.39141722542698e-07,2.24810598329338e-07,-5.80902989563434e-08,,,8.69157368575379e-09,6.94256535310314e-08,-7.94422948086067e-07,-4.70040566510486e-08,-4.70040566509055e-08,,,,,2.73943965472925e-07,3.24501025621775e-07,-5.58035623747059e-08,4.05562185667569e-07,4.05562185667279e-07,-8.36480357997544e-07,8.3648035799764e-07,-2.56664057871415e-07,0,0,0,0.81919999999991,102,960.581862745098,538.183823529412,1773.49509803922,949.705882352941,971.457843137255,529.606862745098,546.760784313726,1872.38235294118,1674.60784313725,0
2487.6032,-1.84774948418175e-07,1.35451474153753e-08,-1.71229801002999e-07,-1.05948246717806e-07,-3.05923603250088e-07,-3.05923603249761e-07,,-1.16080076958432e-08,-1.26319086816307e-06,8.02237016029025e-08,,1.13089006054255e-07,7.84490746789698e-08,,,2.61381664434138e-07,,3.40064668139595e-07,1.6499414240954e-07,2.36509195294406e-08,1.64994142409386e-07,9.83881327056546e-07,1.32688038348818e-07,1.11656936540509e-06,-4.59975123734771e-07,-2.82296476426435e-08,,3.56674964155142e-07,-3.5667496415476e-07,1.3430640315857e-07,2.19847898941639e-07,-6.57057406627307e-08,,,6.79343263385559e-10,7.08353247040447e-08,-8.49882911820462e-07,-4.61638462230488e-08,-4.61638462229012e-08,,,,,2.75177410921699e-07,3.34049962828068e-07,-5.02759753141211e-08,4.1504008832628e-07,4.15040088326003e-07,-8.44878129842585e-07,8.44878129842685e-07,-2.5742200898123e-07,0,0,0,0.921600000000126,102,957.652450980392,534.366666666667,1799.61764705882,944.722549019608,970.582352941176,524.054901960784,544.678431372549,1890.91176470588,1708.32352941176,0
2487.7056,-1.69665389101456e-07,1.22477149979455e-08,-1.5741767410371e-07,-1.11168207382243e-07,-3.23133848039593e-07,-3.23133848039272e-07,,-9.20938823810568e-08,-1.3622103129558e-06,9.01307084682064e-08,,1.21533461026547e-07,9.29505910329174e-08,,,2.74857333119497e-07,,3.55442831002658e-07,1.79327255804407e-07,2.41757475805375e-08,1.79327255804252e-07,9.94047781055961e-07,1.25232885530985e-07,1.11928066658667e-06,-4.83493050760506e-07,-3.95581702222595e-08,,3.5725055338942e-07,-3.57250553389024e-07,1.29151287969319e-07,2.12998139495475e-07,-7.3698688358574e-08,,,-8.12380825503803e-09,6.95404597304076e-08,-9.0025042208585e-07,-4.73295092487747e-08,-4.73295092486219e-08,,,,,2.74405932694977e-07,3.38988089693409e-07,-4.20183143905018e-08,4.18711752563733e-07,4.18711752563469e-07,-8.53701491383101e-07,8.53701491383204e-07,-2.5474543672764e-07,0,0,0,1.02399999999989,103,956.65145631068,535.154854368932,1836.6213592233,941.981553398058,971.321359223301,522.792233009709,547.517475728155,1933.20388349515,1740.03883495146,0
2487.808,-1.52902149266044e-07,1.2123934912688e-08,-1.40778214353557e-07,-1.09888756572558e-07,-3.33191566025789e-07,-3.33191566025475e-07,,-1.61504893682426e-07,-1.45745636471926e-06,9.79280301968922e-08,,1.28545367767129e-07,1.02012448602146e-07,,,2.84458826259791e-07,,3.66354623103167e-07,1.90021230754536e-07,2.44264582117207e-08,1.9002123075438e-07,1.0042497735562e-06,1.20845097266899e-07,1.12509487082281e-06,-5.06043361969386e-07,-5.0777928262015e-08,,3.49628153449441e-07,-3.49628153449031e-07,1.23804215509522e-07,2.04980645463968e-07,-8.20330970456263e-08,,,-1.7423819943433e-08,6.56962757479712e-08,-9.4447094463521e-07,-5.03931850837423e-08,-5.03931850835858e-08,,,,,2.71602759313851e-07,3.3917633159359e-07,-3.04029732628661e-08,4.16569230878246e-07,4.16569230877993e-07,-8.62506453145155e-07,8.62506453145259e-07,-2.48964314288187e-07,0,0,0,1.1264000000001,102,955.250980392157,530.93431372549,1866.5931372549,938.038235294118,972.463725490196,518.141176470588,543.727450980392,1968.97058823529,1764.21568627451,0
2487.9104,-1.3512211782132e-07,1.30316448623173e-08,-1.22090472959206e-07,-1.0215194740562e-07,-3.35419307376292e-07,-3.35419307375983e-07,,-2.20927516634936e-07,-1.54774002019923e-06,1.03635857702333e-07,,1.34140104189806e-07,1.06024203506365e-07,,,2.90137916628936e-07,,3.72704503078037e-07,1.97078203119296e-07,2.44686147156941e-08,1.97078203119139e-07,1.01298722722803e-06,1.19659357700437e-07,1.13264658492818e-06,-5.26992223413282e-07,-6.14845836834683e-08,,3.35413784314321e-07,-3.35413784313898e-07,1.18420967503852e-07,1.9651972265664e-07,-9.05587371290687e-08,,,-2.69084993182609e-08,5.9639956604893e-08,-9.81957385862465e-07,-5.51208400653546e-08,-5.51208400651952e-08,,,,,2.66849993911868e-07,3.34872971948743e-07,-1.49962030805806e-08,4.0899744879202e-07,4.08997448791777e-07,-8.70913092264675e-07,8.70913092264779e-07,-2.40712133928633e-07,0,1,0,1.22880000000032,103,958.515533980582,536.959223300971,1867.19417475728,939.911650485437,977.119417475728,522.75145631068,551.166990291262,1975.63106796117,1758.7572815534,0
2488.0128,-1.16913399105792e-07,1.48541521965707e-08,-1.02059246909426e-07,-8.81920684745668e-08,-3.29747367765144e-07,-3.2974736776484e-07,,-2.72710351017798e-07,-1.63317430254133e-06,1.07405896840791e-07,,1.38439167761739e-07,1.05649762864821e-07,,,2.92104930975987e-07,,3.74709898786007e-07,2.00739226200294e-07,2.43835625416092e-08,2.00739226200136e-07,1.01890148311022e-06,1.21564533017181e-07,1.14046601612712e-06,-5.45789002138361e-07,-7.12945681352109e-08,,3.16440334892998e-07,-3.16440334892561e-07,1.13173373188821e-07,1.88226727389846e-07,-9.89844844828491e-08,,,-3.6275315255912e-08,5.18244000802103e-08,-1.01254106181714e-06,-6.12124864685135e-08,-6.12124864683517e-08,,,,,2.60244906879269e-07,3.26595097423569e-07,4.29088984325821e-09,3.96586338822806e-07,3.96586338822572e-07,-8.78674482824673e-07,8.78674482824776e-07,-2.30845393618981e-07,0,1,0,1.33120000000008,102,957.810294117647,534.446568627451,1880.67647058824,934.43431372549,981.186274509804,522.86568627451,546.027450980392,1992.13725490196,1769.21568627451,0
2488.1152,-9.88492684941137e-08,1.74670783837404e-08,-8.13821901105803e-08,-6.83708142634646e-08,-3.16667789043872e-07,-3.16667789043573e-07,,-3.20147245318497e-07,-1.71552754960111e-06,1.09436440012577e-07,,1.41591240945458e-07,1.01664520572676e-07,,,2.90677424125756e-07,,3.72745133389617e-07,2.01337837503184e-07,2.42492117978814e-08,2.01337837503024e-07,1.02064372597948e-06,1.26182327385981e-07,1.14682605336517e-06,-5.61967955862114e-07,-7.98723336572014e-08,,2.94466548824332e-07,-2.94466548823883e-07,1.08265533701974e-07,1.8049541214303e-07,-1.06860558044943e-07,,,-4.52506791897583e-08,4.27403787397029e-08,-1.03635630425512e-06,-6.83569810509652e-08,-6.83569810508035e-08,,,,,2.51819876113584e-07,3.14948376516384e-07,2.70915673976394e-08,3.79957752855138e-07,3.79957752854911e-07,-8.85745007535008e-07,8.85745007535111e-07,-2.20332147028511e-07,0,1,0,1.4336000000003,103,959.394660194175,537.333980582524,1865,935.06213592233,983.727184466019,529.972815533981,544.695145631068,1972.78640776699,1757.21359223301,0
2488.2176,-8.15159647719212e-08,2.07035557643946e-08,-6.08124090077363e-08,-4.31724308014022e-08,-2.97105117336251e-07,-2.97105117335957e-07,,-3.66881420774061e-07,-1.79802978644565e-06,1.09903179079583e-07,,1.43705582227515e-07,9.48218804193763e-08,,,2.86132634357657e-07,,3.67184123320489e-07,1.99164586927477e-07,2.41208913255801e-08,1.99164586927316e-07,1.01672072879638e-06,1.3285282168009e-07,1.14957355047618e-06,-5.751375929804e-07,-8.69487162752832e-08,,2.70960681221409e-07,-2.70960681220948e-07,1.03965229216378e-07,1.73449602600165e-07,-1.13592183846787e-07,,,-5.36039666883132e-08,3.28484857805653e-08,-1.05370341181555e-06,-7.62716882874308e-08,-7.6271688287267e-08,,,,,2.41505765241845e-07,3.00489457934987e-07,5.25532866246651e-08,3.5968339231972e-07,3.596833923195e-07,-8.92319530862021e-07,8.92319530862124e-07,-2.10152961034264e-07,0,0,0,1.53600000000006,102,959.636764705882,543.396078431373,1852.61274509804,938.010784313725,981.262745098039,534.163725490196,552.628431372549,1960.35294117647,1744.87254901961,0
2488.32,-6.55155554976964e-08,2.43380183293138e-08,-4.11775371685951e-08,-1.32259075585538e-08,-2.72254653520289e-07,-2.72254653519998e-07,,-4.16306692367763e-07,-1.88467521612423e-06,1.08929665930097e-07,,1.44821347741451e-07,8.57853006259323e-08,,,2.78621419936853e-07,,3.58298186719994e-07,1.94394181107332e-07,2.40199079073216e-08,1.9439418110717e-07,1.00543680031615e-06,1.40666986127232e-07,1.14610378644309e-06,-5.84977694261536e-07,-9.23353210507666e-08,,2.47011781741827e-07,-2.47011781741357e-07,1.00630965917151e-07,1.66967739228576e-07,-1.18512032858587e-07,,,-6.11615737092089e-08,2.25328004766768e-08,-1.06494107972419e-06,-8.47255136664031e-08,-8.47255136662381e-08,,,,,2.29135773048612e-07,2.83657302549105e-07,7.94229563755822e-08,3.36299992621396e-07,3.36299992621183e-07,-8.98829650637327e-07,8.98829650637429e-07,-2.01231410040819e-07,0,0,0,1.63840000000027,102,960.516176470588,539.35931372549,1844.28431372549,937.506862745098,983.525490196078,533.342156862745,545.376470588235,1952.90196078431,1735.66666666667,0
2488.4224,-5.14298994414989e-08,2.80926620573495e-08,-2.33372373843649e-08,2.06786587567708e-08,-2.43465418025017e-07,-2.43465418024728e-07,,-4.71170723907737e-07,-1.97934387584157e-06,1.06605114215088e-07,,1.44922682406135e-07,7.5135250308635e-08,,,2.68172925499858e-07,,3.46239257060973e-07,1.87101905059426e-07,2.39349965832702e-08,1.87101905059263e-07,9.84982041201619e-07,1.48561539620296e-07,1.13354358082163e-06,-5.91253140343272e-07,-9.59441014371563e-08,,2.23359275665157e-07,-2.23359275664679e-07,9.87152401554069e-08,1.60762990241289e-07,-1.21008796855858e-07,,,-6.78211152360729e-08,1.20772708008467e-08,-1.07044003938536e-06,-9.35450225595828e-08,-9.35450225594166e-08,,,,,2.1447429917212e-07,2.64771637785846e-07,1.06229501086848e-07,3.10367480000179e-07,3.10367479999971e-07,-9.05887377753034e-07,9.05887377753135e-07,-1.94376963780551e-07,0,0,0,1.74080000000004,103,962.784466019417,538.412621359223,1810.44174757282,943.032038834951,982.536893203884,536.741747572816,540.083495145631,1912.16504854369,1708.71844660194,0
2488.5248,-3.97380886771207e-08,3.1659919425246e-08,-8.07816925209356e-09,5.75919099390619e-08,-2.12197662800176e-07,-2.12197662799889e-07,,-5.33365162688403e-07,-2.0851195917173e-06,1.03036268838693e-07,,1.43990917407347e-07,6.3430228830194e-08,,,2.5477888954374e-07,,3.31100747694468e-07,1.7735622637474e-07,2.38355624814766e-08,1.77356226374576e-07,9.53650198542055e-07,1.5545471191797e-07,1.10910491045975e-06,-5.93840095158473e-07,-9.78117625165968e-08,,2.00486415011637e-07,-2.00486415011153e-07,9.87261025067861e-08,1.54471232140899e-07,-1.20667261347192e-07,,,-7.35579528282919e-08,1.66299819327095e-09,-1.07059725962497e-06,-1.0260381979863e-07,-1.02603819798463e-07,,,,,1.97266567036088e-07,2.44075998414941e-07,1.31483919107046e-07,2.82513031897248e-07,2.82513031897046e-07,-9.14171798266381e-07,9.1417179826648e-07,-1.90228327086559e-07,0,0,0,1.84320000000025,102,960.798039215686,541.639215686275,1749.42156862745,943.71862745098,977.877450980392,542.375490196078,540.902941176471,1848.90196078431,1649.94117647059,0
2488.6272,-3.07095040698191e-08,3.4736649229247e-08,4.02714515920524e-09,9.64174987213582e-08,-1.80003072183271e-07,-1.80003072182985e-07,,-6.0377228448923e-07,-2.20391490079955e-06,9.84029117053329e-08,,1.42067013248405e-07,5.12767902047769e-08,,,2.38512758984366e-07,,3.13019865629491e-07,1.65336844618109e-07,2.36900291555904e-08,1.65336844617944e-07,9.10139234191581e-07,1.60386243365562e-07,1.07052547755687e-06,-5.92756452291659e-07,-9.81104025717987e-08,,1.78725553954172e-07,-1.78725553953685e-07,1.01137552798676e-07,1.47726967876631e-07,-1.17358975704961e-07,,,-7.84127766147658e-08,-8.60966609428559e-09,-1.06589201186287e-06,-1.1179749026863e-07,-1.11797490268462e-07,,,,,1.77324802290195e-07,2.21811285692484e-07,1.53826458089861e-07,2.53460067447757e-07,2.53460067447559e-07,-9.242714234499e-07,9.24271423449997e-07,-1.89218817304161e-07,0,0,0,1.94560000000001,103,957.854854368932,545.170873786408,1699.48058252427,945.371844660194,970.33786407767,547.166990291262,543.174757281553,1796.61165048544,1602.34951456311,0
2488.7296,-2.43253919590509e-08,3.70678408944598e-08,1.27424489351826e-08,1.35918515867629e-07,-1.48458184523147e-07,-1.48458184522861e-07,,-6.82101686328483e-07,-2.33622435920506e-06,9.29866569451377e-08,,1.39292565623335e-07,3.9362581703447e-08,,,2.19628824102976e-07,,2.92277018790119e-07,1.51418789519828e-07,2.34822375502869e-08,1.51418789519661e-07,8.53876842930459e-07,1.62624448127859e-07,1.01650129105805e-06,-5.88189524685096e-07,-9.71227967043472e-08,,1.58363611410733e-07,-1.58363611410244e-07,1.0625869597606e-07,1.40243276330865e-07,-1.11247852558868e-07,,,-8.24554618905393e-08,-1.86716879912977e-08,-1.05695992401059e-06,-1.21012371249343e-07,-1.21012371249175e-07,,,,,1.54658830478335e-07,1.98312553044432e-07,1.72126570050761e-07,2.24075727330631e-07,2.24075727330437e-07,-9.3651098851156e-07,9.36510988511654e-07,-1.91579987339775e-07,0,0,0,2.04800000000023,102,955.842156862745,545.298529411765,1673.17156862745,946.48431372549,965.2,549.435294117647,541.161764705882,1767.1862745098,1579.1568627451,0
2488.832,-2.02744863044566e-08,3.84896095683138e-08,1.82151232636274e-08,1.74725816115944e-07,-1.19047733624189e-07,-1.19047733623902e-07,,-7.66787648582816e-07,-2.48084960896695e-06,8.71585368401208e-08,,1.35909708768261e-07,2.84276962298033e-08,,,1.98600745395933e-07,,2.69354274009486e-07,1.36184276645924e-07,2.32225932245802e-08,1.36184276645756e-07,7.85299451632067e-07,1.61718270896987e-07,9.47017722528785e-07,-5.80512301919988e-07,-9.51828818371451e-08,,1.39750770578252e-07,-1.39750770577765e-07,1.14095971472546e-07,1.31901689280173e-07,-1.02724219477501e-07,,,-8.57363315788991e-08,-2.84240056432524e-08,-1.04465466808626e-06,-1.30102055773545e-07,-1.30102055773377e-07,,,,,1.29614615612856e-07,1.74100921286111e-07,1.85578879170511e-07,1.95426843615803e-07,1.95426843615613e-07,-9.50804419313027e-07,9.50804419313119e-07,-1.97355324090226e-07,0,0,0,2.15039999999999,102,957.123529411765,542.799509803922,1660.66176470588,951.394117647059,962.852941176471,551.806862745098,533.792156862745,1752.35294117647,1568.97058823529,0
2488.9344,-1.80288917715427e-08,3.8956261893233e-08,2.09273701214572e-08,2.11383446503451e-07,-9.30455501243105e-08,-9.30455501240215e-08,,-8.55073354740791e-07,-2.63462514950704e-06,8.13277380502578e-08,,1.3221754377944e-07,1.91756917140497e-08,,,1.76084827007318e-07,,2.44929782398497e-07,1.20353503332233e-07,2.29518176105647e-08,1.20353503332064e-07,7.060014316146e-07,1.57505942329378e-07,8.63507373943712e-07,-5.70279065907134e-07,-9.26059650260859e-08,,1.23383375034996e-07,-1.23383375034512e-07,1.24262340541224e-07,1.22825930472921e-07,-9.23159075582719e-08,,,-8.82478876806389e-08,-3.76960088967312e-08,-1.03006551166856e-06,-1.38882509170688e-07,-1.38882509170521e-07,,,,,1.0295841532797e-07,1.49924850260716e-07,1.93807800876004e-07,1.68784685722752e-07,1.68784685722564e-07,-9.66591192231385e-07,9.66591192231473e-07,-2.0638060157454e-07,0,0,0,2.25280000000021,103,957.582038834951,540.812621359223,1664.54854368932,952.047572815534,963.116504854369,547.238834951456,534.38640776699,1755.76699029126,1573.33009708738,0
2489.0368,-1.69716606484253e-08,3.85439851612563e-08,2.15723245125949e-08,2.44451211818274e-07,-7.14174652949439e-08,-7.14174652946527e-08,,-9.43328857181619e-07,-2.79225547118426e-06,7.58654195086488e-08,,1.28497246816243e-07,1.21486978507127e-08,,,1.52821619753411e-07,,2.1980686024145e-07,1.04653449514472e-07,2.27335149819148e-08,1.04653449514301e-07,6.18681167975605e-07,1.50109694808062e-07,7.68790862783404e-07,-5.5819429586842e-07,-8.9634577025255e-08,,1.09912429284774e-07,-1.09912429284294e-07,1.35985982725878e-07,1.13407645086454e-07,-8.06188407193683e-08,,,-8.99147118533046e-08,-4.62471710836938e-08,-1.01447111042856e-06,-1.47146073232297e-07,-1.47146073232134e-07,,,,,7.5864574124021e-08,1.26722473378292e-07,1.96955568951818e-07,1.45543028332298e-07,1.45543028332113e-07,-9.82908559533072e-07,9.82908559533157e-07,-2.18228485233233e-07,0,0,0,2.35519999999997,102,956.359803921569,545.212254901961,1670.76470588235,951.617647058823,961.101960784314,546.764705882353,543.659803921569,1758.45098039216,1583.07843137255,0
2489.1392,-1.65339191404754e-08,3.74295758228835e-08,2.08956566821701e-08,2.72645652616761e-07,-5.47432414004896e-08,-5.47432414001957e-08,,-1.02752668442011e-06,-2.94638265775948e-06,7.10279774538817e-08,,1.24930621946336e-07,7.61110300044917e-09,,,1.2951086604287e-07,,1.94798566675037e-07,8.96684995904858e-08,2.26338847677231e-08,8.96684995903141e-08,5.26850741404617e-07,1.39917119531736e-07,6.66767860936091e-07,-5.45052882202778e-07,-8.64111533035373e-08,,1.00058707795964e-07,-1.00058707795491e-07,1.48238688130978e-07,1.04266756039817e-07,-6.825588389408e-08,,,-9.06137732571292e-08,-5.38084357076057e-08,-9.9922649498981e-07,-1.54683651098445e-07,-1.54683651098285e-07,,,,,4.97992934139951e-08,1.05511338701538e-07,1.95711735494744e-07,1.27071510428049e-07,1.27071510427867e-07,-9.98604905712418e-07,9.98604905712501e-07,-2.32166511680654e-07,0,1,0,2.45760000000018,102,957.541176470588,546.120588235294,1674.78921568627,953.162745098039,961.919607843137,544.11568627451,548.125490196078,1758.12745098039,1591.45098039216,0
2489.2416,-1.63065506243637e-08,3.58418490167642e-08,1.95352983921617e-08,2.94983716262985e-07,-4.31788398068758e-08,-4.31788398065786e-08,,-1.10375252127599e-06,-3.08798727090366e-06,6.69089762576798e-08,,1.21542617513647e-07,5.49000576113941e-09,,,1.06701502018937e-07,,1.70603098306375e-07,7.57265940076065e-08,2.26931290456948e-08,7.57265940074337e-08,4.34345874654354e-07,1.27514147239623e-07,5.61860021893715e-07,-5.316571184457e-07,-8.29789833729107e-08,,9.44556933716504e-08,-9.44556933711849e-08,1.59960378187445e-07,9.61455515936817e-08,-5.58557943590749e-08,,,-9.02169280693971e-08,-6.01423469402641e-08,-9.85599003949935e-07,-1.61298940760695e-07,-1.61298940760536e-07,,,,,2.63225860832134e-08,8.72351353035839e-08,1.91256292700772e-07,1.14541332437961e-07,1.14541332437781e-07,-1.01264152157878e-06,1.01264152157886e-06,-2.47178543630269e-07,0,1,0,2.55999999999995,103,960.27572815534,543.840291262136,1674.87378640777,957.044660194175,963.506796116505,543.643689320388,544.036893203884,1753.81553398058,1595.93203883495,0
2489.344,-1.61090923652892e-08,3.39928101035536e-08,1.78837177380253e-08,3.10895823918643e-07,-3.64986825752094e-08,-3.64986825749091e-08,,-1.16864012145587e-06,-3.2070940259893e-06,6.34377672096011e-08,,1.18189580970539e-07,5.39526664290816e-09,,,8.47312617482303e-08,,1.47710378303598e-07,6.28595604144095e-08,2.28980988444475e-08,6.28595604142357e-08,3.44762505066044e-07,1.13560995574444e-07,4.58323500640228e-07,-5.18729976487926e-07,-7.93106572985749e-08,,9.34648077552312e-08,-9.3464807754774e-08,1.7032243653859e-07,8.97638143593344e-08,-4.40564936828988e-08,,,-8.86419641651354e-08,-6.51013285524814e-08,-9.74599246199263e-07,-1.66803356422479e-07,-1.66803356422321e-07,,,,,6.86372829450496e-09,7.26080962376531e-08,1.85127761661712e-07,1.08747915148639e-07,1.08747915148461e-07,-1.02440371759084e-06,1.02440371759092e-06,-2.62051044228923e-07,0,1,0,2.66240000000016,102,958.942647058824,536.26568627451,1684.12745098039,958.471568627451,959.413725490196,541.43137254902,531.1,1761.62745098039,1606.62745098039,0
2489.4464,-1.60087446713682e-08,3.20153664276702e-08,1.60066217560639e-08,3.20280716384318e-07,-3.4215338520877e-08,-3.42153385205737e-08,,-1.2196341491187e-06,-3.29359721415242e-06,6.04209863550666e-08,,1.14596742707697e-07,6.70519170358338e-09,,,6.37327124034007e-08,,1.26372106672474e-07,5.08443158203801e-08,2.3166803292419e-08,5.08443158202055e-08,2.61000908491471e-07,9.86676007253243e-08,3.59668509216534e-07,-5.06854651970477e-07,-7.53564301279876e-08,,9.70202229099313e-08,-9.70202229094823e-08,1.78948086960826e-07,8.56893392795925e-08,-3.35368926885197e-08,,,-8.58939105694078e-08,-6.86682331166038e-08,-9.66877590799163e-07,-1.70994768331336e-07,-1.70994768331181e-07,,,,,-7.45563757117506e-09,6.20026131597585e-08,1.79046269313945e-07,1.09963505035588e-07,1.09963505035412e-07,-1.03394180343286e-06,1.03394180343294e-06,-2.75490254081626e-07,0,0,0,2.76479999999992,103,947.497087378641,533.200485436893,1685.86893203884,949.349514563107,945.644660194175,536.466019417476,529.934951456311,1759.85436893204,1611.88349514563,0
2489.5488,-1.62864054478143e-08,2.99402237285941e-08,1.36538182805429e-08,3.23498023445447e-07,-3.57212581762452e-08,-3.57212581759384e-08,,-1.25506371199718e-06,-3.33810403285753e-06,5.76069851487122e-08,,1.10431169245993e-07,8.68415910201119e-09,,,4.36950814890159e-08,,1.0663866177729e-07,3.93004912771205e-08,2.33520587833038e-08,3.9300491276945e-08,1.85040738733722e-07,8.3330970250164e-08,2.68371708983623e-07,-4.96457674242701e-07,-7.1093761783377e-08,,1.04550731002145e-07,-1.04550731001703e-07,1.86007358792284e-07,8.42642406309008e-08,-2.50471140615304e-08,,,-8.20811421012176e-08,-7.09675865325429e-08,-9.62730519957112e-07,-1.73637790492505e-07,-1.7363779049235e-07,,,,,-1.59060941311283e-08,5.54114054219711e-08,1.74706040996151e-07,1.17858321113345e-07,1.17858321113171e-07,-1.04206937844206e-06,1.04206937844214e-06,-2.86247276947708e-07,0,0,0,2.86720000000014,102,948.254901960784,536.753431372549,1688.49019607843,953.01862745098,943.491176470588,532.910784313726,540.596078431373,1766.26470588235,1610.71568627451,0
2489.6512,-1.73599312772736e-08,2.77231363733198e-08,1.03632050958103e-08,3.21327248967655e-07,-4.04017956907275e-08,-4.04017956904166e-08,,-1.27413318619705e-06,-3.33293507567009e-06,5.4749732410709e-08,,1.05385447007745e-07,1.05995874191731e-08,,,2.45448664969532e-08,,8.84306089309098e-08,2.78042443872406e-08,2.32646245967537e-08,2.78042443870646e-08,1.17926352594253e-07,6.7929832685338e-08,1.85856185279326e-07,-4.8781938581252e-07,-6.655604458045e-08,,1.14997423713586e-07,-1.14997423713151e-07,1.9214902739147e-07,8.55837312803668e-08,-1.93820371854926e-08,,,-7.74029695443545e-08,-7.22452794933443e-08,-9.62185668134808e-07,-1.74466016228228e-07,-1.74466016228074e-07,,,,,-1.81564897573251e-08,5.24799764932576e-08,1.73545184204711e-07,1.31501477457573e-07,1.31501477457399e-07,-1.0502697502721e-06,1.05026975027219e-06,-2.93248297752864e-07,0,0,0,2.9695999999999,103,951.211650485437,536.51213592233,1691.54368932039,957.135922330097,945.287378640777,535.954368932039,537.069902912621,1770.81553398058,1612.27184466019,0
2489.7536,-1.96918856736861e-08,2.53035405527568e-08,5.61165487883533e-09,3.14922356642928e-07,-4.77068582001204e-08,-4.77068581998056e-08,,-1.2769378006621e-06,-3.27338702721577e-06,5.16548354445971e-08,,9.92463460018619e-08,1.18140086681819e-08,,,6.20389178808472e-09,,7.16025839004019e-08,1.59817263605363e-08,2.27090873657997e-08,1.59817263603597e-08,5.98539025703275e-08,5.27269214982658e-08,1.12580824068324e-07,-4.81078241827557e-07,-6.18286201524028e-08,,1.26928347994055e-07,-1.26928347993625e-07,1.98299963715911e-07,8.95029313602031e-08,-1.72708976726185e-08,,,-7.21162544095086e-08,-7.2825339592815e-08,-9.65086553637288e-07,-1.73214885581336e-07,-1.73214885581184e-07,,,,,-1.42410915481854e-08,5.25797560769684e-08,1.7652800878795e-07,1.49429110977635e-07,1.49429110977459e-07,-1.06041694467331e-06,1.0604169446734e-06,-2.95720399556216e-07,0,0,0,3.07200000000012,102,968.164705882353,543.351470588235,1656.5637254902,979.163725490196,957.16568627451,539.682352941177,547.020588235294,1735.20588235294,1577.92156862745,0
2489.856,-2.37088822640997e-08,2.26644280196201e-08,-1.04445424471428e-09,3.05761499619482e-07,-5.71810571550272e-08,-5.71810571547082e-08,,-1.26446538846753e-06,-3.1590066246892e-06,4.82006845176337e-08,,9.19326739711843e-08,1.18384471491004e-08,,,-1.13948037280645e-08,,5.59779469051871e-08,3.56113388488324e-09,2.15214378672787e-08,3.56113388470606e-09,1.02812889733993e-08,3.78529319799904e-08,4.81342209531137e-08,-4.76214063438811e-07,-5.70176633237518e-08,,1.38730690489916e-07,-1.38730690489488e-07,2.05410608194315e-07,9.56578340944937e-08,-1.92141008754165e-08,,,-6.64934055814828e-08,-7.30585907752816e-08,-9.71123046218633e-07,-1.69676417295077e-07,-1.69676417294926e-07,,,,,-4.51060925731444e-09,5.48956767090673e-08,1.83998861973471e-07,1.69767280100627e-07,1.69767280100447e-07,-1.07438654099527e-06,1.07438654099536e-06,-2.93286351025203e-07,0,0,0,3.17440000000033,102,967.911764705882,543.05637254902,1592.19117647059,981.697058823529,954.126470588235,536.980392156863,549.132352941177,1667.04901960784,1517.33333333333,0
2489.9584,-2.97410884094492e-08,1.98707294818169e-08,-9.87035892786698e-09,2.95566945047463e-07,-6.84496705564428e-08,-6.8449670556119e-08,,-1.23844311038574e-06,-2.99439834181721e-06,4.43377589852866e-08,,8.35012651307904e-08,1.03488784444394e-08,,,-2.83255438384643e-08,,4.13575662687319e-08,-9.61857250219108e-09,1.95972936912327e-08,-9.6185725023689e-09,-3.19568906757756e-08,2.32807110662787e-08,-8.67617960978019e-09,-4.73021933577714e-07,-5.22112564857963e-08,,1.48822303855696e-07,-1.48822303855268e-07,2.14234654948989e-07,1.03500848658344e-07,-2.53354072638845e-08,,,-6.07855036163802e-08,-7.32781275398007e-08,-9.79803325452731e-07,-1.63755837802455e-07,-1.63755837802308e-07,,,,,1.04287157901181e-08,5.85138213830329e-08,1.95640994400792e-07,1.9039641847394e-07,1.90396418473753e-07,-1.09366440964349e-06,1.09366440964359e-06,-2.86007333732224e-07,0,0,0,3.27680000000009,103,968.099029126214,546.160679611651,1546.59708737864,983.373786407767,952.82427184466,534.763106796117,557.558252427184,1622.4854368932,1470.70873786408,0
2490.0608,-3.79743701519443e-08,1.70718923544683e-08,-2.09024777977116e-08,2.86168889622062e-07,-8.11758159225296e-08,-8.11758159222e-08,,-1.20097912133806e-06,-2.78920924858721e-06,4.00765638897407e-08,,7.41315553085763e-08,7.18255887837619e-09,,,-4.4698640260953e-08,,2.75192487896773e-08,-2.36252822794983e-08,1.69049241990513e-08,-2.36252822796765e-08,-6.85175285206062e-08,8.80300995334049e-09,-5.97145185675569e-08,-4.71097032633477e-07,-4.74539744123894e-08,,1.5581665930643e-07,-1.55816659305999e-07,2.25202298810517e-07,1.12352973481191e-07,-3.53099373777207e-08,,,-5.52014309715355e-08,-7.37710918475247e-08,-9.90392172478945e-07,-1.555129095505e-07,-1.55512909550353e-07,,,,,2.97826750798472e-08,6.2499939697192e-08,2.10525250035761e-07,2.09138865034157e-07,2.09138865033963e-07,-1.1190423590581e-06,1.11904235905821e-06,-2.74375852233145e-07,0,0,0,3.37920000000031,102,969.83431372549,545.829901960784,1545.17156862745,984.159803921569,955.508823529412,528.093137254902,563.566666666667,1626.20588235294,1464.13725490196,0
2490.1632,-4.84060672039669e-08,1.44640855123442e-08,-3.39419816918596e-08,2.79316396650199e-07,-9.50252484318102e-08,-9.50252484314739e-08,,-1.15414713746891e-06,-2.55719643026146e-06,3.54783242908036e-08,,6.41041931699563e-08,2.33556199132596e-09,,,-6.06683614197656e-08,,1.42284201495494e-08,-3.84490084122707e-08,1.34847266927908e-08,-3.84490084124493e-08,-1.01377939548116e-07,-5.9689846797097e-09,-1.07346924228125e-07,-4.69847042887723e-07,-4.27482892849991e-08,,1.58625751482207e-07,-1.58625751481773e-07,2.38398813119948e-07,1.21467432451677e-07,-4.83948619200878e-08,,,-4.99067401628498e-08,-7.47685456431488e-08,-1.00185298651524e-06,-1.45181557603568e-07,-1.45181557603425e-07,,,,,5.26246639082119e-08,6.59626311555807e-08,2.2722811876584e-07,2.23946199099491e-07,2.23946199099287e-07,-1.15044619548418e-06,1.15044619548428e-06,-2.59267811620955e-07,0,0,0,3.48160000000007,103,968.048058252427,546.285436893204,1567.32038834951,983.072815533981,953.023300970874,522.660194174757,569.910679611651,1650.52427184466,1484.11650485437,0
2490.2656,-6.08015296652751e-08,1.22267419940612e-08,-4.85747876714536e-08,2.76476089881337e-07,-1.09665822718524e-07,-1.0966582271818e-07,,-1.09971376165087e-06,-2.31449509971206e-06,3.06608990129104e-08,,5.3787679803757e-08,-4.02161516248049e-09,,,-7.63942254434669e-08,,1.27776390540057e-09,-5.39887243053366e-08,9.44152922014314e-09,-5.39887243055153e-08,-1.32601261186403e-07,-2.15557695641718e-08,-1.54157030750882e-07,-4.68541391364122e-07,-3.80837208227866e-08,,1.56545401810622e-07,-1.56545401810183e-07,2.53621771776793e-07,1.30104160886654e-07,-6.35619035643876e-08,,,-4.50357675366934e-08,-7.64471327610228e-08,-1.01283446773149e-06,-1.33166751263248e-07,-1.33166751263106e-07,,,,,7.79163254492807e-08,6.81027812010048e-08,2.44033442710998e-07,2.33063962075861e-07,2.33063962075645e-07,-1.18689564555641e-06,1.18689564555652e-06,-2.41850988147023e-07,0,0,0,3.58400000000029,102,966.616176470588,539.770588235294,1625.52450980392,977.205882352941,956.026470588235,516.762745098039,562.778431372549,1713.87254901961,1537.17647058824,0
2490.368,-7.46590213644628e-08,1.04652923686312e-08,-6.41937289960748e-08,2.7866427404947e-07,-1.24794296600853e-07,-1.247942966005e-07,,-1.03902913173591e-06,-2.07737990079239e-06,2.58214889674796e-08,,4.36364909616274e-08,-1.1507501725562e-08,,,-9.19528091156662e-08,,-1.14417353954908e-08,-7.00043744169857e-08,4.93518989899617e-09,-7.00043744171647e-08,-1.64030307059363e-07,-3.84938642392857e-08,-2.02524171298963e-07,-4.6639435204062e-07,-3.34793828166695e-08,,1.49373164652627e-07,-1.49373164652183e-07,2.70472700022825e-07,1.37628980794525e-07,-7.97059054572521e-08,,,-4.07010869521612e-08,-7.89289933987991e-08,-1.02173417083183e-06,-1.20018177425557e-07,-1.2001817742542e-07,,,,,1.04497846859408e-07,6.82638605351602e-08,2.59231158883444e-07,2.3517412245996e-07,2.35174122459731e-07,-1.22656601508557e-06,1.22656601508568e-06,-2.23454705104576e-07,0,1,0,3.68640000000005,102,968.34362745098,549.193137254902,1664.77450980392,974.120588235294,962.566666666667,521.946078431373,576.440196078431,1756.75490196078,1572.79411764706,0
2490.4704,-8.92105164356238e-08,9.18999640498176e-09,-8.00205200308889e-08,2.86346810537041e-07,-1.40160788391325e-07,-1.40160788390963e-07,,-9.72947129340405e-07,-1.86000921760669e-06,2.12577688899797e-08,,3.41849210084659e-08,-1.94980728229929e-08,,,-1.072359382484e-07,,-2.38643178373591e-08,-8.60606529011848e-08,1.6896482619442e-10,-8.60606529013637e-08,-1.96958977084482e-07,-5.71913651324646e-08,-2.54150342217266e-07,-4.62663381607067e-07,-2.90127083311796e-08,,1.37541548850174e-07,-1.37541548849725e-07,2.8844272003303e-07,1.43636781261588e-07,-9.58659625747881e-08,,,-3.69874041311965e-08,-8.22687263042245e-08,-1.02684413839009e-06,-1.06384167937011e-07,-1.06384167936876e-07,,,,,1.31092932331323e-07,6.59968635233511e-08,2.71462307683545e-07,2.29525735305697e-07,2.29525735305455e-07,-1.2669301909992e-06,1.26693019099931e-06,-2.05434581033656e-07,0,1,0,3.78880000000027,103,968.261650485437,555.637378640777,1687.88834951456,971.473786407767,965.049514563107,525.61359223301,585.661165048544,1785,1590.77669902913,0
2490.5728,-1.03498419410707e-07,8.34173767700056e-09,-9.51566817339576e-08,2.99440152351899e-07,-1.55576367747758e-07,-1.55576367747386e-07,,-9.01725009635051e-07,-1.67274540592503e-06,1.73569707007049e-08,,2.60099038127654e-08,-2.71485703767002e-08,,,-1.21895949101173e-07,,-3.57136956290353e-08,-1.01512839696075e-07,-4.62987704690204e-09,-1.01512839696255e-07,-2.31899730948317e-07,-7.78191355540466e-08,-3.09718866502687e-07,-4.56736134719888e-07,-2.48104770457725e-08,,1.22174227642469e-07,-1.22174227642019e-07,3.06972723102595e-07,1.48055880209977e-07,-1.11376284993842e-07,,,-3.39336872082394e-08,-8.6430883023091e-08,-1.02654843696755e-06,-9.29529018359693e-08,-9.29529018358345e-08,,,,,1.5637673251446e-07,6.11263326370477e-08,2.80000767481943e-07,2.16022989233433e-07,2.16022989233178e-07,-1.3049881975179e-06,1.30498819751801e-06,-1.89069734977854e-07,0,1,0,3.89120000000003,102,963.413235294118,551.741176470588,1717.84803921569,965.130392156863,961.696078431373,526.744117647059,576.738235294118,1819.3137254902,1616.38235294118,0
2490.6752,-1.16539972603707e-07,7.85113969636968e-09,-1.08688832907593e-07,3.17422549826954e-07,-1.70918102226594e-07,-1.7091810222621e-07,,-8.24993191861025e-07,-1.5214239082554e-06,1.45364431913469e-08,,1.96505953794015e-08,-3.35000222763491e-08,,,-1.35380806057925e-07,,-4.65409055604918e-08,-1.15572030848061e-07,-9.23980065365007e-09,-1.15572030848241e-07,-2.68551508620429e-07,-1.00274293596979e-07,-3.68825802217734e-07,-4.48187670417871e-07,-2.10010505502753e-08,,1.04984334160719e-07,-1.04984334160268e-07,3.25489664565249e-07,1.51179478708588e-07,-1.25899895472767e-07,,,-3.15183189779169e-08,-9.12733861041053e-08,-1.01952341582849e-06,-8.03873270926583e-08,-8.03873270925239e-08,,,,,1.79113471770155e-07,5.37822247385913e-08,2.84878591277584e-07,1.95211788640224e-07,1.95211788639955e-07,-1.33758527481153e-06,1.33758527481163e-06,-1.75495566920056e-07,0,0,0,3.99360000000024,103,957.854368932039,548.600485436893,1741.61165048544,957.412621359223,958.296116504854,520.178640776699,577.022330097088,1848.16504854369,1635.05825242718,0
2490.7776,-1.27528935607065e-07,7.69625475956247e-09,-1.19832680847763e-07,3.39501856767539e-07,-1.86147188802231e-07,-1.86147188801838e-07,,-7.41852916459591e-07,-1.40749775084008e-06,1.31495513884902e-08,,1.55017426364579e-08,-3.76532291429106e-08,,,-1.47055065969425e-07,,-5.5832163013366e-08,-1.27443862607651e-07,-1.34791205016598e-08,-1.27443862607831e-07,-3.05966971670515e-07,-1.24212977465066e-07,-4.30179949135911e-07,-4.36803713019767e-07,-1.76515009894734e-08,,8.80202459484191e-08,-8.80202459479702e-08,3.43429933918869e-07,1.53608589836949e-07,-1.39364170349914e-07,,,-2.96561517790707e-08,-9.65502763803936e-08,-1.00489289542124e-06,-6.92609245160744e-08,-6.92609245159365e-08,,,,,1.98321592504058e-07,4.43740220848489e-08,2.86828474490374e-07,1.68148523378182e-07,1.68148523377901e-07,-1.36176936477741e-06,1.3617693647775e-06,-1.65648381360866e-07,0,0,0,4.096,102,968.198529411765,543.762254901961,1748.34803921569,964.763725490196,971.633333333333,516.851960784314,570.672549019608,1862.87254901961,1633.82352941176,0
2490.88,-1.35985188492044e-07,7.91864536652394e-09,-1.28066543125785e-07,3.64746060985943e-07,-2.01328002018395e-07,-2.01328002017992e-07,,-6.51038532292198e-07,-1.32871500936816e-06,1.33902965584098e-08,,1.37157418288044e-08,-3.89559880168733e-08,,,-1.56365523826837e-07,,-6.31548729312411e-08,-1.3649687687702e-07,-1.72329543583163e-08,-1.364968768772e-07,-3.42834833619741e-07,-1.49130115606945e-07,-4.91964949227019e-07,-4.22573659745101e-07,-1.47229360922319e-08,,7.33267265215861e-08,-7.33267265211418e-08,3.60269475932148e-07,1.5613178739343e-07,-1.5186046762114e-07,,,-2.82072145211606e-08,-1.01940003901659e-07,-9.82304321141378e-07,-6.00040334284576e-08,-6.00040334283187e-08,,,,,2.1339524942734e-07,3.35047637351554e-08,2.87060910395837e-07,1.36184581896422e-07,1.36184581896129e-07,-1.37511501353843e-06,1.37511501353852e-06,-1.60210686016013e-07,0,0,0,4.19840000000022,102,963.551470588235,543.164705882353,1766.66666666667,959.267647058824,967.835294117647,520.817647058824,565.511764705882,1880.3431372549,1652.99019607843,0
2490.9824,-1.4178986714039e-07,8.57886770699488e-09,-1.33210999433664e-07,3.92113279000975e-07,-2.16612021786897e-07,-2.16612021786485e-07,,-5.51060334817685e-07,-1.28003034485842e-06,1.52272295138852e-08,,1.41445422831943e-08,-3.7147994748187e-08,,,-1.6299983716196e-07,,-6.83001990598719e-08,-1.42407306107914e-07,-2.04640819361334e-08,-1.42407306108096e-07,-3.77790615230772e-07,-1.74450672879173e-07,-5.52241288110281e-07,-4.0566165383445e-07,-1.20684822160535e-08,,6.2590437013346e-08,-6.2590437012908e-08,3.75588311153695e-07,1.59577840144319e-07,-1.63566634752328e-07,,,-2.69963885554571e-08,-1.07100019293919e-07,-9.51921925191739e-07,-5.28698185380714e-08,-5.28698185379314e-08,,,,,2.24121248825574e-07,2.183490463853e-08,2.8690835210482e-07,1.00709093185624e-07,1.00709093185321e-07,-1.37598128231307e-06,1.37598128231315e-06,-1.59574627619221e-07,0,0,0,4.30079999999998,103,965.497572815534,549.001941747573,1742.4854368932,956.680582524272,974.314563106796,525.104854368932,572.899029126214,1852.46601941748,1632.50485436893,0
2491.0848,-1.45112010959653e-07,9.66974439162868e-09,-1.35442266568298e-07,4.20390420552219e-07,-2.32162986586565e-07,-2.32162986586145e-07,,-4.40365761589474e-07,-1.25458401367827e-06,1.83833047140727e-08,,1.63373061695129e-08,-3.24294228036222e-08,,,-1.66995415663625e-07,,-7.13810546422735e-08,-1.45240477219452e-07,-2.3206591237732e-08,-1.45240477219635e-07,-4.09696344628466e-07,-1.99592305987756e-07,-6.09288650616562e-07,-3.86370700412484e-07,-9.47603608641514e-09,,5.683339026892e-08,-5.683339026849e-08,3.89177762141211e-07,1.64670579269339e-07,-1.74712278622721e-07,,,-2.58426703089579e-08,-1.1173696256579e-07,-9.14370094381653e-07,-4.79232055431719e-08,-4.79232055430331e-08,,,,,2.30590733269288e-07,9.92625221567375e-09,2.87398953570217e-07,6.29101791348116e-08,6.29101791344993e-08,-1.36370672803408e-06,1.36370672803416e-06,-1.63848576994597e-07,0,0,0,4.4032000000002,102,969.653431372549,550.361274509804,1694.35294117647,959.351960784314,979.954901960784,524.991176470588,575.73137254902,1799.90196078431,1588.80392156863,0
2491.1872,-1.46280606093536e-07,1.10325763748914e-08,-1.35248029718921e-07,4.48105122616707e-07,-2.48046082945786e-07,-2.4804608294536e-07,,-3.17688098275558e-07,-1.24464547315704e-06,2.23662341569344e-08,,1.95955625651604e-08,-2.54419492391876e-08,,,-1.68772126526152e-07,,-7.2853636429758e-08,-1.45448637884083e-07,-2.55471323939835e-08,-1.45448637884267e-07,-4.37839770296335e-07,-2.23980862151838e-07,-6.61820632448516e-07,-3.65116577866733e-07,-6.7349050277086e-09,,5.62332876987969e-08,-5.62332876983761e-08,4.01153699734243e-07,1.71908344488895e-07,-1.85568056286069e-07,,,-2.45884578559999e-08,-1.15666978098193e-07,-8.70677138729885e-07,-4.50478022223629e-08,-4.5047802222226e-08,,,,,2.33067944601678e-07,-1.88025887844127e-09,2.88868238721759e-07,2.36436931101488e-08,2.36436931098268e-08,-1.33872863982838e-06,1.33872863982845e-06,-1.7291489619492e-07,0,0,0,4.50559999999996,103,970.836893203884,549.504854368932,1680.85436893204,959.919417475728,981.754368932039,521.731067961165,577.278640776699,1783.15533980583,1578.55339805825,0
2491.2896,-1.45657824127753e-07,1.2321222821118e-08,-1.33336601306915e-07,4.73495182146565e-07,-2.64139256731111e-07,-2.6413925673068e-07,,-1.82661857429562e-07,-1.24243926041272e-06,2.65413676192179e-08,,2.30741579325449e-08,-1.71735041803278e-08,,,-1.69081802021082e-07,,-7.34545240360685e-08,-1.43788277597064e-07,-2.75996995264807e-08,-1.4378827759725e-07,-4.62012414643411e-07,-2.47028122867306e-07,-7.09040537511066e-07,-3.42418756474819e-07,-3.69663958003868e-09,,6.01301917886435e-08,-6.01301917882332e-08,4.1201055558172e-07,1.81484437541362e-07,-1.96430126311543e-07,,,-2.31157169297119e-08,-1.18843325122332e-07,-8.22251898207964e-07,-4.39628950081736e-08,-4.3962895008039e-08,,,,,2.31882227458797e-07,-1.35080816684746e-08,2.90735600554344e-07,-1.65426092670818e-08,-1.65426092674129e-08,-1.30259896357789e-06,1.30259896357796e-06,-1.86515802707657e-07,0,0,0,4.60800000000018,102,973.906862745098,549.592647058824,1679.83333333333,963.246078431373,984.567647058824,521.854901960784,577.330392156863,1783.26470588235,1576.40196078431,0
2491.392,-1.43546429847576e-07,1.30341875863577e-08,-1.30512242261502e-07,4.94613892862396e-07,-2.80111072582718e-07,-2.80111072582283e-07,,-3.64579349580689e-08,-1.24080670409656e-06,3.02258914401147e-08,,2.59037574265239e-08,-8.81867544418393e-09,,,-1.68891687263192e-07,,-7.40766069112782e-08,-1.41186690017966e-07,-2.9478843884488e-08,-1.41186690018155e-07,-4.82462021053541e-07,-2.6809932909897e-07,-7.50561350152865e-07,-3.18897769988722e-07,-3.07133385795062e-10,,6.72017761542966e-08,-6.72017761538977e-08,4.2256153852802e-07,1.93256048645381e-07,-2.07582052740058e-07,,,-2.13436046428886e-08,-1.21348898112755e-07,-7.70878260819487e-07,-4.42497688603795e-08,-4.4249768860247e-08,,,,,2.27372076603625e-07,-2.51069024005903e-08,2.9153694885755e-07,-5.72799357324244e-08,-5.72799357327642e-08,-1.25787152102717e-06,1.25787152102723e-06,-2.04314936512676e-07,0,0,0,4.71039999999994,102,972.074509803922,544.685294117647,1702.27941176471,961.275490196078,982.873529411765,520.991176470588,568.379411764706,1806.53921568627,1598.01960784314,0
2491.4944,-1.40139375685683e-07,1.26027076698297e-08,-1.27536668016139e-07,5.09605611539616e-07,-2.95462631237738e-07,-2.954626312373e-07,,1.18018863931406e-07,-1.23370274943609e-06,3.27818943175519e-08,,2.73094418227497e-08,-1.62747798595162e-09,,,-1.69236925419523e-07,,-7.56232117069108e-08,-1.38598515469286e-07,-3.12757196960707e-08,-1.38598515469477e-07,-4.99757679694164e-07,-2.86517934597e-07,-7.86275614291526e-07,-2.95254891234069e-07,3.40021578691606e-09,,7.5728479185309e-08,-7.57284791849224e-08,4.33750790935552e-07,2.06759207036381e-07,-2.19230512519322e-07,,,-1.92101708460923e-08,-1.23363584161024e-07,-7.18666654800176e-07,-4.53937793058469e-08,-4.53937793057179e-08,,,,,2.19885338743985e-07,-3.69609430332799e-08,2.89226147865749e-07,-9.82335823620764e-08,-9.82335823624242e-08,-1.20782706493226e-06,1.20782706493231e-06,-2.25889839002338e-07,0,0,0,4.81280000000015,103,953.375242718447,539.273300970874,1738.33009708738,942.012621359223,964.73786407767,514.267961165049,564.278640776699,1842.47572815534,1634.18446601942,0
2491.5968,-1.35505853182439e-07,1.05047801584319e-08,-1.25001073024294e-07,5.17090596915598e-07,-3.09594295506372e-07,-3.09594295505931e-07,,2.76622392901106e-07,-1.21652413993054e-06,3.36936010936942e-08,,2.67064378911934e-08,3.2371113838256e-09,,,-1.71078781146257e-07,,-7.88751740917995e-08,-1.36883201406919e-07,-3.30414608233295e-08,-1.36883201407113e-07,-5.14618640752077e-07,-3.01651818197383e-07,-8.16270458949832e-07,-2.72217684427179e-07,7.34757392507831e-09,,8.38762973035912e-08,-8.38762973032169e-08,4.46374674975828e-07,2.21263297653141e-07,-2.31421750668437e-07,,,-1.66446593321777e-08,-1.25114709732821e-07,-6.67911324859621e-07,-4.68451272015433e-08,-4.68451272014193e-08,,,,,2.09833429405107e-07,-4.93682115904552e-08,2.81674130513128e-07,-1.38973788544022e-07,-1.38973788544377e-07,-1.15603229347998e-06,1.15603229348003e-06,-2.50657457581598e-07,0,1,0,4.91519999999991,102,953.685784313726,543.829411764706,1749.51470588235,943.391176470588,963.980392156863,518.036274509804,569.622549019608,1852.42156862745,1646.60784313725,0
2491.6992,-1.29607192164266e-07,6.37360701460081e-09,-1.23233585149954e-07,5.16501029598624e-07,-3.21852318115977e-07,-3.21852318115535e-07,,4.3499733570752e-07,-1.18622682806814e-06,3.26163312787804e-08,,2.37565384553422e-08,4.81500302373847e-09,,,-1.7519689591336e-07,,-8.43954542576595e-08,-1.36723477785443e-07,-3.47812145180251e-08,-1.3672347778564e-07,-5.27753272504066e-07,-3.13065861704361e-07,-8.40819134208809e-07,-2.50460628511259e-07,1.1475328598075e-08,,8.99591514980764e-08,-8.99591514977142e-08,4.60787844864472e-07,2.35857191973911e-07,-2.43950580175382e-07,,,-1.35413368529225e-08,-1.26821354165763e-07,-6.20868199791068e-07,-4.80921561887939e-08,-4.80921561886756e-08,,,,,1.97787411443758e-07,-6.25044305209043e-08,2.67241341007837e-07,-1.78837056154275e-07,-1.78837056154636e-07,-1.10581945790153e-06,1.10581945790158e-06,-2.77772707790063e-07,0,1,0,5.01760000000013,102,954.642156862745,538.068627450981,1759.9068627451,946.007843137255,963.276470588235,517.012745098039,559.124509803922,1861.86274509804,1657.95098039216,0
2491.8016,-1.22332175531778e-07,7.26534601402611e-11,-1.22259522071927e-07,5.08204309233439e-07,-3.31534549433754e-07,-3.3153454943331e-07,,5.89807039525655e-07,-1.14120706923408e-06,2.93879327057639e-08,,1.83756014037806e-08,2.42333008148586e-09,,,-1.82127171778355e-07,,-9.24841139508492e-08,-1.38593980256585e-07,-3.64587641370236e-08,-1.38593980256785e-07,-5.39750067752675e-07,-3.20657480493154e-07,-8.60407548246224e-07,-2.30526259658169e-07,1.5796707329178e-08,,9.26549864570929e-08,-9.26549864567433e-08,4.76678907042789e-07,2.4955060121013e-07,-2.5627599080284e-07,,,-9.74782272888117e-09,-1.28651018948634e-07,-5.79514478186361e-07,-4.87346274171296e-08,-4.87346274170195e-08,,,,,1.8457922526298e-07,-7.62979819066666e-08,2.45286208772454e-07,-2.16790486476658e-07,-2.16790486477024e-07,-1.05982081425936e-06,1.0598208142594e-06,-3.06043408835722e-07,0,1,0,5.11999999999989,103,956.631553398058,543.92572815534,1755.67961165049,951.653398058252,961.609708737864,524.702912621359,563.14854368932,1853.33980582524,1658.01941747573,0
2491.904,-1.13538093390495e-07,-8.27859179268497e-09,-1.21816685183468e-07,4.93366794889573e-07,-3.37879740613898e-07,-3.37879740613452e-07,,7.39776136106611e-07,-1.0810234034166e-06,2.40065872330207e-08,,1.06997031398691e-08,-4.31019579849786e-09,,,-1.92133388747059e-07,,-1.03178416873019e-07,-1.4276824195458e-07,-3.80092492608427e-08,-1.42768241954783e-07,-5.51035729010243e-07,-3.24692403258208e-07,-8.75728132268859e-07,-2.12769921833133e-07,2.04204229529942e-08,,9.11386489217941e-08,-9.11386489214564e-08,4.92984091852079e-07,2.61367501135188e-07,-2.67465064692601e-07,,,-5.07627822922367e-09,-1.30702227452829e-07,-5.45342782758583e-07,-4.85398954030342e-08,-4.85398954029303e-08,,,,,1.71347156956968e-07,-9.03595550081907e-08,2.16484986780368e-07,-2.51391645313565e-07,-2.51391645313935e-07,-1.01963703034566e-06,1.0196370303457e-06,-3.33901119503004e-07,0,0,0,5.22240000000011,102,970.797549019608,540.03431372549,1753.5931372549,965.962745098039,975.632352941176,522.357843137255,557.710784313726,1851.51960784314,1655.66666666667,0
2492.0064,-1.03097347892433e-07,-1.8319716097714e-08,-1.21417063990434e-07,4.73650630948753e-07,-3.40093308078353e-07,-3.40093308077904e-07,,8.86126223157903e-07,-1.00612280903317e-06,1.65920452241884e-08,,1.03123094251904e-09,-1.54396979073195e-08,,,-2.05186554448022e-07,,-1.16274580253852e-07,-1.49334093275748e-07,-3.93580010911926e-08,-1.49334093275953e-07,-5.61862677169789e-07,-3.25725317466553e-07,-8.87587994636763e-07,-1.97344201501921e-07,2.55358474033492e-08,,8.50980203120339e-08,-8.50980203117083e-08,5.07976922158851e-07,2.70422490752138e-07,-2.76200303385189e-07,,,6.6276865046073e-10,-1.33006891186057e-07,-5.1922132497311e-07,-4.7462942076957e-08,-4.74629420768606e-08,,,,,1.59474261810975e-07,-1.03996239100999e-07,1.82877299032825e-07,-2.80928188042145e-07,-2.80928188042519e-07,-9.8565063821447e-07,9.85650638214513e-07,-3.59476110573313e-07,0,0,0,5.32480000000032,103,970.669417475728,541.430582524272,1748.39805825243,966.619417475728,974.719417475728,526.550485436893,556.310679611651,1848.3786407767,1648.41747572816,0
2492.1088,-9.09561164192021e-08,-2.94805130525119e-08,-1.20436629471999e-07,4.50876557085933e-07,-3.37437556540198e-07,-3.37437556539746e-07,,1.03216341980712e-06,-9.17680942749056e-07,7.35082330470567e-09,,-1.02125964528824e-08,-3.06991432561209e-08,,,-2.20933602662279e-07,,-1.31343620574014e-07,-1.58190023764557e-07,-4.04425393930482e-08,-1.58190023764763e-07,-5.72265974679532e-07,-3.24447980056034e-07,-8.96713954735996e-07,-1.84227490633131e-07,3.13703619594039e-08,,7.46415684281682e-08,-7.46415684278545e-08,5.1952919166401e-07,2.75994343027653e-07,-2.80889556102932e-07,,,7.612850103164e-09,-1.35534071496486e-07,-5.01337111337054e-07,-4.56205730114853e-08,-4.56205730113961e-08,,,,,1.50415362400125e-07,-1.16302423762478e-07,1.47633120710993e-07,-3.03717560012082e-07,-3.03717560012458e-07,-9.56988455503828e-07,9.56988455503869e-07,-3.80806172319407e-07,0,0,0,5.42720000000008,102,964.979901960784,538.85637254902,1757.40196078431,963.010784313725,966.949019607843,526.941176470588,550.771568627451,1854.13725490196,1660.66666666667,0
2492.2112,-7.71929292896764e-08,-4.10092939775851e-08,-1.18202223267544e-07,4.26749557611937e-07,-3.29367997260661e-07,-3.29367997260204e-07,,1.18216721187654e-06,-8.17549246663395e-07,-3.44003088442244e-09,,-2.25340341126561e-08,-4.94931765967529e-08,,,-2.38661853004974e-07,,-1.47731949546393e-07,-1.69018011896236e-07,-4.12301409277318e-08,-1.69018011896443e-07,-5.81977381133927e-07,-3.21518718997573e-07,-9.03496100131936e-07,-1.73279778252369e-07,3.81313710846728e-08,,6.01460897026975e-08,-6.0146089702395e-08,5.25480679019396e-07,2.77609843461748e-07,-2.79889911843523e-07,,,1.58240052477677e-08,-1.38186807418968e-07,-4.91216724971452e-07,-4.32307480239566e-08,-4.32307480238732e-08,,,,,1.45453344480669e-07,-1.26294347410453e-07,1.1463093091028e-07,-3.18456431351675e-07,-3.18456431352055e-07,-9.31650818338454e-07,9.31650818338494e-07,-3.9613182570914e-07,0,0,0,5.5296000000003,103,961.720873786408,533.78932038835,1758.6213592233,960.272815533981,963.168932038835,524.727184466019,542.85145631068,1853.47572815534,1663.76699029126,0
2492.3136,-6.20587651003986e-08,-5.19902914005351e-08,-1.14049056501214e-07,4.02717265334839e-07,-3.15677549632208e-07,-3.15677549631746e-07,,1.33991624898929e-06,-7.08274648700337e-07,-1.5429272060388e-08,,-3.53706901624184e-08,-7.08897788485868e-08,,,-2.57290052117798e-07,,-1.645640180742e-07,-1.81256107714048e-07,-4.17219386123088e-08,-1.81256107714256e-07,-5.90344316171417e-07,-3.1742691581797e-07,-9.07771231989827e-07,-1.64296888857911e-07,4.59481822296964e-08,,4.20940102874683e-08,-4.20940102871775e-08,5.24001730660271e-07,2.75125178951555e-07,-2.71797201227102e-07,,,2.52189469251773e-08,-1.40798238830155e-07,-4.87801378236526e-07,-4.05430080263369e-08,-4.05430080262562e-08,,,,,1.45448956334508e-07,-1.33048742927598e-07,8.79876736869378e-08,-3.24487281193448e-07,-3.24487281193831e-07,-9.06805246579574e-07,9.06805246579613e-07,-4.04160151430995e-07,0,0,0,5.63200000000006,102,963.202941176471,537.867647058824,1740.39215686275,962.680392156863,963.725490196079,526.91568627451,548.819607843137,1831.02941176471,1649.75490196078,0
2492.416,-4.60023849624358e-08,-6.13496328013383e-08,-1.07352017764052e-07,3.79987283572151e-07,-2.96609142847844e-07,-2.96609142847376e-07,,1.50716502337342e-06,-5.93170019690332e-07,-2.81818474267913e-08,,-4.81066061872339e-08,-9.36438448504222e-08,,,-2.75421798194014e-07,,-1.80775335950798e-07,-1.94107042785263e-07,-4.19416126917379e-08,-1.94107042785471e-07,-5.96308644787245e-07,-3.12444648056887e-07,-9.08753292844574e-07,-1.5704571208847e-07,5.48365418302794e-08,,2.09376280640267e-08,-2.09376280637462e-08,5.13831140820007e-07,2.68774542189991e-07,-2.55702828909298e-07,,,3.55858162827252e-08,-1.43131578171377e-07,-4.89554845464227e-07,-3.77821891404141e-08,-3.7782189140336e-08,,,,,1.50662472072067e-07,-1.35806686259848e-07,7.16560205559414e-08,-3.21879533119175e-07,-3.21879533119564e-07,-8.79190644458805e-07,8.79190644458845e-07,-4.04204597668668e-07,0,0,0,5.73440000000028,102,962.80637254902,538.813235294118,1750.17156862745,962.346078431373,963.266666666667,525.003921568627,552.622549019608,1840.71568627451,1659.62745098039,0
2492.5184,-2.96886789480096e-08,-6.78687221621082e-08,-9.75574011103942e-08,3.59629570347152e-07,-2.72894338079416e-07,-2.7289433807894e-07,,1.68246057267746e-06,-4.76358938667242e-07,-4.11817237994752e-08,,-6.00955273901026e-08,-1.16273948877762e-07,,,-2.91476095582077e-07,,-1.95191593697901e-07,-2.06604050739238e-07,-4.19162344665713e-08,-2.06604050739445e-07,-5.98480211105995e-07,-3.06679689713718e-07,-9.05159900820154e-07,-1.51277309735139e-07,6.47026713532679e-08,,-2.9737046745166e-09,2.97370467478711e-09,4.9434500413894e-07,2.59162966552177e-07,-2.31330678131255e-07,,,4.66060975221824e-08,-1.44881973343588e-07,-4.94583456687361e-07,-3.51135870547456e-08,-3.5113587054669e-08,,,,,1.60715881904431e-07,-1.34018713511402e-07,6.91142710986068e-08,-3.11297067162867e-07,-3.11297067163264e-07,-8.45548044958439e-07,8.45548044958481e-07,-3.96202272122257e-07,0,0,0,5.83680000000004,103,966.165048543689,546.295145631068,1753.46116504854,967.146601941748,965.183495145631,530.290291262136,562.3,1845.98058252427,1660.94174757282,0
2492.6208,-1.39895468695915e-08,-7.02436438943186e-08,-8.42331907641852e-08,3.42627961984963e-07,-2.45689828370922e-07,-2.45689828370438e-07,,1.86072398546306e-06,-3.6267188227771e-07,-5.38540341946326e-08,,-7.06998847103882e-08,-1.37186319940528e-07,,,-3.03877161521546e-07,,-2.06646380444899e-07,-2.17722834770165e-07,-4.16595467268744e-08,-2.17722834770372e-07,-5.95321570252632e-07,-3.00183924539834e-07,-8.95505494792901e-07,-1.46719707968008e-07,7.53772879644425e-08,,-2.93836760051032e-08,2.93836760053653e-08,4.6550440767313e-07,2.471993110839e-07,-1.99034379788804e-07,,,5.791221683887e-08,-1.45685373397793e-07,-5.00748966123653e-07,-3.26281105107951e-08,-3.26281105107187e-08,,,,,1.74706987789595e-07,-1.27342309678011e-07,8.31093204625368e-08,-2.93723862018372e-07,-2.93723862018778e-07,-8.03016339709229e-07,8.03016339709275e-07,-3.80656826094034e-07,0,0,0,5.93920000000026,102,966.150980392157,541.722549019608,1784.46568627451,966.255882352941,966.046078431373,532.071568627451,551.373529411765,1882.30392156863,1686.62745098039,0
2492.7232,8.4690879074565e-11,-6.7218112887112e-08,-6.71334220083125e-08,3.29805351803009e-07,-2.16430582318572e-07,-2.16430582318081e-07,,2.03374943240121e-06,-2.57317910130849e-07,-6.56010579260614e-08,,-7.93359730218105e-08,-1.5482390203053e-07,,,-3.11265036624579e-07,,-2.14115074314224e-07,-2.26510092906723e-07,-4.11639037335966e-08,-2.26510092906929e-07,-5.85417345971866e-07,-2.93050743066241e-07,-8.78468089038536e-07,-1.43061463331618e-07,8.66495217062137e-08,,-5.80527024865686e-08,5.80527024868244e-08,4.27763972884051e-07,2.33979195446945e-07,-1.59699705458352e-07,,,6.91534325917723e-08,-1.45149895321935e-07,-5.05783683093948e-07,-3.03427338938971e-08,-3.034273389382e-08,,,,,1.91416781038517e-07,-1.15631402564526e-07,1.15437451605396e-07,-2.7018484521852e-07,-2.70184845218938e-07,-7.49466053772273e-07,7.49466053772324e-07,-3.58521965280654e-07,0,0,0,6.04160000000002,103,965.928640776699,541.931067961165,1808.78155339806,965.438834951456,966.418446601942,533.972815533981,549.88932038835,1911.20388349515,1706.35922330097,0
2492.8256,1.15184168676132e-08,-5.77797190905981e-08,-4.62613022232595e-08,3.21653691120303e-07,-1.86660714810814e-07,-1.86660714810316e-07,,2.1914133529057e-06,-1.65320887146692e-07,-7.58444792153262e-08,,-8.55163951924419e-08,-1.67821053034796e-07,,,-3.12682689453473e-07,,-2.16838836490599e-07,-2.32201503937172e-07,-4.0402382535749e-08,-2.32201503937378e-07,-5.67742037451266e-07,-2.85468117737237e-07,-8.53210155188923e-07,-1.39947894674096e-07,9.82768023524497e-08,,-8.86502327241456e-08,8.86502327243969e-08,3.82004086390043e-07,2.20638085526852e-07,-1.14619089023277e-07,,,8.00436112862275e-08,-1.42918665785884e-07,-5.07441675678776e-07,-2.82108042544305e-08,-2.8210804254354e-08,,,,,2.09524802621133e-07,-9.89525018915303e-08,1.66782105110097e-07,-2.41582404377616e-07,-2.41582404378048e-07,-6.83758995501025e-07,6.83758995501083e-07,-3.31022762369818e-07,0,0,0,6.14400000000023,102,967.386274509804,546.311274509804,1825.13235294118,966.928431372549,967.844117647059,536.579411764706,556.043137254902,1933.40196078431,1716.86274509804,0
2492.928,1.94582833205261e-08,-4.13731937419813e-08,-2.19149104217301e-08,3.18149704804975e-07,-1.57896711306748e-07,-1.57896711306243e-07,,2.32324338258819e-06,-9.07538348693459e-08,-8.40653708928826e-08,,-8.8883623619318e-08,-1.75140296879687e-07,,,-3.07693464763591e-07,,-2.14410159436589e-07,-2.3430413291056e-07,-3.9339733173373e-08,-2.34304132910765e-07,-5.41827892358436e-07,-2.77738911267415e-07,-8.19566803626261e-07,-1.37004443745792e-07,1.09970108997071e-07,,-1.20636836499943e-07,1.20636836500191e-07,3.29514707180273e-07,2.08206371877188e-07,-6.53884135065955e-08,,,9.03744933892529e-08,-1.38750045904287e-07,-5.03692545345587e-07,-2.6137848654203e-08,-2.61378486541247e-08,,,,,2.2777503483572e-07,-7.76266085266434e-08,2.36612982334035e-07,-2.0867814168056e-07,-2.08678141681008e-07,-6.05932750445541e-07,6.05932750445608e-07,-2.99455985210694e-07,0,1,0,6.24639999999999,102,967.860294117647,548.763235294118,1830.91666666667,966.985294117647,968.735294117647,539.499019607843,558.027450980392,1943.28431372549,1718.54901960784,0
2493.0304,2.33652219446599e-08,-1.80648762595763e-08,5.30034568480841e-09,3.18639285473826e-07,-1.31535677828757e-07,-1.31535677828248e-07,,2.4200026237351e-06,-3.59184204556547e-08,-8.98308017556877e-08,,-8.92269090145199e-08,-1.76157474895842e-07,,,-2.96395318945535e-07,,-2.06794689325725e-07,-2.32619140674304e-07,-3.79480041752253e-08,-2.32619140674509e-07,-5.07793479490248e-07,-2.70293212883707e-07,-7.78086692374357e-07,-1.33879192886259e-07,1.21374673712748e-07,,-1.53148681235445e-07,1.53148681235693e-07,2.72010248231742e-07,1.97503449771215e-07,-1.38380627842579e-08,,,9.99993314006986e-08,-1.32581786752717e-07,-4.92913684745111e-07,-2.40009645705318e-08,-2.40009645704523e-08,,,,,2.45087324597611e-07,-5.2258543930614e-08,3.23147977409271e-07,-1.72153129725795e-07,-1.72153129726259e-07,-5.17312828316138e-07,5.17312828316216e-07,-2.65044356733251e-07,0,1,0,6.34880000000021,103,968.63640776699,549.342718446602,1839.49514563107,966.78640776699,970.48640776699,537.88640776699,560.799029126214,1953.90291262136,1725.08737864078,0
2493.1328,2.31024393882409e-08,1.13976533102298e-08,3.45000926981953e-08,3.21860772765573e-07,-1.08793582482904e-07,-1.08793582482392e-07,,2.47499387622389e-06,-7.63523051525421e-10,-9.28055229343413e-08,,-8.64821422295158e-08,-1.70679893906678e-07,,,-2.79341017090019e-07,,-1.94290078329109e-07,-2.27204985040162e-07,-3.62201380898363e-08,-2.27204985040367e-07,-4.66275243937239e-07,-2.63691368029982e-07,-7.29966611967614e-07,-1.30282149686937e-07,1.32070991725186e-07,,-1.84922785858292e-07,1.84922785858541e-07,2.11613954932952e-07,1.89095216298066e-07,3.80235612628868e-08,,,1.08808213655483e-07,-1.24552151697417e-07,-4.74026982695679e-07,-2.16707231042789e-08,-2.1670723104198e-08,,,,,2.60637368468832e-07,-2.37163074947798e-08,4.23395663763814e-07,-1.32665291653512e-07,-1.32665291653993e-07,-4.20530323788157e-07,4.20530323788247e-07,-2.28890297966865e-07,0,1,0,6.45119999999997,102,965.377450980392,549.832843137255,1850.82843137255,963.166666666667,967.588235294118,535.689215686274,563.976470588235,1969.00980392157,1732.64705882353,0
2493.2352,1.89363909901579e-08,4.56451418985309e-08,6.45815328884131e-08,3.26126184397772e-07,-9.06612943390741e-08,-9.06612943385594e-08,,2.4849186147949e-06,1.7179329377033e-08,-9.27635079353481e-08,,-8.0728477090936e-08,-1.58922513824271e-07,,,-2.57419697830538e-07,,-1.77457517476265e-07,-2.1831897156465e-07,-3.41761540409509e-08,-2.18318971564857e-07,-4.18346502385746e-07,-2.58588292381489e-07,-6.76934794767623e-07,-1.260033199909e-07,1.41608524810769e-07,,-2.14321467263831e-07,2.14321467264082e-07,1.50754671351295e-07,1.83309237747607e-07,8.80903546347705e-08,,,1.16712246687271e-07,-1.14978862883492e-07,-4.46560211662073e-07,-1.90332310124269e-08,-1.90332310123454e-08,,,,,2.7391624003214e-07,6.93861675370774e-09,5.3328836281148e-07,-9.08784442640466e-08,-9.08784442645441e-08,-3.19383414793812e-07,3.19383414793916e-07,-1.9201513988413e-07,0,0,0,6.55360000000019,102,963.285784313726,550.448529411765,1856.15196078431,959.001960784314,967.569607843137,530.09705882353,570.8,1979.97058823529,1732.33333333333,0
2493.3376,1.14632172333663e-08,8.28405823595626e-08,9.43037995926536e-08,3.29600611733771e-07,-7.78671962054358e-08,-7.78671962049213e-08,,2.45026230526045e-06,2.22885443635969e-08,-8.96154849243423e-08,,-7.21958064029829e-08,-1.4148018470954e-07,,,-2.31757848383241e-07,,-1.57066369663725e-07,-2.06381851765147e-07,-3.18615657668935e-08,-2.06381851765356e-07,-3.65477337154894e-07,-2.55635854289863e-07,-6.21113191445142e-07,-1.20906841159809e-07,1.49565630787196e-07,,-2.39491260178801e-07,2.39491260179055e-07,9.19630656247878e-08,1.80271563895996e-07,1.34298288560636e-07,,,1.2363804318564e-07,-1.04316026219408e-07,-4.10648157484503e-07,-1.60105032913748e-08,-1.60105032912949e-08,,,,,2.8476182994328e-07,3.85425264930391e-08,6.4792521431631e-07,-4.74775412725461e-08,-4.74775412730592e-08,-2.18470031437659e-07,2.18470031437778e-07,-1.55422734707064e-07,0,0,0,6.65599999999995,103,956.580097087379,547.54854368932,1848.26699029126,953.256310679612,959.903883495146,528.440776699029,566.656310679612,1968.4854368932,1728.04854368932,0
2493.44,1.49664993996609e-09,1.20889285973294e-07,1.22385935912986e-07,3.30586848853745e-07,-7.08275661768874e-08,-7.08275661763739e-08,,2.375208642613e-06,1.99537181408405e-08,-8.34562058742055e-08,,-6.12847143413327e-08,-1.19313539751204e-07,,,-2.03661388550948e-07,,-1.34067424652374e-07,-1.91981835191566e-07,-2.93413856558531e-08,-1.91981835191778e-07,-3.09514497546026e-07,-2.55335665790522e-07,-5.64850163336935e-07,-1.1491217700252e-07,1.55615436350291e-07,,-2.58654670314775e-07,2.58654670315032e-07,3.76079619390386e-08,1.7991993275731e-07,1.74838981783647e-07,,,1.29526307083243e-07,-9.31087458123263e-08,-3.67002988474155e-07,-1.25789882470304e-08,-1.25789882469547e-08,,,,,2.93343957973081e-07,6.99128705470034e-08,7.61965215025999e-07,-3.19558557516544e-09,-3.19558557569224e-09,-1.22579046058335e-07,1.22579046058467e-07,-1.20114096973387e-07,0,0,0,6.75840000000017,102,953.249019607843,550.357843137255,1807.3137254902,949.1,957.398039215686,532.698039215686,568.017647058824,1907,1707.62745098039,0
2493.5424,-1.00444946758283e-08,1.57659911719057e-07,1.47615417042956e-07,3.27752008923812e-07,-6.95872977104505e-08,-6.95872977099395e-08,,2.2670937388945e-06,1.55658075449057e-08,-7.46198007049038e-08,,-4.85891560135005e-08,-9.37432442359082e-08,,,-1.74586617483253e-07,,-1.09586602806705e-07,-1.75903030819811e-07,-2.6693435389314e-08,-1.75903030820027e-07,-2.52622590012053e-07,-2.57896494415244e-07,-5.10519084427689e-07,-1.07977763097361e-07,1.59575290498735e-07,,-2.70483527376584e-07,2.70483527376845e-07,-1.03474172319021e-08,1.81975024890611e-07,2.08406092372745e-07,,,1.34332349056201e-07,-8.19553090907326e-08,-3.16876367296966e-07,-8.78283305339035e-09,-8.78283305332158e-09,,,,,3.00083774501739e-07,9.98990391811849e-08,8.70138286805794e-07,4.11232979649052e-08,4.11232979643667e-08,-3.59657720663447e-08,3.59657720664906e-08,-8.7026907153685e-08,0,0,0,6.86079999999993,103,950.81359223301,551.402912621359,1770.96116504854,945.319417475728,956.307766990291,527.76213592233,575.043689320388,1858.33009708738,1683.59223300971,0
2493.6448,-2.22260531999369e-08,1.91169000786273e-07,1.68942947586066e-07,3.20269005200412e-07,-7.37930988673295e-08,-7.37930988668225e-08,,2.13549552615629e-06,1.36576863838583e-08,-6.37157557985226e-08,,-3.49031528399023e-08,-6.64281206002308e-08,,,-1.46110279812739e-07,,-8.49163601049472e-08,-1.59143555763583e-07,-2.40034104859607e-08,-1.59143555763802e-07,-1.9715226037289e-07,-2.63168296732947e-07,-4.60320557106238e-07,-1.00098370351776e-07,1.61428764014542e-07,,-2.74422439930337e-07,2.74422439930601e-07,-5.04938579206358e-08,1.85903074522007e-07,2.34378433640481e-07,,,1.38032308732656e-07,-7.14720025575279e-08,-2.62011408014838e-07,-4.73232538482105e-09,-4.73232538475983e-09,,,,,3.05516521084986e-07,1.27397718932435e-07,9.67725211150964e-07,8.44403212502914e-08,8.44403212497438e-08,3.82441744245582e-08,-3.82441744244006e-08,-5.69500909060405e-08,0,0,0,6.96320000000014,102,953.701470588235,559.443137254902,1716.83823529412,951.502941176471,955.9,528.802941176471,590.083333333333,1795.36274509804,1638.3137254902,0
2493.7472,-3.41620665620018e-08,2.19710391630447e-07,1.85548325068178e-07,3.07861798396019e-07,-8.2737287622169e-08,-8.27372876216665e-08,,1.99112568281951e-06,1.7359947180087e-08,-5.161520418281e-08,,-2.11905419203114e-08,-3.92908617261846e-08,,,-1.19863505092673e-07,,-6.14745964245163e-08,-1.42884863911693e-07,-2.13615076414162e-08,-1.42884863911917e-07,-1.45436979882578e-07,-2.70688143136328e-07,-4.16125123019319e-07,-9.13201543928544e-08,1.61322990984672e-07,,-2.70815037599006e-07,2.70815037599271e-07,-8.20066767522069e-08,1.90925403834679e-07,2.52859289928618e-07,,,1.40636571144603e-07,-6.22462904062653e-08,-2.04562951269829e-07,-5.79531858301902e-10,-5.7953185824834e-10,,,,,3.10146715211395e-07,1.51363233358723e-07,1.05087456166439e-06,1.25486177203974e-07,1.25486177203421e-07,9.83261116362863e-08,-9.83261116361188e-08,-3.04762275076143e-08,0,0,0,7.0655999999999,103,951.48786407767,554.155339805825,1716.26699029126,949.906796116505,953.068932038835,522.389320388349,585.921359223301,1793.72815533981,1638.80582524272,0
2493.8496,-4.5064946105183e-08,2.41956109127473e-07,1.96891163022026e-07,2.90763586902174e-07,-9.54577101017668e-08,-9.54577101012693e-08,,1.84466306663524e-06,2.81833868248886e-08,-3.93756862965105e-08,,-8.50737492908365e-09,-1.43667292108315e-08,,,-9.74059321239374e-08,,-4.07073775577795e-08,-1.2839057439471e-07,-1.88569006433484e-08,-1.28390574394938e-07,-9.95398917515429e-08,-2.7980204916774e-07,-3.79341940919712e-07,-8.17662371232076e-08,1.59546704114015e-07,,-2.60806850293091e-07,2.60806850293357e-07,-1.04592343548044e-07,1.96098115440854e-07,2.64569094284219e-07,,,1.42203668296236e-07,-5.47750848420974e-08,-1.46965508423126e-07,3.52406549677076e-09,3.52406549681361e-09,,,,,3.14345966272927e-07,1.70850356254856e-07,1.11676551114363e-06,1.62832534211196e-07,1.62832534210638e-07,1.43888584728394e-07,-1.43888584728219e-07,-7.99511173772808e-09,0,0,0,7.16800000000012,102,949.355882352941,550.860784313726,1735.41176470588,946.153921568627,952.557843137255,517.837254901961,583.88431372549,1813.45098039216,1657.37254901961,0
2493.952,-5.43031056419105e-08,2.57064159378874e-07,2.02761053736703e-07,2.69632724183756e-07,-1.10841345456414e-07,-1.10841345455922e-07,,1.70564044544939e-06,4.59961722523254e-08,-2.81185475934485e-08,,2.11377021454306e-09,6.41247728543257e-09,,,-8.00511114448954e-08,,-2.39375572145268e-08,-1.16846090282933e-07,-1.65652773862134e-08,-1.16846090283165e-07,-6.10008276605287e-08,-2.89786296538708e-07,-3.50787124199682e-07,-7.16521554168127e-08,1.56491562543471e-07,,-2.46126097129525e-07,2.46126097129789e-07,-1.18410943548034e-07,2.00443663670323e-07,2.7064571015785e-07,,,1.42846729945407e-07,-4.94057483665149e-08,-9.1742685108467e-08,7.46805679054944e-09,7.46805679058082e-09,,,,,3.1830623182586e-07,1.85100167045466e-07,1.16370401013909e-06,1.95064383615323e-07,1.95064383614764e-07,1.75590156158152e-07,-1.75590156157974e-07,1.03090632088981e-08,0,0,0,7.27040000000034,102,948.78431372549,551.538725490196,1751.07352941176,944.243137254902,953.325490196078,517.927450980392,585.15,1828.93137254902,1673.21568627451,0
2494.0544,-6.14731657549155e-08,2.64785579872683e-07,2.03312414117512e-07,2.45482797382558e-07,-1.27693425017618e-07,-1.2769342501713e-07,,1.58156921533855e-06,6.90511063527248e-08,-1.88930649413263e-08,,9.7868229214101e-09,2.14430198480341e-08,,,-6.8697726567301e-08,,-1.2199863118016e-08,-1.09187855215186e-07,-1.45293749961392e-08,-1.09187855215422e-07,-3.06658901616283e-08,-2.99915130929443e-07,-3.30581021091534e-07,-6.12693543778224e-08,1.52604429001344e-07,,-2.2884552807744e-07,2.28845528077701e-07,-1.24028699174113e-07,2.0309783847522e-07,2.72418805136297e-07,,,1.42731004012909e-07,-4.6304532593667e-08,-4.127472169242e-08,1.11982106672453e-08,1.11982106672646e-08,,,,,3.22032326385894e-07,1.93644552597339e-07,1.19119326374862e-06,2.20985681608816e-07,2.20985681608257e-07,1.94789222608666e-07,-1.94789222608486e-07,2.44816720416944e-08,0,0,0,7.3728000000001,103,948.893689320388,553.455339805825,1757.25242718447,943.068932038835,954.718446601942,526.496116504854,580.414563106796,1838.92233009709,1675.58252427184,0
2494.1568,-6.6461260540221e-08,2.65517101140028e-07,1.99055840599556e-07,2.1963868990893e-07,-1.44773157214534e-07,-1.4477315721405e-07,,1.47751382520153e-06,9.40794467862889e-08,-1.25661247106007e-08,,1.38633231603198e-08,2.96098119945298e-08,,,-6.37315589836794e-08,,-6.12370889545918e-09,-1.05985165316645e-07,-1.27405905445371e-08,-1.05985165316884e-07,-8.66338008593481e-09,-3.09478185463571e-07,-3.18141565549986e-07,-5.09355379922261e-08,1.48344883754303e-07,,-2.11164938977526e-07,2.11164938977782e-07,-1.22414088066431e-07,2.03434485364347e-07,2.71215988554968e-07,,,1.42064648164455e-07,-4.54632830536636e-08,2.43235468453255e-09,1.46979559824908e-08,1.46979559824984e-08,,,,,3.25358627291065e-07,1.96387334176049e-07,1.19994576117801e-06,2.39780831958561e-07,2.39780831958005e-07,2.03240468974654e-07,-2.03240468974475e-07,3.48354127571286e-08,0,1,0,7.47520000000031,102,948.836764705882,558.819117647059,1762.01470588235,941.038235294118,956.635294117647,531.807843137255,585.830392156863,1848.87254901961,1675.1568627451,0
2494.2592,-6.94550447148218e-08,2.60251643273855e-07,1.90796598558787e-07,1.93674569376792e-07,-1.60820459487579e-07,-1.60820459487099e-07,,1.3961648744768e-06,1.16630705779297e-07,-9.75971313781656e-09,,1.39693765992697e-08,3.03426762654598e-08,,,-6.50222293630319e-08,,-5.90029113643704e-09,-1.07408553320748e-07,-1.11332435464273e-08,-1.0740855332099e-07,5.48626939804135e-09,-3.17787405904864e-07,-3.12301136507319e-07,-4.09378141182651e-08,1.44158449841414e-07,,-1.95221705760178e-07,1.95221705760427e-07,-1.14937748638269e-07,2.01142073737908e-07,2.68232131176908e-07,,,1.41085212624511e-07,-4.67319937085535e-08,3.79206101796784e-08,1.79520956313069e-08,1.79520956313038e-08,,,,,3.27988371444307e-07,1.93631625958885e-07,1.19178777536844e-06,2.51099525162301e-07,2.51099525161748e-07,2.02891361041031e-07,-2.02891361040855e-07,4.19683810522143e-08,0,1,0,7.57760000000008,103,949.166990291262,558.592718446602,1766.84466019418,941.522330097087,956.811650485437,535.342718446602,581.842718446602,1858.30097087379,1675.38834951456,0
2494.3616,-7.08912278253692e-08,2.50425757498254e-07,1.79534529672645e-07,1.69281746828476e-07,-1.74599777699936e-07,-1.74599777699458e-07,,1.33824287324132e-06,1.31806895786713e-07,-1.08306345967001e-08,,9.99826470882389e-09,2.35839499250894e-08,,,-7.19884136664701e-08,,-1.13196133586157e-08,-1.13271009516654e-07,-9.5977099626303e-09,-1.13271009516898e-07,1.27047150344483e-08,-3.24208667808661e-07,-3.11503952774723e-07,-3.1503086061174e-08,1.40463653104339e-07,,-1.82928603499925e-07,1.82928603500166e-07,-1.03318710176806e-07,1.96238549548692e-07,2.644647122337e-07,,,1.40044956849651e-07,-4.98518402508631e-08,6.43602778355416e-08,2.09209105469269e-08,2.09209105469152e-08,,,,,3.29561253854785e-07,1.86049920024973e-07,1.16944323313184e-06,2.55085308762837e-07,2.55085308762289e-07,1.95768985464661e-07,-1.95768985464492e-07,4.67266051566081e-08,0,1,0,7.68000000000029,102,959.603431372549,555.078431372549,1774.53431372549,951.477450980392,967.729411764706,533.982352941177,576.174509803922,1871.87254901961,1677.19607843137,0
2494.464,-7.1352752190646e-08,2.37700595349014e-07,1.66347843158133e-07,1.48055983148702e-07,-1.84980680892053e-07,-1.84980680891577e-07,,1.30296618932526e-06,1.3531902379971e-07,-1.58673652619576e-08,,2.09107331837027e-09,9.72060431952076e-09,,,-8.36883153479923e-08,,-2.18312717855636e-08,-1.23098784367289e-07,-8.00828682738485e-09,-1.23098784367534e-07,1.42150189876488e-08,-3.28223424385977e-07,-3.14008405398849e-07,-2.2810977860609e-08,1.37637673174663e-07,,-1.75823656262721e-07,1.75823656262953e-07,-8.9483520281466e-08,1.89018452237442e-07,2.60699750691564e-07,,,1.39194820601788e-07,-5.4474249081387e-08,8.15384204346851e-08,2.3542547188567e-08,2.35425471885493e-08,,,,,3.2974773605764e-07,1.74610458225045e-07,1.13623373015015e-06,2.52376226389945e-07,2.52376226389403e-07,1.83906934992628e-07,-1.83906934992466e-07,5.010763181237e-08,0,0,0,7.78240000000005,102,963.967647058824,552.586274509804,1779,955.786274509804,972.149019607843,533.656862745098,571.51568627451,1878.51960784314,1679.48039215686,0
2494.5664,-7.14419318614641e-08,2.23722702719436e-07,1.52280770857742e-07,1.31257551796378e-07,-1.91056147926715e-07,-1.91056147926238e-07,,1.28839552856107e-06,1.24552964825856e-07,-2.46841479499109e-08,,-9.36948240787654e-09,-1.04731886860444e-08,,,-9.89071790399119e-08,,-3.65942946700275e-08,-1.36193148482474e-07,-6.25414994003203e-09,-1.36193148482719e-07,1.14585689515608e-08,-3.29494022502209e-07,-3.18035453551175e-07,-1.50357110393327e-08,1.35983095693176e-07,,-1.74921003686087e-07,1.74921003686308e-07,-7.53475970981914e-08,1.79945833176966e-07,2.57515869656854e-07,,,1.38759641004697e-07,-6.01762075646418e-08,8.97844839590785e-08,2.57571712802012e-08,2.57571712801799e-08,,,,,3.28346220371331e-07,1.60475903434539e-07,1.09576703787798e-06,2.44073175840803e-07,2.44073175840269e-07,1.6926104160079e-07,-1.69261041600638e-07,5.31444694790022e-08,0,0,0,7.88480000000027,103,963.972920493309,559.047782734191,1772.9447651535,956.738073996326,971.207766990291,545.447021779061,572.64854368932,1869.1613749672,1676.72815533981,0
2494.6688,-7.16517880642676e-08,2.09902149883555e-07,1.38250361819063e-07,1.1963209798479e-07,-1.9226669091672e-07,-1.92266690916243e-07,,1.29168593719696e-06,9.92906405922835e-08,-3.68185999314118e-08,,-2.37594544038246e-08,-3.58820748324768e-08,,,-1.16239098995824e-07,,-5.45200120687189e-08,-1.51674424035251e-07,-4.26313020563197e-09,-1.51674424035496e-07,6.04885995891789e-09,-3.27896937174926e-07,-3.21848077216538e-07,-8.39095233092113e-09,1.35677154859453e-07,,-1.80589308608238e-07,1.80589308608449e-07,-6.25690875912611e-08,1.69529928556423e-07,2.55273142370908e-07,,,1.38899890473038e-07,-6.64913467172988e-08,8.98515689603828e-08,2.75304363378175e-08,2.75304363377945e-08,,,,,3.25344627608414e-07,1.44887403672856e-07,1.05167453182004e-06,2.31650284537876e-07,2.31650284537352e-07,1.53603152687584e-07,-1.53603152687442e-07,5.68171775943147e-08,0,0,0,7.98720000000003,102,932.376099629041,922.456120826709,1392.59472708002,958.563963963964,906.188235294118,626.094594594595,1218.81764705882,1739.7972972973,1045.39215686275,0.0980392156862745
2494.7712,-7.22541793743291e-08,1.97236372420528e-07,1.24982193045979e-07,1.13351730955468e-07,-1.88482454878313e-07,-1.88482454877833e-07,,1.30937814789934e-06,6.1899603440461e-08,-5.1552917701526e-08,,-4.02347228215285e-08,-6.51122503399034e-08,,,-1.34173108241352e-07,,-7.43318984150047e-08,-1.68521732921241e-07,-2.01363051869326e-09,-1.68521732921484e-07,-2.84594469601619e-10,-3.23504314088232e-07,-3.23788908558363e-07,-3.15469662760119e-09,1.36726877171267e-07,,-1.9249915961028e-07,1.92499159610481e-07,-5.23428091716799e-08,1.58226142471199e-07,2.5407715039727e-07,,,1.39670596601983e-07,-7.29600965812964e-08,8.27636077539915e-08,2.88605408174716e-08,2.88605408174492e-08,,,,,3.20923750742091e-07,1.29047910031306e-07,1.00740558084855e-06,2.16805859457049e-07,2.16805859456534e-07,1.38421562123212e-07,-1.38421562123081e-07,6.20058896686208e-08,0,0,0,8.08960000000025,103,977.987641039097,556.821884019942,1716.43230123327,979.475282078195,976.5,547.308816583574,566.334951456311,1839.36945683548,1593.49514563107,0
2494.8736,-7.32374173888078e-08,1.86215072975642e-07,1.12977655586619e-07,1.12086208324278e-07,-1.80012382722478e-07,-1.80012382721997e-07,,1.33773272784275e-06,1.6963875486863e-08,-6.79671183242894e-08,,-5.77862261094556e-08,-9.65846636661797e-08,,,-1.51189560073284e-07,,-9.46515482406084e-08,-1.85621942779275e-07,4.67945253299446e-10,-1.85621942779517e-07,-5.8028044423184e-09,-3.16516055745136e-07,-3.2231886018798e-07,3.44267176233075e-10,1.38955051621308e-07,,-2.09651761877765e-07,2.09651761877955e-07,-4.52982034849316e-08,1.46393115363215e-07,2.53738432349901e-07,,,1.40998769159917e-07,-7.91831352300362e-08,6.96622493712134e-08,2.97699882022215e-08,2.97699882021999e-08,,,,,3.15412899251739e-07,1.14025030456027e-07,9.66064939134744e-07,2.01289844039921e-07,2.01289844039414e-07,1.2486111335788e-07,-1.2486111335776e-07,6.94710213709485e-08,0,0,0,8.19200000000001,102,977.352941176471,558.206862745098,1654.05882352941,984.426470588235,970.279411764706,558.698039215686,557.71568627451,1748.63725490196,1559.48039215686,0
2494.976,-7.43284703464439e-08,1.76836909801304e-07,1.02508439454649e-07,1.15177214771367e-07,-1.67536503073743e-07,-1.67536503073259e-07,,1.37305984363319e-06,-2.95575251648593e-08,-8.50238160868497e-08,,-7.53285690411956e-08,-1.28657600412481e-07,,,-1.65871765328652e-07,,-1.1410652234665e-07,-2.01841412262286e-07,3.12360682957197e-09,-2.01841412262527e-07,-8.92274525922855e-09,-3.0717083445199e-07,-3.16093579711738e-07,1.78422901264119e-09,1.42030254261547e-07,,-2.30483997990223e-07,2.30483997990406e-07,-4.15445697771025e-08,1.34308833542078e-07,2.5377603218805e-07,,,1.42695919808633e-07,-8.4859187044791e-08,5.16983090646892e-08,3.02924095030614e-08,3.02924095030411e-08,,,,,3.09229818338882e-07,1.00691846187964e-07,9.30292946952222e-07,1.86745637076634e-07,1.86745637076137e-07,1.13725938233347e-07,-1.13725938233238e-07,7.98463558187226e-08,0,0,0,8.29440000000022,102,970.191176470588,553.83431372549,1641.9068627451,979.813725490196,960.56862745098,555.524509803922,552.144117647059,1723.79411764706,1560.01960784314,0
2495.0784,-7.50910240332078e-08,1.6872464676819e-07,9.36336227347743e-08,1.21850087160873e-07,-1.51984650095562e-07,-1.51984650095076e-07,,1.41208869876114e-06,-7.14050473584775e-08,-1.01679752905635e-07,,-9.1814677454731e-08,-1.59772739660339e-07,,,-1.77033257713935e-07,,-1.31453505935851e-07,-2.16129505958203e-07,5.88510174854744e-09,-2.16129505958441e-07,-8.40714553922996e-09,-2.95688990066663e-07,-3.04096135606405e-07,9.3744558071126e-10,1.45540013740855e-07,,-2.53044165947191e-07,2.53044165947368e-07,-4.08486758540444e-08,1.22217870893137e-07,2.5351349355818e-07,,,1.44506818225489e-07,-8.97947294187777e-08,2.99871431366266e-08,3.04643663131542e-08,3.04643663131373e-08,,,,,3.02834339275298e-07,8.97080588499273e-08,9.02174943806826e-07,1.74589181013073e-07,1.74589181012587e-07,1.05553967473619e-07,-1.05553967473521e-07,9.3623457403823e-08,0,0,0,8.39679999999999,103,972.135436893204,554.558737864078,1634.35922330097,981.356310679612,962.914563106796,555.306796116505,553.810679611651,1715.72815533981,1552.99029126214,0
2495.1808,-7.50477162693815e-08,1.61287542732658e-07,8.62398264630712e-08,1.31381230501947e-07,-1.34409263564191e-07,-1.34409263563705e-07,,1.45237245743595e-06,-1.03016635405747e-07,-1.16999759831296e-07,,-1.06351092938248e-07,-1.88592857250191e-07,,,-1.83836099930988e-07,,-1.45694178314461e-07,-2.27633654428615e-07,8.68834735738988e-09,-2.27633654428852e-07,-3.51556282519092e-09,-2.82287243714214e-07,-2.85802806539908e-07,-2.24029178120085e-09,1.4908700083865e-07,,-2.75213325342019e-07,2.75213325342193e-07,-4.28623376191067e-08,1.1037836167122e-07,2.52258158751303e-07,,,1.46177700411323e-07,-9.38822919123427e-08,5.62838992681674e-09,3.03234353656452e-08,3.03234353656317e-08,,,,,2.96706231854826e-07,8.15313854532342e-08,8.83150275715054e-07,1.65946499709253e-07,1.65946499708777e-07,1.00742546381012e-07,-1.00742546380923e-07,1.11093337793901e-07,0,0,0,8.4992000000002,102,985.339705882353,551.354901960784,1643.37745098039,992.218627450981,978.460784313726,545.56568627451,557.144117647059,1726.67647058824,1560.07843137255,0
2495.2832,-7.37883734248827e-08,1.5388919043856e-07,8.01008170134746e-08,1.43175763184343e-07,-1.15889273620012e-07,-1.15889273619525e-07,,1.49259794158262e-06,-1.20263422807573e-07,-1.30238790182232e-07,,-1.18278547931125e-07,-2.14085549573543e-07,,,-1.85862391723025e-07,,-1.56149077762628e-07,-2.35786092412381e-07,1.14766471721735e-08,-2.35786092412616e-07,5.93755924560205e-09,-2.67252254779243e-07,-2.61314695534135e-07,-7.5431352669424e-09,1.52374653117958e-07,,-2.94937788039829e-07,2.94937788040003e-07,-4.73086802962949e-08,9.90950850250382e-08,2.49495233035485e-07,,,1.47518054953182e-07,-9.7058467773524e-08,-2.02243211090229e-08,2.99037916658828e-08,2.99037916658736e-08,,,,,2.91342078687155e-07,7.64479773444879e-08,8.73931609339106e-07,1.61650502687277e-07,1.61650502686811e-07,9.96691354804404e-08,-9.96691354803593e-08,1.32244375208594e-07,0,0,0,8.60159999999996,103,971.979611650485,548.441262135922,1636.27669902913,980.795145631068,963.164077669903,546.390291262136,550.492233009709,1718.90291262136,1553.65048543689,0
2495.3856,-7.10565709719928e-08,1.46001346379246e-07,7.49447754070522e-08,1.56758465761769e-07,-9.74580951263956e-08,-9.74580951259091e-08,,1.53268900058665e-06,-1.20885523203166e-07,-1.40879768648641e-07,,-1.27203246391747e-07,-2.35541202337959e-07,,,-1.83121581713986e-07,,-1.62473848069054e-07,-2.40340674475456e-07,1.41956383053265e-08,-2.4034067447569e-07,1.96349869475992e-08,-2.51022497785769e-07,-2.31387510838655e-07,-1.44947965510621e-08,1.55255521971419e-07,,-3.10454276435572e-07,3.10454276435747e-07,-5.40758655885841e-08,8.87323537720986e-08,2.45030443115701e-07,,,1.48437300955681e-07,-9.92637033058601e-08,-4.62956398609614e-08,2.92246925581442e-08,2.92246925581374e-08,,,,,2.87260366347565e-07,7.46089580514914e-08,8.74495926804232e-07,1.62253894646366e-07,1.6225389464591e-07,1.02742189611206e-07,-1.02742189611132e-07,1.5667220848444e-07,0,1,0,8.70400000000018,102,948.511764705882,551.998039215686,1623.34803921569,960.501960784314,936.521568627451,551.38137254902,552.614705882353,1700.48039215686,1546.21568627451,0
2495.488,-6.68029816270853e-08,1.37323003609529e-07,7.05200219822447e-08,1.7170013037885e-07,-8.00309864335855e-08,-8.00309864331002e-08,,1.57367510933731e-06,-1.04598256562434e-07,-1.48637527920271e-07,,-1.3298835866909e-07,-2.52547618789411e-07,,,-1.75996641659934e-07,,-1.64628321712155e-07,-2.41359796724799e-07,1.67837557310405e-08,-2.41359796725031e-07,3.69036998204685e-08,-2.34236367934725e-07,-1.97332668114732e-07,-2.23863958239418e-08,1.57733321295661e-07,,-3.20486824182118e-07,3.20486824182296e-07,-6.31948111362885e-08,7.97014908914501e-08,2.39045950903191e-07,,,1.48950690863494e-07,-1.00421197125625e-07,-7.1186028000526e-08,2.82809094660741e-08,2.82809094660695e-08,,,,,2.84994340048271e-07,7.60549913847961e-08,8.84183467577948e-07,1.68007819118583e-07,1.68007819118134e-07,1.10348546496015e-07,-1.10348546495946e-07,1.83556878057048e-07,0,1,0,8.80639999999994,102,944.088235294118,549.340196078431,1624.10784313725,955.11568627451,933.060784313725,547.012745098039,551.667647058824,1697.00980392157,1551.20588235294,0
2495.5904,-6.11854880715794e-08,1.27833470424527e-07,6.66479823527488e-08,1.87508856697333e-07,-6.43295431801376e-08,-6.43295431796538e-08,,1.61733803703856e-06,-7.28302073591719e-08,-1.53442139089471e-07,,-1.35721926481204e-07,-2.64948302487119e-07,,,-1.65140900349377e-07,,-1.62819417469397e-07,-2.391579361743e-07,1.91627241124891e-08,-2.39157936174531e-07,5.69144960248054e-08,-2.17717988190684e-07,-1.60803492166346e-07,-3.03658980212177e-08,1.59922110674546e-07,,-3.24379570177741e-07,3.24379570177924e-07,-7.47005137078956e-08,7.24270365972464e-08,2.32048227804523e-07,,,1.49155013602781e-07,-1.00442729322142e-07,-9.34552650000159e-08,2.70436421422526e-08,2.7043642142249e-08,,,,,2.85041285984777e-07,8.07111864721718e-08,9.01854259185487e-07,1.78794218140891e-07,1.78794218140448e-07,1.22709548691216e-07,-1.22709548691151e-07,2.11714814727912e-07,0,1,0,8.90880000000016,103,952.37427184466,556.534951456311,1610.84951456311,963.298058252427,941.450485436893,551.859223300971,561.210679611651,1683,1538.69902912621,0
2495.6928,-5.4515211506411e-08,1.17760115779068e-07,6.32449042724593e-08,2.03529790307584e-07,-5.08155006848126e-08,-5.08155006843302e-08,,1.66570138472412e-06,-2.81596412252196e-08,-1.55411901879749e-07,,-1.35675427043182e-07,-2.72806763151129e-07,,,-1.51350020185011e-07,,-1.57438723543063e-07,-2.34216656516465e-07,2.12349140147398e-08,-2.34216656516694e-07,7.88667968701447e-08,-2.02369433315694e-07,-1.2350263644601e-07,-3.75596515041108e-08,1.61975933391093e-07,,-3.22144851775674e-07,3.2214485177586e-07,-8.84301187651067e-08,6.73008821773482e-08,2.24711718637546e-07,,,1.49180475914667e-07,-9.9262350826179e-08,-1.11772757132941e-07,2.54680755009634e-08,2.54680755009593e-08,,,,,2.87751072203626e-07,8.83494016417221e-08,9.26018325060812e-07,1.94039049060847e-07,1.9403904906041e-07,1.39704785906223e-07,-1.39704785906161e-07,2.39711127125617e-07,0,0,0,9.01119999999992,102,964.329901960784,559.360784313726,1611.99019607843,972.577450980392,956.082352941177,550.53431372549,568.187254901961,1684.94117647059,1539.03921568627,0
2495.7952,-4.71680588962468e-08,1.07482003041754e-07,6.03139441453092e-08,2.18901883238377e-07,-3.96406086956351e-08,-3.96406086951536e-08,,1.72049191079342e-06,2.63853327558341e-08,-1.54816173165073e-07,,-1.33255712082914e-07,-2.76377360315151e-07,,,-1.35436502635111e-07,,-1.49001773644087e-07,-2.27088190181017e-07,2.28912668491632e-08,-2.27088190181245e-07,1.02106802600202e-07,-1.88972756829753e-07,-8.68659542300041e-08,-4.31965501942747e-08,1.64016004625327e-07,,-3.14425714379921e-07,3.14425714380111e-07,-1.03856075678091e-07,6.46364027120676e-08,2.17673562607985e-07,,,1.49138025289176e-07,-9.68798505891593e-08,-1.25093926271303e-07,2.35007554602591e-08,2.35007554602539e-08,,,,,2.93183799516114e-07,9.85454397975449e-08,9.54922201710454e-07,2.12665993684715e-07,2.1266599368428e-07,1.60761927361391e-07,-1.60761927361331e-07,2.66008511170238e-07,0,0,0,9.11360000000013,102,964.782843137255,555.778431372549,1630.58823529412,972.722549019608,956.843137254902,547.13431372549,564.422549019608,1703.06862745098,1558.10784313725,0
2495.8976,-3.94856077686956e-08,9.74218090097504e-08,5.79362012408562e-08,2.32607763178471e-07,-3.06222256117709e-08,-3.06222256112901e-08,,1.78273159680391e-06,8.79842680496268e-08,-1.52018723377196e-07,,-1.28942591449005e-07,-2.76055773726964e-07,,,-1.18124076062058e-07,,-1.38081776696205e-07,-2.18298172052021e-07,2.40258933037124e-08,-2.1829817205225e-07,1.26174630196643e-07,-1.77982371085243e-07,-5.18077408890473e-08,-4.66954971987234e-08,1.66088747916644e-07,,-3.02371384914781e-07,3.02371384914973e-07,-1.20036283713483e-07,6.46438117643009e-08,2.1136204838388e-07,,,1.49088546749115e-07,-9.33781103886302e-08,-1.32794048068238e-07,2.10854978722844e-08,2.10854978722765e-08,,,,,3.01008568412738e-07,1.10678681377339e-07,9.86633737734173e-07,2.33160763563417e-07,2.33160763562982e-07,1.84886689996274e-07,-1.84886689996214e-07,2.89104833919901e-07,0,0,0,9.21599999999989,103,962.806310679612,552.937378640777,1640.14563106796,972.932038834951,952.680582524272,540.4,565.474757281553,1716.08737864078,1564.20388349515,0
2496,-3.1691690337161e-08,8.79627532942976e-08,5.62710629569367e-08,2.43617226013938e-07,-2.3265704222617e-08,-2.32657042221359e-08,,1.85258180119812e-06,1.54463740273979e-07,-1.47408210280252e-07,,-1.23218506064911e-07,-2.72303162885209e-07,,,-9.99801528758889e-08,,-1.25243574369126e-07,-2.08266766688616e-07,2.45506180933099e-08,-2.08266766688844e-07,1.50796384694973e-07,-1.69414878862337e-07,-1.86184941678053e-08,-4.76900790040754e-08,1.68169847792633e-07,,-2.87447529280426e-07,2.8744752928062e-07,-1.35700845031884e-07,6.74362204581571e-08,2.05913925165185e-07,,,1.49045952142753e-07,-8.88998564174187e-08,-1.34695076457234e-07,1.81694345991122e-08,1.81694345991042e-08,,,,,3.10499450029386e-07,1.23993888589374e-07,1.0191369767629e-06,2.5375978504028e-07,2.53759785039843e-07,2.10814327340885e-07,-2.10814327340825e-07,3.07630978118091e-07,0,0,0,9.31840000000011,102,961.970098039216,552.912254901961,1642.19607843137,973.501960784314,950.438235294118,539.079411764706,566.745098039216,1717.89215686275,1566.5,0
2496.1024,-2.38493296848442e-08,7.93924520807001e-08,5.55431223956552e-08,2.51061381974669e-07,-1.68469659825996e-08,-1.68469659821178e-08,,1.92944280503063e-06,2.24406054279837e-07,-1.41345757229875e-07,,-1.16516498375395e-07,-2.65583491768283e-07,,,-8.14047113879998e-08,,-1.11002716848381e-07,-1.97278494532598e-07,2.44058866402518e-08,-1.97278494532827e-07,1.75839335059225e-07,-1.62878910738958e-07,1.29604243198285e-08,-4.60040797397206e-08,1.70197148035658e-07,,-2.71243892139879e-07,2.71243892140074e-07,-1.49432847627429e-07,7.30443214574463e-08,2.01185108425925e-07,,,1.49000718409494e-07,-8.36114185735987e-08,-1.30989439087965e-07,1.4712109317375e-08,1.47121093173666e-08,,,,,3.2062024189273e-07,1.37690987171477e-07,1.05040963855767e-06,2.72691177291354e-07,2.72691177290912e-07,2.37212011842582e-07,-2.3721201184252e-07,3.20443564365882e-07,0,0,0,9.42080000000033,103,967.090776699029,560.881553398058,1626.79611650485,980.676699029126,953.504854368932,540.670873786408,581.092233009709,1702.34951456311,1551.2427184466,0
2496.2048,-1.58717381430849e-08,7.18697290117642e-08,5.59979908684777e-08,2.54341308598209e-07,-1.05397361355845e-08,-1.05397361351014e-08,,2.01217588316027e-06,2.96950203676771e-07,-1.34155288521114e-07,,-1.09207387076277e-07,-2.56353348035503e-07,,,-6.26724613829577e-08,,-9.58259042128052e-08,-1.85514832123738e-07,2.35670545226076e-08,-1.85514832123968e-07,2.0125996850732e-07,-1.57705315810726e-07,4.35546526961565e-08,-4.16202964971103e-08,1.72101566263688e-07,,-2.55338385596691e-07,2.55338385596886e-07,-1.59872425516818e-07,8.14132283326069e-08,1.9682606421036e-07,,,1.48940743256602e-07,-7.76885160335983e-08,-1.22136838353617e-07,1.06994213906048e-08,1.0699421390595e-08,,,,,3.30150446465577e-07,1.509955423834e-07,1.07848383063207e-06,2.88378277933375e-07,2.88378277932925e-07,2.62886708058795e-07,-2.62886708058732e-07,3.26755990555381e-07,0,0,0,9.52320000000009,102,983.55637254902,554.15,1630.86764705882,996.688235294118,970.424509803922,532.259803921569,576.040196078431,1705.1862745098,1556.54901960784,0
2496.3072,-7.59533260815568e-09,6.54222018394693e-08,5.78268692311108e-08,2.53141158496972e-07,-3.56220857855064e-09,-3.56220857806539e-09,,2.09922714115707e-06,3.71345581891135e-07,-1.26159783117649e-07,,-1.0162901485581e-07,-2.45112047404004e-07,,,-4.40073093510511e-08,,-8.01696938482938e-08,-1.73136830683333e-07,2.20449263584222e-08,-1.73136830683563e-07,2.27069064979449e-07,-1.53110673696321e-07,7.39583912826899e-08,-3.46802608620398e-08,1.738189023633e-07,,-2.41239913463257e-07,2.41239913463449e-07,-1.65889032046811e-07,9.23805076817888e-08,1.92378545785237e-07,,,1.48857804011273e-07,-7.13335270530498e-08,-1.08817087879973e-07,6.15908182760646e-09,6.15908182759575e-09,,,,,3.37817192553915e-07,1.63194723122988e-07,1.10151835407591e-06,2.99564702085326e-07,2.99564702084866e-07,2.86967682581876e-07,-2.8696768258181e-07,3.26295993344137e-07,0,0,0,9.6256000000003,103,985.820388349515,561.231553398058,1635.79611650485,998.172815533981,973.467961165049,536.668932038835,585.794174757282,1709.7572815534,1561.83495145631,0
2496.4096,1.09051606261737e-09,5.99778520684311e-08,6.1068368130845e-08,2.47408766226036e-07,4.66591124344155e-09,4.66591124392899e-09,,2.18847886781654e-06,4.46307281467573e-07,-1.17744170736759e-07,,-9.41436459964485e-08,-2.32490665474612e-07,,,-2.56674460594724e-08,,-6.45404620019909e-08,-1.60385823571099e-07,1.98795246499212e-08,-1.60385823571331e-07,2.53315060712788e-07,-1.48345067560985e-07,1.04969993151364e-07,-2.55216588886692e-08,1.75283035527076e-07,,-2.30395002592086e-07,2.30395002592276e-07,-1.66694310086308e-07,1.05658101764736e-07,1.87341463863614e-07,,,1.48742779030019e-07,-6.48118013016334e-08,-9.19631238813205e-08,1.17229124088311e-09,1.17229124087233e-09,,,,,3.42413491480487e-07,1.73648663347483e-07,1.11788300600865e-06,3.05354461502262e-07,3.05354461501792e-07,3.09020566274159e-07,-3.0902056627409e-07,3.19432615921321e-07,0,0,0,9.72800000000007,102,986.446078431373,568.420588235294,1642.49019607843,999.075490196078,973.816666666667,540.776470588235,596.064705882353,1721.1862745098,1563.79411764706,0
2496.512,1.01014610247146e-08,5.54210288165606e-08,6.55224898410715e-08,2.37363525237823e-07,1.4379563292343e-08,1.43795632928329e-08,,2.27690186478166e-06,5.19374530346239e-07,-1.09406267460615e-07,,-8.71912722278664e-08,-2.19324271148704e-07,,,-8.01100319649677e-09,,-4.95403282985253e-08,-1.47653435486915e-07,1.71292790950614e-08,-1.47653435487149e-07,2.800780827084e-07,-1.42791910022012e-07,1.37286172685943e-07,-1.47200215732787e-08,1.76410214110688e-07,,-2.24193414491352e-07,2.24193414491538e-07,-1.61883349887531e-07,1.20850870831311e-07,1.81171755418876e-07,,,1.48580010306192e-07,-5.84814844775028e-08,-7.28217579734538e-08,-4.121963077458e-09,-4.12196307746989e-09,,,,,3.4288483998306e-07,1.81796252874285e-07,1.12624211061532e-06,3.05180950733989e-07,3.05180950733507e-07,3.29069367700967e-07,-3.29069367700897e-07,3.07207795738034e-07,0,0,0,9.83040000000028,102,987.247549019608,573.003921568628,1642.55392156863,999.190196078431,975.304901960784,544.010784313725,601.997058823529,1722.85294117647,1562.25490196078,0
2496.6144,1.90748465848579e-08,5.16609416431179e-08,7.0735788227772e-08,2.23524943361385e-07,2.5404941117351e-08,2.54049411178439e-08,,2.3603067000266e-06,5.86634453846516e-07,-1.01757880051563e-07,,-8.13023663436759e-08,-2.0664130290027e-07,,,8.49330852114913e-09,,-3.58590555283626e-08,-1.35477912781819e-07,1.3862929650696e-08,-1.35477912782055e-07,3.07466630662635e-07,-1.36001940260964e-07,1.7146469040122e-07,-3.08288202586785e-09,1.77090839212979e-07,,-2.23880813768929e-07,2.23880813769111e-07,-1.51418493768927e-07,1.37528834404315e-07,1.73242431718862e-07,,,1.48352425235561e-07,-5.27850083312626e-08,-5.29618444513415e-08,-9.53277084816298e-09,-9.53277084817652e-09,,,,,3.38384139626072e-07,1.87183656797634e-07,1.12565373078347e-06,2.98767358065927e-07,2.98767358065432e-07,3.47539667615206e-07,-3.47539667615135e-07,2.91233617100951e-07,0,1,0,9.93280000000004,103,988.504854368932,572.627669902913,1637.45145631068,997.38932038835,979.620388349515,545.750485436893,599.504854368932,1717.47572815534,1557.42718446602,0
2496.7168,2.73919950672842e-08,4.86958476116571e-08,7.60878426787375e-08,2.06728912539836e-07,3.72298768483721e-08,3.72298768488682e-08,,2.43345372741562e-06,6.43037686221702e-07,-9.5466904047588e-08,,-7.70566171668233e-08,-1.95553194237707e-07,,,2.33161314067171e-08,,-2.42054251079425e-08,-1.24468419708276e-07,1.01614094390384e-08,-1.24468419708513e-07,3.35597946500017e-07,-1.27679046151309e-07,2.07918900348248e-07,8.43260438719829e-09,1.77205608016815e-07,,-2.30348160615476e-07,2.30348160615653e-07,-1.35602956949793e-07,1.55330796512425e-07,1.62820255495925e-07,,,1.48065066044269e-07,-4.81854976432309e-08,-3.41845348677889e-08,-1.48341741696213e-08,-1.48341741696359e-08,,,,,3.28321167157746e-07,1.89532264564913e-07,1.11568590350473e-06,2.86162032601893e-07,2.86162032601386e-07,3.65147255080564e-07,-3.65147255080493e-07,2.73468596219072e-07,0,1,0,10.0352000000003,102,988.476960784314,569.419607843137,1624.72549019608,995.264705882353,981.689215686274,544.763725490196,594.075490196079,1704.8137254902,1544.63725490196,0
2496.8192,3.43000503244376e-08,4.66449900644194e-08,8.09450403886538e-08,1.88114632774798e-07,4.91754323628238e-08,4.91754323633229e-08,,2.49059918406481e-06,6.83193895454157e-07,-9.11628736819389e-08,,-7.50048749766419e-08,-1.87092001598742e-07,,,3.59422949268242e-08,,-1.52152441818928e-08,-1.15202251160126e-07,6.12825810173127e-09,-1.15202251160366e-07,3.64538199291679e-07,-1.17666624354694e-07,2.46871574936516e-07,1.88659629027821e-08,1.76668666721676e-07,,-2.43875367703625e-07,2.43875367703798e-07,-1.15082891104123e-07,1.74051241298436e-07,1.49106121164908e-07,,,1.47783432876268e-07,-4.50651552632581e-08,-1.833632091092e-08,-1.97911903071265e-08,-1.97911903071422e-08,,,,,3.12426463293415e-07,1.88823232546052e-07,1.09649009387857e-06,2.67858620994418e-07,2.67858620993899e-07,3.82753103968893e-07,-3.82753103968825e-07,2.55932911554318e-07,0,1,0,10.1376,103,982.630582524272,570.755339805825,1613.92718446602,985.687378640777,979.573786407767,548.85145631068,592.659223300971,1688.60194174757,1539.25242718447,0
2496.9216,3.90819229893606e-08,4.57282191763048e-08,8.48101421654624e-08,1.69074968319791e-07,6.05744707249102e-08,6.05744707254128e-08,,2.52635282408391e-06,7.02319616741562e-07,-8.9340265540388e-08,,-7.55852672914337e-08,-1.82063465073852e-07,,,4.59297990933237e-08,,-9.38054792146418e-09,-1.08141765354939e-07,1.89880932740915e-09,-1.0814176535518e-07,3.94210525172339e-07,-1.05971208730887e-07,2.88239316440974e-07,2.74185212309401e-08,1.75479680332594e-07,,-2.63949949646161e-07,2.6394994964633e-07,-9.08656402513381e-08,1.93670922924932e-07,1.31336300243066e-07,,,1.47668261268818e-07,-4.36270634205514e-08,-7.06254513728634e-09,-2.41903812239886e-08,-2.4190381224005e-08,,,,,2.90818094289246e-07,1.85350716894088e-07,1.06877481310114e-06,2.44911389671404e-07,2.44911389670876e-07,4.01205403762739e-07,-4.01205403762675e-07,2.40434998094413e-07,0,0,0,10.2400000000002,102,971.613235294118,569.831862745098,1602.11764705882,975.569607843137,967.656862745098,549.052941176471,590.610784313726,1673.49019607843,1530.74509803922,0
2497.024,4.12073960571038e-08,4.62009057827697e-08,8.74083018396708e-08,1.51154461252178e-07,7.08833235307849e-08,7.0883323531291e-08,,2.53655845814354e-06,6.97047786099597e-07,-9.02883650164881e-08,,-7.90593009375928e-08,-1.80960535196749e-07,,,5.29367029450903e-08,,-7.01852177573743e-09,-1.03593377883725e-07,-2.36060860908265e-09,-1.03593377883967e-07,4.24321386675548e-07,-9.28164332858561e-08,3.31504953389205e-07,3.35797315375575e-08,1.73757666342067e-07,,-2.89240683322404e-07,2.89240683322571e-07,-6.43055964916985e-08,2.14315743796066e-07,1.08919990395788e-07,,,1.47982206087128e-07,-4.38390009932277e-08,-1.57569439035353e-09,-2.78656045028361e-08,-2.78656045028531e-08,,,,,2.64045202084563e-07,1.79708161234469e-07,1.03368854935972e-06,2.1893447146626e-07,2.18934471465726e-07,4.21188166754287e-07,-4.2118816675423e-07,2.28362443032145e-07,0,0,0,10.3424,102,973.627941176471,574.057843137255,1593.54901960784,977.23137254902,970.024509803922,553.346078431373,594.769607843137,1664.67647058824,1522.42156862745,0
2497.1264,4.04216449433746e-08,4.82684898325852e-08,8.8690134775757e-08,1.35870901521853e-07,7.97141246896392e-08,7.97141246901484e-08,,2.51894303925936e-06,6.65990978887763e-07,-9.40625690011981e-08,,-8.54802738426534e-08,-1.83947534508179e-07,,,5.67208683241766e-08,,-8.27429027647442e-09,-1.01708004818511e-07,-6.46568675164716e-09,-1.01708004818753e-07,4.54350347094381e-07,-7.86821720734892e-08,3.75668175020397e-07,3.71730319344084e-08,1.7173868311618e-07,,-3.17742400405856e-07,3.17742400406021e-07,-3.70157719528217e-08,2.36149454560672e-07,8.15891108510709e-08,,,1.49055665552282e-07,-4.54348991734823e-08,-2.51543731089938e-09,-3.07086243330123e-08,-3.07086243330295e-08,,,,,2.33088646293447e-07,1.72700639485416e-07,9.92650340128985e-07,1.9193241045851e-07,1.91932410457972e-07,4.43099413182921e-07,-4.43099413182875e-07,2.20545985930445e-07,0,0,0,10.4448000000002,103,978.505825242718,571.901941747573,1575.53398058252,986.126213592233,970.885436893204,552.901941747573,590.901941747573,1646.57281553398,1504.49514563107,0
2497.2288,3.67698432589091e-08,5.20044536935214e-08,8.87742969522275e-08,1.24456761564411e-07,8.68260921890095e-08,8.68260921895219e-08,,2.47345224744128e-06,6.10098100817643e-07,-1.00491867128767e-07,,-9.46885536767929e-08,-1.90888826277543e-07,,,5.71341474693928e-08,,-1.31363576905141e-08,-1.02501202737334e-07,-1.02354420043922e-08,-1.02501202737576e-07,4.83610293315371e-07,-6.42865014159807e-08,4.19323791898891e-07,3.83192843586724e-08,1.69736109456381e-07,,-3.47048069893929e-07,3.47048069894092e-07,-1.06963323050636e-08,2.59218673241929e-07,4.95446206410715e-08,,,1.51219389017389e-07,-4.79628814194421e-08,-9.92499942492813e-09,-3.26634674044871e-08,-3.26634674045042e-08,,,,,1.99310615598944e-07,1.65205715282483e-07,9.47172036751013e-07,1.66000554459561e-07,1.66000554459021e-07,4.6697088236809e-07,-4.66970882368055e-07,2.17171620470093e-07,0,0,0,10.5472,102,980.243137254902,571.502941176471,1553.71078431373,989.363725490196,971.122549019608,554.056862745098,588.949019607843,1616.62745098039,1490.79411764706,0
2497.3312,3.05801735340822e-08,5.72948083079051e-08,8.78749818417843e-08,1.17575693680616e-07,9.21283310977988e-08,9.21283310983141e-08,,2.40226661683281e-06,5.32838308669477e-07,-1.09202427296138e-07,,-1.06314713119376e-07,-2.01378175588784e-07,,,5.41457027131046e-08,,-2.14332822060339e-08,-1.05857612231611e-07,-1.35134030162209e-08,-1.05857612231852e-07,5.11366371327831e-07,-5.05097969191291e-08,4.608565744082e-07,3.73475942381596e-08,1.68073926664275e-07,,-3.74664934464895e-07,3.74664934465057e-07,1.30861164383444e-08,2.83274873577924e-07,1.35889375953858e-08,,,1.54723403390873e-07,-5.08557254062818e-08,-2.33170897698683e-08,-3.37134685156444e-08,-3.37134685156602e-08,,,,,1.64356800902085e-07,1.58027366882971e-07,8.98753408203911e-07,1.43007603126857e-07,1.43007603126316e-07,4.92399870834933e-07,-4.92399870834911e-07,2.17748129708664e-07,0,0,0,10.6496000000002,102,981.98431372549,570.69068627451,1535.0931372549,991.627450980392,972.341176470588,553.485294117647,587.896078431373,1589.44117647059,1480.74509803922,0
2497.4336,2.24204587711395e-08,6.38268568662342e-08,8.62473156371711e-08,1.15124804639083e-07,9.57105629338811e-08,9.57105629343993e-08,,2.30946817051825e-06,4.40147792435029e-07,-1.19643863387112e-07,,-1.19779836565041e-07,-2.14749850530883e-07,,,4.79127038801926e-08,,-3.27949522681918e-08,-1.11499407613957e-07,-1.61804502924048e-08,-1.11499407614197e-07,5.36997730875703e-07,-3.82816325097222e-08,4.98716098365479e-07,3.46851121088952e-08,1.67008230072833e-07,,-3.98312104237799e-07,3.9831210423796e-07,3.31091372741158e-08,3.07610737423408e-07,-2.4790183851099e-08,,,1.59662940098355e-07,-5.35078839701045e-08,-4.18013579062177e-08,-3.38695740941604e-08,-3.38695740941745e-08,,,,,1.30010115379824e-07,1.5178480332252e-07,8.48910789393501e-07,1.24370566006319e-07,1.24370566005779e-07,5.18470907997623e-07,-5.18470907997617e-07,2.21190276265798e-07,0,0,0,10.752,103,984.466504854369,567.285922330097,1536.46116504854,992.18932038835,976.743689320388,548.96213592233,585.609708737864,1587.8640776699,1485.05825242718,0
2497.536,1.3034038841327e-08,7.11188616768972e-08,8.41529005180216e-08,1.16221730229397e-07,9.78691879780823e-08,9.78691879786034e-08,,2.20034977360692e-06,3.40044312295385e-07,-1.31121550247141e-07,,-1.34305008979131e-07,-2.30091245969328e-07,,,3.88721457154463e-08,,-4.65996583165307e-08,-1.18933596686452e-07,-1.81570714832913e-08,-1.1893359668669e-07,5.60169943621511e-07,-2.84366604240809e-08,5.31733283196931e-07,3.07500012771775e-08,1.66654179355687e-07,,-4.16190763458838e-07,4.16190763458996e-07,4.86519903085608e-08,3.30970632657857e-07,-6.34595816734548e-08,,,1.65928497785595e-07,-5.53565642929156e-08,-6.42529225072046e-08,-3.3163122069182e-08,-3.31631220691955e-08,,,,,9.79893798396379e-08,1.46855574464063e-07,7.99269049465628e-07,1.1096395682321e-07,1.10963956822674e-07,5.43724934620879e-07,-5.43724934620888e-07,2.26045308440276e-07,0,0,0,10.8544000000002,102,984.983333333333,561.838725490196,1551.36274509804,990.763725490196,979.202941176471,544.169607843137,579.507843137255,1604.88235294118,1497.8431372549,0
2497.6384,3.26684053058851e-09,7.85699330022443e-08,8.18367735326309e-08,1.19390037105697e-07,9.90962833516797e-08,9.90962833522029e-08,,2.08050995634446e-06,2.41880638571078e-07,-1.42842678994647e-07,,-1.48950097993865e-07,-2.46284555066185e-07,,,2.77960328265475e-08,,-6.19524161683718e-08,-1.27417861089891e-07,-1.93982672250297e-08,-1.27417861090127e-07,5.80958507037308e-07,-2.156280213426e-08,5.59395704902553e-07,2.58748345630604e-08,1.6694129986217e-07,,-4.27214276746864e-07,4.27214276747019e-07,5.95741239148265e-08,3.51595122129004e-07,-9.98509989123748e-08,,,1.73193992511241e-07,-5.59590405318242e-08,-8.94794199426609e-08,-3.16418980063684e-08,-3.16418980063804e-08,,,,,6.9732475958242e-08,1.43379246176092e-07,7.51558076774645e-07,1.03159291468091e-07,1.0315929146756e-07,5.66267262543848e-07,-5.66267262543873e-07,2.30798854900824e-07,0,0,0,10.9567999999999,103,983.596116504854,561.97572815534,1569.81553398058,989.449514563107,977.742718446602,545.601941747573,578.349514563107,1627.45631067961,1512.17475728155,0
2497.7408,-5.99874482236638e-09,8.551753036785e-08,7.95187855452832e-08,1.22860016871813e-07,1.00037159309675e-07,1.00037159310199e-07,,1.95506053096146e-06,1.55315542840425e-07,-1.53975993296005e-07,,-1.62688666996474e-07,-2.62085123220432e-07,,,1.57607079743104e-08,,-7.77306132798152e-08,-1.35983612276413e-07,-1.98852299116293e-08,-1.35983612276648e-07,5.99856785052713e-07,-1.79140327220499e-08,5.81942752330176e-07,2.02838711360369e-08,1.67624805310339e-07,,-4.31120898919801e-07,4.31120898919952e-07,6.62728604053211e-08,3.67419668574877e-07,-1.31283664136107e-07,,,1.8095619345571e-07,-5.5039859316333e-08,-1.1633427621907e-07,-2.93638756714548e-08,-2.93638756714649e-08,,,,,4.62628362698436e-08,1.41326472467064e-07,7.07435912149896e-07,1.00988116810995e-07,1.00988116810472e-07,5.8404385618776e-07,-5.84043856187798e-07,2.34155636026851e-07,0,0,0,11.0592000000001,102,983.88137254902,564.013235294118,1588.53921568627,987.844117647059,979.91862745098,551.888235294118,576.138235294118,1650.78431372549,1526.29411764706,0
2497.8432,-1.39014563099634e-08,9.130592662132e-08,7.74044703111582e-08,1.24864045291903e-07,1.01442647911937e-07,1.0144264791246e-07,,1.8282497798169e-06,8.92057096119348e-08,-1.63717992223834e-07,,-1.74507996300534e-07,-2.76223741556152e-07,,,4.02476374638946e-09,,-9.26978312426598e-08,-1.43526995560487e-07,-1.96170904496706e-08,-1.4352699556072e-07,6.17650476642881e-07,-1.74379344359986e-08,6.00212542206402e-07,1.41227170122859e-08,1.6836249595221e-07,,-4.28381042500682e-07,4.28381042500829e-07,6.94963796612916e-08,3.76392862605767e-07,-1.55285416299829e-07,,,1.88628016983182e-07,-5.24833427145887e-08,-1.43759379208525e-07,-2.63853959906321e-08,-2.63853959906423e-08,,,,,2.82028816090225e-08,1.40621362611452e-07,6.68224587307111e-07,1.0438876699626e-07,1.04388766995745e-07,5.95234493660589e-07,-5.95234493660639e-07,2.35225128053884e-07,1,0,0,11.1615999999999,103,981.433009708738,568.41359223301,1610.44660194175,984.411650485437,978.454368932039,558.127184466019,578.7,1679.16504854369,1541.72815533981,0
2497.9456,-1.96652909201403e-08,9.53631849148357e-08,7.56978939945002e-08,1.23847298227084e-07,1.0412850701701e-07,1.04128507017531e-07,,1.70352454192181e-06,5.06721181667257e-08,-1.71360438833397e-07,,-1.83517175771007e-07,-2.87520273390482e-07,,,-6.14759654630634e-09,,-1.0565451754201e-07,-1.48947532304599e-07,-1.86051724991076e-08,-1.48947532304832e-07,6.352143264814e-07,-1.98726028139712e-08,6.15341723666957e-07,7.50970972611745e-09,1.68827364064614e-07,,-4.19918333286028e-07,4.19918333286171e-07,7.00701612922545e-08,3.76831978654917e-07,-1.69843492566196e-07,,,1.95660766829142e-07,-4.82814247041733e-08,-1.70788976667642e-07,-2.27484885043696e-08,-2.27484885043791e-08,,,,,1.58893425718217e-08,1.41269929898188e-07,6.34712175445829e-07,1.13431657584599e-07,1.13431657584094e-07,5.98665815440641e-07,-5.98665815440702e-07,2.336039340892e-07,1,0,0,11.2640000000001,102,979.558333333333,566.575490196079,1636.27941176471,981.295098039216,977.821568627451,557.846078431373,575.304901960784,1709.42156862745,1563.13725490196,0
2498.048,-2.26800280348557e-08,9.72616746919443e-08,7.4581646656897e-08,1.18583131288761e-07,1.0892506037943e-07,1.08925060379947e-07,,1.58379746343329e-06,4.4501183492496e-08,-1.76359990173679e-07,,-1.89050787029811e-07,-2.95010159587614e-07,,,-1.36736944337086e-08,,-1.15590318894552e-07,-1.51305860359006e-07,-1.68715566758959e-08,-1.51305860359237e-07,6.53312445419766e-07,-2.48300847663283e-08,6.28482360652972e-07,5.72435371187708e-10,1.68802469236478e-07,,-4.06803166790627e-07,4.06803166790767e-07,6.86583681059732e-08,3.67709769068716e-07,-1.7357499598534e-07,,,2.01648890388439e-07,-4.24810840063059e-08,-1.96558450529592e-07,-1.84727332237168e-08,-1.84727332237258e-08,,,,,9.49150377257866e-09,1.43430162686876e-07,6.07081783742447e-07,1.28407956983451e-07,1.28407956982959e-07,5.94122555082244e-07,-5.94122555082311e-07,2.29384284243182e-07,1,0,0,11.3663999999999,102,977.977450980392,564.352450980392,1658.17647058824,978.337254901961,977.617647058824,558.628431372549,570.076470588235,1736.3137254902,1580.03921568627,0
2498.1504,-2.25822163439337e-08,9.67326085939399e-08,7.41503922498192e-08,1.0821460787707e-07,1.16589054408836e-07,1.16589054409347e-07,,1.47166913300271e-06,7.29182526363622e-08,-1.78405177238213e-07,,-1.90754318396385e-07,-2.98077910187221e-07,,,-1.78149698091745e-08,,-1.21811065411178e-07,-1.49971212682509e-07,-1.44539642067089e-08,-1.4997121268274e-07,6.72457398300048e-07,-3.18319403813088e-08,6.40625457918278e-07,-6.54574488112238e-09,1.68215767824878e-07,,-3.90106354891114e-07,3.90106354891251e-07,6.56676219938794e-08,3.48792008435239e-07,-1.65828609658717e-07,,,2.06376756360859e-07,-3.51738022722047e-08,-2.20330396694763e-07,-1.3553851625557e-08,-1.35538516255669e-08,,,,,9.06200391679253e-09,1.47382750966582e-07,5.84921014408578e-07,1.49728800734617e-07,1.49728800734138e-07,5.82430829885983e-07,-5.82430829886056e-07,2.23114521472923e-07,0,0,0,11.4688000000001,103,979.731067961165,561.259223300971,1682.07281553398,975.965048543689,983.497087378641,554.698058252427,567.820388349515,1765.99029126214,1598.15533980583,0
2498.2528,-1.93062046135497e-08,9.36316431949738e-08,7.43254385812422e-08,9.2250599494008e-08,1.27673840275801e-07,1.27673840276305e-07,,1.36949458596442e-06,1.35696426848666e-07,-1.77463159824269e-07,,-1.8863050634198e-07,-2.96563777813657e-07,,,-1.82804066955908e-08,,-1.24014567362315e-07,-1.44723066825508e-07,-1.14167113710975e-08,-1.44723066825739e-07,6.92851154179236e-07,-4.03025037211643e-08,6.52548650457613e-07,-1.37021432564142e-08,1.67102908516386e-07,,-3.70971244003988e-07,3.70971244004122e-07,6.13244841983856e-08,3.2061320465012e-07,-1.46737540069173e-07,,,2.09793041706681e-07,-2.65372402760641e-08,-2.41524233589271e-07,-7.97196952826008e-09,-7.97196952827198e-09,,,,,1.44977342070386e-08,1.53406014198929e-07,5.67285873893578e-07,1.77654523766965e-07,1.77654523766501e-07,5.65257726049264e-07,-5.6525772604934e-07,2.15728019651079e-07,0,0,0,11.5712000000003,102,976.902941176471,561.703431372549,1693.6862745098,970.639215686275,983.166666666667,553.53431372549,569.872549019608,1779.03921568627,1608.33333333333,0
2498.3552,-1.3086071708326e-08,8.78842618531785e-08,7.47981901446765e-08,7.05508222334476e-08,1.42390199168471e-07,1.42390199168966e-07,,1.27930572617564e-06,2.30500918125065e-07,-1.73787197559535e-07,,-1.83030314875253e-07,-2.90800884170962e-07,,,-1.5243784101253e-08,,-1.22297354886723e-07,-1.35778040125537e-07,-7.8615090818455e-09,-1.35778040125769e-07,7.14407422663725e-07,-4.95405867560866e-08,6.64866835907179e-07,-2.07816013776132e-08,1.65519957232498e-07,,-3.50783584811737e-07,3.50783584811868e-07,5.5859498756513e-08,2.84341137839109e-07,-1.17239639868948e-07,,,2.11930849178681e-07,-1.69019004345761e-08,-2.5973954127931e-07,-1.7113005902981e-09,-1.71130059031207e-09,,,,,2.54344023821105e-08,1.61600820409328e-07,5.52852971189515e-07,2.1194038117986e-07,2.11940381179413e-07,5.44703945079527e-07,-5.44703945079604e-07,2.08456592923594e-07,0,0,0,11.6736000000001,103,969.609223300971,556.573786407767,1724.86893203884,963.116504854369,976.101941747573,549.920388349515,563.227184466019,1807.65048543689,1642.08737864078,0
