time,S1-D1,S1-D8,S1-D9,S1-D15,S2-D1,S2-D2,S2-D3,S2-D9,S3-D1,S3-D2,S3-D16,S4-D2,S4-D3,S4-D5,S5-D3,S5-D4,S5-D5,S6-D2,S6-D5,S6-D17,S7-D6,S7-D7,S8-D6,S8-D7,S8-D18,S9-D3,S9-D4,S9-D9,S9-D11,S9-D19,S10-D8,S10-D9,S10-D10,S10-D11,S11-D8,S11-D10,S11-D20,S12-D10,S12-D11,S12-D12,S13-D4,S13-D11,S13-D12,S14-D10,S14-D12,S14-D21,S15-D13,S15-D14,S16-D13,S16-D14,S16-D22,SART_Target,SART_NonTarget,SART_Probe,t_rel_s,eye_n,xp,yp,ps,xpl_i,xpr_i,ypl_i,ypr_i,psl_i,psr_i,blink_prop
1766.8096,-2.31943528326097e-08,7.24234878129706e-08,,1.75696958232673e-07,-3.17428003321373e-08,-3.1742800332027e-08,,4.39656802616062e-08,1.40046087495525e-07,1.68156272996283e-07,-1.09059801896135e-07,1.68156272996326e-07,-3.65053872450368e-08,1.23288928909949e-07,8.67835416651356e-08,5.55394852018402e-09,-3.8332459114136e-08,-3.27785105941347e-08,-6.38631373736628e-08,-7.31962180999932e-08,-6.38631373736927e-08,-5.88120581145975e-07,-1.39807773907605e-07,-7.27928355053967e-07,1.24416898781561e-07,8.89843652910214e-10,8.89843652957863e-10,-9.02507505320803e-08,9.02507505320846e-08,4.03021710067613e-08,-6.67467950688656e-08,5.17013407977707e-08,-1.50454542710636e-08,-4.12899551454735e-08,9.62357058945506e-09,-3.166638455592e-08,2.31545102181178e-07,-1.98588529238121e-08,-1.98588529237136e-08,4.67934762535935e-08,9.26115321192988e-08,1.39405008372846e-07,1.40301354734638e-08,9.2812637053771e-09,2.33113991786788e-08,-9.58015151822007e-07,-2.54227957049617e-08,-2.54227957048955e-08,,-3.46101838252001e-07,,0,1,0,0,103,956.796601941748,553.073300970874,2009.53883495146,957.169902912621,956.423300970874,556.493203883495,549.653398058252,2269.8640776699,1749.21359223301,0
1766.912,-1.08000121355191e-08,7.28050750252435e-08,,1.68734375487531e-07,-3.10823158372704e-08,-3.10823158371629e-08,,5.28620207138278e-08,1.69368139164731e-07,1.74084200827845e-07,-1.04904884411406e-07,1.74084200827899e-07,-3.66057943042346e-08,1.33769618514337e-07,9.71638242103365e-08,2.13776313025686e-08,-4.15301465169552e-08,-2.01525152145653e-08,-5.21754099556912e-08,-7.18984923855182e-08,-5.21754099557246e-08,-5.58628433389164e-07,-1.53649092506114e-07,-7.12277525895666e-07,1.20749869613176e-07,6.25735681032624e-09,6.25735681036788e-09,-9.260203721091e-08,9.26020372109151e-08,3.91360932095381e-08,-7.21064903336749e-08,5.74024375374402e-08,-1.47040527961985e-08,-4.44550315449095e-08,1.22661843420637e-08,-3.2188847202762e-08,2.57245699621063e-07,-2.36910974744853e-08,-2.36910974743863e-08,4.8270479208066e-08,9.10655263346886e-08,1.393360055427e-07,1.18932546460307e-08,1.4140700223031e-08,2.60339548688959e-08,-9.62156608970847e-07,-1.16344306962379e-08,-1.16344306961778e-08,,-3.35310788520853e-07,,0,1,0,0.102399999999989,102,957.864215686275,552.603431372549,2014.8137254902,959.38431372549,956.344117647059,555.951960784314,549.254901960784,2270.96078431373,1758.66666666667,0
1767.0144,1.29753888224914e-09,7.35152135508336e-08,,1.62974064122542e-07,-3.03591772560946e-08,-3.035917725599e-08,,5.94978742622858e-08,1.9309130379679e-07,1.78867949389653e-07,-1.00304912561796e-07,1.78867949389718e-07,-3.62718546782518e-08,1.42174838979157e-07,1.05902984301148e-07,3.54648356272866e-08,-4.46474984058666e-08,-9.18266277875489e-09,-4.09117084844251e-08,-7.00223731383817e-08,-4.09117084844617e-08,-5.28588061336281e-07,-1.64300348222291e-07,-6.92888409558964e-07,1.16996021179957e-07,1.13489088174556e-08,1.13489088174914e-08,-9.41307865224967e-08,9.41307865225033e-08,3.72645950398311e-08,-7.71911186676735e-08,6.26378717598161e-08,-1.45532469078161e-08,-4.70414104139886e-08,1.47187644099861e-08,-3.23226460039327e-08,2.80257720222251e-07,-2.68826785620762e-08,-2.68826785619774e-08,5.07892652454834e-08,8.9258780264605e-08,1.40048045510027e-07,9.80573825645794e-09,1.84829257587398e-08,2.82886640150289e-08,-9.64248973300002e-07,-3.88737262467707e-11,-3.88737261923488e-11,,-3.24917554783296e-07,,0,1,0,0.204799999999977,103,960.059223300971,546.018932038835,2016.72815533981,962.401941747573,957.716504854369,548.460194174757,543.577669902913,2270.31067961165,1763.14563106796,0
1767.1168,1.2882683017426e-08,7.43470159261399e-08,,1.58354262467778e-07,-2.97018089763877e-08,-2.9701808976286e-08,,6.39288773059857e-08,2.11674780757597e-07,1.82448319152925e-07,-9.53692975380459e-08,1.82448319153001e-07,-3.54918467518755e-08,1.48375927866488e-07,1.12884081114864e-07,4.75586008469569e-08,-4.75109597251153e-08,4.76411216704822e-11,-3.04677321018529e-08,-6.76666422146387e-08,-3.04677321018924e-08,-4.98568956677984e-07,-1.71727345490073e-07,-6.70296302168452e-07,1.13305344045091e-07,1.60785118112418e-08,1.60785118112718e-08,-9.4999518913953e-08,9.49995189139615e-08,3.48838036651118e-08,-8.19578357521645e-08,6.73274361409377e-08,-1.46303996111808e-08,-4.91339311857233e-08,1.69844634885176e-08,-3.21494676971489e-08,3.00396728890965e-07,-2.92558420684586e-08,-2.92558420683601e-08,5.40320674723823e-08,8.72699351730092e-08,1.41302002645325e-07,7.80250335597819e-09,2.238972114295e-08,3.01922244987566e-08,-9.64732333787042e-07,9.34404302694523e-09,9.34404302699569e-09,,-3.15313380812274e-07,,0,0,0,0.307199999999966,102,964.408333333333,538.273529411765,2014.19607843137,969.36568627451,959.450980392157,539.811764705882,536.735294117647,2269.6568627451,1758.73529411765,0
1767.2192,2.38098419753057e-08,7.50285809447857e-08,,1.54754073515125e-07,-2.9231240053355e-08,-2.92312400532562e-08,,6.62383157560395e-08,2.25621888077816e-07,1.84847715997095e-07,-9.02313054760387e-08,1.8484771599718e-07,-3.42764862727679e-08,1.52380512740795e-07,1.18104026468286e-07,5.74989332799304e-08,-4.99593612369868e-08,7.53957204277605e-09,-2.11488366346623e-08,-6.49347184534709e-08,-2.11488366347046e-08,-4.69288931037827e-07,-1.76067387946128e-07,-6.45356318984353e-07,1.0981722360687e-07,2.03930404514461e-08,2.03930404514707e-08,-9.54050155825106e-08,9.54050155825213e-08,3.22448033925172e-08,-8.63754256235085e-08,7.14299600977958e-08,-1.4945465525662e-08,-5.08463772551226e-08,1.90725089946117e-08,-3.17738682604659e-08,3.17629985549647e-07,-3.06941864392926e-08,-3.06941864391951e-08,5.76255017549302e-08,8.52055009211141e-08,1.42831002675972e-07,5.82131868828482e-09,2.59391896954471e-08,3.17605083835582e-08,-9.64049859829349e-07,1.6633241212687e-08,1.66332412127342e-08,,-3.06824091364948e-07,,0,0,0,0.409599999999955,102,967.410294117647,540.068137254902,1990.97058823529,971.919607843137,962.900980392157,540.956862745098,539.179411764706,2254.39215686275,1727.54901960784,0
1767.3216,3.40020600310768e-08,7.52704901198605e-08,,1.52025349483088e-07,-2.90397735043924e-08,-2.90397735042964e-08,,6.65268330685733e-08,2.35447103102489e-07,1.86153932106976e-07,-8.5032390186311e-08,1.86153932107071e-07,-3.26470497698048e-08,1.5431092183955e-07,1.21663872070011e-07,6.52296753235263e-08,-5.18598546837697e-08,1.33698206395925e-08,-1.31577134464806e-08,-6.19194485209592e-08,-1.31577134465257e-08,-4.41525580737761e-07,-1.77605955418355e-07,-6.19131536156517e-07,1.06632223441449e-07,2.42716641732843e-08,2.42716641733039e-08,-9.55482540840111e-08,9.5548254084024e-08,2.96090734488533e-08,-9.04210124914789e-08,7.49435017096661e-08,-1.54775107817581e-08,-5.23061133511228e-08,2.0994311491253e-08,-3.13118018598353e-08,3.32005660586573e-07,-3.11482383181017e-08,-3.1148238318005e-08,6.1202259357873e-08,8.31734724739664e-08,1.44375731831763e-07,3.72060115138705e-09,2.91945062257308e-08,3.29151073769427e-08,-9.62472901861506e-07,2.20445540919491e-08,2.20445540919943e-08,,-2.99669237038347e-07,,0,0,0,0.511999999999944,103,969.267475728155,539.645631067961,1975.7572815534,973.203883495146,965.331067961165,541.045631067961,538.245631067961,2244.46601941748,1707.04854368932,0
1767.424,4.34191280544582e-08,7.48179143882799e-08,,1.50004778704185e-07,-2.91874766498494e-08,-2.91874766497561e-08,,6.49281512353095e-08,2.41689017189673e-07,1.86491580311272e-07,-7.98946427306237e-08,1.86491580311375e-07,-3.06420953782756e-08,1.5438785603806e-07,1.23745760660056e-07,7.08017459739733e-08,-5.31205579430031e-08,1.76811880308093e-08,-6.6011894622593e-09,-5.86933332492411e-08,-6.60118946230684e-09,-4.16018623218128e-07,-1.76716686997509e-07,-5.9273531021604e-07,1.03802703104363e-07,2.77242635994638e-08,2.7724263599479e-08,-9.56160952009042e-08,9.56160952009194e-08,2.72124429844618e-08,-9.4074723903016e-08,7.78980416004074e-08,-1.61766823025501e-08,-5.36397472949841e-08,2.27632425171042e-08,-3.08765047778548e-08,3.43623864450119e-07,-3.06299164960953e-08,-3.06299164960001e-08,6.44488992286875e-08,8.12619751071526e-08,1.4571087433576e-07,1.3149141983166e-09,3.22037478700843e-08,3.35186620682249e-08,-9.60014859641681e-07,2.58600390432135e-08,2.58600390432579e-08,,-2.93934034202201e-07,,0,0,0,0.614399999999932,102,969.552450980392,540.050980392157,1959.84803921569,972.336274509804,966.76862745098,541.366666666667,538.735294117647,2228.78431372549,1690.91176470588,0
1767.5264,5.20284654294104e-08,7.34970154400815e-08,,1.48520172982902e-07,-2.97107036673523e-08,-2.97107036672617e-08,,6.16380948448546e-08,2.44944603213565e-07,1.85994823883251e-07,-7.49024937514e-08,1.8599482388336e-07,-2.83349596254246e-08,1.52916843945037e-07,1.24581884319889e-07,7.43723517352798e-08,-5.36976487854148e-08,2.06747029497071e-08,-1.50053661708062e-09,-5.53107550179203e-08,-1.50053661713052e-09,-3.93361847375306e-07,-1.73807187498033e-07,-5.67169034873745e-07,1.01340880513897e-07,3.07878531801074e-08,3.07878531801185e-08,-9.57769289006712e-08,9.57769289006886e-08,2.52457153255287e-08,-9.73144007727242e-08,8.03445738522409e-08,-1.69698269204216e-08,-5.49622981959498e-08,2.43957198176041e-08,-3.05665783783284e-08,3.5264648648503e-07,-2.92002563307147e-08,-2.92002563306206e-08,6.71201973985951e-08,7.95306261382213e-08,1.46650823536733e-07,-1.58775795583872e-09,3.50037800577902e-08,3.34160221017753e-08,-9.56464249183233e-07,2.8399658939346e-08,2.83996589393911e-08,,-2.89560422679262e-07,,0,0,0,0.716799999999921,103,970.065048543689,540.209708737864,1947.10679611651,972.157281553398,967.972815533981,543.528155339806,536.891262135922,2211.97087378641,1682.2427184466,0
1767.6288,5.97980259244701e-08,7.12410894515888e-08,,1.47402515693543e-07,-3.06351351130031e-08,-3.06351351129149e-08,,5.69383825829654e-08,2.45893012300656e-07,1.84787349441453e-07,-7.01087534232823e-08,1.84787349441568e-07,-2.58461444124282e-08,1.50268123486526e-07,1.24421979074379e-07,7.61932084164129e-08,-5.35954872576292e-08,2.25977211586286e-08,2.20324032382777e-09,-5.18214752413493e-08,2.20324032377578e-09,-3.7391423279452e-07,-1.69298634019287e-07,-5.43212866814215e-07,9.92370261473467e-08,3.35200193802833e-08,3.3520019380291e-08,-9.6182785803267e-08,9.61827858032866e-08,2.38527331357799e-08,-1.00114311785492e-07,8.23438446447423e-08,-1.77704671406857e-08,-5.63711224487038e-08,2.59112466019198e-08,-3.04598758467736e-08,3.59316787404015e-07,-2.69584099609264e-08,-2.69584099608341e-08,6.90234614584771e-08,7.8018143262528e-08,1.4704160472092e-07,-5.15855447144445e-09,3.76215379470918e-08,3.24629834754716e-08,-9.51510141126325e-07,2.99830251726001e-08,2.99830251726476e-08,,-2.8635984550381e-07,,0,0,0,0.81919999999991,102,970.171568627451,538.496568627451,1942.60784313725,973.322549019608,967.020588235294,541.587254901961,535.405882352941,2203.58823529412,1681.62745098039,0
1767.7312,6.67082635675441e-08,6.80834988234141e-08,,1.46502053680816e-07,-3.1986360602014e-08,-3.19863606019283e-08,,5.11980780520043e-08,2.45280586414782e-07,1.8296717517093e-07,-6.55588981195524e-08,1.8296717517105e-07,-2.33359018995466e-08,1.4684153886196e-07,1.23505636962697e-07,7.65799384236968e-08,-5.28607880397746e-08,2.37191503837701e-08,4.64536391269935e-09,-4.82854526964222e-08,4.64536391264533e-09,-3.57773863482668e-07,-1.63621875076704e-07,-5.2139573855978e-07,9.74782360651917e-08,3.59892038250432e-08,3.59892038250477e-08,-9.69667819768653e-08,9.69667819768867e-08,2.31394091767672e-08,-1.02450116539411e-07,8.39560107120106e-08,-1.84941058273345e-08,-5.79443089212954e-08,2.73298005204249e-08,-3.06145084008657e-08,3.63953781879627e-07,-2.40362234211597e-08,-2.40362234210696e-08,6.99907959830549e-08,7.67596717093455e-08,1.46750467692314e-07,-9.53330538496299e-09,4.00725471556395e-08,3.05392417705017e-08,-9.44889811834153e-07,3.08823842926877e-08,3.08823842927391e-08,,-2.84042762933168e-07,,0,0,0,0.921599999999899,102,968.786764705882,535.837745098039,1947.55392156863,972.443137254902,965.130392156863,540.101960784314,531.573529411765,2204.25490196078,1690.85294117647,0
1767.8336,7.2766307903807e-08,6.41209268588262e-08,,1.45701395880137e-07,-3.37928079983719e-08,-3.37928079982884e-08,,4.48424842455818e-08,2.43849927690026e-07,1.80595380584028e-07,-6.13118253632998e-08,1.80595380584153e-07,-2.09777174761114e-08,1.43021029755996e-07,1.22043312280171e-07,7.58660104486638e-08,-5.15736444281455e-08,2.4292366020369e-08,6.02794780607909e-09,-4.47775745884546e-08,6.027947806023e-09,-3.44830699858542e-07,-1.57203230081807e-07,-5.0203392994076e-07,9.60597505110439e-08,3.82631891151147e-08,3.82631891151164e-08,-9.82311432589074e-08,9.82311432589304e-08,2.31837578829713e-08,-1.04308379945433e-07,8.52324519933332e-08,-1.90759279520321e-08,-5.97413359693717e-08,2.86668548507914e-08,-3.107448111858e-08,3.66900024876406e-07,-2.05938777674792e-08,-2.05938777673918e-08,6.98598217477644e-08,7.57996459560123e-08,1.4565946770369e-07,-1.4806387954046e-08,4.23605248709269e-08,2.75541369167073e-08,-9.36482698755696e-07,3.12803003835347e-08,3.12803003835917e-08,,-2.82246712316596e-07,,0,0,0,1.02399999999989,103,966.722815533981,539.103883495146,1960.46601941748,971.882524271845,961.563106796116,542.556310679612,535.65145631068,2209.1359223301,1711.79611650485,0
1767.936,7.80077085075135e-08,5.9470508184235e-08,,1.44922221074626e-07,-3.60801026643636e-08,-3.60801026642821e-08,,3.82940801775666e-08,2.42226235885699e-07,1.77692973787513e-07,-5.74431658506119e-08,1.7769297378764e-07,-1.89289688154631e-08,1.39134733299443e-07,1.20205764484268e-07,7.43591307854867e-08,-4.98376208850928e-08,2.45215099002475e-08,6.60547248261363e-09,-4.13798515898511e-08,6.60547248255569e-09,-3.34858870061165e-07,-1.50443305751231e-07,-4.85302175812807e-07,9.49854083507928e-08,4.03985026492675e-08,4.03985026492667e-08,-1.00030233807781e-07,1.00030233807805e-07,2.40379883535742e-08,-1.0569490406969e-07,8.62114758548686e-08,-1.94834282147526e-08,-6.1803018775294e-08,2.99285565844125e-08,-3.18744621908846e-08,3.68433002008447e-07,-1.68092887054289e-08,-1.68092887053441e-08,6.84793240504225e-08,7.51891931401613e-08,1.43668517190497e-07,-2.10229974095366e-08,4.44793981922379e-08,2.34564007825294e-08,-9.26321106492038e-07,3.12444503087561e-08,3.124445030882e-08,,-2.80548762726462e-07,,0,0,0,1.12639999999988,102,964.145588235294,538.764215686275,1976.65196078431,968.895098039216,959.396078431373,541.090196078431,536.438235294118,2221.12745098039,1732.17647058824,0
1768.0384,8.24822916485448e-08,5.42448656547988e-08,,1.44120774351175e-07,-3.88594196829206e-08,-3.8859419682841e-08,,3.1908973847182e-08,2.40816492457492e-07,1.74246555168678e-07,-5.40335758702651e-08,1.74246555168809e-07,-1.73155130432052e-08,1.35432993333825e-07,1.18117480290909e-07,7.23162343731055e-08,-4.77698146746666e-08,2.45464196982951e-08,6.66468151021524e-09,-3.81668914956235e-08,6.66468151015552e-09,-3.27595006249344e-07,-1.43700050838471e-07,-4.71295057088227e-07,9.42600825132916e-08,4.24334668016235e-08,4.24334668016207e-08,-1.02356739896066e-07,1.02356739896091e-07,2.57204061405609e-08,-1.06635648684145e-07,8.69185830989726e-08,-1.97170655851023e-08,-6.4149379203212e-08,3.11097144493996e-08,-3.30396647538182e-08,3.68681837961236e-07,-1.2861112325137e-08,-1.28611123250542e-08,6.57415874401739e-08,7.49675198759614e-08,1.40709107316049e-07,-2.81636922449761e-08,4.64172846694413e-08,1.82535924242952e-08,-9.14538500394924e-07,3.07271972568748e-08,3.07271972569466e-08,,-2.78472662067893e-07,,0,1,0,1.22879999999986,103,963.752427184466,537.147087378641,2003.16019417476,969.02718446602,958.477669902913,538.333009708738,535.961165048544,2246.31067961165,1760.00970873786,0
1768.1408,8.62292811502647e-08,4.85502035980478e-08,,1.4326783261379e-07,-4.21132130601605e-08,-4.21132130600827e-08,,2.59390993506897e-08,2.39784155365733e-07,1.70214529015553e-07,-5.11499636481888e-08,1.70214529015686e-07,-1.62369108950326e-08,1.32084723557645e-07,1.15847812662901e-07,6.99359602891789e-08,-4.54917355213394e-08,2.44442247676984e-08,6.4906492884577e-09,-3.51919594640766e-08,6.49064928839648e-09,-3.22788531216065e-07,-1.37267796060861e-07,-4.60056327277339e-07,9.38807090489476e-08,4.43859718277003e-08,4.43859718276958e-08,-1.0513775342443e-07,1.05137753424456e-07,2.82044372930927e-08,-1.07168209441167e-07,8.7369355561946e-08,-1.97988538791503e-08,-6.67769247136172e-08,3.21951265969454e-08,-3.45817981166789e-08,3.67593752012486e-07,-8.91183303681731e-09,-8.911833036736e-09,6.16208061817683e-08,7.51366893488803e-08,1.36757495530563e-07,-3.61271480562825e-08,4.81632348504788e-08,1.20360867940286e-08,-9.01297834738983e-07,2.95947626195758e-08,2.95947626196571e-08,,-2.75515842805331e-07,,0,1,0,1.33119999999985,102,962.969117647059,535.850490196078,2023.55882352941,967.696078431373,958.242156862745,540.177450980392,531.523529411765,2268.50980392157,1778.60784313726,0
1768.2432,8.92533696634426e-08,4.24941793038089e-08,,1.42322042733574e-07,-4.57833478211683e-08,-4.5783347821092e-08,,2.05326153736336e-08,2.39110621255055e-07,1.65526077980644e-07,-4.88285807522718e-08,1.65526077980779e-07,-1.57882578223861e-08,1.29186783805851e-07,1.13398525983754e-07,6.73556436236507e-08,-4.31217553890876e-08,2.42338882344243e-08,6.31557222395257e-09,-3.24797274104514e-08,6.31557222389002e-09,-3.20237135475036e-07,-1.31344590038692e-07,-4.51581725514141e-07,9.38309921937719e-08,4.6254593825548e-08,4.62545938255421e-08,-1.08243729887076e-07,1.08243729887102e-07,3.14161320740681e-08,-1.0732798799271e-07,8.75711753309954e-08,-1.97568126616451e-08,-6.96588011596027e-08,3.31630395319988e-08,-3.64957616276114e-08,3.64968240681337e-07,-5.09763918278685e-09,-5.09763918270784e-09,5.6190517838031e-08,7.56447677456948e-08,1.31835285583642e-07,-4.4725868899888e-08,4.97157045640888e-08,4.9898356640359e-09,-8.86746489268219e-07,2.76803087623216e-08,2.76803087624131e-08,,-2.71208077645894e-07,,0,1,0,1.43359999999984,103,960.183980582524,535.090291262136,2038.46601941748,965.692233009709,954.67572815534,541.278640776699,528.901941747573,2285.63106796117,1791.30097087379,0
1768.3456,9.1517871263119e-08,3.618619943576e-08,,1.41214182450427e-07,-4.97681555920068e-08,-4.97681555919321e-08,,1.57587811660167e-08,2.38698105417018e-07,1.60077415504297e-07,-4.70701898367752e-08,1.60077415504432e-07,-1.60847000487765e-08,1.26781657428881e-07,1.10696957380392e-07,6.46445221558454e-08,-4.07686777195513e-08,2.38758444361579e-08,6.26580542006383e-09,-3.00286720497674e-08,6.26580542000017e-09,-3.19807477782564e-07,-1.26002155970656e-07,-4.45809633753633e-07,9.40803852760777e-08,4.80208429472148e-08,4.8020842947208e-08,-1.11507569695593e-07,1.11507569695619e-07,3.52455946379004e-08,-1.07137793526316e-07,8.75219041269944e-08,-1.9615889399253e-08,-7.27503737401406e-08,3.39894885308969e-08,-3.87608852092501e-08,3.60546014221476e-07,-1.52948752393052e-09,-1.52948752385354e-09,4.96122584169352e-08,7.63888870133928e-08,1.26001145430247e-07,-5.37057895719692e-08,5.10879454411888e-08,-2.61784413094239e-09,-8.71020414296932e-07,2.48407804228006e-08,2.48407804229037e-08,,-2.65187473125058e-07,,0,0,0,1.53600000000006,102,960.048529411765,532.192647058824,2046.38235294118,965.456862745098,954.640196078431,540.61862745098,523.766666666667,2296.67647058824,1796.08823529412,0
1768.448,9.29643439031017e-08,2.97237726310874e-08,,1.3985145798757e-07,-5.39309348653844e-08,-5.39309348653112e-08,,1.1634467386083e-08,2.38456333613077e-07,1.53738288276503e-07,-4.58511272716554e-08,1.53738288276638e-07,-1.72681980980393e-08,1.24876366732071e-07,1.07608168634315e-07,6.17981851565276e-08,-3.85260846215426e-08,2.32721005348511e-08,6.33444171720005e-09,-2.78203254032113e-08,6.33444171713559e-09,-3.2142118374529e-07,-1.21181182647824e-07,-4.42602366393526e-07,9.45851690994063e-08,4.96518887098172e-08,4.96518887098099e-08,-1.14745588225798e-07,1.14745588225824e-07,3.95675961687767e-08,-1.0660851906362e-07,8.72071017060119e-08,-1.94014173575405e-08,-7.59986446140077e-08,3.46521885268194e-08,-4.13464560871923e-08,3.5411803735249e-07,1.69524240382429e-09,1.69524240389921e-09,4.21079464636477e-08,7.72364205678147e-08,1.19344367031386e-07,-6.27860347550379e-08,5.2305971888743e-08,-1.04800628664538e-08,-8.54285698431023e-07,2.0995768586494e-08,2.09957685866092e-08,,-2.57266072598422e-07,,0,0,0,1.63840000000005,102,960.263725490196,532.875980392157,2047.79901960784,966.667647058824,953.859803921569,540.96568627451,524.786274509804,2300.95098039216,1794.64705882353,0
1768.5504,9.35520958877601e-08,2.31734338462545e-08,,1.38138168761169e-07,-5.81156752287851e-08,-5.81156752287132e-08,,8.13682309974564e-09,2.38334912849198e-07,1.46377167986642e-07,-4.51420193502585e-08,1.46377167986776e-07,-1.94821822429074e-08,1.2345366049682e-07,1.03971478254193e-07,5.87480677578309e-08,-3.64689602577469e-08,2.22791074999519e-08,6.39975946361745e-09,-2.58288632491459e-08,6.39975946355247e-09,-3.2498728608394e-07,-1.16721395433235e-07,-4.41708681517586e-07,9.5290423597185e-08,5.11041276522748e-08,5.11041276522676e-08,-1.17773052196884e-07,1.1777305219691e-07,4.42615264326927e-08,-1.05751611576484e-07,8.65983986357255e-08,-1.91532129406938e-08,-7.93505430091544e-08,3.51320679421811e-08,-4.42184750669732e-08,3.45613279269175e-07,4.47873306450343e-09,4.47873306457605e-09,3.39316621278192e-08,7.80504493367852e-08,1.11982111464533e-07,-7.17008264870826e-08,5.33987575516347e-08,-1.83020689356031e-08,-8.3680151702021e-07,1.61402585666512e-08,1.61402585667795e-08,,-2.47463249719736e-07,,0,0,0,1.74080000000004,103,962.794174757282,532.333495145631,2042.74757281553,970.166019417476,955.422330097087,539.560194174757,525.106796116505,2296.08737864078,1789.40776699029,0
1768.6528,9.33009943265347e-08,1.65597988179548e-08,,1.35999694412231e-07,-6.2162883851824e-08,-6.21628838517531e-08,,5.19847789027503e-09,2.38297359313874e-07,1.37904384896604e-07,-4.49209979115858e-08,1.37904384896737e-07,-2.28211131577364e-08,1.22476377973341e-07,9.96552648158803e-08,5.53971912744643e-08,-3.4653849158472e-08,2.07433421158617e-08,6.28996175293161e-09,-2.40269983046447e-08,6.28996175286621e-09,-3.30278781051216e-07,-1.12420710202529e-07,-4.42699491254155e-07,9.61336616436769e-08,5.23274824689785e-08,5.23274824689719e-08,-1.20415142807152e-07,1.20415142807176e-07,4.92230598890675e-08,-1.04597453144346e-07,8.56555344485938e-08,-1.89419186956902e-08,-8.27565432787049e-08,3.54124514666759e-08,-4.73440918120237e-08,3.35138183602788e-07,6.71767335281361e-09,6.71767335288417e-09,2.53542136552222e-08,7.87073090101744e-08,1.04061522665331e-07,-8.02230055519883e-08,5.4384366707849e-08,-2.5838638844291e-08,-8.18990451396068e-07,1.0340835657688e-08,1.03408356578298e-08,,-2.36002915052919e-07,,0,0,0,1.84320000000002,102,967.821078431373,534.127941176471,2021.48039215686,976.609803921569,959.032352941176,545.785294117647,522.470588235294,2273.27450980392,1769.6862745098,0
1768.7552,9.23194361530411e-08,9.86904119959956e-09,,1.33394301431887e-07,-6.5919344497121e-08,-6.5919344497051e-08,,2.69610301308775e-09,2.38274002142986e-07,1.28321836732606e-07,-4.51751808192848e-08,1.28321836732736e-07,-2.72823359983996e-08,1.21896014264854e-07,9.46136782667238e-08,5.16769014395632e-08,-3.31211230791742e-08,1.85557783602597e-08,5.86886743401606e-09,-2.23898470147892e-08,5.86886743395068e-09,-3.36786490923158e-07,-1.08107057304912e-07,-4.44893548228478e-07,9.70492115797721e-08,5.32706695099443e-08,5.32706695099389e-08,-1.22518597793327e-07,1.22518597793351e-07,5.43652060601717e-08,-1.03211430974509e-07,8.43338823244913e-08,-1.88775486499581e-08,-8.6170432265696e-08,3.54796610913498e-08,-5.06907711743346e-08,3.22964217989706e-07,8.31212032169942e-09,8.3121203217684e-09,1.66695754496017e-08,7.91058076266536e-08,9.57753830761968e-08,-8.8161001090345e-08,5.52587508001512e-08,-3.29022502903418e-08,-8.01476266544223e-07,3.73283672309282e-09,3.73283672324793e-09,,-2.23287663370286e-07,,0,0,0,1.94560000000001,103,970.716504854369,538.836893203884,1990.04854368932,978.746601941748,962.68640776699,549.425242718447,528.24854368932,2236.7572815534,1743.33980582524,0
1768.8576,9.08006788516339e-08,3.0640581089015e-09,,1.30309959193662e-07,-6.92401256976454e-08,-6.92401256975762e-08,,4.5355986919302e-10,2.38143647634291e-07,1.17757051732634e-07,-4.58935293466719e-08,1.17757051732762e-07,-3.2747086248724e-08,1.21668360616964e-07,8.89212743685032e-08,4.75991649853867e-08,-3.1897190208905e-08,1.57019747763534e-08,5.09933584596276e-09,-2.09004631479749e-08,5.09933584589754e-09,-3.43630377746751e-07,-1.03692073748432e-07,-4.47322451495589e-07,9.79683689991454e-08,5.38881317559294e-08,5.38881317559255e-08,-1.23963441381063e-07,1.23963441381085e-07,5.96115107391909e-08,-1.01700120684586e-07,8.25959845633158e-08,-1.91041361212144e-08,-8.95487089256732e-08,3.53281617867203e-08,-5.42205471389343e-08,3.09474198579833e-07,9.18282016780872e-09,9.18282016787605e-09,8.21227721381692e-09,7.91748784366131e-08,8.7387155650379e-08,-9.53408412469832e-08,5.59941031211534e-08,-3.93467381259739e-08,-7.85037441806648e-07,-3.47390127530353e-09,-3.47390127513534e-09,,-2.09862876477433e-07,,0,0,0,2.048,102,970.487745098039,539.303431372549,1974.62745098039,978.299019607843,962.676470588235,549.040196078431,529.566666666667,2219.47058823529,1729.78431372549,0
1768.96,8.89846429987582e-08,-3.89345562595013e-09,,1.26757987827226e-07,-7.19890099963918e-08,-7.19890099963233e-08,,-1.72603811347947e-09,2.37760388763109e-07,1.0646323971387e-07,-4.70567772695674e-08,1.06463239713995e-07,-3.89988227535036e-08,1.21766392822566e-07,8.27675700693193e-08,4.32780466773415e-08,-3.0995786398841e-08,1.22822602783728e-08,4.05329072640138e-09,-1.95571961302799e-08,4.05329072633653e-09,-3.49598454497462e-07,-9.91771137140684e-08,-4.48775568211935e-07,9.88121958014938e-08,5.41478034086727e-08,5.41478034086705e-08,-1.24669415881769e-07,1.2466941588179e-07,6.48876201195451e-08,-1.0020347139097e-07,8.04224866885272e-08,-1.97809847023901e-08,-9.28522354107523e-08,3.49676221584395e-08,-5.78846132522866e-08,2.95089639134944e-07,9.28774907331086e-09,9.28774907337744e-09,3.52184264836611e-10,7.88823814270269e-08,7.92345656918204e-08,-1.01595575484287e-07,5.65488634430297e-08,-4.50467120413978e-08,-7.70472221207943e-07,-1.098879305551e-08,-1.09887930553282e-08,,-1.9637012811942e-07,,0,0,0,2.15039999999999,102,969.120098039216,537.245098039216,1972.8137254902,975.771568627451,962.46862745098,545.089215686275,529.400980392157,2215.30392156863,1730.32352941176,0
1769.0624,8.71099939353097e-08,-1.10189202690879e-08,,1.22772325933617e-07,-7.40461906965814e-08,-7.40461906965137e-08,,-4.00749101780989e-09,2.37001475605279e-07,9.47876488444985e-08,-4.86291898305915e-08,9.47876488446202e-08,-4.57673127764933e-08,1.22182936853985e-07,7.64156240777429e-08,3.89140780003177e-08,-3.04176641954291e-08,8.49641380476162e-09,2.87504082895101e-09,-1.83792143675232e-08,2.87504082888645e-09,-3.53297978122436e-07,-9.46204834780388e-08,-4.47918461600877e-07,9.94816853383312e-08,5.40369467265615e-08,5.40369467265614e-08,-1.24596313702839e-07,1.24596313702859e-07,7.01177221021442e-08,-9.8875125931028e-08,7.78188629315719e-08,-2.10562629994073e-08,-9.60497748844858e-08,3.44255684187855e-08,-6.16242064656662e-08,2.80212808908396e-07,8.63296496506444e-09,8.63296496512988e-09,-6.55714667461632e-09,7.8240970882448e-08,7.16838242077965e-08,-1.06775915516492e-07,5.6883279179167e-08,-4.98926363374614e-08,-7.58431343906535e-07,-1.84462320138494e-08,-1.84462320136542e-08,,-1.83485094155476e-07,,0,0,0,2.25279999999998,103,968.476213592233,537.693689320388,1983.05825242718,975.011650485437,961.940776699029,546.701941747573,528.685436893204,2224.80582524272,1741.31067961165,0
1769.1648,8.53925669482636e-08,-1.82861411670743e-08,,1.18413749217358e-07,-7.53237395566969e-08,-7.532373955663e-08,,-6.47591945357015e-09,2.35798148005307e-07,8.31257954354789e-08,-5.05574433324624e-08,8.31257954355966e-08,-5.27749748385005e-08,1.22923012859538e-07,7.01480380212826e-08,3.47541913046787e-08,-3.01487044445793e-08,4.60548685997256e-09,1.73304283327525e-09,-1.74073669584244e-08,1.73304283321109e-09,-3.53339141464042e-07,-9.0113402152447e-08,-4.43452543616889e-07,9.98522746722521e-08,5.35635274168047e-08,5.35635274168066e-08,-1.23742143382266e-07,1.23742143382284e-07,7.52281997060638e-08,-9.78571313739477e-08,7.48171749025486e-08,-2.30399564713535e-08,-9.91201180463296e-08,3.37413468743069e-08,-6.53787711719808e-08,2.65206128627196e-07,7.27672923428653e-09,7.27672923435198e-09,-1.22609220969128e-08,7.73062192287843e-08,6.50452971318439e-08,-1.10778076454271e-07,5.69697314781572e-08,-5.38083449762468e-08,-7.49287481344659e-07,-2.54294478083045e-08,-2.54294478080964e-08,,-1.71842801530607e-07,,0,0,0,2.35519999999997,102,967.223529411765,537.49362745098,2002.22058823529,974.290196078431,960.156862745098,543.207843137255,531.779411764706,2244.60784313726,1759.83333333333,0
1769.2672,8.40427619984632e-08,-2.56196040436814e-08,,1.13777502202435e-07,-7.57798261805791e-08,-7.57798261805128e-08,,-9.11856039419798e-09,2.3412030586348e-07,7.18768799973608e-08,-5.27796551918984e-08,7.18768799974749e-08,-5.97632279271509e-08,1.23987170149298e-07,6.42239422223868e-08,3.10455173163614e-08,-3.01589488064801e-08,8.8656850975464e-10,7.92908850528821e-10,-1.67006903659848e-08,7.92908850465081e-10,-3.48484000462958e-07,-8.58015379731278e-08,-4.34285538436484e-07,9.97742410448473e-08,5.27529894866639e-08,5.27529894866677e-08,-1.22140762149457e-07,1.22140762149475e-07,8.01544514225424e-08,-9.72547224245731e-08,7.14733463663349e-08,-2.57813760581956e-08,-1.02049125282461e-07,3.2952169312588e-08,-6.90969559698237e-08,2.50398901925965e-07,5.32648905300523e-09,5.3264890530712e-09,-1.66758542011651e-08,7.61651731415541e-08,5.94893189403686e-08,-1.13574806713445e-07,5.67915277010323e-08,-5.6783279012542e-08,-7.43082010785762e-07,-3.15105254947532e-08,-3.15105254945331e-08,,-1.61956488035514e-07,,0,0,0,2.45759999999996,102,966.328431372549,534.408823529412,2020.87254901961,973.048039215686,959.608823529412,544.380392156863,524.437254901961,2264.12745098039,1777.61764705882,0
1769.3696,8.33023044221708e-08,-3.28984061323942e-08,,1.09002273779762e-07,-7.54227605351253e-08,-7.54227605350595e-08,,-1.18442905003374e-08,2.31910531193665e-07,6.14071426523387e-08,-5.52397176108773e-08,6.14071426524498e-08,-6.64927464312465e-08,1.25349587857535e-07,5.88568414265231e-08,2.79967874746614e-08,-3.04055925663133e-08,-2.40880509177881e-09,2.21393300020799e-10,-1.63292429515793e-08,2.21393299957351e-10,-3.37738072656696e-07,-8.19429196768043e-08,-4.19680992333897e-07,9.90773578805289e-08,5.16427101383172e-08,5.16427101383228e-08,-1.1985719329347e-07,1.19857193293486e-07,8.48451537601436e-08,-9.7116406905394e-08,6.78608314638739e-08,-2.92555754414802e-08,-1.04821530874092e-07,3.20763966978729e-08,-7.27451341761628e-08,2.36093994532199e-07,2.92918018460458e-09,2.92918018467071e-09,-1.99235379054469e-08,7.49160821608382e-08,5.49925442553771e-08,-1.1523623903129e-07,5.63327054954097e-08,-5.89035335360068e-08,-7.39542728631904e-07,-3.62975945206583e-08,-3.62975945204276e-08,,-1.54136407414255e-07,,0,1,0,2.55999999999995,103,964.928155339806,533.594174757282,2035.04854368932,971.394174757282,958.46213592233,545.276699029126,521.911650485437,2277.78640776699,1792.31067961165,0
1769.472,8.34698590641027e-08,-3.99717514449463e-08,,1.04272380933598e-07,-7.43021266705156e-08,-7.43021266704501e-08,,-1.45306600590884e-08,2.28996533644252e-07,5.20234951291884e-08,-5.78960597726584e-08,5.20234951292969e-08,-7.27293068886168e-08,1.26939040943074e-07,5.42097340546873e-08,2.57529714466395e-08,-3.08406814479812e-08,-5.08771000146897e-09,2.06984193241612e-10,-1.63628320332817e-08,2.06984193178296e-10,-3.20402136089663e-07,-7.89549397904909e-08,-3.99357075880549e-07,9.75804204561349e-08,5.02766943532679e-08,5.02766943532749e-08,-1.1697958824701e-07,1.16979588247025e-07,8.92624526485831e-08,-9.74252722096418e-08,6.40621968314642e-08,-3.33630753781401e-08,-1.07411233275605e-07,3.11003089099355e-08,-7.63109243656077e-08,2.22559281858154e-07,2.55824154539308e-10,2.55824154606035e-10,-2.23185025531472e-08,7.364323815779e-08,5.1324735604634e-08,-1.15931332389492e-07,5.55659369143394e-08,-6.03653954752778e-08,-7.38126884212574e-07,-3.94765137179712e-08,-3.9476513717731e-08,,-1.4842166039625e-07,,0,1,0,2.66239999999993,102,963.70931372549,537.245588235294,2039.04901960784,970.076470588235,957.342156862745,545.727450980392,528.763725490196,2283.67647058824,1794.42156862745,0
1769.5744,8.48947326765299e-08,-4.66847774920035e-08,,9.98020894028941e-08,-7.24893399485661e-08,-7.24893399485008e-08,,-1.70734487240077e-08,2.25033470380571e-07,4.39573834679902e-08,-6.07160005797477e-08,4.39573834680973e-08,-7.82330391578096e-08,1.28630011764782e-07,5.03969726072001e-08,2.43828096849234e-08,-3.14214921965901e-08,-7.03868251179472e-09,9.70769504556429e-10,-1.68560928345065e-08,9.70769504493034e-10,-2.96121190231915e-07,-7.7395715756186e-08,-3.73516905988495e-07,9.51081186566958e-08,4.87016259539521e-08,4.87016259539601e-08,-1.13609484488534e-07,1.13609484488548e-07,9.33788302994337e-08,-9.81037689707601e-08,6.01604620582034e-08,-3.7943306912521e-08,-1.0977377437436e-07,2.99727011390863e-08,-7.98010732352078e-08,2.1000757626669e-07,-2.51842808905233e-09,-2.51842808898424e-09,-2.43182788884205e-08,7.23931313320032e-08,4.80748524435778e-08,-1.15905234044559e-07,5.44461942430211e-08,-6.14590398016614e-08,-7.38050128204777e-07,-4.08362253322086e-08,-4.08362253319603e-08,,-1.44548232130247e-07,,0,1,0,2.76479999999992,103,963.564563106796,537.953398058253,2038.97087378641,969.184466019418,957.944660194175,548.544660194175,527.36213592233,2281.8640776699,1796.07766990291,0
1769.6768,8.79350561304975e-08,-5.29062244685653e-08,,9.5798795547238e-08,-7.00539114810393e-08,-7.00539114809739e-08,,-1.9414167209502e-08,2.19515215832915e-07,3.73568249958861e-08,-6.36547916146864e-08,3.73568249959929e-08,-8.27646546511518e-08,1.30247884402927e-07,4.74832297520009e-08,2.38781441582647e-08,-3.2119528519854e-08,-8.24138436171829e-09,2.74793675709946e-09,-1.78326000309809e-08,2.7479367570357e-09,-2.64938186480993e-07,-7.78613554228256e-08,-3.42799541904213e-07,9.15149769775569e-08,4.69640846105263e-08,4.69640846105345e-08,-1.09852652248207e-07,1.0985265224822e-07,9.7169957670621e-08,-9.90269852707732e-08,5.62316958608425e-08,-4.27952894098963e-08,-1.11842799093274e-07,2.86091181654714e-08,-8.32336809277342e-08,1.98576573588507e-07,-5.23459126838224e-09,-5.23459126831275e-09,-2.64468860089387e-08,7.11574390625037e-08,4.47105530535627e-08,-1.15434442353061e-07,5.29166289112181e-08,-6.2517813441967e-08,-7.38306464179605e-07,-4.02711993030545e-08,-4.02711993028001e-08,,-1.41981008256097e-07,,0,0,0,2.86719999999991,102,962.640196078431,539.925980392157,2038.74019607843,969.340196078431,955.940196078431,547.998039215686,531.853921568628,2283.83333333333,1793.64705882353,0
1769.7792,9.28949468209101e-08,-5.85465128028156e-08,,9.24177911563711e-08,-6.7044390665805e-08,-6.7044390665739e-08,,-2.15397677040002e-08,2.11851250034055e-07,3.22855396034723e-08,-6.66297497264597e-08,3.228553960358e-08,-8.61115781615439e-08,1.31590375967843e-07,4.54787978065231e-08,2.41662220587546e-08,-3.29243788039007e-08,-8.75815674527646e-09,5.74182651759476e-09,-1.92733097844762e-08,5.74182651753044e-09,-2.27306134599156e-07,-8.08458910259442e-08,-3.08152025625495e-07,8.67101040033036e-08,4.51079183731129e-08,4.51079183731204e-08,-1.05810342786576e-07,1.05810342786588e-07,1.00604910689506e-07,-1.00037042444972e-07,5.23395360314887e-08,-4.76975064134496e-08,-1.13532132028375e-07,2.69049723974818e-08,-8.66271596308231e-08,1.8832030375367e-07,-7.76401852870954e-09,-7.76401852863914e-09,-2.92068735677609e-08,6.98682576765026e-08,4.06613841087404e-08,-1.14771017335086e-07,5.09263346259885e-08,-6.3844682709222e-08,-7.37718452949138e-07,-3.77601300361848e-08,-3.77601300359261e-08,,-1.40030171403761e-07,,0,0,0,2.9695999999999,102,963.698039215686,538.48137254902,2032.62745098039,970.932352941176,956.463725490196,547.612745098039,529.35,2280.94117647059,1784.3137254902,0
1769.8816,9.99662125058118e-08,-6.35631320121912e-08,,8.97307606316251e-08,-6.34811756102698e-08,-6.3481175610203e-08,,-2.34671283390017e-08,2.01474005414181e-07,2.87291665014762e-08,-6.95083072922718e-08,2.87291665015864e-08,-8.81230022938117e-08,1.32462521586431e-07,4.43395192928437e-08,2.51345501643086e-08,-3.38413854342531e-08,-8.70683527007647e-09,1.00722862885491e-08,-2.11156564619065e-08,1.00722862884839e-08,-1.84013175814503e-07,-8.66424346836835e-08,-2.70655610498583e-07,8.06737969201071e-08,4.3170801182436e-08,4.3170801182442e-08,-1.01569072876482e-07,1.01569072876494e-07,1.03640221089749e-07,-1.0095671167509e-07,4.85317770460188e-08,-5.24249346290377e-08,-1.14745288552203e-07,2.47544408487219e-08,-8.99908477034114e-08,1.79220620849843e-07,-1.00139858982871e-08,-1.00139858982153e-08,-3.29981271495787e-08,6.84106307316112e-08,3.54125035820308e-08,-1.14094617014626e-07,4.84503050780349e-08,-6.56443119367169e-08,-7.35048505474614e-07,-3.33299138002252e-08,-3.33299137999642e-08,,-1.38043081471212e-07,,0,0,0,3.07199999999989,103,963.765533980582,539.830582524272,2026.81553398058,970.457281553398,957.073786407767,547.336893203884,532.32427184466,2276.29126213592,1777.33980582524,0
1769.984,1.09193215380905e-07,-6.79581299981924e-08,,8.77206482193819e-08,-5.93633668182639e-08,-5.93633668181961e-08,,-2.52272232997728e-08,1.87944096473374e-07,2.66056748313502e-08,-7.21224948897617e-08,2.66056748314644e-08,-8.87354712725775e-08,1.32713911069247e-07,4.39784397968949e-08,2.66623233567397e-08,-3.48841128068286e-08,-8.22178945022282e-09,1.57441285227382e-08,-2.32649789109245e-08,1.57441285226719e-08,-1.36045659886896e-07,-9.53270261535084e-08,-2.31372686040803e-07,7.34620784844321e-08,4.11809309362257e-08,4.11809309362294e-08,-9.7190429398599e-08,9.71904293986099e-08,1.06223291932358e-07,-1.01606108505084e-07,4.48394135338442e-08,-5.67666949712056e-08,-1.15391819171124e-07,2.20712566155945e-08,-9.33205625554618e-08,1.71216963168111e-07,-1.19260781909617e-08,-1.19260781908889e-08,-3.80589641645902e-08,6.66512088298603e-08,2.85922446652667e-08,-1.13488765923517e-07,4.55011552097991e-08,-6.79876107138461e-08,-7.29157134309877e-07,-2.70229922816372e-08,-2.7022992281375e-08,,-1.3561155734168e-07,,0,0,0,3.17439999999988,102,963.407843137255,544.853921568627,2018.91176470588,970.011764705882,956.803921568627,553.344117647059,536.363725490196,2269.73529411765,1768.08823529412,0
1770.0864,1.20457650947137e-07,-7.17701954032519e-08,,8.62985746783478e-08,-5.46874855735718e-08,-5.46874855735025e-08,,-2.68571294309477e-08,1.71034174729215e-07,2.57740060554613e-08,-7.4303808853757e-08,2.57740060555811e-08,-8.79774328584513e-08,1.3226405729948e-07,4.42866244412565e-08,2.8651006584905e-08,-3.6063844420992e-08,-7.41283783622312e-09,2.26493247399515e-08,-2.5612853371396e-08,2.26493247398839e-08,-8.44732497440551e-08,-1.06805103284866e-07,-1.91278353029322e-07,6.52036029792701e-08,3.91562547656325e-08,3.9156254765633e-08,-9.27069742278811e-08,9.27069742278917e-08,1.08303247009802e-07,-1.01824926585621e-07,4.12787206759648e-08,-6.05462059096202e-08,-1.15406218732964e-07,1.88079053811842e-08,-9.65983133517154e-08,1.64235961067316e-07,-1.34671439350616e-08,-1.34671439349882e-08,-4.44375953359982e-08,6.44738845409025e-08,2.00362892048983e-08,-1.12945461163356e-07,4.21304818442421e-08,-7.0814979319245e-08,-7.1915659160923e-07,-1.8886103239988e-08,-1.88861032397259e-08,,-1.32701427339294e-07,,0,0,0,3.27679999999987,103,964.114077669903,544.920873786408,2014.20873786408,971.070873786408,957.157281553398,554.291262135922,535.550485436893,2266.35922330097,1762.05825242718,0
1770.1888,1.33465504388735e-07,-7.50609367603815e-08,,8.53318633462938e-08,-4.94734114712402e-08,-4.94734114711695e-08,,-2.84032779214368e-08,1.507740835175e-07,2.60374878666245e-08,-7.59196452959299e-08,2.60374878667513e-08,-8.59556149330775e-08,1.31109924311463e-07,4.51543093786159e-08,3.10491537258724e-08,-3.73801049973922e-08,-6.33095127165809e-09,3.05967201350226e-08,-2.80550631890427e-08,3.05967201349532e-08,-3.04240703037064e-08,-1.20871651473833e-07,-1.51295721777944e-07,5.60967823658138e-08,3.71062580618623e-08,3.71062580618589e-08,-8.81288606118232e-08,8.81288606118336e-08,1.09842593219611e-07,-1.0149636537927e-07,3.78563876754304e-08,-6.36399777038019e-08,-1.14763865806498e-07,1.49700730409293e-08,-9.97937927655098e-08,1.58198894442584e-07,-1.46142611802671e-08,-1.46142611801936e-08,-5.19919203247736e-08,6.18122386059429e-08,9.82031828115987e-09,-1.12389514557989e-07,3.8424331877614e-08,-7.39651826805098e-08,-7.04519044124367e-07,-8.98699596582236e-09,-8.98699596556148e-09,,-1.29650150279342e-07,,0,0,0,3.37919999999986,102,967.149509803922,545.166176470588,2007.02450980392,974.863725490196,959.435294117647,557.702941176471,532.629411764706,2257.30392156863,1756.74509803922,0
1770.2912,1.4773027202289e-07,-7.79005963823639e-08,,8.46734689574436e-08,-4.37911859381574e-08,-4.37911859380853e-08,,-2.99379314164435e-08,1.27442560898422e-07,2.71465287812047e-08,-7.68941307656944e-08,2.71465287813398e-08,-8.28330873059093e-08,1.29319246683821e-07,4.64861593781442e-08,3.38671576164904e-08,-3.88153417075835e-08,-4.94818409123369e-09,3.93509064972409e-08,-3.05049507979659e-08,3.93509064971696e-08,2.48551275729676e-08,-1.37247242386317e-07,-1.12392114813757e-07,4.64097518087865e-08,3.50334161125399e-08,3.5033416112532e-08,-8.3458764554134e-08,8.34587645541446e-08,1.10824060978674e-07,-1.0056484906339e-07,3.45766147448497e-08,-6.59882343185006e-08,-1.13489893866159e-07,1.06239984165833e-08,-1.02865895449522e-07,1.53004939062169e-07,-1.5342594563371e-08,-1.53425945632971e-08,-6.04037467821034e-08,5.86722760857944e-08,-1.73147069632228e-09,-1.11708303060001e-07,3.44972696411524e-08,-7.72110334189864e-08,-6.85132026028054e-07,2.55345007626452e-09,2.55345007652323e-09,,-1.2706556985368e-07,,0,0,0,3.48159999999984,103,965.408252427184,547.409708737864,2006.21359223301,973.336893203884,957.479611650485,558.566019417476,536.253398058253,2252.60194174757,1759.82524271845,0
1770.3936,1.62569180570652e-07,-8.03606782521058e-08,,8.418415549201e-08,-3.77793864432392e-08,-3.77793864431656e-08,,-3.15874740588721e-08,1.01504699123562e-07,2.88116918882694e-08,-7.72060612977179e-08,2.88116918884137e-08,-7.88039635703676e-08,1.27014642004226e-07,4.82106784340936e-08,3.71811296001649e-08,-4.03324136824669e-08,-3.15128408244472e-09,4.8667471831704e-08,-3.29015717334523e-08,4.86674718316306e-08,7.99326956755312e-08,-1.55583356712077e-07,-7.56506610369562e-08,3.64766064334137e-08,3.29326668655256e-08,3.29326668655128e-08,-7.87069845870703e-08,7.8706984587081e-08,1.11248091760157e-07,-9.90405861408298e-08,3.14481065482926e-08,-6.7592479592495e-08,-1.11658905460675e-07,5.89621407356069e-09,-1.05762691387067e-07,1.48506136818782e-07,-1.56241462775451e-08,-1.56241462774721e-08,-6.91898934017852e-08,5.5140972338653e-08,-1.40489210631494e-08,-1.10774146612148e-07,3.04869647496437e-08,-8.02871818626453e-08,-6.61300352664026e-07,1.55402473643927e-08,1.55402473646494e-08,,-1.25699652433439e-07,,0,0,0,3.58400000000006,102,963.262745098039,543.353431372549,2010.59803921569,971.573529411765,954.951960784314,557.019607843137,529.687254901961,2253.88235294118,1767.3137254902,0
1770.496,1.77129925806367e-07,-8.25106903375078e-08,,8.37399669226829e-08,-3.16436377830857e-08,-3.16436377830106e-08,,-3.35616288096555e-08,7.35120427629823e-08,3.0735260396681e-08,-7.68676590429745e-08,3.0735260396835e-08,-7.40651415594167e-08,1.24352108815107e-07,5.0286967255928e-08,4.11342225818564e-08,-4.18715138924212e-08,-7.37291310709624e-10,5.83240854848633e-08,-3.52146061989218e-08,5.83240854847879e-08,1.33221371290453e-07,-1.75461529042067e-07,-4.22401577520273e-08,2.66798610269882e-08,3.07903578768932e-08,3.07903578768753e-08,-7.38988039722194e-08,7.38988039722308e-08,1.11117224861993e-07,-9.69880694233061e-08,2.84887066179754e-08,-6.84993628052862e-08,-1.09385315220028e-07,9.66497768831628e-10,-1.08418817451155e-07,1.44483380053521e-07,-1.54333921096947e-08,-1.54333921096231e-08,-7.77057734310858e-08,5.13791906768552e-08,-2.63265827542518e-08,-1.0945251972727e-07,2.65495230290803e-08,-8.2902996698334e-08,-6.33685621872189e-07,2.97158235296468e-08,2.97158235299006e-08,,-1.2633941257968e-07,,0,0,0,3.68640000000005,102,962.850490196078,540.561274509804,2017.36764705882,971.164705882353,954.536274509804,552.573529411765,528.549019607843,2258.04901960784,1776.6862745098,0
1770.5984,1.90449044661431e-07,-8.44097257086661e-08,,8.32211117989557e-08,-2.56288793095391e-08,-2.56288793094624e-08,,-3.61628564057469e-08,4.40003678280514e-08,3.26567975688352e-08,-7.58968874916372e-08,3.26567975689989e-08,-6.87909709054698e-08,1.21499955076354e-07,5.27089841711242e-08,4.59429804384913e-08,-4.33470435151052e-08,2.59593692323919e-09,6.81472540006763e-08,-3.74471043717844e-08,6.81472540005991e-08,1.8314804327817e-07,-1.96416929230878e-07,-1.3268885953124e-08,1.74150482427886e-08,2.858486702286e-08,2.85848670228374e-08,-6.90721747825184e-08,6.90721747825305e-08,1.10409923828937e-07,-9.4501337557139e-08,2.57262194130109e-08,-6.87751181440814e-08,-1.06805798232261e-07,-3.94590293829722e-09,-1.10751701170524e-07,1.40625224433473e-07,-1.47510412631656e-08,-1.47510412630961e-08,-8.51561395352094e-08,4.76035220376697e-08,-3.75526174975643e-08,-1.07597360092121e-07,2.28540088055965e-08,-8.4743351286672e-08,-6.03183076438592e-07,4.48032732298568e-08,4.48032732301083e-08,,-1.2972038434519e-07,,0,0,0,3.78880000000004,103,961.413106796117,541.354854368932,2024.65048543689,970.070873786408,952.755339805825,550.797087378641,531.912621359223,2262.09708737864,1787.20388349515,0
1770.7008,2.01537806405337e-07,-8.60927559257736e-08,,8.24869074491726e-08,-1.99711245770391e-08,-1.9971124576961e-08,,-3.97568008822328e-08,1.34318368788992e-08,3.43972707708459e-08,-7.42988110484247e-08,3.4397270771019e-08,-6.31219893136011e-08,1.1862445859281e-07,5.55024692794502e-08,5.18997643682578e-08,-4.46495964585633e-08,7.25016790954573e-09,7.80241209260459e-08,-3.96341364062831e-08,7.80241209259674e-08,2.28403051336181e-07,-2.17986527845131e-07,1.04165234906311e-08,9.04285894021888e-09,2.62902108794185e-08,2.62902108793916e-08,-6.42705858260138e-08,6.42705858260268e-08,1.09056681053036e-07,-9.16742973432459e-08,2.31953843060002e-08,-6.84789130371975e-08,-1.04056641300596e-07,-8.60361490118196e-09,-1.12660256201748e-07,1.36525531431947e-07,-1.35666022983858e-08,-1.35666022983196e-08,-9.06338478992999e-08,4.40640267635282e-08,-4.6569821135799e-08,-1.0504209512336e-07,1.95730463724065e-08,-8.54690487511022e-08,-5.70749427505225e-07,6.05582639712503e-08,6.05582639714994e-08,,-1.36455990108913e-07,,0,1,0,3.89120000000003,102,961.548039215686,536.001960784314,2032.98529411765,971.220588235294,951.875490196078,548.877450980392,523.126470588235,2270.46078431373,1795.50980392157,0
1770.8032,2.09492959714296e-07,-8.75606228367922e-08,,8.13506037891205e-08,-1.48447317901561e-08,-1.48447317900766e-08,,-4.47010657231555e-08,-1.77864844954396e-08,3.5888409711254e-08,-7.20635298380044e-08,3.58884097114355e-08,-5.71703610079291e-08,1.15882440110927e-07,5.87120791032381e-08,5.93521130593634e-08,-4.56568136292669e-08,1.36952994299458e-08,8.78868188175374e-08,-4.18353534578794e-08,8.78868188174584e-08,2.68141056247321e-07,-2.39745385178881e-07,2.83956710680195e-08,1.84021101059796e-09,2.38831779258284e-08,2.38831779257981e-08,-5.95387993112487e-08,5.95387993112628e-08,1.06934302063382e-07,-8.85758121026189e-08,2.0932351322292e-08,-6.76434607802776e-08,-1.01250055616633e-07,-1.27781543978159e-08,-1.14028210014422e-07,1.31722020977557e-07,-1.18868722561988e-08,-1.18868722561367e-08,-9.31933908699571e-08,4.10207385934505e-08,-5.21726522765352e-08,-1.01596952545425e-07,1.68689975552773e-08,-8.47279549902986e-08,-5.37212395192762e-07,7.68001868636842e-08,7.68001868639311e-08,,-1.46963841361428e-07,,0,1,0,3.99360000000002,103,962.610679611651,535.800970873786,2034.66019417476,973.922330097087,951.299029126214,547.580582524272,524.021359223301,2274.4854368932,1794.83495145631,0
1770.9056,2.13618054361828e-07,-8.87780840815272e-08,,7.95689140546042e-08,-1.03232104195934e-08,-1.03232104195127e-08,,-5.12508483109418e-08,-4.92166753798925e-08,3.71837809898649e-08,-6.91757153326653e-08,3.71837809900537e-08,-5.10312721209708e-08,1.13414971963703e-07,6.23836998429709e-08,6.86489280710436e-08,-4.62504481006821e-08,2.23984799702086e-08,9.76714429130153e-08,-4.41215044858059e-08,9.76714429129364e-08,3.02038272683094e-07,-2.61293808989013e-07,4.07444636936592e-08,-4.037963728797e-09,2.13533335466451e-08,2.13533335466123e-08,-5.49267981822597e-08,5.4926798182275e-08,1.03885050236237e-07,-8.52364417678279e-08,1.89687635951492e-08,-6.62676781726288e-08,-9.84545185800045e-08,-1.62761872480513e-08,-1.14730705828031e-07,1.25774026770175e-07,-9.75070357437768e-09,-9.75070357432045e-09,-9.19458908884925e-08,3.87164711876276e-08,-5.32294197008931e-08,-9.70585404094772e-08,1.48797698331948e-08,-8.21787705764335e-08,-5.03119878999708e-07,9.34063039052465e-08,9.34063039054912e-08,,-1.6137040291454e-07,,0,1,0,4.096,102,963.575,535.912254901961,2029.25490196078,975.363725490196,951.786274509804,551.189215686275,520.635294117647,2272.88235294118,1785.62745098039,0
1771.008,2.13527454059812e-07,-8.96751471462672e-08,,7.68566116458035e-08,-6.36469801809125e-09,-6.36469801800922e-09,,-5.94707907498074e-08,-8.02834934920185e-08,3.84518682867323e-08,-6.56266950781086e-08,3.84518682869273e-08,-4.47879767586458e-08,1.11335417586627e-07,6.65474408282156e-08,8.0058062825813e-08,-4.6333536729301e-08,3.37245260963566e-08,1.07269077407715e-07,-4.65553176400815e-08,1.07269077407638e-07,3.30209544336373e-07,-2.8219442655924e-07,4.8015117776711e-08,-8.57897902468314e-09,1.8713471840792e-08,1.87134718407578e-08,-5.05004558867546e-08,5.05004558867711e-08,9.97546310224835e-08,-8.1649301286324e-08,1.73270114813715e-08,-6.43222898049027e-08,-9.56838567547621e-08,-1.89586318987632e-08,-1.146424886535e-07,1.18354814454884e-07,-7.24107717017478e-09,-7.24107717012296e-09,-8.61580007371083e-08,3.73424367254055e-08,-4.88155640117287e-08,-9.123131335896e-08,1.37068230623382e-08,-7.75244902967728e-08,-4.68691091667326e-07,1.10273144843555e-07,1.10273144843798e-07,,-1.79413743785328e-07,,0,0,0,4.19839999999999,102,962.055882352941,538.049509803922,2015.90196078431,974.229411764706,949.882352941176,548.072549019608,528.026470588235,2267.46078431373,1764.3431372549,0
1771.1104,2.09210706026589e-07,-9.01469159848936e-08,,7.29305709805885e-08,-2.82115547499743e-09,-2.82115547491395e-09,,-6.91763812591626e-08,-1.10200849552428e-07,3.99503704418377e-08,-6.14255042566607e-08,3.99503704420377e-08,-3.85056243652234e-08,1.09708027433629e-07,7.12024030686347e-08,9.36706890662493e-08,-4.58441458937949e-08,4.78265431722959e-08,1.16488378907268e-07,-4.91683486256331e-08,1.16488378907192e-07,3.5306071269083e-07,-3.01895205397521e-07,5.11655072928879e-08,-1.19145978430423e-08,1.60074349036597e-08,1.60074349036251e-08,-4.63508992151768e-08,4.63508992151947e-08,9.44368976471808e-08,-7.77822374539821e-08,1.60166551983223e-08,-6.1765582255611e-08,-9.2897423240016e-08,-2.07507752854308e-08,-1.1364819852542e-07,1.09333493570263e-07,-4.48469016003132e-09,-4.48469015998539e-09,-7.53452595086549e-08,3.69986574756399e-08,-3.83466020330365e-08,-8.39564796661831e-08,1.34033172987465e-08,-7.05531623675865e-08,-4.33891272206917e-07,1.27262035164433e-07,1.27262035164674e-07,,-2.00397061255995e-07,,0,0,0,4.30079999999998,103,962.177184466019,537.773786407767,2001.31067961165,973.926213592233,950.428155339806,548.263106796117,527.284466019417,2258.33980582524,1744.28155339806,0
1771.2128,2.01050610277457e-07,-9.00566684952011e-08,,6.75751633067106e-08,5.36971777425183e-10,5.36971777510151e-10,,-7.99157059166519e-08,-1.3795807454436e-07,4.19824224305872e-08,-5.66099685521822e-08,4.19824224307915e-08,-3.22165055410229e-08,1.08520700455711e-07,7.63041949149095e-08,1.09314717274221e-07,-4.47649281070915e-08,6.4549789166968e-08,1.25041629286902e-07,-5.19392862550601e-08,1.25041629286829e-07,3.71136988349808e-07,-3.19681733975571e-07,5.1455254373817e-08,-1.43083439072081e-08,1.33133898621248e-08,1.33133898620908e-08,-4.2594940057556e-08,4.25949400575754e-08,8.79145814424783e-08,-7.35956223909536e-08,1.50314984380991e-08,-5.8564123952807e-08,-9.00106157002082e-08,-2.16446939808356e-08,-1.11655309681013e-07,9.88300190553119e-08,-1.63758293319799e-09,-1.63758293315855e-09,-5.93533551943472e-08,3.76595371340793e-08,-2.16938180602832e-08,-7.51438143820052e-08,1.396226706914e-08,-6.11815473130132e-08,-3.98590124662488e-07,1.44145964421999e-07,1.44145964422239e-07,,-2.23223822801302e-07,,0,0,0,4.40319999999997,102,961.122549019608,537.357352941177,1984.58333333333,974.057843137255,948.187254901961,550.090196078431,524.624509803922,2241.72549019608,1727.44117647059,0
1771.3152,1.89789488839856e-07,-8.92521299653741e-08,,6.07067430980649e-08,3.98574253866365e-09,3.98574253875033e-09,,-9.09956772469654e-08,-1.62362488166595e-07,4.48387032227344e-08,-5.12571167833653e-08,4.48387032229422e-08,-2.59075406738334e-08,1.07665254370652e-07,8.17577136970309e-08,1.26501075051585e-07,-4.31271514612477e-08,8.33739235901714e-08,1.32556515392418e-07,-5.47808816297527e-08,1.32556515392349e-07,3.84970739297042e-07,-3.34682633983299e-07,5.02881053133233e-08,-1.61272252867849e-08,1.07414959991948e-08,1.07414959991622e-08,-3.93652324714855e-08,3.93652324715065e-08,8.02880877033927e-08,-6.90616151073199e-08,1.43482833676001e-08,-5.47133317396741e-08,-8.6913125706025e-08,-2.16947053141001e-08,-1.08607831020089e-07,8.72338902719546e-08,1.13488886588091e-09,1.13488886591323e-09,-3.84152100732057e-08,3.91580886416523e-08,7.42878568439208e-10,-6.48022718412396e-08,1.53105247487819e-08,-4.94917470926034e-08,-3.62726934413218e-07,1.60570548190312e-07,1.6057054819055e-07,,-2.4650197125094e-07,,0,0,0,4.50559999999996,102,960.121078431373,538.861274509804,1957.39215686275,973.83431372549,946.407843137255,553.114705882353,524.607843137255,2209.75490196078,1705.02941176471,0
1771.4176,1.76428370744282e-07,-8.75945290349928e-08,,5.24125523374434e-08,7.80336681907916e-09,7.80336681916751e-09,,-1.01554711126133e-07,-1.82128903212186e-07,4.87352075661561e-08,-4.54874761257901e-08,4.87352075663674e-08,-1.95248399455195e-08,1.06941943302262e-07,8.7417103356945e-08,1.44427608622102e-07,-4.10073895708016e-08,1.03420219051131e-07,1.38608207832208e-07,-5.75405978832543e-08,1.38608207832144e-07,3.94928704208546e-07,-3.45933796226881e-07,4.89949079812469e-08,-1.77941898215975e-08,8.42408609212904e-09,8.42408609209806e-09,-3.67945139640654e-08,3.6794513964088e-08,7.17836005996899e-08,-6.41806284146719e-08,1.3929004579277e-08,-5.02516238353511e-08,-8.34916639938956e-08,-2.10050900198379e-08,-1.04496754013691e-07,7.51833360862706e-08,3.67512441965455e-09,3.67512441967944e-09,-1.31618707863398e-08,4.11984426484981e-08,2.80365718621601e-08,-5.30593628208411e-08,1.73153659703513e-08,-3.57439968506326e-08,-3.26423023142084e-07,1.76043425864598e-07,1.76043425864834e-07,,-2.6869677858557e-07,,0,0,0,4.60799999999995,103,960.425242718447,539.907766990291,1934.8640776699,975.672815533981,945.177669902913,555.225242718447,524.590291262136,2184.46601941748,1685.26213592233,0
1771.52,1.6205633500685e-07,-8.49862707300453e-08,,4.29479975223579e-08,1.22224236334781e-08,1.22224236335679e-08,,-1.10676672999329e-07,-1.96013244059103e-07,5.37648113407726e-08,-3.94574163096917e-08,5.37648113409876e-08,-1.300113492125e-08,1.06096815286087e-07,9.30956803650304e-08,1.62064118579676e-07,-3.85169206221179e-08,1.23547197957385e-07,1.42765917418573e-07,-6.00178232973183e-08,1.42765917418512e-07,4.01110006224465e-07,-3.52502860552137e-07,4.86071456719115e-08,-1.97241310461808e-08,6.49740758803755e-09,6.49740758800813e-09,-3.50002907000071e-08,3.50002907000317e-08,6.27321498514818e-08,-5.89882113952541e-08,1.37276281082109e-08,-4.52605832870012e-08,-7.96531148881634e-08,-1.97100275718723e-08,-9.93631424599872e-08,6.35077367016261e-08,5.84710193387934e-09,5.84710193389627e-09,1.54356729153257e-08,4.33997534646286e-08,5.88354263799658e-08,-4.01538865324713e-08,1.98053544187813e-08,-2.03485321138298e-08,-2.90019277889865e-07,1.89970200960555e-07,1.89970200960789e-07,,-2.88327250694676e-07,,0,0,0,4.71039999999994,102,960.927941176471,542.406862745098,1927.58333333333,976.137254901961,945.718627450981,552.555882352941,532.257843137255,2171.54901960784,1683.61764705882,0
1771.6224,1.47650187006025e-07,-8.13852741169345e-08,,3.26889802323169e-08,1.73920409383525e-08,1.73920409384435e-08,,-1.17523071207714e-07,-2.02971556144756e-07,5.98809099721017e-08,-3.3341020848008e-08,5.98809099723212e-08,-6.29599586300317e-09,1.04885078342194e-07,9.85890824793753e-08,1.78316726825669e-07,-3.57862214432812e-08,1.42530505382212e-07,1.446497594554e-07,-6.19968446612151e-08,1.44649759455342e-07,4.03351428276501e-07,-3.53657007534783e-07,4.96944207413027e-08,-2.22590101149279e-08,5.07959915384617e-09,5.07959915381769e-09,-3.4074740309477e-08,3.40747403095036e-08,5.35212413654098e-08,-5.35496984447009e-08,1.3700170208429e-08,-3.98495282362311e-08,-7.53432511634888e-08,-1.79489357060585e-08,-9.32921868694937e-08,5.31430311753733e-08,7.54923496172969e-09,7.54923496173881e-09,4.61909344202486e-08,4.53656675194029e-08,9.15566019396724e-08,-2.6397185848383e-08,2.26006276231507e-08,-3.79655822536941e-09,-2.54024317090426e-07,2.01741370824615e-07,2.01741370824848e-07,,-3.04183786991214e-07,,0,0,0,4.81279999999993,103,961.238349514563,542.057281553398,1927.92233009709,976.918446601942,945.558252427185,554.173786407767,529.940776699029,2167.66019417476,1688.18446601942,0
1771.7248,1.339125496655e-07,-7.68087516102357e-08,,2.20557535243947e-08,2.33596398764311e-08,2.33596398765227e-08,,-1.21446455227163e-07,-2.02298258035255e-07,6.69140417210356e-08,-2.73114360077051e-08,6.69140417212606e-08,5.68993218707284e-10,1.03137562555204e-07,1.03706555774088e-07,1.92219768632398e-07,-3.29482557441689e-08,1.59271512888051e-07,1.43984217888285e-07,-6.32878640728247e-08,1.43984217888231e-07,4.01316508603461e-07,-3.49017570623446e-07,5.22989379795999e-08,-2.56242032911432e-08,4.25368175884533e-09,4.25368175881688e-09,-3.40794158097567e-08,3.40794158097854e-08,4.45363162971778e-08,-4.79482544609623e-08,1.38148087379097e-08,-3.41334457230121e-08,-7.05570048049131e-08,-1.58439078639746e-08,-8.6400912668831e-08,4.50348948507563e-08,8.72206486483862e-09,8.72206486484055e-09,7.78532152153097e-08,4.67623247023754e-08,1.24615539917714e-07,-1.21191760999898e-08,2.55429834648823e-08,1.34238073647578e-08,-2.1898903362455e-07,2.10844730902946e-07,2.10844730903177e-07,,-3.15501759911259e-07,,0,0,0,4.91519999999991,102,961.044607843137,543.025,1937.24509803922,977.7,944.389215686274,552.951960784314,533.098039215686,2173.23529411765,1701.25490196078,0
1771.8272,1.2119189009079e-07,-7.1337334074078e-08,,1.14452777732703e-08,3.00666811995126e-08,3.00666811996042e-08,,-1.22059973922918e-07,-1.93706857212333e-07,7.4598771092088e-08,-2.15323522736069e-08,7.45987710923197e-08,7.49221053845134e-09,1.00801093982509e-07,1.08293304521133e-07,2.0307632684833e-07,-3.01243544567032e-08,1.72951972391447e-07,1.40625374006308e-07,-6.37631847133817e-08,1.40625374006255e-07,3.94574888480316e-07,-3.38639213868195e-07,5.59356746117073e-08,-2.99175258572685e-08,4.05908129843236e-09,4.05908129840288e-09,-3.50388600753254e-08,3.50388600753563e-08,3.61161388055377e-08,-4.22722117255478e-08,1.40554885973336e-08,-2.82167231281733e-08,-6.5339720699413e-08,-1.34869824034895e-08,-7.88267031028449e-08,4.0045084992435e-08,9.34507107979165e-09,9.34507107978739e-09,1.09234857027981e-07,4.73815250713589e-08,1.56616382099377e-07,2.37478455852236e-09,2.85144145450399e-08,3.08891991034297e-08,-1.85417261636537e-07,2.16961600566578e-07,2.16961600566808e-07,,-3.22032504981606e-07,,0,0,0,5.0175999999999,102,960.105392156863,537.409803921569,1952.73529411765,976.13431372549,944.076470588235,550.067647058824,524.751960784314,2189.60784313725,1715.86274509804,0
1771.9296,1.09484972199852e-07,-6.51225733570393e-08,,1.20524075937372e-09,3.73451579671287e-08,3.73451579672199e-08,,-1.19263065178992e-07,-1.77355989229703e-07,8.25876651347476e-08,-1.61630683852386e-08,8.25876651349871e-08,1.42933755818046e-08,9.79379570198798e-08,1.12231332601855e-07,2.10502294209183e-07,-2.74155392513827e-08,1.83086754957621e-07,1.34554638341092e-07,-6.33778191958056e-08,1.34554638341039e-07,3.82620256223277e-07,-3.23002372943778e-07,5.96178832790857e-08,-3.512073567592e-08,4.48722847466664e-09,4.48722847463491e-09,-3.69298209606739e-08,3.69298209607071e-08,2.85358701739221e-08,-3.66030635351403e-08,1.44137895064171e-08,-2.21892740286808e-08,-5.9781994104661e-08,-1.09416996700035e-08,-7.07236937746084e-08,3.8874947006943e-08,9.42426820565735e-09,9.42426820564776e-09,1.3928488905682e-07,4.71707914403087e-08,1.86455680497171e-07,1.68191185099038e-08,3.14359024332381e-08,4.82550209430107e-08,-1.53842349962866e-07,2.20014757232697e-07,2.20014757232926e-07,,-3.24014394891342e-07,,0,1,0,5.11999999999989,103,958.983009708738,539.961650485437,1969.42233009709,975.566019417476,942.4,552.130097087379,527.793203883495,2206.90291262136,1731.94174757282,0
1772.032,9.85131990455742e-08,-5.83898279052611e-08,,-8.35086191023381e-09,4.491502002841e-08,4.49150200285001e-08,,-1.13233820845888e-07,-1.53845064124216e-07,9.04594635413471e-08,-1.13725024218057e-08,9.04594635415956e-08,2.07351779981163e-08,9.46933246670261e-08,1.15428502665313e-07,2.14394305236636e-07,-2.49002453001212e-08,1.89494059936336e-07,1.25861067145157e-07,-6.21724538766399e-08,1.25861067145104e-07,3.64895383678489e-07,-3.02956966227402e-07,6.19384174506739e-08,-4.11143714557139e-08,5.4781854199389e-09,5.47818541990364e-09,-3.967179893365e-08,3.96717989336853e-08,2.20103781888569e-08,-3.10071407244623e-08,1.48726369855097e-08,-1.61345037389075e-08,-5.40101433779347e-08,-8.25652264771603e-09,-6.2266666025599e-08,4.20143537317989e-08,8.9771876610837e-09,8.97718766106942e-09,1.67115171953193e-07,4.62258382762433e-08,2.13341010229482e-07,3.09754348741963e-08,3.42470653216885e-08,6.52225001957544e-08,-1.25032102248601e-07,2.20156611791108e-07,2.20156611791335e-07,,-3.22077279100874e-07,,0,1,0,5.22239999999988,102,958.15,535.822549019608,1983.22549019608,972.479411764706,943.820588235294,553.496078431373,518.149019607843,2220.44117647059,1746.00980392157,0
1772.1344,8.78713120681549e-08,-5.14301908732572e-08,,-1.69183453839391e-08,5.24000382690436e-08,5.24000382691322e-08,,-1.04397999586105e-07,-1.24195812255863e-07,9.7750341960874e-08,-7.35135600808656e-09,9.77503419611323e-08,2.65684026230251e-08,9.12484119253794e-08,1.17816814548578e-07,2.14875507809041e-07,-2.2636625230788e-08,1.92238882578076e-07,1.14741501983218e-07,-6.02641940835114e-08,1.14741501983162e-07,3.4094419505337e-07,-2.79652815141234e-07,6.12913799117236e-08,-4.76893118860255e-08,6.92241895960128e-09,6.92241895956123e-09,-4.31264739926766e-08,4.31264739927139e-08,1.66963379082692e-08,-2.55369720028779e-08,1.53924763722408e-08,-1.01444956305883e-08,-4.81724281524676e-08,-5.4819937055806e-09,-5.36544218580035e-08,4.97129953424661e-08,8.02086718840095e-09,8.0208671883831e-09,1.9201268137477e-07,4.47528667516803e-08,2.36765548126498e-07,4.46061031586913e-08,3.6877690679551e-08,8.14837938381117e-08,-1.00111318245531e-07,2.17710809429657e-07,2.17710809429883e-07,,-3.17103689860656e-07,,0,1,0,5.32479999999987,103,957.808737864078,533.871359223301,1990.66504854369,971.864077669903,943.753398058252,554.014563106796,513.728155339806,2227.36893203883,1753.96116504854,0
1772.2368,7.72215776628473e-08,-4.45823764450025e-08,,-2.41962210450628e-08,5.93744977435996e-08,5.93744977436866e-08,,-9.33829156997264e-08,-8.98146250292888e-08,1.04019280119896e-07,-4.30682915480776e-09,1.04019280120165e-07,3.15929345844757e-08,8.77732581561628e-08,1.19366192740818e-07,2.12254441790798e-07,-2.06658859262186e-08,1.91588555864406e-07,1.01523542653827e-07,-5.78295216345109e-08,1.01523542653768e-07,3.10714920843878e-07,-2.54456285851611e-07,5.62586349918535e-08,-5.45617355116765e-08,8.6725662069709e-09,8.67256620692517e-09,-4.71071282798424e-08,4.71071282798815e-08,1.26786031699802e-08,-2.02427915778419e-08,1.59080755677926e-08,-4.33471600999609e-09,-4.24220409575009e-08,-2.68327257869429e-09,-4.51053135361601e-08,6.19636998647398e-08,6.56727505815879e-09,6.56727505813904e-09,2.13469269564474e-07,4.30116497938604e-08,2.56480919358381e-07,5.74535296513862e-08,3.9227518821298e-08,9.66810484725528e-08,-8.04365561111505e-08,2.13102882481061e-07,2.13102882481285e-07,,-3.10080336533057e-07,,0,0,0,5.42719999999986,102,958.002450980392,537.225490196079,1987.37254901961,972.701960784314,943.302941176471,556.58431372549,517.866666666667,2225.47058823529,1749.27450980392,0
1772.3392,6.64651081548452e-08,-3.82051310345486e-08,,-2.9914250449624e-08,6.54313459481589e-08,6.54313459482438e-08,,-8.09577955619681e-08,-5.24122608803222e-08,1.08925993400083e-07,-2.42962269961067e-09,1.08925993400362e-07,3.57066959295822e-08,8.43943867353605e-08,1.2010108266513e-07,2.06998613692282e-07,-1.90144804463771e-08,1.87984133245735e-07,8.66874649502343e-08,-5.50797645170991e-08,8.6687464950171e-08,2.74888784531177e-07,-2.28835591477753e-07,4.60531930530102e-08,-6.13970223916759e-08,1.05638755622023e-08,1.05638755621502e-08,-5.13959478851725e-08,5.1395947885213e-08,9.94496601707584e-09,-1.51857052969013e-08,1.63373699036198e-08,1.15166460677683e-09,-3.69001506185258e-08,5.67504694115359e-11,-3.68434001490907e-08,7.84917542221779e-08,4.62915945650417e-09,4.62915945648336e-09,2.31228840473023e-07,4.12514096209825e-08,2.72480250094049e-07,6.92401751644423e-08,4.11662357451338e-08,1.10406410909443e-07,-6.72443781598522e-08,2.06816566947704e-07,2.06816566947925e-07,,-3.01986818113786e-07,,0,0,0,5.52959999999985,103,961.503398058252,537.199514563107,1977.71844660194,976.615533980583,946.391262135922,557.33786407767,517.061165048544,2222.23300970874,1733.20388349515,0
1772.4416,5.58185771195845e-08,-3.2638593453478e-08,,-3.38850014501924e-08,7.02492582591608e-08,7.02492582592433e-08,,-6.79545143498287e-08,-1.38590263930226e-08,1.12287088188759e-07,-1.84366008332577e-09,1.12287088189048e-07,3.89116534777042e-08,8.11914522760292e-08,1.20103105753931e-07,1.99707723309957e-07,-1.76954283090598e-08,1.82012295000732e-07,7.08551107853577e-08,-5.2231298750535e-08,7.08551107852895e-08,2.3504076753609e-07,-2.042159245111e-07,3.08248430245762e-08,-6.78412128302315e-08,1.24373971102925e-08,1.24373971102337e-08,-5.57668463894437e-08,5.57668463894855e-08,8.36513404080362e-09,-1.04418194353813e-08,1.65984689580211e-08,6.15664952270387e-09,-3.17221126812003e-08,2.64470323257048e-09,-2.90774094486193e-08,9.87587077202817e-08,2.23344987242793e-09,2.23344987240708e-09,2.45321581000864e-07,3.96557736037871e-08,2.8497735460469e-07,7.96920611703597e-08,4.25543399894772e-08,1.22246401159701e-07,-6.12238182556761e-08,1.99384258317143e-07,1.99384258317361e-07,,-2.93741555848617e-07,,0,0,0,5.63200000000006,102,965.99362745098,536.655392156863,1969.11764705882,981.225490196078,950.761764705882,557.402941176471,515.907843137255,2218.93137254902,1719.30392156863,0
1772.544,4.57689059789054e-08,-2.81590930458542e-08,,-3.60589036438455e-08,7.36390950040272e-08,7.36390950041071e-08,,-5.51676505622629e-08,2.40202041194106e-08,1.14083796972092e-07,-2.56516268007795e-09,1.1408379697239e-07,4.12710385094621e-08,7.82182179123211e-08,1.19489256421992e-07,1.91069183558387e-07,-1.67093874808545e-08,1.74359796077372e-07,5.47285963004473e-08,-4.94763985927108e-08,5.47285963003744e-08,1.93497435019222e-07,-1.81829094766202e-07,1.16683402526045e-08,-7.35549762006735e-08,1.41598296174402e-08,1.41598296173747e-08,-6.0008347028665e-08,6.0008347028708e-08,7.69015511922906e-09,-6.09258036469563e-09,1.66273482859459e-08,1.05347679213202e-08,-2.69682063230364e-08,4.99120329167567e-09,-2.19770030313643e-08,1.2200511321008e-07,-5.67015146488244e-10,-5.67015146506878e-10,2.56049525958913e-07,3.83127475266026e-08,2.94362273485547e-07,8.85752092506366e-08,4.32764211101931e-08,1.31851630360691e-07,-6.21813336189938e-08,1.9138646421503e-07,1.91386464215244e-07,,-2.86188528301879e-07,,0,0,0,5.73440000000005,102,966.077450980392,538.845588235294,1953.95588235294,980.829411764706,951.325490196079,559.052941176471,518.638235294118,2209.96078431373,1697.95098039216,0
1772.6464,3.69364101173695e-08,-2.49388894470954e-08,,-3.65556466450363e-08,7.556243961709e-08,7.55624396171673e-08,,-4.32512972381577e-08,5.96691961438845e-08,1.14415828629907e-07,-4.48959083454156e-09,1.14415828630213e-07,4.28419480997202e-08,7.5525425541537e-08,1.18367373641477e-07,1.81787544770534e-07,-1.60449663693342e-08,1.65742578401044e-07,3.89884968814491e-08,-4.69586706997425e-08,3.89884968813714e-08,1.52916334926368e-07,-1.62590259505113e-07,-9.67392457916108e-09,-7.82453141128436e-08,1.56359006714044e-08,1.56359006713323e-08,-6.39407002132823e-08,6.39407002133263e-08,7.5807439087913e-09,-2.20648521317346e-09,1.63894023018146e-08,1.41829170887166e-08,-2.26803003886299e-08,7.02624986485415e-09,-1.56540505237935e-08,1.473522554445e-07,-3.68888250251182e-09,-3.68888250252731e-09,2.63904443741915e-07,3.72129231380144e-08,3.01117366879953e-07,9.57268079187345e-08,4.32761936003264e-08,1.39003001518919e-07,-6.89015508631685e-08,1.83428617770324e-07,1.83428617770534e-07,,-2.80096938069605e-07,,0,0,0,5.83680000000004,103,957.033980582524,538.944174757282,1936.7572815534,971.628155339806,942.439805825243,561.243689320388,516.644660194175,2195.08737864078,1678.42718446602,0
1772.7488,2.99134763739644e-08,-2.30209043578479e-08,,-3.56560872733662e-08,7.61274995452537e-08,7.61274995453285e-08,,-3.26427885727984e-08,9.19800626694388e-08,1.13424020694714e-07,-7.40536239172341e-09,1.13424020695026e-07,4.36170478027787e-08,7.31697734786328e-08,1.16786821281643e-07,1.72497941550168e-07,-1.56773328025817e-08,1.56820608747435e-07,2.41837320624978e-08,-4.47537083267678e-08,2.41837320624154e-08,1.15772313373823e-07,-1.47029110808482e-07,-3.12567974350745e-08,-8.16927512064155e-08,1.68120240383675e-08,1.68120240382894e-08,-6.74277406677559e-08,6.74277406678009e-08,7.65998928305507e-09,1.17636327029919e-09,1.58834794090043e-08,1.70598426793844e-08,-1.8866652077707e-08,8.70965908124002e-09,-1.01569929964983e-08,1.73951160543135e-07,-7.01636728944952e-09,-7.01636728946117e-09,2.69428393316671e-07,3.62646516123601e-08,3.05693044929046e-07,1.01065261867249e-07,4.25836420815148e-08,1.43648903948619e-07,-7.92164513752656e-08,1.76086710724991e-07,1.76086710725195e-07,,-2.76150787768966e-07,,0,0,0,5.93920000000003,102,957.339705882353,537.341666666667,1933.03431372549,972.264705882353,942.414705882353,559.217647058824,515.46568627451,2190.79411764706,1675.27450980392,0
1772.8512,2.51414979347974e-08,-2.23154668411979e-08,,-3.37577965108359e-08,7.55694937106321e-08,7.55694937107047e-08,,-2.35357597161532e-08,1.20386113951935e-07,1.11218655474071e-07,-1.10254159252125e-08,1.11218655474389e-07,4.34977925557205e-08,7.12101739634554e-08,1.14707966519417e-07,1.63684169743538e-07,-1.55650135375778e-08,1.48119156205814e-07,1.06472839676997e-08,-4.2857592808112e-08,1.06472839676129e-08,8.39554956227695e-08,-1.3528421245694e-07,-5.1328716834586e-08,-8.37714710013911e-08,1.76726324468669e-08,1.76726324467832e-08,-7.03870607138711e-08,7.03870607139168e-08,7.57615774654462e-09,4.04956345763598e-09,1.51405708527702e-08,1.9190134310492e-08,-1.55142467650504e-08,1.00337211095312e-08,-5.48052565556295e-09,2.01136413348977e-07,-1.03989628201162e-08,-1.0398962820124e-08,2.73060906571382e-07,3.53149919519112e-08,3.083758985233e-07,1.04575550175724e-07,4.13252971954405e-08,1.45900847371016e-07,-9.0254113680712e-08,1.69837761760036e-07,1.69837761760235e-07,,-2.74920389094748e-07,,0,0,0,6.04160000000002,103,958.489320388349,540.525242718447,1942.02912621359,973.704854368932,943.273786407767,561.407766990291,519.642718446602,2199.8932038835,1684.16504854369,0
1772.9536,2.28513818651833e-08,-2.26236462219048e-08,,-3.13092648527591e-08,7.42155941719897e-08,7.42155941720602e-08,,-1.59034137101458e-08,1.44861037446109e-07,1.07838650396415e-07,-1.50309728436997e-08,1.07838650396737e-07,4.23041945190101e-08,6.9697406918204e-08,1.12001601437465e-07,1.55618727934915e-07,-1.56463282939249e-08,1.39972399640848e-07,-1.54344812993942e-09,-4.11896134064401e-08,-1.54344813002981e-09,5.85658289206036e-08,-1.27151184053774e-07,-6.85853551335846e-08,-8.44564805090689e-08,1.82320301759345e-08,1.82320301758458e-08,-7.27963893957682e-08,7.27963893958146e-08,7.05993631250913e-09,6.4371284217805e-09,1.42183927131782e-08,2.06555211350487e-08,-1.26037415437217e-08,1.10185857621202e-08,-1.58515578165601e-09,2.28534439945411e-07,-1.36557773655646e-08,-1.36557773655694e-08,2.75027678083117e-07,3.41759040270452e-08,3.09203582110162e-07,1.06278460138657e-07,3.97120967443013e-08,1.45990556882807e-07,-9.88245897646036e-08,1.64996441167047e-07,1.64996441167241e-07,,-2.76826486643609e-07,,0,0,0,6.14400000000001,102,959.176470588235,539.819607843137,1959.37254901961,972.83137254902,945.521568627451,561.15,518.489215686275,2215.80392156863,1702.94117647059,0
1773.056,2.30565508652628e-08,-2.36813627096886e-08,,-2.87377524741176e-08,7.2434712751814e-08,7.24347127518825e-08,,-9.55471216960704e-09,1.65838831813755e-07,1.0324541726171e-07,-1.9121864606374e-08,1.03245417262036e-07,3.98129963574275e-08,6.86603698733588e-08,1.08473366231045e-07,1.4833778892637e-07,-1.58382672802313e-08,1.32499521646001e-07,-1.25568110350297e-08,-3.96128629771298e-08,-1.25568110351232e-08,3.98819513141654e-08,-1.22172235216915e-07,-8.22902839031613e-08,-8.38126769643532e-08,1.8524967419274e-08,1.85249674191809e-08,-7.46897579327015e-08,7.46897579327486e-08,5.96360169013717e-09,8.38560094951886e-09,1.31924748594275e-08,2.157807580904e-08,-1.01217737829909e-08,1.17033732876489e-08,1.58159950459444e-09,2.56087728660198e-07,-1.65935056985381e-08,-1.65935056985412e-08,2.7529771647709e-07,3.26582284707206e-08,3.07955944947805e-07,1.06195609059228e-07,3.80074081527039e-08,1.44203017211779e-07,-1.01862811863004e-07,1.61670400275172e-07,1.61670400275361e-07,,-2.82108967659477e-07,,0,0,0,6.24639999999999,102,958.486274509804,537.679411764706,1983.17647058824,972.032352941176,944.940196078431,557.414705882353,517.944117647059,2241.20588235294,1725.14705882353,0
1773.1584,2.55751389744459e-08,-2.52088987998335e-08,,-2.63838743169833e-08,7.05806190346852e-08,7.0580619034752e-08,,-4.20406633607909e-09,1.84073756912681e-07,9.73432899738637e-08,-2.30621161034564e-08,9.73432899741925e-08,3.58093284479478e-08,6.80929027958384e-08,1.0390223124405e-07,1.41659052820719e-07,-1.60411519228845e-08,1.25617900897701e-07,-2.27520728653192e-08,-3.7967612042733e-08,-2.27520728654157e-08,2.74573603548593e-08,-1.19749687977751e-07,-9.22923276232995e-08,-8.19672376676099e-08,1.85978430500723e-08,1.85978430499756e-08,-7.6141920456406e-08,7.61419204564536e-08,4.27513423314809e-09,9.9539864697827e-09,1.21454961149219e-08,2.20994825848014e-08,-8.06747472268241e-09,1.21360827462295e-08,4.06860802347594e-09,2.83985099892647e-07,-1.90355797374729e-08,-1.90355797374756e-08,2.7360619935072e-07,3.06091203222934e-08,3.04215319673006e-07,1.04322798442221e-07,3.64844303393362e-08,1.40807228781403e-07,-9.6848772391441e-08,1.59738581645737e-07,1.59738581645924e-07,,-2.90794128115147e-07,,0,1,0,6.34879999999998,103,957.444174757282,536.451941747573,2006.73786407767,969.417475728155,945.470873786408,556.042718446602,516.861165048544,2265.2427184466,1748.23300970874,0
1773.2608,3.00638411595952e-08,-2.69540641788355e-08,,-2.44566701893991e-08,6.89402792500145e-08,6.89402792500795e-08,,4.55763303619464e-10,2.00463976882102e-07,9.00172262413984e-08,-2.67074234158159e-08,9.00172262417305e-08,3.01360187249487e-08,6.79479668012111e-08,9.80839855264285e-08,1.35239924081142e-07,-1.61510988129165e-08,1.19088825268097e-07,-3.25942167481477e-08,-3.61066164801847e-08,-3.2594216748247e-08,2.03063518314876e-08,-1.19255215299003e-07,-9.89488634679171e-08,-7.90742020592083e-08,1.85005334932361e-08,1.85005334931359e-08,-7.72472401741269e-08,7.72472401741749e-08,2.10710308425848e-09,1.12046792806995e-08,1.11571811989117e-08,2.23618604797106e-08,-6.45183113412489e-09,1.23640191391893e-08,5.91218800498734e-09,3.12525264855441e-07,-2.08542071788151e-08,-2.0854207178819e-08,2.69537433250303e-07,2.79442096845677e-08,2.97481642934862e-07,1.00625748684752e-07,3.53829007850917e-08,1.3600864946969e-07,-8.21721694636942e-08,1.58857260867329e-07,1.58857260867514e-07,,-3.02645377473275e-07,,0,1,0,6.45119999999997,102,956.83137254902,532.871078431373,2022.07352941177,969.026470588235,944.636274509804,556.83431372549,508.907843137255,2283.14705882353,1761,0
1773.3632,3.60556125510651e-08,-2.87221952132124e-08,,-2.30198717679749e-08,6.76987822873333e-08,6.76987822873965e-08,,4.68579961329606e-09,2.15871039942411e-07,8.11801473876808e-08,-3.00069014512978e-08,8.11801473880165e-08,2.27298607230628e-08,6.81436980596041e-08,9.08735587829386e-08,1.28665496665572e-07,-1.60783570567555e-08,1.12587139608693e-07,-4.25583726538823e-08,-3.39231300198867e-08,-4.25583726539842e-08,1.715337665058e-08,-1.20110330761536e-07,-1.02956954111351e-07,-7.52844760311724e-08,1.82794394105139e-08,1.82794394104104e-08,-7.8100658588003e-08,7.81006585880514e-08,-3.37111203747887e-10,1.21991151144724e-08,1.02966164690323e-08,2.24957315836063e-08,-5.29156397433067e-09,1.24270721861139e-08,7.13550821170121e-09,3.41962555172151e-07,-2.19962260186438e-08,-2.19962260186493e-08,2.62659464118483e-07,2.46666325415583e-08,2.87326096660033e-07,9.50672478800895e-08,3.48734557421258e-08,1.29940703622063e-07,-5.73966497600391e-08,1.58505095461629e-07,1.58505095461814e-07,,-3.17106950230458e-07,,0,1,0,6.55359999999996,102,955.884803921569,532.960784313726,2028.66666666667,967.647058823529,944.122549019608,556.139215686275,509.782352941177,2289.24509803922,1768.08823529412,0
1773.4656,4.29999125349993e-08,-3.03838779621456e-08,,-2.20133460298261e-08,6.69309957659951e-08,6.69309957660563e-08,,8.65554418630279e-09,2.30976031228057e-07,7.08229667051278e-08,-3.29790033129279e-08,7.08229667054674e-08,1.36418283639359e-08,6.85791713900102e-08,8.22209997542199e-08,1.21554157195718e-07,-1.57658607052525e-08,1.05788296490347e-07,-5.30421624068388e-08,-3.13670018079264e-08,-5.30421624069435e-08,1.67168087247115e-08,-1.21825637626741e-07,-1.05108828902417e-07,-7.07319435091899e-08,1.79740838915897e-08,1.79740838914831e-08,-7.87841045961286e-08,7.87841045961773e-08,-2.81674453017931e-09,1.30001104779583e-08,9.61756558428627e-09,2.26176760623482e-08,-4.60059173681098e-09,1.23569654759315e-08,7.75637373903454e-09,3.72379861733634e-07,-2.24953635431812e-08,-2.24953635431893e-08,2.5268245765975e-07,2.08673249358662e-08,2.73549782595611e-07,8.76625780615517e-08,3.50368586664471e-08,1.22699436727848e-07,-2.33390199498727e-08,1.58076813265777e-07,1.58076813265963e-07,,-3.33290382650228e-07,,0,0,0,6.65599999999995,103,956.178640776699,535.379611650486,2030.56796116505,968.869902912621,943.487378640777,560.536893203884,510.222330097087,2292.23300970874,1768.90291262136,0
1773.568,5.03038576594873e-08,-3.18584271600656e-08,,-2.1305577187639e-08,6.66196786014508e-08,6.661967860151e-08,,1.24384667549931e-08,2.46210860175873e-07,5.90559417705721e-08,-3.56666021900687e-08,5.90559417709159e-08,3.03980715609011e-09,6.91540973784376e-08,7.21939045348028e-08,1.13660714175362e-07,-1.52022704236809e-08,9.84584437515687e-08,-6.43026818750783e-08,-2.84469963251627e-08,-6.43026818751858e-08,1.79517465224898e-08,-1.23988607156056e-07,-1.06036860633945e-07,-6.55361175459297e-08,1.76180986375269e-08,1.76180986374171e-08,-7.93592910811272e-08,7.93592910811762e-08,-5.11493072516043e-09,1.36794833764103e-08,9.15591124126414e-09,2.28353946177799e-08,-4.37985062220484e-09,1.21822342823707e-08,7.8023836600763e-09,4.03623743290098e-07,-2.24684621385449e-08,-2.24684621385562e-08,2.39594125470885e-07,1.67070626102501e-08,2.56301188081133e-07,7.85451011967477e-08,3.58625122499518e-08,1.14407613446551e-07,1.80703606470534e-08,1.5701390010911e-07,1.57013900109299e-07,,-3.50051518417109e-07,,0,0,0,6.75839999999994,102,958.535294117647,537.641666666667,2028.07843137255,972.4,944.670588235294,560.282352941176,515.000980392157,2290.30392156863,1765.85294117647,0
1773.6704,5.73714656773772e-08,-3.30912754892074e-08,,-2.07594887489219e-08,6.66846290883384e-08,6.66846290883957e-08,,1.60475298803858e-08,2.61779113943418e-07,4.61205975616461e-08,-3.80837775695927e-08,4.61205975619942e-08,-8.81264969421264e-09,6.97871343575849e-08,6.0974484663648e-08,1.04940653578814e-07,-1.44257529758672e-08,9.05149006028404e-08,-7.64350051529694e-08,-2.52194741755941e-08,-7.64350051530797e-08,2.01346038278299e-08,-1.26201976829135e-07,-1.06067373001675e-07,-5.98112417371613e-08,1.7241953038976e-08,1.7241953038863e-08,-7.98685432107612e-08,7.98685432108103e-08,-7.08328761840531e-09,1.43252935568174e-08,8.92785197675509e-09,2.32531455336796e-08,-4.60636771886282e-09,1.19341113665807e-08,7.3277436476253e-09,4.35326910229487e-07,-2.20981850013025e-08,-2.20981850013163e-08,2.23721157438484e-07,1.23890489478764e-08,2.36110206386362e-07,6.80098473375128e-08,3.72655806013138e-08,1.05275427938681e-07,6.40947437854594e-08,1.5493240614352e-07,1.54932406143713e-07,,-3.66147817830638e-07,,0,0,0,6.86079999999993,103,962.496601941748,537.326213592233,2022.28155339806,974.845631067961,950.147572815534,562.993203883495,511.659223300971,2287.32038834951,1757.2427184466,0
1773.7728,6.36470152809308e-08,-3.4048693648482e-08,,-2.02835771287992e-08,6.70067430882661e-08,6.70067430883214e-08,,1.94902449555686e-08,2.77743860103505e-07,3.23550383772942e-08,-4.01766894294204e-08,3.23550383776462e-08,-2.16060970257416e-08,7.04270531489047e-08,4.88209561234393e-08,9.55434426317837e-08,-1.35165705336977e-08,8.20268720979859e-08,-8.93997048971719e-08,-2.17683706386096e-08,-8.93997048972849e-08,2.27523924730499e-08,-1.28009377003419e-07,-1.0525698453073e-07,-5.36695187642327e-08,1.68741423738165e-08,1.68741423737003e-08,-8.03429845700889e-08,8.03429845701382e-08,-8.65015767497809e-09,1.50420505452051e-08,8.92765656497867e-09,2.39697071102923e-08,-5.22657950257811e-09,1.16486468449142e-08,6.42206734224082e-09,4.67013473550615e-07,-2.16058533776773e-08,-2.16058533776943e-08,2.0568508212521e-07,8.13147471251938e-09,2.13816556837735e-07,5.65041021236364e-08,3.91168622640094e-08,9.56209643875035e-08,1.1161238811601e-07,1.51701369415362e-07,1.5170136941556e-07,,-3.8041856404692e-07,,0,0,0,6.96319999999992,102,964.168137254902,537.045098039216,1995.97549019608,974.656862745098,953.679411764706,561.291176470588,512.799019607843,2267.58823529412,1724.36274509804,0
1773.8752,6.86703159007804e-08,-3.47324401192914e-08,,-1.98526434174472e-08,6.74425895774111e-08,6.74425895774642e-08,,2.28171217173671e-08,2.94129308336821e-07,1.81225716669492e-08,-4.18182260059932e-08,1.81225716673049e-08,-3.50503006700231e-08,7.10518935980453e-08,3.60015929282984e-08,8.57438569783108e-08,-1.25798717085122e-08,7.31639852697049e-08,-1.03081752293502e-07,-1.81847956452885e-08,-1.03081752293618e-07,2.53196019988418e-08,-1.28861694791726e-07,-1.03542092793236e-07,-4.72124249548984e-08,1.65400587337433e-08,1.65400587336242e-08,-8.08115791645217e-08,8.0811579164571e-08,-9.79659943687294e-09,1.59414181095045e-08,9.12431261464331e-09,2.50657307242576e-08,-6.15947707885875e-09,1.13642228330975e-08,5.20474575414072e-09,4.98243920788193e-07,-2.12187784974496e-08,-2.12187784974693e-08,1.86264710751524e-07,4.14211082800939e-09,1.90406821579544e-07,4.45618528945387e-08,4.12752816248079e-08,8.58371345192082e-08,1.5761007381463e-07,1.47446212439654e-07,1.47446212439857e-07,,-3.91938436253997e-07,,0,0,0,7.0655999999999,102,965.880392156863,536.455882352941,1968.5931372549,974.729411764706,957.03137254902,560.148039215686,512.763725490196,2242.61764705882,1694.56862745098,0
1773.9776,7.21285596584697e-08,-3.51962193682075e-08,,-1.95078108307267e-08,6.78318546538778e-08,6.78318546539288e-08,,2.61401264938979e-08,3.10978285348576e-07,3.74051925315806e-09,-4.28354684102905e-08,3.74051925351685e-09,-4.89224611992987e-08,7.16572797363792e-08,2.27348185373568e-08,7.5858301176993e-08,-1.17243040158874e-08,6.41339971610185e-08,-1.17342046310682e-07,-1.45505217075475e-08,-1.173420463108e-07,2.72921844748754e-08,-1.28152263528731e-07,-1.008600790542e-07,-4.0514120634838e-08,1.62598590299375e-08,1.62598590298157e-08,-8.13028443370945e-08,8.13028443371439e-08,-1.05220295880343e-08,1.71255827369913e-08,9.45811911095549e-09,2.65837018480577e-08,-7.30943180935405e-09,1.11162549533127e-08,3.80682314385768e-09,5.28744667876087e-07,-2.11396618531876e-08,-2.11396618532103e-08,1.6622279625878e-07,5.934132964828e-10,1.66816209555277e-07,3.27140678750085e-08,4.36116766724745e-08,7.63257445473481e-08,1.99633322402006e-07,1.42480388296527e-07,1.42480388296736e-07,,-4.00119611661992e-07,,0,0,0,7.16799999999989,103,965.085922330097,536.25,1957.94174757282,974.327184466019,955.844660194175,557.220388349515,515.279611650485,2226.34951456311,1689.53398058252,0
1774.08,7.38771883326711e-08,-3.55472946830213e-08,,-1.93502964443306e-08,6.80020609117021e-08,6.80020609117504e-08,,2.96109918421592e-08,3.28340428495011e-07,-1.05566218821796e-08,-4.30505676586008e-08,-1.05566218818182e-08,-6.30726803187735e-08,7.2241883386598e-08,9.16920306810123e-09,6.61846835669469e-08,-1.10425746265953e-08,5.5142108940271e-08,-1.32031426284282e-07,-1.09251826342332e-08,-1.32031426284403e-07,2.81390636655429e-08,-1.25311547798577e-07,-9.71724841333705e-08,-3.36088982639194e-08,1.60464692853298e-08,1.60464692852056e-08,-8.18375660005411e-08,8.18375660005906e-08,-1.08205512127333e-08,1.86666907239851e-08,9.84081018820209e-09,2.85075009122991e-08,-8.58248372170096e-09,1.09311568362092e-08,2.34867311440415e-09,5.58474935652071e-07,-2.15270109423467e-08,-2.15270109423714e-08,1.46168900194867e-07,-2.39819468505712e-09,1.43770705509827e-07,2.1414030503848e-08,4.60186609452501e-08,6.74326914489666e-08,2.3604071126754e-07,1.37195314558575e-07,1.37195314558789e-07,,-4.04739007540508e-07,,0,0,0,7.27039999999988,102,964.735784313726,534.202450980392,1964.32843137255,975.008823529412,954.462745098039,556.201960784314,512.202941176471,2227.46078431373,1701.19607843137,0
1774.1824,7.39273577200788e-08,-3.59330637123225e-08,,-1.95248473739568e-08,6.77770933227495e-08,6.77770933227951e-08,,3.33720887602371e-08,3.46211740868292e-07,-2.46145697829034e-08,-4.23167573086898e-08,-2.46145697825398e-08,-7.73923393512101e-08,7.27988526744839e-08,-4.59348667644883e-09,5.69689798720835e-08,-1.05968736397265e-08,4.63721062322829e-08,-1.46968466835262e-07,-7.33961361407694e-09,-1.46968466835385e-07,2.75084843382133e-08,-1.19928253928758e-07,-9.2419769590874e-08,-2.64931961103066e-08,1.59037365410194e-08,1.59037365408929e-08,-8.24186679106599e-08,8.24186679107095e-08,-1.06770951721328e-08,2.05859847780231e-08,1.0163059202241e-08,3.0749043980377e-08,-9.89939635735445e-09,1.08212131011902e-08,9.21816743728075e-10,5.87600093120785e-07,-2.24905227026474e-08,-2.24905227026748e-08,1.26501426860166e-07,-4.78005924369067e-09,1.21721367616495e-07,1.09944166731949e-08,4.84104490346817e-08,5.94048657077485e-08,2.6601785373156e-07,1.31953688832437e-07,1.31953688832656e-07,,-4.05870897110246e-07,,0,0,0,7.37279999999987,103,963.213106796116,532.172815533981,1985.43203883495,974.1,952.326213592233,555.97572815534,508.369902912621,2244.21359223301,1726.65048543689,0
1774.2848,7.24210584294174e-08,-3.65219279201757e-08,,-2.0182189125626e-08,6.69928262656641e-08,6.69928262657068e-08,,3.75041698025892e-08,3.64460769205548e-07,-3.83353511914349e-08,-4.05435863962597e-08,-3.83353511910694e-08,-9.17715124130496e-08,7.33143629381747e-08,-1.84571494745966e-08,4.83881243272425e-08,-1.04104944719964e-08,3.79776298551785e-08,-1.61905621862382e-07,-3.79950051407912e-09,-1.61905621862507e-07,2.5395463630515e-08,-1.11854267461112e-07,-8.64588038309209e-08,-1.91423267949658e-08,1.58247441073224e-08,1.58247441071939e-08,-8.3024614844972e-08,8.30246148450217e-08,-1.00804636552969e-08,2.28397446360898e-08,1.03091012104985e-08,3.31488458467018e-08,-1.12030526021104e-08,1.07818049961826e-08,-4.21247606039451e-10,6.16379706961714e-07,-2.40970902200594e-08,-2.40970902200884e-08,1.07426104596395e-07,-6.55477531674915e-09,1.00871329279667e-07,1.65337994151726e-09,5.07185235957477e-08,5.237190353714e-08,2.89430928796783e-07,1.27018251316604e-07,1.27018251316826e-07,,-4.03751166061792e-07,,0,0,0,7.47519999999986,102,961.345588235294,532.64068627451,2009.33333333333,971.450980392157,951.240196078431,555.16568627451,510.11568627451,2263.48039215686,1755.1862745098,0
1774.3872,6.96059680516055e-08,-3.74808286014168e-08,,-2.14306927336728e-08,6.55185208562038e-08,6.55185208562431e-08,,4.19913881793107e-08,3.82770740594469e-07,-5.16485966514529e-08,-3.77117659858826e-08,-5.16485966510858e-08,-1.0606364162608e-07,7.3766361071316e-08,-3.22972805544843e-08,4.05505164396814e-08,-1.04675303219713e-08,3.00829861176492e-08,-1.76510176567451e-07,-2.97395449979182e-10,-1.76510176567577e-07,2.22477867245593e-08,-1.01257569506107e-07,-7.90097827818669e-08,-1.15343300164777e-08,1.57916490771961e-08,1.57916490770658e-08,-8.36084661748902e-08,8.36084661749397e-08,-9.04465790814755e-09,2.53218613000706e-08,1.01741308949677e-08,3.54959921951527e-08,-1.24613231284486e-08,1.07925557224358e-08,-1.66876740612915e-09,6.45022580269966e-07,-2.63785794372744e-08,-2.63785794373044e-08,8.90185185787963e-08,-7.76418274345052e-09,8.12543358353666e-08,-6.53554535538728e-09,5.2886266318562e-08,4.63507209630527e-08,3.06628083920756e-07,1.22522502783029e-07,1.22522502783254e-07,,-3.98649458515963e-07,,0,1,0,7.57759999999985,103,961.499029126214,533.660679611651,2029.68446601942,971.415533980583,951.582524271845,554.817475728155,512.503883495146,2282.31067961165,1777.05825242718,0
1774.4896,6.58038515719117e-08,-3.8944375334815e-08,,-2.3304628620851e-08,6.32823824362733e-08,6.32823824363091e-08,,4.67188893176495e-08,4.00630641548559e-07,-6.44844903155049e-08,-3.38750053641223e-08,-6.44844903151363e-08,-1.20066479389036e-07,7.41203489607538e-08,-4.59461304280006e-08,3.3517336175569e-08,-1.07206475281994e-08,2.27966886473155e-08,-1.90377445104924e-07,3.17545882519211e-09,-1.90377445105052e-07,1.89667315906232e-08,-8.86041579877488e-08,-6.96374263974401e-08,-3.67423747185113e-09,1.57788707345602e-08,1.57788707344285e-08,-8.41042236451277e-08,8.41042236451768e-08,-7.62777212479393e-09,2.78869203648544e-08,9.68081554330664e-09,3.7567735908276e-08,-1.36669096049935e-08,1.08234305139204e-08,-2.8434790911948e-09,6.735731577018e-07,-2.93336026649909e-08,-2.93336026650211e-08,7.12893211811756e-08,-8.47767233598788e-09,6.28116488452079e-08,-1.359608620319e-08,5.48669233957964e-08,4.12708371924871e-08,3.18269859606293e-07,1.18480520584173e-07,1.18480520584402e-07,,-3.90806347352767e-07,,0,1,0,7.68000000000006,102,960.579411764706,532.58137254902,2038.71568627451,970.4,950.758823529412,554.698039215686,510.464705882353,2293.29411764706,1784.13725490196,0
1774.592,6.13681684751226e-08,-4.09789458598304e-08,,-2.57633377619921e-08,6.02953840670887e-08,6.02953840671208e-08,,5.15078672559688e-08,4.17396947830702e-07,-7.67547167066075e-08,-2.91458186371599e-08,-7.67547167062376e-08,-1.33530711234592e-07,7.43294566558528e-08,-5.92012545784561e-08,2.73338196484985e-08,-1.11031695604148e-08,1.62306500880361e-08,-2.03079119098143e-07,6.62431894054084e-09,-2.03079119098271e-07,1.67816597997266e-08,-7.45669654588963e-08,-5.77853056594803e-08,4.38608909551383e-09,1.57595931769371e-08,1.5759593176804e-08,-8.44423356221246e-08,8.44423356221732e-08,-5.93628412118623e-09,3.03863313642893e-08,8.79267388539861e-09,3.91790052498035e-08,-1.48349637746464e-08,1.08444105757239e-08,-3.99055319905001e-09,7.01876094955367e-07,-3.29205304454e-08,-3.29205304454306e-08,5.42205401116452e-08,-8.78741121169086e-09,4.5433128899973e-08,-1.96153409711291e-08,5.66301290162539e-08,3.70147880450081e-08,3.25215811751467e-07,1.14829057308323e-07,1.14829057308554e-07,,-3.8043429033186e-07,,0,1,0,7.78240000000005,102,959.881862745098,531.970098039216,2041.38235294118,970.951960784314,948.811764705882,556.63137254902,507.308823529412,2299.45098039216,1783.3137254902,0
1774.6944,5.66418495586725e-08,-4.35584880972445e-08,,-2.87119048163968e-08,5.66599240377526e-08,5.66599240377806e-08,,5.61724202805025e-08,4.32405530647104e-07,-8.83503169133866e-08,-2.36716656120201e-08,-8.83503169130153e-08,-1.46199563108092e-07,7.43449163005493e-08,-7.18546468072586e-08,2.20524256616357e-08,-1.15406402503009e-08,1.05117854112941e-08,-2.14230739708076e-07,1.00524344749148e-08,-2.14230739708206e-07,1.70384574154669e-08,-5.98820292791901e-08,-4.28435718640302e-08,1.25393238488736e-08,1.57132912451341e-08,1.57132912449999e-08,-8.45699496078404e-08,8.45699496078885e-08,-4.10827528899276e-09,3.27029932121e-08,7.52025487350283e-09,4.02232480857191e-08,-1.59992180033141e-08,1.08345641961231e-08,-5.16465380732442e-09,7.29631921748891e-07,-3.70475142613417e-08,-3.70475142613729e-08,3.77666046548776e-08,-8.80448047154583e-09,2.89621241833485e-08,-2.47142098883156e-08,5.81752951899161e-08,3.34610853014865e-08,3.28443194349086e-07,1.1147962036961e-07,1.11479620369843e-07,,-3.67759382110386e-07,,0,0,0,7.88480000000004,103,961.491262135922,533.955339805825,2039.47087378641,972.73786407767,950.244660194175,554.739805825243,513.170873786408,2299.55339805825,1779.38834951456,0
1774.7968,5.19264660359908e-08,-4.6567207709182e-08,,-3.20282089731854e-08,5.25527092027873e-08,5.2552709202811e-08,,6.05698976068919e-08,4.45083949387496e-07,-9.91585079494336e-08,-1.76145164766378e-08,-9.91585079490614e-08,-1.5786097719255e-07,7.41310265773947e-08,-8.37299506148696e-08,1.77357644011814e-08,-1.19592663795299e-08,5.77649802161745e-09,-2.23552189953831e-07,1.3464223819491e-08,-2.2355218995396e-07,2.0975192056152e-08,-4.51966691305698e-08,-2.42214770747222e-08,2.06318962769779e-08,1.56315957014901e-08,1.56315957013551e-08,-8.44647588118581e-08,8.44647588119058e-08,-2.28204566292802e-09,3.47708850827618e-08,5.91614854005892e-09,4.06870336229375e-08,-1.72071944476548e-08,1.07864613212716e-08,-6.4207331265231e-09,7.56510502996945e-07,-4.15714051369117e-08,-4.15714051369431e-08,2.1835617956382e-08,-8.65000780193551e-09,1.31856101544609e-08,-2.90286460663659e-08,5.95422547886717e-08,3.05136087221942e-08,3.28973510011844e-07,1.08349946573905e-07,1.08349946574139e-07,,-3.53081110217956e-07,,0,0,0,7.98720000000003,102,963.801960784314,533.494607843137,2032.19117647059,974.448039215686,953.155882352941,554.338235294118,512.650980392157,2292.47058823529,1771.91176470588,0
1774.8992,4.74598304220069e-08,-4.98286202292204e-08,,-3.55888609410823e-08,4.81849923453925e-08,4.8184992345412e-08,,6.4623669690864e-08,4.55023502665856e-07,-1.09087235073918e-07,-1.11393794325601e-08,-1.09087235073545e-07,-1.68384091464635e-07,7.36747549153191e-08,-9.47093365490281e-08,1.44397715834871e-08,-1.22917026266949e-08,2.14806895676454e-09,-2.30900322963025e-07,1.68679213578897e-08,-2.30900322963155e-07,2.95429382888121e-08,-3.09630341731471e-08,-1.42009588463697e-09,2.84904037280797e-08,1.55207906748074e-08,1.55207906746715e-08,-8.41352125989623e-08,8.41352125990097e-08,-5.64759942880494e-10,3.65740361677305e-08,4.06021449211098e-09,4.06342506599589e-08,-1.85141237414999e-08,1.07049902683547e-08,-7.80913347329156e-09,7.82257912057359e-07,-4.63128668930847e-08,-4.63128668931171e-08,6.27365931617811e-09,-8.44116368378928e-09,-2.16750436759882e-09,-3.27015846852176e-08,6.08100977318836e-08,2.8108513046557e-08,3.27801446534989e-07,1.05360702020652e-07,1.05360702020887e-07,,-3.36820086587378e-07,,0,0,0,8.08960000000002,103,960.988834951456,535.044660194175,2022.21844660194,971.439805825243,950.53786407767,558.949514563107,511.139805825243,2285.02912621359,1759.40776699029,0
1775.0016,4.33985563794745e-08,-5.31452953620568e-08,,-3.92893041546292e-08,4.37568736426464e-08,4.37568736426614e-08,,6.83123606030875e-08,4.61989583135192e-07,-1.18079220719493e-07,-4.40701812886556e-09,-1.18079220719118e-07,-1.77722071399584e-07,7.29868293887598e-08,-1.04735242010535e-07,1.21917870148528e-08,-1.24820585878196e-08,-2.90271572988138e-10,-2.36263065163587e-07,2.02781710642584e-08,-2.36263065163717e-07,4.33287384622327e-08,-1.74133356170034e-08,2.59154028449291e-08,3.59539147067878e-08,1.54002998241509e-08,1.54002998240142e-08,-8.36101425924978e-08,8.36101425925451e-08,9.85735467862987e-10,3.81303018842232e-08,2.04108991426212e-09,4.01713917986032e-08,-1.99749625886595e-08,1.0602169257186e-08,-9.37279333162622e-09,8.06744239938879e-07,-5.10829467333299e-08,-5.10829467333628e-08,-9.12917123089327e-09,-8.2779590045096e-09,-1.74071302353927e-08,-3.58784076092747e-08,6.20819371612658e-08,2.62035295518845e-08,3.2581742619328e-07,1.02408149021816e-07,1.02408149022053e-07,,-3.19529768674012e-07,,0,0,0,8.19200000000001,102,961.749509803922,538.395588235294,1990.35294117647,971.93137254902,951.567647058824,560.013725490196,516.777450980392,2255.79411764706,1724.91176470588,0
1775.104,3.98122339927503e-08,-5.6330531098715e-08,,-4.30518284236849e-08,3.94253248347577e-08,3.94253248347682e-08,,7.16313735974504e-08,4.65865055493816e-07,-1.26104954351098e-07,2.43326293425126e-09,-1.26104954350723e-07,-1.85880711513778e-07,7.20956950103461e-08,-1.13785016503141e-07,1.09817854942622e-08,-1.24907197405823e-08,-1.5089342463352e-09,-2.397162300026e-07,2.37179466770547e-08,-2.3971623000273e-07,6.26179342292434e-08,-4.61621574000092e-09,5.80017184889444e-08,4.2896881409928e-08,1.52976082180021e-08,1.52976082178644e-08,-8.29244929164141e-08,8.29244929164613e-08,2.35950962687274e-09,3.94710421235172e-08,-6.01623314299887e-11,3.94108797922057e-08,-2.16353014410293e-08,1.04899846234741e-08,-1.11453168177143e-08,8.29938597253357e-07,-5.57092898879253e-08,-5.57092898879581e-08,-2.46050553871243e-08,-8.23723626521014e-09,-3.28422916523264e-08,-3.86985430429411e-08,6.34598257607673e-08,2.4761282717722e-08,3.2372246135704e-07,9.93344031745687e-08,9.93344031748084e-08,,-3.01867359564123e-07,,0,0,0,8.2944,102,961.903431372549,542.834803921569,1957.28431372549,973.235294117647,950.571568627451,564.292156862745,521.377450980392,2222.1568627451,1692.41176470588,0
1775.2064,3.66918274483021e-08,-5.92224371931828e-08,,-4.68201675737207e-08,3.52945191587961e-08,3.5294519158802e-08,,7.45445060230619e-08,4.66554468088552e-07,-1.33139293287842e-07,9.25015699078981e-09,-1.33139293287465e-07,-1.92868404637881e-07,7.1037450217145e-08,-1.21830954420444e-07,1.07723753650582e-08,-1.22979280202732e-08,-1.52555265522395e-09,-2.4136153919196e-07,2.72171304103968e-08,-2.4136153919209e-07,8.7542084607066e-08,7.4215587601069e-09,9.49636433668769e-08,4.923470848225e-08,1.52412040381919e-08,1.52412040380532e-08,-8.21053679443298e-08,8.2105367944377e-08,3.57562066093436e-09,4.06255782359744e-08,-2.18062300321497e-09,3.84449552328786e-08,-2.35229052313e-08,1.03735520936703e-08,-1.31493531377952e-08,8.51829533734134e-07,-6.00544416295731e-08,-6.00544416296069e-08,-4.03542784873324e-08,-8.37367821179098e-09,-4.87279566991175e-08,-4.1281332114052e-08,6.50180678603709e-08,2.37367357462171e-08,3.21961146510593e-07,9.59159046813128e-08,9.59159046815551e-08,,-2.8453973140247e-07,,0,0,0,8.39679999999999,103,960.941747572816,541.041747572816,1943.54854368932,972.844660194175,949.038834951456,562.37572815534,519.707766990291,2206.8640776699,1680.23300970874,0
1775.3088,3.3962742794251e-08,-6.16827767758472e-08,,-5.05491726227677e-08,3.14230900408956e-08,3.14230900408968e-08,,7.69535193348634e-08,4.63911663698789e-07,-1.39136071598807e-07,1.59366986972916e-08,-1.39136071598427e-07,-1.98655023285981e-07,6.98479022658208e-08,-1.28807121019866e-07,1.15173341127575e-08,-1.19053861089536e-08,-3.88051996198933e-10,-2.41279885125731e-07,3.08063371800319e-08,-2.41279885125861e-07,1.18181934647112e-07,1.86616709812214e-08,1.36843605628039e-07,5.49158525122814e-08,1.52531360557095e-08,1.52531360555697e-08,-8.11627386737507e-08,8.11627386737979e-08,4.65567373259195e-09,4.16158493109792e-08,-4.27925431505898e-09,3.733659499604e-08,-2.56407046828362e-08,1.02470303551133e-08,-1.53936743278948e-08,8.72327253705911e-07,-6.40269249962194e-08,-6.40269249962531e-08,-5.64836345538536e-08,-8.72244805978281e-09,-6.5206082613632e-08,-4.37072941157247e-08,6.67843655578371e-08,2.30770714420128e-08,3.20696818070054e-07,9.18866762896217e-08,9.18866762898665e-08,,-2.68253269958464e-07,,0,0,0,8.49919999999997,102,959.29362745098,542.959803921569,1943.84803921569,971.73431372549,946.852941176471,562.335294117647,523.58431372549,2207.98039215686,1679.71568627451,0
1775.4112,3.14935498820201e-08,-6.35918126127431e-08,,-5.42007425240848e-08,2.78373875880647e-08,2.78373875880614e-08,,7.87078279542082e-08,4.57744415899983e-07,-1.44017777328855e-07,2.24186256660745e-08,-1.44017777328473e-07,-2.03167602638226e-07,6.85624045356312e-08,-1.34605198102299e-07,1.31724715203311e-08,-1.13360607789464e-08,1.83641074138763e-09,-2.39531474930776e-07,3.45078984443178e-08,-2.39531474930907e-07,1.54516722639727e-07,2.90022014902658e-08,1.835189241297e-07,5.9911890313967e-08,1.53418645079032e-08,1.53418645077621e-08,-8.009002733776e-08,8.00900273378074e-08,5.60569468836593e-09,4.24642201394435e-08,-6.33589424560879e-09,3.61283258939552e-08,-2.79616081915043e-08,1.00930421731256e-08,-1.78685660185569e-08,8.91198122779347e-07,-6.75872275580041e-08,-6.75872275580371e-08,-7.29581774943411e-08,-9.29902639541903e-09,-8.22572038897572e-08,-4.59990910216864e-08,6.87356213217175e-08,2.27365302999337e-08,3.19825070837494e-07,8.69979713506749e-08,8.69979713509232e-08,,-2.53680073063365e-07,,0,0,0,8.60159999999996,102,968.09362745098,541.444117647059,1954.9362745098,980.458823529412,955.728431372549,564.356862745098,518.53137254902,2219.25490196078,1690.61764705882,0
1775.5136,2.91016692315626e-08,-6.48533958745756e-08,,-5.77503224050082e-08,2.45410338600445e-08,2.45410338600368e-08,,7.96532835057356e-08,4.47899844227569e-07,-1.47692744775216e-07,2.86622883881227e-08,-1.47692744774833e-07,-2.06330407181158e-07,6.72226999495099e-08,-1.3910770723135e-07,1.56880734479014e-08,-1.06317695830039e-08,5.05630386490621e-09,-2.36205149935745e-07,3.83272440002739e-08,-2.36205149935876e-07,1.96211324892847e-07,3.83295920668591e-08,2.34540916959416e-07,6.42158097618251e-08,1.54968130436859e-08,1.54968130435434e-08,-7.88748286486799e-08,7.88748286487275e-08,6.42040773397505e-09,4.32102515335182e-08,-8.34842487872247e-09,3.4861826654917e-08,-3.04273652169233e-08,9.88476904578532e-09,-2.05425961713221e-08,9.08076963987009e-07,-7.07464481839113e-08,-7.07464481839435e-08,-8.95945634857818e-08,-1.00943300702281e-08,-9.96888935560077e-08,-4.81142521764158e-08,7.0808960956071e-08,2.26947087795601e-08,3.19023089559695e-07,8.10917638548109e-08,8.10917638550626e-08,,-2.41426013635117e-07,,0,0,0,8.70399999999995,103,967.212621359223,544.585436893204,1973.53398058252,978.501941747573,955.923300970874,565.003883495146,524.166990291262,2240.3786407767,1706.68932038835,0
1775.616,2.65604099772561e-08,-6.54152409740969e-08,,-6.12005491966033e-08,2.15160209305773e-08,2.15160209305653e-08,,7.96966460785712e-08,4.34392431113649e-07,-1.50096026895097e-07,3.46747743833484e-08,-1.50096026894713e-07,-2.08125191303744e-07,6.58840985348525e-08,-1.42241092768592e-07,1.89825997375527e-08,-9.84715368150325e-09,9.13544605606368e-09,-2.31482704106506e-07,4.22470563681305e-08,-2.31482704106638e-07,2.42343548154906e-07,4.66202605935607e-08,2.88963808748178e-07,6.78487997212888e-08,1.56877630063189e-08,1.56877630061751e-08,-7.75133852038153e-08,7.75133852038636e-08,7.10876313568197e-09,4.39229903849269e-08,-1.03281496174188e-08,3.35948407676302e-08,-3.29543222265484e-08,9.59072312234416e-09,-2.3363599104394e-08,9.2255270622141e-07,-7.35543878235345e-08,-7.3554387823566e-08,-1.06106197246301e-07,-1.1064481244656e-08,-1.17170678490955e-07,-4.99626929070204e-08,7.2922313527106e-08,2.29596206199928e-08,3.1784201128997e-07,7.41577002365976e-08,7.41577002368531e-08,,-2.31980609105199e-07,,0,0,0,8.80639999999994,102,966.075490196078,540.413235294118,1991.82352941176,975.559803921569,956.591176470588,561.982352941177,518.844117647059,2259.40196078431,1724.24509803922,0
1775.7184,2.36076937635597e-08,-6.52936656249975e-08,,-6.45924157087535e-08,1.87178224060996e-08,1.87178224060836e-08,,7.88563082625727e-08,4.17523458674831e-07,-1.51232450975304e-07,4.04928728333569e-08,-1.51232450974919e-07,-2.08635400870813e-07,6.46181196744706e-08,-1.44017281196041e-07,2.29067527270699e-08,-9.04024626348827e-09,1.38665064636011e-08,-2.25675365490132e-07,4.62254999023141e-08,-2.25675365490265e-07,2.91224701502692e-07,5.40232804059304e-08,3.45247981908334e-07,7.08658005701013e-08,1.58704556237906e-08,1.58704556236456e-08,-7.60221176916075e-08,7.60221176916568e-08,7.72229443572251e-09,4.46963846313632e-08,-1.22914066213691e-08,3.24049780101172e-08,-3.54450336309365e-08,9.18239814898861e-09,-2.62626354821426e-08,9.342656140221e-07,-7.60794163276922e-08,-7.60794163277224e-08,-1.22172173464453e-07,-1.21172267037663e-08,-1.34289400168218e-07,-5.1447031977462e-08,7.49969714620101e-08,2.35499394844576e-08,3.15814399489402e-07,6.63572014758271e-08,6.63572014760874e-08,,-2.2563753788051e-07,,1,0,0,8.90879999999993,103,965.865533980583,543.608737864078,2005.72815533981,976.86213592233,954.868932038835,563.279611650486,523.93786407767,2275.30097087379,1736.15533980583,0
1775.8208,1.99618456164669e-08,-6.45865381169131e-08,,-6.80002506312881e-08,1.60712589409383e-08,1.60712589409186e-08,,7.7278180550665e-08,3.97938109020937e-07,-1.51198716604112e-07,4.61654586694465e-08,-1.51198716603726e-07,-2.08055113247502e-07,6.35107168135804e-08,-1.4454439643362e-07,2.72156603424527e-08,-8.26297911021774e-09,1.89526812322594e-08,-2.19210952151627e-07,5.01989845126277e-08,-2.1921095215176e-07,3.40442566333473e-07,6.08740684951391e-08,4.01316634828325e-07,7.3351035305462e-08,1.59949922278877e-08,1.59949922277418e-08,-7.44424912802143e-08,7.44424912802644e-08,8.36693520638046e-09,4.56290033919398e-08,-1.42485617610046e-08,3.13804416310587e-08,-3.78007943509614e-08,8.64196080127439e-09,-2.91588335498859e-08,9.42960742057909e-07,-7.8388541351378e-08,-7.83885413514075e-08,-1.37489156211837e-07,-1.31031111496236e-08,-1.50592267361459e-07,-5.2505897227965e-08,7.69751451625344e-08,2.44692479344812e-08,3.12521305389513e-07,5.8009411366502e-08,5.80094113667684e-08,,-2.22401605032464e-07,,1,0,0,9.01119999999992,102,966.429411764706,542.211274509804,2008.85784313726,978.129411764706,954.729411764706,561.73431372549,522.688235294118,2278.99019607843,1738.72549019608,0
1775.9232,1.53577951734055e-08,-6.3466524014582e-08,,-7.15044627318906e-08,1.34723091256229e-08,1.34723091255997e-08,,7.52106197263946e-08,3.7657753373897e-07,-1.50174853282157e-07,5.17353479277905e-08,-1.50174853281771e-07,-2.06662803827739e-07,6.26545969386859e-08,-1.44008206888751e-07,3.15688924522896e-08,-7.55482959697789e-09,2.40140628553407e-08,-2.12574858891468e-07,5.40885204485478e-08,-2.12574858891601e-07,3.87173837826888e-07,6.76307145592626e-08,4.54804552385864e-07,7.54041840432387e-08,1.60124541743525e-08,1.60124541742059e-08,-7.28358412001885e-08,7.28358412002396e-08,9.19137548149606e-09,4.68006628651077e-08,-1.61956142098557e-08,3.06050486553758e-08,-3.99309851794527e-08,7.96539483100764e-09,-3.19655903486472e-08,9.48493694186374e-07,-8.05356940083411e-08,-8.05356940083689e-08,-1.51789506371369e-07,-1.38221462981399e-08,-1.65611652669507e-07,-5.3139076419052e-08,7.88255773261286e-08,2.56865009069908e-08,3.07608971431118e-07,4.9537232038615e-08,4.95372320388876e-08,,-2.21929051944779e-07,,1,0,0,9.11359999999991,102,968.223529411765,542.687254901961,2002.85784313725,979.652941176471,956.794117647059,560.572549019608,524.801960784314,2274.96078431373,1730.75490196078,0
1776.0256,9.60436946643314e-09,-6.21564878705016e-08,,-7.51546177947754e-08,1.07991432275981e-08,1.07991432275711e-08,,7.29492194461026e-08,3.54529980817761e-07,-1.48389520689921e-07,5.72234120979817e-08,-1.48389520689536e-07,-2.04767138043692e-07,6.21319597262126e-08,-1.42635178317177e-07,3.556476268615e-08,-6.93946005477254e-09,2.86253026314108e-08,-2.06223190790307e-07,5.7807502530523e-08,-2.0622319079044e-07,4.2868357874605e-07,7.47561329566225e-08,5.03439711702386e-07,7.71225743791074e-08,1.58791205483437e-08,1.58791205481969e-08,-7.12670411698413e-08,7.12670411698931e-08,1.03551934420136e-08,4.82562858708492e-08,-1.81118600510584e-08,3.01444258199145e-08,-4.17579720497531e-08,7.15996572446193e-09,-3.45980063254958e-08,9.50803594403392e-07,-8.25598353013968e-08,-8.25598353014219e-08,-1.64833335096391e-07,-1.4048414540882e-08,-1.7888174963727e-07,-5.34082679775256e-08,8.05340284722716e-08,2.71257604946627e-08,3.00807373409762e-07,4.13873757665826e-08,4.13873757668622e-08,,-2.23534234208475e-07,,0,0,0,9.21599999999989,103,969.562621359223,542.035922330097,1983.0145631068,979.345631067961,959.779611650485,563.111650485437,520.960194174757,2257.14563106796,1708.88349514563,0
1776.128,2.63967961541644e-09,-6.08914012594869e-08,,-7.89446116548002e-08,7.93645328055477e-09,7.93645328052418e-09,,7.07745016277842e-08,3.32843319204231e-07,-1.46071637131684e-07,6.26182589723389e-08,-1.460716371313e-07,-2.02641240486564e-07,6.1992590462403e-08,-1.4064865002386e-07,3.87962023780084e-08,-6.4229377063399e-09,3.23732646717057e-08,-2.0049647612731e-07,6.12695085149095e-08,-2.00496476127443e-07,4.62820789031427e-07,8.25870160907256e-08,5.45407805121868e-07,7.85816052809384e-08,1.5560113582675e-08,1.55601135825282e-08,-6.97838975726456e-08,6.97838975726983e-08,1.19851136457133e-08,4.99990504659337e-08,-1.99618472945815e-08,3.00372031714755e-08,-4.32177017326988e-08,6.23914949784609e-09,-3.69785522350588e-08,9.49855440235208e-07,-8.44902127245433e-08,-8.44902127245662e-08,-1.76387163641912e-07,-1.35644175934063e-08,-1.89951581235314e-07,-5.34210678087816e-08,8.20852262376245e-08,2.86641584287623e-08,2.91998283461947e-07,3.3959331729672e-08,3.39593317299592e-08,,-2.26254593861756e-07,,0,0,0,9.31839999999988,102,964.799019607843,547.166176470588,1957.74509803922,973.501960784314,956.096078431373,563.348039215686,530.98431372549,2231.98039215686,1683.50980392157,0
1776.2304,-5.44261962673349e-09,-5.9872746511445e-08,,-8.28104597081818e-08,4.812154999883e-09,4.81215499984909e-09,,6.89058840881997e-08,3.1237533640183e-07,-1.43405465699912e-07,6.78774540703424e-08,-1.43405465699531e-07,-2.00474498733123e-07,6.22406484255289e-08,-1.38233850307294e-07,4.09078749910473e-08,-5.99426869217099e-09,3.49136062989169e-08,-1.9556734652404e-07,6.43958948411829e-08,-1.95567346524171e-07,4.88320536558888e-07,9.12380940439925e-08,5.79558630602595e-07,7.98150540674456e-08,1.50319889146433e-08,1.50319889144971e-08,-6.84041629330588e-08,6.8404162933112e-08,1.41341970243889e-08,5.19934949316496e-08,-2.16989548861058e-08,3.02945400456664e-08,-4.42571134945259e-08,5.21816209446209e-09,-3.90389514002703e-08,9.45567555373593e-07,-8.63558648918593e-08,-8.63558648918799e-08,-1.86202627622887e-07,-1.21954717526312e-08,-1.98398099375512e-07,-5.33075039894427e-08,8.3449651852738e-08,3.01421478632173e-08,2.81315222710866e-07,2.7573967999673e-08,2.75739679999685e-08,,-2.28960791280465e-07,,0,0,0,9.42079999999987,103,960.546601941748,543.958737864078,1940.51941747573,969.767961165049,951.325242718447,559.535922330097,528.381553398058,2209.19417475728,1671.84466019417,0
1776.3328,-1.44052172596675e-08,-5.92270155781694e-08,,-8.66454694824752e-08,1.43254041431996e-09,1.43254041428299e-09,,6.74830520992548e-08,2.9371792307005e-07,-1.40504890037506e-07,7.29424048208224e-08,-1.40504890037127e-07,-1.98362985539659e-07,6.28359864723896e-08,-1.35526999066972e-07,4.16418789395223e-08,-5.62985374081762e-09,3.60120251987477e-08,-1.91442703872599e-07,6.71224254418399e-08,-1.9144270387273e-07,5.04842893945506e-07,1.00577835761961e-07,6.0542072970718e-07,8.08013022200709e-08,1.42824326854812e-08,1.4282432685336e-08,-6.71168247865316e-08,6.71168247865852e-08,1.67619613548611e-08,5.41809160323684e-08,-2.32706241101316e-08,3.0910291922358e-08,-4.48313861832345e-08,4.11124254722926e-09,-4.07201436362111e-08,9.37773872695917e-07,-8.81928481500446e-08,-8.81928481500639e-08,-1.94012227195303e-07,-9.83809501062378e-09,-2.03850322205919e-07,-5.31930795966679e-08,8.4583931776531e-08,3.13908521797876e-08,2.69202271408358e-07,2.24805774273545e-08,2.24805774276588e-08,,-2.30519903032412e-07,,0,0,0,9.52319999999986,102,960.194117647059,546.635294117647,1930.54901960784,969.832352941176,950.555882352941,562.511764705882,530.758823529412,2194.56862745098,1666.52941176471,0
1776.4352,-2.39070928622398e-08,-5.89826158966251e-08,,-9.03243716286232e-08,-2.10449280211111e-09,-2.10449280215094e-09,,6.65703310954623e-08,2.7718644192554e-07,-1.37410771750823e-07,7.77598635274296e-08,-1.37410771750447e-07,-1.96329565086018e-07,6.37040283045601e-08,-1.32625536781164e-07,4.08701524035842e-08,-5.30057915918377e-09,3.55695732444454e-08,-1.88008413875177e-07,6.9403398481742e-08,-1.88008413875306e-07,5.12825878716663e-07,1.1027528260512e-07,6.23101161321496e-07,8.14617426234432e-08,1.3308436636672e-08,1.33084366365281e-08,-6.58949714814228e-08,6.58949714814768e-08,1.97443556248802e-08,5.65029200928723e-08,-2.46251542851814e-08,3.18777658078104e-08,-4.49046976949119e-08,2.93144220521158e-09,-4.19732554899047e-08,9.26264085851049e-07,-9.00397811426207e-08,-9.00397811426369e-08,-1.99551963295273e-07,-6.47665184158522e-09,-2.06028615136848e-07,-5.31703448191072e-08,8.54425916420913e-08,3.22722468229114e-08,2.56375297768978e-07,1.88752079181127e-08,1.88752079184266e-08,,-2.30002075864185e-07,,0,0,0,9.62559999999985,103,960.058737864078,546.905339805825,1923.4854368932,969.173786407767,950.943689320388,561.531067961165,532.279611650485,2183.63106796117,1663.33980582524,0
1776.5376,-3.35583961642188e-08,-5.90730647897023e-08,,-9.37308854329802e-08,-5.62838852234319e-09,-5.62838852238558e-09,,6.61725342507158e-08,2.62852102799666e-07,-1.34103472892657e-07,8.22992283557661e-08,-1.34103472892285e-07,-1.94347555360668e-07,6.47481136641763e-08,-1.29599441696201e-07,3.86116234029698e-08,-4.97787656652366e-09,3.36337468364921e-08,-1.85083095010037e-07,7.12135255265833e-08,-1.85083095010164e-07,5.13276392054886e-07,1.19887935871473e-07,6.33164327926071e-07,8.16723698473417e-08,1.21162992695978e-08,1.21162992694557e-08,-6.4712333947156e-08,6.47123339472101e-08,2.29071839501382e-08,5.89203716611315e-08,-2.57180742924448e-08,3.32022973688042e-08,-4.44552743984113e-08,1.69287658611613e-09,-4.27623978124966e-08,9.10889474868267e-07,-9.1921837115118e-08,-9.19218371151328e-08,-2.02603246330579e-07,-2.18300101813707e-09,-2.04786247348703e-07,-5.32749273504227e-08,8.59924905821583e-08,3.27175632316656e-08,2.43693990284389e-07,1.69061996593768e-08,1.69061996597009e-08,,-2.26860953139705e-07,,0,0,0,9.72800000000007,102,957.973529411765,545.178921568627,1927.17647058824,967.023529411765,948.923529411765,559.439215686275,530.91862745098,2184.36274509804,1669.99019607843,0
1776.64,-4.29829048248114e-08,-5.93612780955921e-08,,-9.6780725973811e-08,-8.93784464542222e-09,-8.93784464546686e-09,,6.62504581658333e-08,2.50590209139774e-07,-1.30521526059412e-07,8.65591529057523e-08,-1.30521526059045e-07,-1.92352567702244e-07,6.58618675952667e-08,-1.26490700106692e-07,3.50276733665948e-08,-4.63685606007004e-09,3.03908173065707e-08,-1.8245674738577e-07,7.25510637911983e-08,-1.82456747385894e-07,5.07569086848808e-07,1.28960879959449e-07,6.36529966807966e-07,8.12849022179005e-08,1.07237008229585e-08,1.07237008228187e-08,-6.35549864423073e-08,6.35549864423615e-08,2.60673114672753e-08,6.1417626865949e-08,-2.65171673756597e-08,3.49004594904041e-08,-4.3481965340342e-08,4.12939538310705e-10,-4.30690258022288e-08,8.91680210401924e-07,-9.38346979237478e-08,-9.38346979237617e-08,-2.03038967914357e-07,2.89787333248717e-09,-2.00141094581853e-07,-5.34742699775609e-08,8.62228064668251e-08,3.2748536489197e-08,2.31989207207617e-07,1.66602775136938e-08,1.66602775140282e-08,,-2.20994772302785e-07,,0,0,0,9.83040000000005,102,957.330882352941,537.998529411765,1941.37254901961,964.242156862745,950.419607843137,554.575490196079,521.421568627451,2196.60784313726,1686.13725490196,0
1776.7424,-5.18763448814535e-08,-5.96700513068201e-08,,-9.94310079381125e-08,-1.18435989410652e-08,-1.18435989411115e-08,,6.67246916719787e-08,2.40108295575002e-07,-1.26580125098392e-07,9.05617749657407e-08,-1.26580125098028e-07,-1.90241906416188e-07,6.69377388641805e-08,-1.23304167551728e-07,3.03965129944236e-08,-4.25755700204495e-09,2.61389559924237e-08,-1.79906984546258e-07,7.34446795558266e-08,-1.79906984546379e-07,4.97286728603126e-07,1.37112068384877e-07,6.34398796987711e-07,8.01512196939244e-08,9.16110024095532e-09,9.16110024081768e-09,-6.24217349228759e-08,6.24217349229303e-08,2.90649685742112e-08,6.39920802644068e-08,-2.70070563879967e-08,3.69850238765221e-08,-4.20091245460123e-08,-8.88490109274041e-10,-4.28976146554793e-08,8.68924549994644e-07,-9.5737042077998e-08,-9.57370420780097e-08,-2.00862112344606e-07,8.56440073280298e-09,-1.92297711611783e-07,-5.36714873036919e-08,8.61478315936009e-08,3.24763442898445e-08,2.21889328982515e-07,1.81342473861392e-08,1.81342473864841e-08,,-2.12657393986848e-07,,0,0,0,9.93280000000004,103,954.754368932039,538.541262135922,1963.35436893204,960.71067961165,948.798058252427,553.753398058252,523.329126213592,2221.44660194175,1705.26213592233,0
1776.8448,-6.00411980814996e-08,-5.98053456102186e-08,,-1.01676445625285e-07,-1.41942112756309e-08,-1.41942112756784e-08,,6.74647354618501e-08,2.30939311771266e-07,-1.22182316688852e-07,9.43362479907376e-08,-1.22182316688492e-07,-1.87864415479578e-07,6.78683593583259e-08,-1.19996056120978e-07,2.50776581399225e-08,-3.82574003332956e-09,2.12519181066364e-08,-1.77195139385537e-07,7.39604724352313e-08,-1.77195139385655e-07,4.84130410582542e-07,1.44076525101232e-07,6.28206935683481e-07,7.81440547621758e-08,7.47045521493867e-09,7.47045521480318e-09,-6.13122315692814e-08,6.13122315693361e-08,3.1775104572319e-08,6.66356811225883e-08,-2.71933287753265e-08,3.94423523473709e-08,-4.00872577586012e-08,-2.19290051698782e-09,-4.22801582757768e-08,8.43180301919221e-07,-9.7553059364241e-08,-9.75530593642517e-08,-1.96222193399913e-07,1.45688268089702e-08,-1.81653366590918e-07,-5.37176386338102e-08,8.58025580109321e-08,3.20849193770603e-08,2.13685811574711e-07,2.12052626385144e-08,2.12052626388698e-08,,-2.02285220535903e-07,,0,0,0,10.0352,102,954.035294117647,538.566176470588,1987.22549019608,959.1,948.970588235294,554.492156862745,522.640196078431,2248.01960784314,1726.43137254902,0
