time,S1-D1,S1-D8,S1-D9,S1-D15,S2-D1,S2-D2,S2-D3,S2-D9,S3-D1,S3-D2,S3-D16,S4-D2,S4-D3,S4-D5,S5-D3,S5-D4,S5-D5,S6-D2,S6-D5,S6-D17,S7-D6,S7-D7,S8-D6,S8-D7,S8-D18,S9-D3,S9-D4,S9-D9,S9-D11,S9-D19,S10-D8,S10-D9,S10-D10,S10-D11,S11-D8,S11-D10,S11-D20,S12-D10,S12-D11,S12-D12,S13-D4,S13-D11,S13-D12,S14-D10,S14-D12,S14-D21,S15-D13,S15-D14,S16-D13,S16-D14,S16-D22,SART_Target,SART_NonTarget,SART_Probe,t_rel_s,eye_n,xp,yp,ps,xpl_i,xpr_i,ypl_i,ypr_i,psl_i,psr_i,blink_prop
1868.0832,-1.92327529273101e-07,1.61891392209094e-07,-3.0436137064164e-08,2.01362389654329e-07,-2.56119005530492e-08,-2.56119005533136e-08,1.1839326949969e-07,,1.00038672610699e-07,-2.33566895436796e-07,5.72533192592264e-09,-2.33566895436734e-07,-2.69057690396489e-07,-2.42854185986025e-09,-2.71486232256401e-07,7.98671294946158e-08,,1.90912570084009e-08,,-6.00549592590579e-08,-7.3415823581648e-08,2.42182702042026e-07,4.37347793335124e-08,2.85917481375897e-07,4.74745812902651e-08,-9.25297583478992e-09,-9.25297583474192e-09,-1.84159579549286e-07,1.84159579549162e-07,9.19563007440658e-08,8.65469082336391e-08,-5.71693984840206e-08,,2.52771077673063e-09,-2.73065852399405e-08,-2.4778874463229e-08,1.17769497339097e-07,1.66086350824121e-07,1.6608635082417e-07,-1.29466127669962e-07,-2.3440942345919e-08,-1.52907070015866e-07,-3.41129190818473e-08,-1.09774059352988e-07,-1.43886978434945e-07,7.68741407739114e-08,-6.91115348243492e-08,-6.91115348244655e-08,,-2.60834723973515e-09,1.0109199221683e-07,0,1,0,0,103,956.769902912621,522.558737864078,1722.40776699029,956.379611650486,957.160194174757,520.818446601942,524.299029126214,1902.3786407767,1542.43689320388,0
1868.1856,-1.93160150881346e-07,1.58246973210052e-07,-3.49131776714507e-08,2.26507425856231e-07,-3.36114729985071e-08,-3.36114729987732e-08,1.00963477469101e-07,,6.46646979683304e-08,-2.35351467873952e-07,6.32320106827986e-09,-2.35351467873889e-07,-2.74178321771874e-07,-2.62084563820116e-10,-2.7444040633575e-07,7.6431006414917e-08,,1.41600616632076e-08,,-6.14351417489881e-08,-7.69508650909762e-08,2.39348218266047e-07,4.34807609291646e-08,2.82828979195566e-07,4.69707562212005e-08,-7.722082160389e-09,-7.72208216034249e-09,-2.01990127180257e-07,2.01990127180134e-07,1.03121702043185e-07,8.77448680084701e-08,-5.74489062384835e-08,,3.26948442200436e-09,-2.84852914382319e-08,-2.52158070162461e-08,1.24626172108698e-07,1.6057092571167e-07,1.60570925711722e-07,-1.26700528691591e-07,-2.22035912312742e-08,-1.48904119922849e-07,-3.27526173572392e-08,-1.0585097702682e-07,-1.3860359438417e-07,9.21191252196743e-08,-4.25800790834138e-08,-4.25800790835286e-08,,-8.87244381748487e-09,9.58212428816455e-08,0,1,0,0.102399999999989,102,956.167156862745,522.280882352941,1724.15196078431,956.057843137255,956.276470588235,521.119607843137,523.442156862745,1907.6862745098,1540.61764705882,0
1868.288,-1.94077323794326e-07,1.53941981260791e-07,-4.01353425336907e-08,2.54273241200134e-07,-4.27287947404232e-08,-4.27287947406918e-08,8.17174227639385e-08,,2.67351588618503e-08,-2.36770865312377e-07,6.56029656220767e-09,-2.36770865312313e-07,-2.80600403233502e-07,3.17491983787574e-09,-2.77425483395686e-07,7.23332716304902e-08,,8.55581806565055e-09,,-6.28686779995232e-08,-8.13248245833278e-08,2.36688744456832e-07,4.46848459566847e-08,2.81373590413867e-07,4.69837786612306e-08,-6.33390343839329e-09,-6.3339034383482e-09,-2.23967457071362e-07,2.23967457071241e-07,1.14222332496126e-07,8.75791331933713e-08,-5.77321480914541e-08,,2.64700220181468e-09,-2.90850838551199e-08,-2.64380816533229e-08,1.33357705010818e-07,1.54447831186732e-07,1.54447831186786e-07,-1.24658499720945e-07,-2.06953833562877e-08,-1.45353883077216e-07,-3.25895272095362e-08,-1.00172006089883e-07,-1.32761533299532e-07,1.0715996887241e-07,-1.18230918681702e-08,-1.18230918682835e-08,,-1.64911671347022e-08,8.88740893961866e-08,0,1,0,0.204799999999977,103,955.93640776699,514.905339805825,1731.45631067961,957.018446601942,954.854368932039,515.050485436893,514.760194174757,1916.7572815534,1546.15533980583,0
1868.3904,-1.95195424906533e-07,1.491451117496e-07,-4.60503131570875e-08,2.8461004829336e-07,-5.26895519037499e-08,-5.26895519040213e-08,6.09022398187183e-08,,-1.35242744326962e-08,-2.37767868055578e-07,6.55743976872147e-09,-2.37767868055512e-07,-2.88804296696478e-07,8.37231338984866e-09,-2.80431983306693e-07,6.77641362844935e-08,,2.38875250268254e-09,,-6.43148289791641e-08,-8.6249126881007e-08,2.34289976822249e-07,4.71037175586294e-08,2.81393694381225e-07,4.75386820461193e-08,-4.98655634696803e-09,-4.98655634692453e-09,-2.49704434730326e-07,2.49704434730207e-07,1.2511204940695e-07,8.59480193465649e-08,-5.78547145850572e-08,,7.28423696165888e-10,-2.9242217517687e-08,-2.85137938215378e-08,1.43887526027224e-07,1.47797385536544e-07,1.47797385536602e-07,-1.23212778028213e-07,-1.8933149029875e-08,-1.4214592705807e-07,-3.35073971781659e-08,-9.29088953620458e-08,-1.26416292540326e-07,1.2180118491601e-07,2.28364612232919e-08,2.283646122318e-08,,-2.54278357553502e-08,8.01365424536302e-08,0,0,0,0.307199999999966,102,954.090196078431,524.018137254902,1739.6862745098,955.21862745098,952.961764705882,525.335294117647,522.700980392157,1925.69607843137,1553.67647058824,0
1868.4928,-1.96590527103198e-07,1.44034015890694e-07,-5.25565112126588e-08,3.17135112801096e-07,-6.31625533290904e-08,-6.3162553329365e-08,3.90133876560475e-08,,-5.53646922852587e-08,-2.38369502620424e-07,6.43473619467988e-09,-2.38369502620357e-07,-2.99208635723648e-07,1.56650794908913e-08,-2.83543556232826e-07,6.28932688885144e-08,,-4.24907979473614e-09,,-6.57593140976676e-08,-9.14312166649467e-08,2.32123938096408e-07,5.03842675962171e-08,2.82508205692969e-07,4.86713079746995e-08,-3.60986591982824e-09,-3.60986591978631e-09,-2.7839013951506e-07,2.78390139514944e-07,1.3557431409361e-07,8.29266580959694e-08,-5.77212207309409e-08,,-2.2767792716284e-09,-2.91314051012279e-08,-3.14081843728717e-08,1.55987013985677e-07,1.40776195116174e-07,1.40776195116237e-07,-1.22218009557083e-07,-1.69760457503914e-08,-1.39194055307456e-07,-3.541381332119e-08,-8.42707060415282e-08,-1.19684519362835e-07,1.35981293209163e-07,6.07182981868032e-08,6.07182981866927e-08,,-3.52181315405748e-08,6.97946653912039e-08,0,0,0,0.409599999999955,102,953.146568627451,528.307843137255,1736.84803921569,955.8,950.493137254902,525.691176470588,530.924509803922,1927.48039215686,1546.21568627451,0
1868.5952,-1.98273278343996e-07,1.38776376374942e-07,-5.94969019692064e-08,3.50973778596657e-07,-7.37341841672177e-08,-7.37341841674961e-08,1.67960667995797e-08,,-9.74984825478691e-08,-2.38680050601201e-07,6.28088780248636e-09,-2.38680050601133e-07,-3.11972657577609e-07,2.50984276461577e-08,-2.86874229931524e-07,5.78438919015922e-08,,-1.12906885219041e-08,,-6.72282781739518e-08,-9.66071146495297e-08,2.30049734422361e-07,5.40829833191849e-08,2.84132717741886e-07,5.04069792245929e-08,-2.18872725143177e-09,-2.18872725139135e-09,-3.08785139389239e-07,3.08785139389126e-07,1.45332033467192e-07,7.87863691553434e-08,-5.73314020718585e-08,,-6.02099754132548e-09,-2.89504449026739e-08,-3.49714424440134e-08,1.69309378528141e-07,1.33610346135592e-07,1.3361034613566e-07,-1.21532704602389e-07,-1.49250344976525e-08,-1.36457739100022e-07,-3.82587217363884e-08,-7.44989783031149e-08,-1.12757700039623e-07,1.49746877163758e-07,1.00752351301577e-07,1.00752351301469e-07,,-4.50873981540151e-08,5.83207104457586e-08,0,0,0,0.511999999999944,103,953.173300970874,535.279126213592,1723.40291262136,957.781553398058,948.565048543689,532.633009708738,537.925242718447,1919.23300970874,1527.57281553398,0
1868.6976,-2.00193131476846e-07,1.3353292852089e-07,-6.66602029561078e-08,3.84784642706579e-07,-8.39144438861817e-08,-8.39144438864639e-08,-4.83028770463472e-09,,-1.38242538294439e-07,-2.38845797521449e-07,6.14065958029725e-09,-2.38845797521378e-07,-3.268619991383e-07,3.63553376939405e-08,-2.90506661444435e-07,5.26889436592675e-08,,-1.86850586164652e-08,,-6.87659058964674e-08,-1.01563153468672e-07,2.27845092663257e-07,5.77105647581471e-08,2.85555657421741e-07,5.27360133135055e-08,-7.68470448492304e-10,-7.68470448453287e-10,-3.39296204306706e-07,3.39296204306597e-07,1.54083827986896e-07,7.39633484788384e-08,-5.67721291873659e-08,,-1.00585346209223e-08,-2.88988523677811e-08,-3.89573869887163e-08,1.83418689009281e-07,1.26573099515409e-07,1.26573099515482e-07,-1.21037317197061e-07,-1.2909202046095e-08,-1.33946519243136e-07,-4.2013430812425e-08,-6.38857170281172e-08,-1.05899147840663e-07,1.63172480777715e-07,1.4151715636403e-07,1.41517156363924e-07,,-5.41359380386135e-08,4.63896041971128e-08,0,0,0,0.614399999999932,102,953.197549019608,542.791176470588,1714.23529411765,958.952941176471,947.442156862745,544.987254901961,540.595098039216,1914.95098039216,1513.51960784314,0
1868.8,-2.02265083926833e-07,1.2846916701285e-07,-7.37959169141333e-08,4.16960571749308e-07,-9.31833335191325e-08,-9.31833335194188e-08,-2.49028635518402e-08,,-1.75775231828852e-07,-2.39000833926029e-07,6.02088252133722e-09,-2.39000833925957e-07,-3.43222831539851e-07,4.87871054213217e-08,-2.94435726118609e-07,4.74663652756537e-08,,-2.63787485806381e-08,,-7.03896169508277e-08,-1.06145346550659e-07,2.25249410134093e-07,6.07942138032424e-08,2.8604362393767e-07,5.55907801851614e-08,5.57947775333816e-10,5.57947775371469e-10,-3.68138094887303e-07,3.68138094887198e-07,1.61557051920286e-07,6.89891844361984e-08,-5.61842161731536e-08,,-1.39095780642752e-08,-2.91551422747866e-08,-4.30647203390737e-08,1.97806070968805e-07,1.19948703626733e-07,1.19948703626811e-07,-1.20641828510348e-07,-1.10634716555131e-08,-1.3170530016584e-07,-4.66200072366043e-08,-5.27952118100184e-08,-9.94152190467448e-08,1.76264889884056e-07,1.81347837425523e-07,1.8134783742542e-07,,-6.15446280939651e-08,3.47618475990725e-08,0,0,0,0.716799999999921,103,953.905825242719,536.856796116505,1711.35436893204,962.683495145631,945.128155339806,537.877669902913,535.835922330097,1919.21359223301,1503.49514563107,0
1868.9024,-2.04403589892725e-07,1.23764497873055e-07,-8.0639092019819e-08,4.4591185549332e-07,-1.01062344805719e-07,-1.01062344806009e-07,-4.25653881128492e-08,,-2.08425000938997e-07,-2.39209130559102e-07,5.90898921087339e-09,-2.39209130559028e-07,-3.60059967458714e-07,6.15461926609255e-08,-2.9851377479787e-07,4.22056958080337e-08,,-3.4294690868252e-08,,-7.20487799263709e-08,-1.10256178373811e-07,2.22004611003758e-07,6.29447567896805e-08,2.84949367793771e-07,5.88344772864336e-08,1.67679151343848e-09,1.67679151347512e-09,-3.93550515972818e-07,3.93550515972716e-07,1.67566226123151e-07,6.44043842326763e-08,-5.5716389498339e-08,,-1.71306822608841e-08,-2.98559907972298e-08,-4.69866730581254e-08,2.11894290880004e-07,1.13995509608857e-07,1.1399550960894e-07,-1.20278296420207e-07,-9.50521896247124e-09,-1.29783515382656e-07,-5.19331818004021e-08,-4.1671464296349e-08,-9.36046460968733e-08,1.88882330547847e-07,2.18478605493806e-07,2.18478605493706e-07,,-6.67590019230142e-08,2.4174166699585e-08,0,0,0,0.81919999999991,102,953.922549019608,539.35,1710.5931372549,963.08137254902,944.763725490196,534.248039215686,544.451960784314,1918.52941176471,1502.6568627451,0
1869.0048,-2.0654791513609e-07,1.19610996752696e-07,-8.69369183835413e-08,4.70318669135767e-07,-1.07192444664625e-07,-1.07192444664919e-07,-5.71966295819277e-08,,-2.34909606363586e-07,-2.39425821780163e-07,5.79544217693296e-09,-2.39425821780088e-07,-3.76183101098217e-07,7.37651645684696e-08,-3.02417936529829e-07,3.69525029079932e-08,,-4.23174298633122e-08,,-7.36127231299496e-08,-1.13844011261901e-07,2.17892728111552e-07,6.39121143675261e-08,2.81804842479408e-07,6.22725842523717e-08,2.48379219182477e-09,2.48379219186055e-09,-4.14018594012505e-07,4.14018594012406e-07,1.72054063157327e-07,6.0680892645181e-08,-5.54795610089749e-08,,-1.9367906036834e-08,-3.10810741045731e-08,-5.04489801414182e-08,2.25050129114986e-07,1.08918807754858e-07,1.08918807754945e-07,-1.19885338320012e-07,-8.31760503105704e-09,-1.28202943351046e-07,-5.7686874485014e-08,-3.10133851660187e-08,-8.87002596511545e-08,2.00711728936915e-07,2.51193624929353e-07,2.51193624929256e-07,,-6.95855649268675e-08,1.5264809243444e-08,0,0,0,0.921599999999899,102,955.859803921569,535.10931372549,1714.0637254902,963.069607843137,948.65,530.175490196078,540.043137254902,1920.6568627451,1507.47058823529,0
1869.1072,-2.08670240021867e-07,1.16196677973177e-07,-9.24735620488363e-08,4.89271845183692e-07,-1.11394367384426e-07,-1.11394367384723e-07,-6.84867888237967e-08,,-2.54481545293811e-07,-2.39504130676837e-07,5.68918901492743e-09,-2.3950413067676e-07,-3.90377142929015e-07,8.46974071579687e-08,-3.05679735771129e-07,3.17739221740207e-08,,-5.02972174825251e-08,,-7.48995556455106e-08,-1.16896077175853e-07,2.127721636427e-07,6.36120469710095e-08,2.76384210614037e-07,6.56843308235867e-08,2.90466973662348e-09,2.90466973665898e-09,-4.28437659974548e-07,4.28437659974452e-07,1.75085878794056e-07,5.81747950117414e-08,-5.55178316715233e-08,,-2.0372977178428e-08,-3.28509453367987e-08,-5.3223922515238e-08,2.36633638827611e-07,1.04847566614186e-07,1.04847566614276e-07,-1.19403985701649e-07,-7.5446047546483e-09,-1.26948590456273e-07,-6.3512185398124e-08,-2.13128660899201e-08,-8.48250514881655e-08,2.11335925773039e-07,2.77983947738131e-07,2.77983947738036e-07,,-7.01503545519283e-08,8.52747672606257e-09,0,0,0,1.02399999999989,103,958.266019417476,531.9,1722.46116504854,963.244660194175,953.287378640777,528.822330097087,534.977669902913,1923.04854368932,1521.87378640777,0
1869.2096,-2.10768780813829e-07,1.13679686604611e-07,-9.70890942093634e-08,5.02272458114645e-07,-1.13682540375277e-07,-1.13682540375577e-07,-7.6445181044482e-08,,-2.66965334164215e-07,-2.39252928190409e-07,5.61732546832004e-09,-2.39252928190331e-07,-4.01548078055369e-07,9.37598750567113e-08,-3.0778820299874e-07,2.67392871933015e-08,,-5.80772194028935e-08,,-7.57308847791591e-08,-1.19441090758087e-07,2.06609673104255e-07,6.21180635925329e-08,2.68727736697114e-07,6.88586136729309e-08,2.89957910372473e-09,2.89957910376026e-09,-4.36166368026666e-07,4.36166368026572e-07,1.76790696833187e-07,5.71150090232948e-08,-5.58085629221276e-08,,-1.99841876090669e-08,-3.51415829230326e-08,-5.51257705321112e-08,2.46086819567626e-07,1.01809743580131e-07,1.01809743580223e-07,-1.18796784390562e-07,-7.19704846759081e-09,-1.25993832858128e-07,-6.89999121913744e-08,-1.29830161118048e-08,-8.19829283033001e-08,2.20351360331672e-07,2.97694012808692e-07,2.97694012808598e-07,,-6.87497033421134e-08,4.27296360910659e-09,0,0,0,1.12639999999988,102,960.078431372549,536.260784313726,1743.69117647059,962.719607843137,957.437254901961,538.56568627451,533.955882352941,1937.08823529412,1550.29411764706,0
1869.312,-2.12857426292928e-07,1.12171957117703e-07,-1.0068546917537e-07,5.09132769658716e-07,-1.14228641097954e-07,-1.14228641098254e-07,-8.13486470690358e-08,,-2.72700268978304e-07,-2.38515980335305e-07,5.61027996052827e-09,-2.38515980335226e-07,-4.08812733026039e-07,1.00484578192566e-07,-3.08328154833553e-07,2.18894324566081e-08,,-6.5530884674602e-08,,-7.5977603310071e-08,-1.21555339366987e-07,1.995041696068e-07,5.9630081345259e-08,2.59134250952382e-07,7.1620011320935e-08,2.45714358749398e-09,2.45714358753003e-09,-4.369639892421e-07,4.36963989242007e-07,1.77284058769733e-07,5.76134888282967e-08,-5.62853587634468e-08,,-1.80990794109024e-08,-3.79068556082571e-08,-5.60059350191718e-08,2.53024428533564e-07,9.97173433471387e-08,9.97173433472315e-08,-1.18079136345308e-07,-7.26344294071065e-09,-1.25342579285993e-07,-7.37684961911441e-08,-6.31640267973633e-09,-8.0084898871e-08,2.27451839000463e-07,3.09623994251085e-07,3.09623994250993e-07,,-6.56865595760342e-08,2.59387318605728e-09,0,1,0,1.22879999999986,103,960.902427184466,541.272815533981,1765.03883495146,962.226213592233,959.578640776699,544.120388349515,538.425242718447,1953.54368932039,1576.53398058252,0
1869.4144,-2.14963452870391e-07,1.11745410102084e-07,-1.03218042768452e-07,5.09875850586982e-07,-1.13297282980199e-07,-1.13297282980499e-07,-8.36730895418896e-08,,-2.72441337600792e-07,-2.37233010609512e-07,5.68444884712105e-09,-2.37233010609432e-07,-4.1154323050008e-07,1.0444409869111e-07,-3.07099131809047e-07,1.72182402560027e-08,,-7.2586626556221e-08,,-7.55695027441016e-08,-1.23360084633006e-07,1.91698483563509e-07,5.64381928812004e-08,2.48136676445032e-07,7.38377846723902e-08,1.59073243754e-09,1.59073243757694e-09,-4.30877598815365e-07,4.30877598815272e-07,1.76624455429132e-07,5.967089497905e-08,-5.68628515385459e-08,,-1.46736152328785e-08,-4.10937012334099e-08,-5.57673164663014e-08,2.57281364494679e-07,9.83758296705267e-08,9.83758296706191e-08,-1.1734124170728e-07,-7.71800737744445e-09,-1.25059249084698e-07,-7.750209020518e-08,-1.48958872670896e-09,-7.89916789320071e-08,2.32437662165338e-07,3.13572140574401e-07,3.1357214057431e-07,,-6.11770162282385e-08,3.34466681161719e-09,0,1,0,1.33119999999985,102,961.601960784314,541.033823529412,1777.30882352941,962.286274509804,960.917647058823,546.4,535.667647058824,1960.41176470588,1594.20588235294,0
1869.5168,-2.17132401654788e-07,1.12452804660412e-07,-1.04679596994521e-07,5.04712324247298e-07,-1.11172875299073e-07,-1.11172875299372e-07,-8.40492069989942e-08,,-2.67274163346642e-07,-2.35455567561361e-07,5.83536466914953e-09,-2.35455567561281e-07,-4.09393289277305e-07,1.05221177149852e-07,-3.04172112127528e-07,1.26856630493476e-08,,-7.92204571966095e-08,,-7.44698394402115e-08,-1.25000420091916e-07,1.83566318329874e-07,5.28896179859546e-08,2.3645593631615e-07,7.54169312352445e-08,3.45523527644102e-10,3.45523527682374e-10,-4.18159223063129e-07,4.18159223063036e-07,1.74821939040085e-07,6.31615660550319e-08,-5.74478968302275e-08,,-9.75811777078288e-09,-4.46435660753921e-08,-5.44016838461888e-08,2.58897942317474e-07,9.75160366654858e-08,9.75160366655764e-08,-1.16745489514096e-07,-8.52291798170449e-09,-1.25268407495773e-07,-7.99511016904347e-08,1.39800254567472e-09,-7.85530991448764e-08,2.35172365448916e-07,3.09817149067125e-07,3.09817149067034e-07,,-5.53602192418511e-08,6.15148312083403e-09,0,1,0,1.43360000000007,103,961.485436893204,545.634466019418,1791.34951456311,962.18640776699,960.784466019417,545.709708737864,545.559223300971,1972.04854368932,1610.65048543689,0
1869.6192,-2.19426995197731e-07,1.14340113535112e-07,-1.05086881662763e-07,4.94103110869266e-07,-1.08098896411032e-07,-1.0809889641133e-07,-8.32413522618754e-08,,-2.58548845887395e-07,-2.33312758337121e-07,6.04587508400872e-09,-2.33312758337041e-07,-4.02317949563795e-07,1.02450112888106e-07,-2.99867836675761e-07,8.26446777752544e-09,,-8.54136870955775e-08,,-7.26363680813756e-08,-1.26605871463728e-07,1.75558173565697e-07,4.93532374489045e-08,2.24911411014924e-07,7.62796149649287e-08,-1.18697798306583e-09,-1.18697798302596e-09,-3.9926295471182e-07,3.99262954711725e-07,1.71869849515264e-07,6.78055716833981e-08,-5.7936791739921e-08,,-3.54293567003233e-09,-4.84857567374561e-08,-5.20286924075029e-08,2.58060963372074e-07,9.68313273176851e-08,9.68313273177729e-08,-1.16496601123279e-07,-9.6278903481035e-09,-1.26124491471356e-07,-8.09164773676647e-08,2.28512403041534e-09,-7.8631353337364e-08,2.35537548560777e-07,2.99051114958259e-07,2.99051114958167e-07,,-4.83741707496043e-08,1.0457806600283e-08,0,0,0,1.53600000000006,102,959.854411764706,542.713235294118,1796.58333333333,960.258823529412,959.45,540.904901960784,544.521568627451,1975.32352941176,1617.8431372549,0
1869.7216,-2.21909626840668e-07,1.17432317391328e-07,-1.04477309449483e-07,4.78860595253696e-07,-1.04262341070182e-07,-1.04262341070479e-07,-8.2116254523149e-08,,-2.47796332119389e-07,-2.30949691493342e-07,6.30309216787152e-09,-2.30949691493261e-07,-3.90589217502165e-07,9.59092948554426e-08,-2.94679922646792e-07,3.99659347877219e-09,,-9.10977502804276e-08,,-6.99926084274855e-08,-1.28250257915535e-07,1.68107615058167e-07,4.61759527098456e-08,2.14283567768337e-07,7.63529069540177e-08,-2.85978900008936e-09,-2.8597890000476e-09,-3.74932033249966e-07,3.74932033249869e-07,1.67766609685764e-07,7.31541832635723e-08,-5.82078615908909e-08,,3.62299179673645e-09,-5.25302649072187e-08,-4.89072731104973e-08,2.55040695815826e-07,9.60048353898597e-08,9.60048353899438e-08,-1.16796339836724e-07,-1.09716367255834e-08,-1.2776797656228e-07,-8.02533823467997e-08,1.15212890706897e-09,-7.91012534398439e-08,2.33437992583015e-07,2.82296292804941e-07,2.82296292804848e-07,,-4.0401923952901e-08,1.5598130287142e-08,0,0,0,1.63840000000005,102,960.897058823529,536.095588235294,1803.10784313726,959.713725490196,962.080392156863,533,539.191176470588,1983.29411764706,1622.92156862745,0
1869.824,-2.24609559235567e-07,1.21693746127123e-07,-1.02915813108588e-07,4.60221702930454e-07,-9.98265910088946e-08,-9.98265910091889e-08,-8.15740150747578e-08,,-2.36600847225382e-07,-2.28476734509526e-07,6.6128369326234e-09,-2.28476734509445e-07,-3.747980443244e-07,8.56142164099399e-08,-2.89183827914526e-07,2.05746504113088e-11,,-9.61212825566281e-08,,-6.64294062522166e-08,-1.29936362069876e-07,1.6151808433031e-07,4.36387027043485e-08,2.05156787034985e-07,7.557314794466e-08,-4.47877218099243e-09,-4.47877218094841e-09,-3.46323365495347e-07,3.46323365495248e-07,1.62529086191126e-07,7.86159617928721e-08,-5.81234669023583e-08,,1.1254612530051e-08,-5.66650631019932e-08,-4.54104505719576e-08,2.50157985509763e-07,9.47243471979681e-08,9.4724347198048e-08,-1.17803192391238e-07,-1.24865114863213e-08,-1.30289703877532e-07,-7.79114386287759e-08,-1.9248829413452e-09,-7.98363215702333e-08,2.28873332492642e-07,2.60831922156419e-07,2.60831922156326e-07,,-3.16183767702414e-08,2.08852576379607e-08,0,0,0,1.74080000000004,103,960.176213592233,534.823786407767,1807.79126213592,957.819417475728,962.533009708738,527.606796116505,542.040776699029,1990.66990291262,1624.91262135922,0
1869.9264,-2.27484769694546e-07,1.26980805359778e-07,-1.00503964334912e-07,4.39842581560321e-07,-9.49696768813701e-08,-9.49696768816623e-08,-8.24372632487197e-08,,-2.26436238437352e-07,-2.25952981626826e-07,7.00266388534424e-09,-2.25952981626745e-07,-3.55815899416826e-07,7.18576744655812e-08,-2.83958224951307e-07,-3.45320557066318e-09,,-1.00261936123967e-07,,-6.18449610480702e-08,-1.31616441871572e-07,1.55853024719876e-07,4.1927650147492e-08,1.97780674867697e-07,7.39028269896478e-08,-5.83183612320285e-09,-5.8318361231563e-09,-3.15065186123992e-07,3.1506518612389e-07,1.56216337618348e-07,8.35310921677972e-08,-5.75521550602391e-08,,1.87836148362233e-08,-6.07614222042275e-08,-4.19778073680194e-08,2.43789859475079e-07,9.26904216542507e-08,9.26904216543265e-08,-1.19610536899031e-07,-1.41043201025027e-08,-1.33714857001507e-07,-7.39908685728048e-08,-6.71173985087672e-09,-8.07026084237932e-08,2.22031470052528e-07,2.36119894652138e-07,2.36119894652044e-07,,-2.20670378932097e-08,2.56979844266913e-08,0,0,0,1.84320000000002,102,960.787254901961,526.873039215686,1803.22058823529,957.459803921569,964.114705882353,523.366666666667,530.379411764706,1987.69607843137,1618.74509803922,0
1870.0288,-2.3039394966291e-07,1.33010617740961e-07,-9.73833319220934e-08,4.19705018891767e-07,-8.98877577882426e-08,-8.98877577885325e-08,-8.53189711493825e-08,,-2.18500519875348e-07,-2.2339847987584e-07,7.51135613305791e-09,-2.2339847987576e-07,-3.34704209522513e-07,5.5173737778334e-08,-2.79530471744239e-07,-6.21095905819838e-09,,-1.0327986443188e-07,,-5.62043285798285e-08,-1.33236745620638e-07,1.50853980657877e-07,4.11248215628568e-08,1.91978802221067e-07,7.13490126929418e-08,-6.73222405437417e-09,-6.7322240543248e-09,-2.83170615284666e-07,2.83170615284562e-07,1.48968358605835e-07,8.72739999628221e-08,-5.64081135078422e-08,,2.56205591539538e-08,-6.4684306684571e-08,-3.90637475306322e-08,2.36396416478198e-07,8.96249943110691e-08,8.96249943111415e-08,-1.22240554302915e-07,-1.57600210447912e-08,-1.3800057534768e-07,-6.87742281161734e-08,-1.27967069227104e-08,-8.15709350389952e-08,2.13330255167914e-07,2.09709540105982e-07,2.0970954010589e-07,,-1.15605975713754e-08,2.95526370811443e-08,0,0,0,1.94560000000001,103,960.790291262136,531.619902912621,1796.19417475728,958.826213592233,962.754368932039,527.604854368932,535.634951456311,1985.05825242718,1607.33009708738,0
1870.1312,-2.33094796369593e-07,1.3936544074399e-07,-9.37293556257472e-08,4.01957185357404e-07,-8.47574178298533e-08,-8.47574178301413e-08,-9.05106461937425e-08,,-2.13593139032438e-07,-2.2081193728939e-07,8.1708768250917e-09,-2.20811937289309e-07,-3.12592286285253e-07,3.6246190402086e-08,-2.76346095883225e-07,-8.1143858751086e-09,,-1.04988654257346e-07,,-4.95802539352122e-08,-1.34782057216691e-07,1.45920291329446e-07,4.12071781591851e-08,1.87127469488967e-07,6.79762801639219e-08,-7.06018744290455e-09,-7.06018744285247e-09,-2.52814377747217e-07,2.5281437774711e-07,1.41048967838522e-07,8.93498223904964e-08,-5.46929992066941e-08,,3.12050132665125e-08,-6.82982914176364e-08,-3.70932781511381e-08,2.28536338763915e-07,8.52884447094599e-08,8.52884447095294e-08,-1.25640413786847e-07,-1.73912373922055e-08,-1.43031651179027e-07,-6.27010207439992e-08,-1.9636152072932e-08,-8.23371728170436e-08,2.03356270420384e-07,1.83117290914039e-07,1.83117290913948e-07,,3.18437130911894e-10,3.21414957553584e-08,0,0,0,2.048,102,960.159803921569,535.325,1790.21078431373,960.807843137255,959.511764705882,526.527450980392,544.122549019608,1982.53921568627,1597.88235294118,0
1870.2336,-2.35274073698307e-07,1.45540616932065e-07,-8.97334567663861e-08,3.88708079311108e-07,-7.96712342721181e-08,-7.96712342724042e-08,-9.79341786304467e-08,,-2.12069536959896e-07,-2.18172202886503e-07,8.99113277363585e-09,-2.18172202886423e-07,-2.90547698044032e-07,1.58056766036325e-08,-2.74742021440456e-07,-9.15103646263633e-09,,-1.05311302231413e-07,,-4.21500260556712e-08,-1.36297259902814e-07,1.40178843241975e-07,4.20452013326708e-08,1.82224044574985e-07,6.39111833839549e-08,-6.78442425621471e-09,-6.78442425616005e-09,-2.26040939162383e-07,2.26040939162273e-07,1.32874250790087e-07,8.94571793802042e-08,-5.25231004341566e-08,,3.50356002381286e-08,-7.14649771614825e-08,-3.64293769233666e-08,2.20839711179088e-07,7.9510011141468e-08,7.95100111415354e-08,-1.29669732245492e-07,-1.89353896162675e-08,-1.48605121861734e-07,-5.62773153520005e-08,-2.66579239563992e-08,-8.29352393085134e-08,1.92702516762796e-07,1.57681002454372e-07,1.57681002454283e-07,,1.40950844460914e-08,3.33362356785943e-08,0,0,0,2.15039999999999,102,962.626960784314,532.329901960784,1785.83333333333,963.620588235294,961.633333333333,526.58137254902,538.078431372549,1978.12745098039,1593.53921568627,0
1870.336,-2.36598971675745e-07,1.51025155779839e-07,-8.55738158960499e-08,3.81777167848827e-07,-7.45795285128752e-08,-7.45795285131598e-08,-1.0717427606352e-07,,-2.13876197882993e-07,-2.15419461989065e-07,9.9544952458273e-09,-2.15419461988985e-07,-2.69445979528118e-07,-5.45259849830228e-09,-2.74898578026476e-07,-9.43439954541561e-09,,-1.04298735041682e-07,,-3.4153230034534e-08,-1.37875862638647e-07,1.32640508539032e-07,4.34074024570711e-08,1.76047910996445e-07,5.93362028847801e-08,-5.95476007213318e-09,-5.95476007207647e-09,-2.04478119638347e-07,2.04478119638235e-07,1.2500033142658e-07,8.75102902764752e-08,-5.01289176449503e-08,,3.66961598446258e-08,-7.4040164581211e-08,-3.73440047365964e-08,2.13931383280417e-07,7.22253722765882e-08,7.22253722766543e-08,-1.34082072107577e-07,-2.03303066898619e-08,-1.54412378797414e-07,-4.99486965491858e-08,-3.33865550968862e-08,-8.33352516461874e-08,1.81771736018367e-07,1.34401048603665e-07,1.34401048603579e-07,,3.01930467636472e-08,3.31741685893059e-08,0,0,0,2.25279999999998,103,964.58786407767,528.561165048544,1785.05339805825,967.388349514563,961.787378640777,521.142718446602,535.979611650486,1976.02912621359,1594.07766990291,0
1870.4384,-2.36772840161176e-07,1.55387999912603e-07,-8.13848402487161e-08,3.82418854192297e-07,-6.92873780637401e-08,-6.92873780640238e-08,-1.17577142359708e-07,,-2.18639695747891e-07,-2.12434313497669e-07,1.10198573807319e-08,-2.12434313497588e-07,-2.49852550114074e-07,-2.69228037459239e-08,-2.76775353860054e-07,-9.16298485711591e-09,,-1.02111665219881e-07,,-2.58368953596102e-08,-1.39626190031097e-07,1.2240326643642e-07,4.49823900371388e-08,1.67385656473903e-07,5.44738293335356e-08,-4.6750001779516e-09,-4.6750001778936e-09,-1.89116286153879e-07,1.89116286153764e-07,1.1805297011676e-07,8.36297233263259e-08,-4.78211845280385e-08,,3.5900294015445e-08,-7.58819573754083e-08,-3.99816633599722e-08,2.0833212708554e-07,6.35046236069586e-08,6.35046236070253e-08,-1.38519372861609e-07,-2.15222144399072e-08,-1.60041587301493e-07,-4.39961563687648e-08,-3.9531640289949e-08,-8.35277966588319e-08,1.70654543789005e-07,1.13819151382914e-07,1.1381915138283e-07,,4.87289201976922e-08,3.18437655686942e-08,0,0,0,2.35519999999997,102,964.325980392157,530.24362745098,1788.87254901961,966.436274509804,962.21568627451,523.283333333333,537.203921568628,1980.12745098039,1597.61764705882,0
1870.5408,-2.35583178714179e-07,1.58340857819318e-07,-7.7242320895004e-08,3.91091231449449e-07,-6.35316812661778e-08,-6.35316812664608e-08,-1.28382922225787e-07,,-2.25776112852235e-07,-2.09041340311229e-07,1.21314266344248e-08,-2.09041340311149e-07,-2.31963100082365e-07,-4.81086987821306e-08,-2.80071798864554e-07,-8.56955907549735e-09,,-9.8986338167253e-08,,-1.74176193209708e-08,-1.41638838573199e-07,1.08848821698796e-07,4.64177909255711e-08,1.55266612624713e-07,4.95664647011446e-08,-3.07331538697581e-09,-3.07331538691728e-09,-1.80210000071207e-07,1.80210000071089e-07,1.12616405484178e-07,7.81109437714024e-08,-4.59289299998357e-08,,3.25477868412447e-08,-7.68704669571026e-08,-4.43226801158644e-08,2.04381540126267e-07,5.35575480344706e-08,5.35575480345385e-08,-1.42542212356784e-07,-2.24768908013931e-08,-1.65019103158155e-07,-3.85110714853692e-08,-4.49932581281609e-08,-8.3504329613652e-08,1.59162494038602e-07,9.60062113328533e-08,9.60062113327725e-08,,6.94112925040035e-08,2.96621979982962e-08,0,0,0,2.45759999999996,102,964.088725490196,525.59705882353,1793.3137254902,966.166666666667,962.010784313726,517.094117647059,534.1,1985.39215686275,1601.23529411765,0
1870.6432,-2.3293618679984e-07,1.59763501103039e-07,-7.31726856969436e-08,4.07348502988276e-07,-5.71009132950183e-08,-5.71009132953009e-08,-1.38851733540151e-07,,-2.34593170441992e-07,-2.05048041186048e-07,1.32270581369928e-08,-2.05048041185966e-07,-2.15653225959174e-07,-6.86008944849554e-08,-2.8425412044419e-07,-7.88837216465218e-09,,-9.52061621968957e-08,,-9.07389222931585e-09,-1.43973515622733e-07,9.17913389192399e-08,4.73634966623679e-08,1.39154835581953e-07,4.48608657255938e-08,-1.28145656147081e-09,-1.28145656141242e-09,-1.77331022837528e-07,1.77331022837408e-07,1.0912754271451e-07,7.13753973147854e-08,-4.47297983717078e-08,,2.6757911693513e-08,-7.69278681834561e-08,-5.01699564899472e-08,2.02212434484149e-07,4.27190645481081e-08,4.27190645481784e-08,-1.45701863449892e-07,-2.3185319816434e-08,-1.68887183266305e-07,-3.34556593399718e-08,-4.9791675728289e-08,-8.32473350683866e-08,1.46994581024186e-07,8.06807257317033e-08,8.0680725731626e-08,,9.15851674132059e-08,2.70252487786066e-08,0,1,0,2.55999999999995,103,963.069902912621,528.909708737864,1792.58252427184,963.602912621359,962.536893203884,523.067961165049,534.75145631068,1984.14563106796,1601.01941747573,0
1870.7456,-2.2887515029701e-07,1.59697081350057e-07,-6.91780689470948e-08,4.29883911941118e-07,-4.992670821895e-08,-4.99267082192322e-08,-1.48355082374139e-07,,-2.44371786742093e-07,-2.0030511500709e-07,1.42445161601336e-08,-2.00305115007008e-07,-2.00633986514965e-07,-8.80235570098111e-08,-2.88657543524841e-07,-7.34679596094257e-09,,-9.10871323893795e-08,,-9.58241645297163e-10,-1.46666634231602e-07,7.15532783746137e-08,4.7509958540741e-08,1.19063236915698e-07,4.06021211115324e-08,5.76925310965745e-10,5.76925311023363e-10,-1.79535078317373e-07,1.7953507831725e-07,1.07814594581253e-07,6.39116910425647e-08,-4.43978373303287e-08,,1.885220468768e-08,-7.60266469751134e-08,-5.71744422874348e-08,2.01773730928211e-07,3.14269075971669e-08,3.14269075972402e-08,-1.47634320039223e-07,-2.3659688182573e-08,-1.71294008221777e-07,-2.87603857446133e-08,-5.39749974603553e-08,-8.27353832050992e-08,1.33933601372856e-07,6.74003501080558e-08,6.74003501079807e-08,,1.14373136795017e-07,2.43292411483462e-08,0,1,0,2.66239999999993,102,963.104411764706,529.801470588235,1786.27941176471,960.916666666667,965.292156862745,526.224509803922,533.378431372549,1976.87254901961,1595.6862745098,0
1870.848,-2.23580846340825e-07,1.5831918245527e-07,-6.52616638856967e-08,4.56696166792335e-07,-4.21073541772621e-08,-4.21073541775434e-08,-1.56430486307252e-07,,-2.54427564750224e-07,-1.94763256843332e-07,1.51282176155116e-08,-1.94763256843249e-07,-1.86652220929863e-07,-1.05984763620801e-07,-2.92636984550734e-07,-7.16900896085835e-09,,-8.69710679559929e-08,,6.7910576487257e-09,-1.4974771637459e-07,4.895246491344e-08,4.6620469182116e-08,9.55729340958954e-08,3.70328881252418e-08,2.39380033383422e-09,2.39380033389071e-09,-1.85567482229865e-07,1.85567482229738e-07,1.08689543983279e-07,5.62170156380475e-08,-4.49819684666742e-08,,9.28975851716001e-09,-7.41829598473154e-08,-6.48932013301541e-08,2.0287484873443e-07,2.01979580489789e-08,2.01979580490554e-08,-1.48142415614401e-07,-2.39227975000548e-08,-1.72065213114438e-07,-2.44002380266655e-08,-5.75569387601772e-08,-8.1957176786979e-08,1.19978978877823e-07,5.5742105271305e-08,5.57421052712322e-08,,1.36832303462058e-07,2.18917137188852e-08,0,1,0,2.76479999999992,103,962.922330097087,530.16359223301,1773.67961165049,959.642718446602,966.201941747573,528.233980582524,532.093203883495,1965.99029126214,1581.36893203884,0
1870.9504,-2.17354656676221e-07,1.55912419568437e-07,-6.14422371079251e-08,4.85335946602481e-07,-3.38739838769917e-08,-3.38739838772719e-08,-1.62802218303272e-07,,-2.64143069466021e-07,-1.88503099148506e-07,1.58380713266581e-08,-1.88503099148422e-07,-1.73657499702355e-07,-1.22053261960076e-07,-2.95710761662505e-07,-7.57513548937359e-09,,-8.32152325183489e-08,,1.40511782615844e-08,-1.53250652074118e-07,2.51985212052326e-08,4.45554514543368e-08,6.97539726599046e-08,3.43891657770971e-08,4.08246090898821e-09,4.0824609090433e-09,-1.94054695389021e-07,1.9405469538889e-07,1.11580428740198e-07,4.87460910529976e-08,-4.64120191071185e-08,,-1.41828576061782e-09,-7.14413792671234e-08,-7.2859665027737e-08,2.05222092241953e-07,9.6013362543048e-09,9.60133625438457e-09,-1.472342507036e-07,-2.39965432495e-08,-1.71230793953083e-07,-2.04183608571432e-08,-6.05068724542437e-08,-8.09252333115297e-08,1.05371603543468e-07,4.54076258547142e-08,4.54076258546432e-08,,1.58082046942511e-07,1.99020940705432e-08,0,0,0,2.86719999999991,102,963.417156862745,521.175,1763.54901960784,960.694117647059,966.140196078431,523.758823529412,518.591176470588,1953.75490196078,1573.3431372549,0
1871.0528,-2.10588919295629e-07,1.52833854275298e-07,-5.77550650204728e-08,5.13190761989759e-07,-2.55327749237859e-08,-2.55327749240647e-08,-1.67362471086235e-07,,-2.72955468174449e-07,-1.81721876189437e-07,1.63574063790399e-08,-1.81721876189352e-07,-1.61869622131322e-07,-1.35765371574573e-07,-2.97634993705974e-07,-8.76712685320071e-09,,-8.01684446916335e-08,,2.07282020622577e-08,-1.57211978277876e-07,1.72063113535476e-09,4.12825017906319e-08,4.30031329263172e-08,3.28871492427898e-08,5.57993513302405e-09,5.57993513307771e-09,-2.03664598535792e-07,2.03664598535658e-07,1.16183794220724e-07,4.18704749521439e-08,-4.85221381353624e-08,,-1.27837699223798e-08,-6.78608721011602e-08,-8.06446420235329e-08,2.0843402197426e-07,2.21510005522858e-10,2.21510005605859e-10,-1.45102315628213e-07,-2.38927246084789e-08,-1.68995040236677e-07,-1.68977565364569e-08,-6.27856675344883e-08,-7.96834240710954e-08,9.05068050871936e-08,3.62241872923364e-08,3.62241872922661e-08,,1.77403167026251e-07,1.84149374998811e-08,0,0,0,2.9695999999999,102,961.81568627451,520.817156862745,1762.27450980392,960.289215686275,963.342156862745,525.305882352941,516.328431372549,1949.56862745098,1574.98039215686,0
1871.1552,-2.03728967752903e-07,1.49485030426732e-07,-5.42439373263133e-08,5.37762571814955e-07,-1.74087942103249e-08,-1.74087942106021e-08,-1.70119127064299e-07,,-2.80317449165314e-07,-1.7468106322709e-07,1.66952103121995e-08,-1.74681063227004e-07,-1.51725170051304e-07,-1.46659298684246e-07,-2.98384468735634e-07,-1.09050962243621e-08,,-7.8132669223919e-08,,2.67725408386331e-08,-1.6165688915794e-07,-2.00290774271307e-08,3.68672331633924e-08,1.68381557365871e-08,3.27022847751812e-08,6.84433564195412e-09,6.84433564200666e-09,-2.13234924003096e-07,2.13234924002957e-07,1.22121249241893e-07,3.58492259030986e-08,-5.10827130316639e-08,,-2.43881907782804e-08,-6.35077835981309e-08,-8.78959743764013e-08,2.12049515536948e-07,-7.39513112959706e-09,-7.39513112951128e-09,-1.42057790490583e-07,-2.36069161127883e-08,-1.65664706603358e-07,-1.3910627996285e-08,-6.43976832471471e-08,-7.83083112435894e-08,7.57862787965099e-08,2.80675024136196e-08,2.80675024135495e-08,,1.94316987533205e-07,1.73761748936503e-08,0,0,0,3.07199999999989,103,960.88786407767,522.148058252427,1764.91262135922,959.398058252427,962.377669902913,531.536893203884,512.759223300971,1953.22330097087,1576.60194174757,0
1871.2576,-1.97227242705943e-07,1.46277014092379e-07,-5.09502286137068e-08,5.568873703804e-07,-9.79631965595071e-09,-9.79631965622608e-09,-1.71133714022355e-07,,-2.8568113648527e-07,-1.67641905054384e-07,1.68807498898476e-08,-1.67641905054298e-07,-1.43754850935072e-07,-1.54319208209499e-07,-2.98074059144658e-07,-1.40849749053827e-08,,-7.73213521030509e-08,,3.21848710684969e-08,-1.66580569379648e-07,-3.87399109172792e-08,3.14433518481383e-08,-7.2965590688209e-09,3.39513168939734e-08,7.84643509685239e-09,7.84643509690433e-09,-2.21867037463007e-07,2.21867037462865e-07,1.2899071157332e-07,3.08133719465694e-08,-5.38355124840747e-08,,-3.59047142525712e-08,-5.84520060465349e-08,-9.43567202990933e-08,2.15554545751242e-07,-1.28044365269709e-08,-1.28044365268829e-08,-1.38457255471233e-07,-2.31161085809764e-08,-1.61573364052196e-07,-1.1480548126674e-08,-6.54251507424262e-08,-7.6905698869265e-08,6.14909836858358e-08,2.07783160047013e-08,2.07783160046305e-08,,2.08632037859301e-07,1.66614313394346e-08,0,0,0,3.17439999999988,102,960.277450980392,520.810784313725,1771.80392156863,958.552941176471,962.001960784314,530.048039215686,511.573529411765,1960.42156862745,1583.1862745098,0
1871.36,-1.91487684076495e-07,1.43587730575145e-07,-4.78999535014924e-08,5.68869514498426e-07,-2.91029658142256e-09,-2.91029658169589e-09,-1.70472533662561e-07,,-2.8853803007648e-07,-1.60814453056177e-07,1.69533931957528e-08,-1.60814453056089e-07,-1.38476980739887e-07,-1.58400442129826e-07,-2.96877422869804e-07,-1.8323310072206e-08,,-7.78282024355021e-08,,3.70102321487405e-08,-1.71932528357462e-07,-5.33379703132927e-08,2.51650273507038e-08,-2.81729429622745e-08,3.66892339788097e-08,8.55745738472564e-09,8.55745738477774e-09,-2.28974463125879e-07,2.28974463125732e-07,1.36410926366898e-07,2.6765761649959e-08,-5.65290654183196e-08,,-4.71110971973932e-08,-5.27590384619388e-08,-9.98701356593167e-08,2.18436364023456e-07,-1.57212666276802e-08,-1.57212666275907e-08,-1.34649052494589e-07,-2.23813260391886e-08,-1.57030378533764e-07,-9.56828442302274e-09,-6.60339370446082e-08,-7.5602221467803e-08,4.77181197128066e-08,1.41274672028069e-08,1.41274672027352e-08,,2.20435901572756e-07,1.61053520054993e-08,0,0,0,3.27679999999987,103,956.976699029126,526.630097087379,1776.55825242718,954.881553398058,959.071844660194,536.08932038835,517.170873786408,1966.52427184466,1586.59223300971,0
1871.4624,-1.868049115257e-07,1.41716068176105e-07,-4.50888433497387e-08,5.72555916444008e-07,3.15300350076785e-09,3.15300350049709e-09,-1.68185131808017e-07,,-2.88502092095445e-07,-1.54328129303227e-07,1.69536951108951e-08,-1.54328129303137e-07,-1.36349621817197e-07,-1.58628867074862e-07,-2.94978488892152e-07,-2.35456533396745e-08,,-7.96103675759854e-08,,4.13282065203451e-08,-1.77606422939685e-07,-6.30279863359772e-08,1.81511169661785e-08,-4.48768693694897e-08,4.09159776762691e-08,8.94021619067523e-09,8.94021619072847e-09,-2.34282532213894e-07,2.34282532213743e-07,1.4405881809947e-07,2.35911938869889e-08,-5.89495593932507e-08,,-5.79031259570158e-08,-4.64792256980926e-08,-1.04382351655091e-07,2.2024681937317e-07,-1.60559683050943e-08,-1.60559683050039e-08,-1.30940925729202e-07,-2.13552321197191e-08,-1.52296157848909e-07,-8.07614966824017e-09,-6.6458007119922e-08,-7.45341567883414e-08,3.4376025567969e-08,7.83204414090768e-09,7.83204414083489e-09,,2.30034163487237e-07,1.55097052265155e-08,0,0,0,3.37919999999986,102,948.273529411765,539.123039215686,1779.87745098039,945.580392156863,950.966666666667,547.792156862745,530.453921568628,1970.48039215686,1589.27450980392,0
1871.5648,-1.83317134823905e-07,1.40843440992529e-07,-4.24736938315196e-08,5.67398069028053e-07,8.42356275251627e-09,8.42356275224866e-09,-1.64312225972187e-07,,-2.85385885756201e-07,-1.48222456864331e-07,1.69210793089177e-08,-1.48222456864239e-07,-1.37768938535063e-07,-1.54789983548501e-07,-2.92558922083659e-07,-2.95763262631611e-08,,-8.24841388605086e-08,,4.52464640880954e-08,-1.83436036235217e-07,-6.73241689943871e-08,1.04344520680575e-08,-5.68897169260262e-08,4.65756167240867e-08,8.95087240889596e-09,8.95087240895117e-09,-2.37799926347931e-07,2.37799926347775e-07,1.51692835142567e-07,2.10673937791481e-08,-6.09385346900581e-08,,-6.83052335263183e-08,-3.96434277186965e-08,-1.07948661244995e-07,2.2064677475733e-07,-1.39280995245254e-08,-1.39280995244353e-08,-1.27582748323499e-07,-1.99921672287711e-08,-1.47574915552257e-07,-6.87270845750331e-09,-6.69657966654054e-08,-7.38385051230958e-08,2.12246532595166e-08,1.60067025618769e-09,1.60067025611266e-09,,2.37875952151587e-07,1.46337357485308e-08,0,0,0,3.48160000000007,103,949.569902912621,535.46213592233,1783.07281553398,945.001941747573,954.13786407767,546.173786407767,524.750485436893,1972.71844660194,1593.42718446602,0
1871.6672,-1.80996992906697e-07,1.41014842448331e-07,-3.99821504585094e-08,5.53514042020331e-07,1.30240408141564e-08,1.30240408138921e-08,-1.58911712620587e-07,,-2.79219215624567e-07,-1.42457312121919e-07,1.68988006885564e-08,-1.42457312121826e-07,-1.43084862828357e-07,-1.46721165922659e-07,-2.89806028751112e-07,-3.61386719978642e-08,,-8.61372289076618e-08,,4.88940012956559e-08,-1.8920036770662e-07,-6.60924369925612e-08,1.93331737806454e-09,-6.41591196141977e-08,5.35423793903773e-08,8.55012076571222e-09,8.5501207657705e-09,-2.39791439954317e-07,2.39791439954157e-07,1.5915154719339e-07,1.887512524525e-08,-6.23911401933193e-08,,-7.84640442252141e-08,-3.22728132513041e-08,-1.10736857476497e-07,2.19419754266677e-07,-9.65766800006417e-09,-9.65766799997454e-09,-1.247627678178e-07,-1.82572883496166e-08,-1.43020056167404e-07,-5.83892317626474e-09,-6.78085678206546e-08,-7.3647490997114e-08,7.95622659060101e-09,-4.81120595973971e-09,-4.81120595981745e-09,,2.44505187829651e-07,1.31873206273199e-08,0,0,0,3.58400000000006,102,949.349019607843,535.153921568627,1780.81862745098,944.58137254902,954.116666666667,534.264705882353,536.043137254902,1972.29411764706,1589.3431372549,0
1871.7696,-1.79687471827891e-07,1.42144398985267e-07,-3.75430728427681e-08,5.31712943867821e-07,1.71145225104607e-08,1.71145225102e-08,-1.52088092340447e-07,,-2.70206055047586e-07,-1.36941359917667e-07,1.69407919423464e-08,-1.36941359917571e-07,-1.52601002819102e-07,-1.34323691821842e-07,-2.86924694641041e-07,-4.28797759282458e-08,,-9.0165793688754e-08,,5.24045150232553e-08,-1.94641015184907e-07,-5.95993899203329e-08,-7.53522869864807e-09,-6.71346186186859e-08,6.16047513695548e-08,7.71599047429011e-09,7.7159904743523e-09,-2.40751322612313e-07,2.40751322612147e-07,1.66322034467098e-07,1.66195742337472e-08,-6.32404690313182e-08,,-8.86067044500767e-08,-2.44041482976193e-08,-1.13010852747674e-07,2.16469679445555e-07,-3.73630877870568e-09,-3.73630877861704e-09,-1.22611606589049e-07,-1.61344757587311e-08,-1.38746082347767e-07,-4.92007850762939e-09,-6.91618553806597e-08,-7.40819338884921e-08,-5.69508006081929e-09,-1.15503282221681e-08,-1.15503282222485e-08,,2.50528665453874e-07,1.08546684233869e-08,0,0,0,3.68640000000005,102,948.913725490196,536.833823529412,1778.37745098039,941.714705882353,956.112745098039,540.605882352941,533.061764705882,1967.29411764706,1589.46078431373,0
1871.872,-1.79165059553774e-07,1.44039285021246e-07,-3.51257745326729e-08,5.0343390555059e-07,2.08435866493233e-08,2.08435866490663e-08,-1.44016981175316e-07,,-2.58669031615204e-07,-1.31571471862656e-07,1.71121293738862e-08,-1.31571471862558e-07,-1.66526343854454e-07,-1.1761778718451e-07,-2.8414413103906e-07,-4.94236144972213e-08,,-9.4136153567405e-08,,5.58884164102823e-08,-1.99491836199187e-07,-4.85469498438724e-08,-1.81952258496682e-08,-6.67421756932486e-08,7.04609445973546e-08,6.45272569787095e-09,6.45272569793794e-09,-2.41348160524105e-07,2.41348160523933e-07,1.73089267574986e-07,1.38770829024236e-08,-6.34430867095508e-08,,-9.89601753137988e-08,-1.61240659355425e-08,-1.15084241249317e-07,2.11826508585363e-07,3.21634191431017e-09,3.21634191439778e-09,-1.21201965383462e-07,-1.36350708435913e-08,-1.34837036227039e-07,-4.15589090514793e-09,-7.10832844896038e-08,-7.52391753949641e-08,-1.98353099557085e-08,-1.86271029187111e-08,-1.8627102918794e-08,,2.56561711185137e-07,7.35956583474763e-09,0,1,0,3.78880000000004,103,949.644174757282,531.813106796117,1771.66990291262,942.28640776699,957.001941747573,526.276699029126,537.349514563107,1961.3786407767,1581.96116504854,0
1871.9744,-1.79200363953373e-07,1.46429206901969e-07,-3.2771157051549e-08,4.70593817188405e-07,2.43176025943338e-08,2.43176025940801e-08,-1.34964194349424e-07,,-2.4503463200129e-07,-1.26271242800548e-07,1.74788701153895e-08,-1.26271242800447e-07,-1.8488158647406e-07,-9.68345326241466e-08,-2.81716119098303e-07,-5.54409200741828e-08,,-9.76582796655734e-08,,5.94016677569758e-08,-2.03515635728414e-07,-3.40644928340287e-08,-3.02259916164563e-08,-6.42904844501957e-08,7.97318369456269e-08,4.79456020042213e-09,4.79456020049453e-09,-2.42329550606147e-07,2.4232955060597e-07,1.79292484240495e-07,1.0264453823386e-08,-6.29769501308684e-08,,-1.09654263168958e-07,-7.59903579713227e-09,-1.17253298966065e-07,2.05671012551983e-07,1.05063858584624e-08,1.05063858585495e-08,-1.20538578373873e-07,-1.08073702223182e-08,-1.31345948596177e-07,-3.67003540661282e-09,-7.35066419917788e-08,-7.71766773986125e-08,-3.4311796129474e-08,-2.58890495993807e-08,-2.58890495994662e-08,,2.63140546277318e-07,2.55072206901611e-09,0,1,0,3.89120000000003,102,950.364705882353,530.424019607843,1764.98039215686,943.257843137255,957.471568627451,524.623529411765,536.224509803922,1955.75490196078,1574.20588235294,0
1872.0768,-1.79594798327588e-07,1.48993138384944e-07,-3.06016599427896e-08,4.35392093236845e-07,2.75859308624722e-08,2.75859308622222e-08,-1.25301208980789e-07,,-2.29864063470118e-07,-1.21018189361361e-07,1.80910899987639e-08,-1.21018189361257e-07,-2.07415210782461e-07,-7.24893092910259e-08,-2.79904520073582e-07,-6.07144795490965e-08,,-1.00451794503601e-07,,6.29213513786376e-08,-2.06537283757121e-07,-1.76392512798524e-08,-4.36831266375313e-08,-6.1322377917097e-08,8.89908981738775e-08,2.80375040917829e-09,2.80375040925645e-09,-2.44411402601796e-07,2.44411402601612e-07,1.84709880648095e-07,5.50718024637068e-09,-6.18477510501902e-08,,-1.20644351501891e-07,9.12698095726402e-10,-1.19731653406138e-07,1.98370043381829e-07,1.74247471705022e-08,1.74247471705885e-08,-1.20545747734293e-07,-7.74290083031947e-09,-1.28288648564597e-07,-3.62796475717584e-09,-7.62715295234588e-08,-7.98994942808645e-08,-4.86661988120168e-08,-3.30087135047002e-08,-3.3008713504788e-08,,2.70628988771816e-07,-3.53218650173459e-09,0,1,0,3.99360000000002,103,949.045631067961,534.169417475728,1746.15048543689,940.552427184466,957.538834951456,532.033009708738,536.305825242719,1942.76699029126,1549.53398058252,0
1872.1792,-1.80192671713683e-07,1.51388320369802e-07,-2.88043513440258e-08,4.00122905132154e-07,3.06396112902628e-08,3.06396112900159e-08,-1.15505729334562e-07,,-2.1387933739995e-07,-1.15852168102761e-07,1.89683947765024e-08,-1.15852168102654e-07,-2.33593883416582e-07,-4.53696908242055e-08,-2.78963574240881e-07,-6.51773225646553e-08,,-1.02386285573961e-07,,6.63380777590249e-08,-2.08461257685513e-07,-9.80566066518974e-10,-5.84534808481387e-08,-5.94340469143724e-08,9.78049876114466e-08,5.61830676714633e-10,5.61830676798708e-10,-2.4818664531069e-07,2.48186645310501e-07,1.89077487907909e-07,-5.21726108514445e-10,-6.00879014411842e-08,,-1.31683089619747e-07,9.07642018376144e-09,-1.22606669435957e-07,1.90491230300657e-07,2.33048185857958e-08,2.33048185858816e-08,-1.21065364418223e-07,-4.5731635675901e-09,-1.25638527985797e-07,-4.18861923296005e-09,-7.91743531469845e-08,-8.33629723801826e-08,-6.21771512779896e-08,-3.950771018703e-08,-3.95077101871196e-08,,2.79147782021153e-07,-1.06440251420287e-08,0,0,0,4.096,102,947.985294117647,531.635784313726,1725.13235294118,939.139215686274,956.83137254902,531.580392156863,531.691176470588,1925.86274509804,1524.40196078431,0
1872.2816,-1.80880336781362e-07,1.53291083020358e-07,-2.75892537611495e-08,3.67001855873564e-07,3.34275016047864e-08,3.3427501604542e-08,-1.06118058311506e-07,,-1.97916299198784e-07,-1.10858803449625e-07,2.00960680946293e-08,-1.10858803449515e-07,-2.62681064600892e-07,-1.64160302370415e-08,-2.79097094838026e-07,-6.89074210122321e-08,,-1.03482503390061e-07,,6.94726822863653e-08,-2.09266550722603e-07,1.41726383234988e-08,-7.426092204542e-08,-6.0088283721637e-08,1.0577541425107e-07,-1.8449075947604e-09,-1.84490759467067e-09,-2.54071221225655e-07,2.5407122122546e-07,1.92135759795079e-07,-7.80527034897938e-09,-5.7737220056347e-08,,-1.42354260546633e-07,1.65254179876151e-08,-1.25828842558989e-07,1.82758473928131e-07,2.75732204627899e-08,2.75732204628752e-08,-1.21874661116323e-07,-1.45238663193279e-09,-1.23327047748239e-07,-5.46156661401582e-09,-8.20331928195189e-08,-8.74947594337801e-08,-7.4011834197156e-08,-4.48498928493187e-08,-4.48498928494092e-08,,2.88536816560153e-07,-1.83798640345617e-08,0,0,0,4.19839999999999,102,947.355392156863,532.091666666667,1710.33333333333,936.351960784314,958.358823529412,536.11862745098,528.064705882353,1909.8137254902,1510.85294117647,0
1872.384,-1.81578746484209e-07,1.54444108418026e-07,-2.71346380663276e-08,3.38000568135555e-07,3.58941585591441e-08,3.58941585589014e-08,-9.76359695060126e-08,,-1.82777601379476e-07,-1.06127478078681e-07,2.14330017561905e-08,-1.06127478078569e-07,-2.93850674923011e-07,1.34562629871551e-08,-2.80394411935949e-07,-7.20783603784332e-08,,-1.03871806879914e-07,,7.2111032388397e-08,-2.08982005800287e-07,2.62651467108129e-08,-9.07191624702474e-08,-6.44540157591506e-08,1.12568322730405e-07,-4.34129063689305e-09,-4.34129063679826e-09,-2.62284907074108e-07,2.6228490707391e-07,1.93685296134363e-07,-1.62175484657154e-08,-5.48122334506758e-08,,-1.52155181119448e-07,2.29221157195494e-08,-1.29233065399868e-07,1.75938463891986e-07,2.97918105334815e-08,2.97918105335664e-08,-1.22722655441657e-07,1.46987923340476e-09,-1.21252776208234e-07,-7.46643320087902e-09,-8.4760627829781e-08,-9.22270610309107e-08,-8.34505236494498e-08,-4.86107121557264e-08,-4.86107121558167e-08,,2.98354711251265e-07,-2.62558478357536e-08,0,0,0,4.30079999999998,103,956.034788266049,544.23368796211,1711.53027386042,944.544390507012,967.525186025087,548.500080906149,539.967295018071,1906.40722761597,1516.65332010488,0
1872.4864,-1.82228702748221e-07,1.5468934902119e-07,-2.75393537271757e-08,3.14709609007087e-07,3.80295889835955e-08,3.80295889833534e-08,-9.03796925448722e-08,,-1.69034856661377e-07,-1.01695989063639e-07,2.29251184266499e-08,-1.01695989063525e-07,-3.26256268168987e-07,4.34996382323635e-08,-2.82756629936716e-07,-7.48872214828192e-08,,-1.03728861078275e-07,,7.40352936130252e-08,-2.07655770974195e-07,3.40990915178544e-08,-1.07401596339152e-07,-7.33025048210128e-08,1.17928605168773e-07,-6.8744720714638e-09,-6.87447207136478e-09,-2.72851867301603e-07,2.72851867301403e-07,1.93626656547379e-07,-2.55616547833698e-08,-5.1285198328249e-08,,-1.60585751648726e-07,2.8009052313619e-08,-1.32576699335075e-07,1.70692284786262e-07,2.9688458827894e-08,2.96884588279785e-08,-1.23372956165746e-07,4.07438390194701e-09,-1.19298572263781e-07,-1.01014417170648e-08,-8.74199678174571e-08,-9.75214095347762e-08,-9.00902535254288e-08,-5.06747778122129e-08,-5.06747778123026e-08,,3.07927545874116e-07,-3.37793201216257e-08,0,0,0,4.40319999999997,102,953.522645985401,497.735465328467,1798.66770072993,936.415,970.630291970803,542.0275,453.443430656934,1933.35,1663.98540145985,0.754901960784314
1872.5888,-1.8277046372762e-07,1.53971681626165e-07,-2.87987821015988e-08,2.98243150656549e-07,3.99045696559806e-08,3.99045696557383e-08,-8.43965158483803e-08,,-1.56878649924362e-07,-9.7505555993953e-08,2.45161369681479e-08,-9.75055559938373e-08,-3.59015453265981e-07,7.31686426767478e-08,-2.85846810589324e-07,-7.74942666394867e-08,,-1.03206667883762e-07,,7.50317465471193e-08,-2.05337291588702e-07,3.69264197649992e-08,-1.23894481947435e-07,-8.69680621821498e-08,1.2168170394874e-07,-9.4162652814292e-09,-9.41626528132707e-09,-2.8559851133471e-07,2.85598511334509e-07,1.91971363586163e-07,-3.55827603681601e-08,-4.70924325248318e-08,,-1.67205336427131e-07,3.16292572989492e-08,-1.3557607912815e-07,1.67445229591959e-07,2.71713785161394e-08,2.71713785162234e-08,-1.23637840079368e-07,6.28573419118141e-09,-1.17352105888168e-07,-1.31380432479141e-08,-9.02295077538141e-08,-1.03367551001984e-07,-9.39286046028055e-08,-5.13749273246777e-08,-5.13749273247655e-08,,3.16462264659566e-07,-4.04783225621629e-08,0,0,0,4.50559999999996,102,953.84761684398,460.17880074901,1899.4242776267,932.747037037037,974.948196650923,524.803300653595,395.554300844425,1989.63093681917,1809.21761843424,0.0196078431372549
1872.6912,-1.83123807366013e-07,1.52318479025456e-07,-3.0805328340699e-08,2.89157264805503e-07,4.16669201692011e-08,4.16669201689576e-08,-7.94554186599145e-08,,-1.46097516349407e-07,-9.33906586468287e-08,2.61511265316054e-08,-9.33906586467126e-08,-3.91143069376353e-07,1.02041506185569e-07,-2.89101563190875e-07,-8.00022261114744e-08,,-1.02401816580632e-07,,7.48780601749527e-08,-2.02085035428359e-07,3.44690085789539e-08,-1.39822576362667e-07,-1.05353567783426e-07,1.2373642616078e-07,-1.19569055432335e-08,-1.19569055431295e-08,-3.0013011291984e-07,3.0013011291964e-07,1.88833950602669e-07,-4.59508356130906e-08,-4.2174037106661e-08,,-1.7165417363329e-07,3.37207673183666e-08,-1.37933406314892e-07,1.66317026854805e-07,2.23241960232672e-08,2.2324196023351e-08,-1.23394664296547e-07,8.07217909856361e-09,-1.15322485197964e-07,-1.62480424009186e-08,-9.3498535901685e-08,-1.0974657830286e-07,-9.52893308100873e-08,-5.14999701189658e-08,-5.14999701190507e-08,,3.23223331383751e-07,-4.58960708484301e-08,0,0,0,4.60799999999995,103,943.967961165049,553.044660194175,1700.91262135922,933.002912621359,954.933009708738,573.299029126214,532.790291262136,1885.03883495146,1516.78640776699,0
1872.7936,-1.83177728126064e-07,1.49814523705118e-07,-3.33632044210861e-08,2.87370382309327e-07,4.34893985900047e-08,4.34893985897594e-08,-7.51275728832465e-08,,-1.36199942996105e-07,-8.91124876206882e-08,2.77744218790375e-08,-8.91124876205722e-08,-4.21510192030996e-07,1.29691568294886e-07,-2.918186237362e-07,-8.24783355930897e-08,,-1.01360210695166e-07,,7.33376546595674e-08,-1.9799914837524e-07,2.68998921026173e-08,-1.54854590325714e-07,-1.27954698222807e-07,1.24099599382455e-07,-1.44945481307097e-08,-1.44945481306051e-08,-3.15795653651985e-07,3.15795653651788e-07,1.84423614327263e-07,-5.62351307746148e-08,-3.65231834963735e-08,,-1.73663152232621e-07,3.43063287742254e-08,-1.39356823458365e-07,1.67129639683412e-07,1.53859890822067e-08,1.53859890822901e-08,-1.2258338374024e-07,9.43653111686081e-09,-1.13146852623359e-07,-1.90546242545627e-08,-9.75111510733076e-08,-1.16565775328124e-07,-9.46368849162875e-08,-5.21570409529721e-08,-5.21570409530524e-08,,3.27741805086111e-07,-4.95761048817228e-08,0,0,0,4.71039999999994,102,951.352941176471,545.727941176471,1695.86764705882,942.874509803922,959.83137254902,567.280392156863,524.175490196078,1877.97058823529,1513.76470588235,0
1872.896,-1.82800569207672e-07,1.46589811148925e-07,-3.62107580588846e-08,2.92145996447232e-07,4.54768332588963e-08,4.54768332586487e-08,-7.09165191466611e-08,,-1.26628245480038e-07,-8.44219542885389e-08,2.93295701757688e-08,-8.44219542884243e-08,-4.48890049086481e-07,1.55589496725006e-07,-2.93300552361565e-07,-8.4996124682986e-08,,-1.00110586826909e-07,,7.01897982742323e-08,-1.93262419474554e-07,1.48037027077234e-08,-1.68697723735795e-07,-1.5389402102778e-07,1.22900584468329e-07,-1.70243314563456e-08,-1.70243314562414e-08,-3.316834187485e-07,3.31683418748306e-07,1.79041817096136e-07,-6.59063022460683e-08,-3.02112139066109e-08,,-1.73073597822848e-07,3.34929700905111e-08,-1.39580627732308e-07,1.69481751654292e-07,6.72438248158996e-09,6.72438248167268e-09,-1.21191464838294e-07,1.04055416422216e-08,-1.10785923196052e-07,-2.11948618815532e-08,-1.02396551523925e-07,-1.23591413405728e-07,-9.23779611888515e-08,-5.45341246933589e-08,-5.45341246934337e-08,,3.30004465697649e-07,-5.10653658437108e-08,0,0,0,4.81279999999993,103,952.990291262136,543.111650485437,1703.16019417476,944.197087378641,961.783495145631,562.91359223301,523.309708737864,1884.02912621359,1522.29126213592,0
1872.9984,-1.8187185602138e-07,1.42820736594863e-07,-3.90511194266532e-08,3.02206824553289e-07,4.75637002021936e-08,4.75637002019437e-08,-6.64014481032551e-08,,-1.16983989070386e-07,-7.91270291304335e-08,3.07691643950844e-08,-7.91270291303213e-08,-4.72103227984016e-07,1.79087272102436e-07,-2.93015955881668e-07,-8.76647943291236e-08,,-9.87005614305932e-08,,6.52963350086623e-08,-1.88163991587165e-07,-8.87592185744905e-10,-1.81093832317949e-07,-1.81981424503402e-07,1.20409464008439e-07,-1.95287272437698e-08,-1.95287272436672e-08,-3.46692619227644e-07,3.46692619227454e-07,1.73076850124683e-07,-7.43920282943124e-08,-2.33698898694516e-08,,-1.69871418763353e-07,3.14793924167502e-08,-1.38392026346575e-07,1.72860143673044e-07,-3.195823636645e-09,-3.1958236365632e-09,-1.19238296318924e-07,1.10239084626145e-08,-1.08214387856288e-07,-2.2383088612011e-08,-1.08032542324193e-07,-1.30415630936447e-07,-8.87326246145384e-08,-5.96321602715348e-08,-5.96321602716034e-08,,3.30554477490745e-07,-4.99550286493655e-08,0,1,0,4.91519999999991,102,954.626960784314,540.219607843137,1714.81862745098,947.816666666667,961.437254901961,554.950980392157,525.488235294118,1892.16666666667,1537.47058823529,0
1873.1008,-1.80320037102791e-07,1.38727980346239e-07,-4.15920567566857e-08,3.15968148440362e-07,4.94574134771519e-08,4.94574134768992e-08,-6.13580380065669e-08,,-1.07191901401835e-07,-7.31420883920889e-08,3.2073662258326e-08,-7.31420883919803e-08,-4.90226490066667e-07,1.99489292427765e-07,-2.90737197638989e-07,-9.06254073960913e-08,,-9.721350085768e-08,,5.86722807292959e-08,-1.83083939331751e-07,-1.89956949275824e-08,-1.91833491466794e-07,-2.10829186394083e-07,1.17026883901071e-07,-2.1972057246069e-08,-2.19720572459687e-08,-3.59693876820805e-07,3.5969387682062e-07,1.66981554942029e-07,-8.11827624635634e-08,-1.61451044582225e-08,,-1.64224083820357e-07,2.85579086688224e-08,-1.3566617515151e-07,1.76754059053657e-07,-1.385501741936e-08,-1.38550174192798e-08,-1.1676902153266e-07,1.1354447738996e-08,-1.05414573793641e-07,-2.24654285669079e-08,-1.14022137548092e-07,-1.36487566115235e-07,-8.3703424344486e-08,-6.80307121996027e-08,-6.80307121996642e-08,,3.30429653509131e-07,-4.59606974738651e-08,0,1,0,5.0175999999999,102,954.569117647059,546.098529411765,1710.63235294118,946.845098039216,962.293137254902,562.845098039216,529.351960784314,1885.67647058824,1535.58823529412,0
1873.2032,-1.78147242121953e-07,1.34557492619794e-07,-4.358974950229e-08,3.3180063559042e-07,5.06811173202694e-08,5.06811173200142e-08,-5.58221835188463e-08,,-9.75581197739332e-08,-6.65041760120784e-08,3.32682936647132e-08,-6.65041760119738e-08,-5.02787695366669e-07,2.16176376422165e-07,-2.8661131894459e-07,-9.40145196625212e-08,,-9.57585072320934e-08,,5.05183315426151e-08,-1.78434446273631e-07,-3.8238991048653e-08,-2.00788344926103e-07,-2.39027335974462e-07,1.13234164123726e-07,-2.43021412677562e-08,-2.4302141267659e-08,-3.69734309730096e-07,3.69734309729917e-07,1.61229978423113e-07,-8.59537528130235e-08,-8.65946249981823e-09,,-1.56504607328641e-07,2.50989884996166e-08,-1.31405618829003e-07,1.80740429895641e-07,-2.47350281207135e-08,-2.47350281206353e-08,-1.13857610469943e-07,1.14814774452427e-08,-1.02376133024675e-07,-2.1455660522368e-08,-1.19759089335501e-07,-1.41214749858096e-07,-7.71377642978897e-08,-7.97435866243565e-08,-7.9743586624411e-08,,3.30903515878978e-07,-3.90198897032887e-08,0,1,0,5.11999999999989,103,955.800485436893,552.588349514563,1691.2427184466,946.238834951456,965.36213592233,575.226213592233,529.950485436893,1865.59223300971,1516.8932038835,0
1873.3056,-1.75434649352337e-07,1.30549794523289e-07,-4.48848548291767e-08,3.48226628118999e-07,5.07245283896561e-08,5.07245283893989e-08,-5.00806184541888e-08,,-8.87152988145607e-08,-5.93520788376174e-08,3.44260119179246e-08,-5.93520788375173e-08,-5.09853957110013e-07,2.28723953591258e-07,-2.8113000351884e-07,-9.79150679232173e-08,,-9.44417920497911e-08,,4.11967751679511e-08,-1.7457661347504e-07,-5.74002013436683e-08,-2.07938701189384e-07,-2.65338902532759e-07,1.09515541997339e-07,-2.64573095124256e-08,-2.64573095123319e-08,-3.76196595235018e-07,3.76196595234844e-07,1.56268838913082e-07,-8.86560737767002e-08,-1.01436007558891e-09,,-1.47293704139355e-07,2.15177572830341e-08,-1.25775946856302e-07,1.84515581234756e-07,-3.53760649789192e-08,-3.5376064978844e-08,-1.10609875378094e-07,1.15134388715359e-08,-9.90964365065317e-08,-1.95432733419402e-08,-1.24561376624765e-07,-1.44104649966922e-07,-6.88685651934748e-08,-9.42075048018528e-08,-9.42075048019002e-08,,3.33091606181741e-07,-2.93705086808024e-08,0,0,0,5.22239999999988,102,955.426960784314,546.307843137255,1669.29411764706,946.014705882353,964.839215686275,575.000980392157,517.614705882353,1842.04901960784,1496.53921568627,0
1873.408,-1.72331462277899e-07,1.26911245626706e-07,-4.542021665132e-08,3.64007729100051e-07,4.92362798081287e-08,4.923627980787e-08,-4.46076255684205e-08,,-8.14907316743052e-08,-5.18810981474548e-08,3.56531668552649e-08,-5.18810981473592e-08,-5.11975396269185e-07,2.36966364770072e-07,-2.75009031499196e-07,-1.02321672347781e-07,,-9.33378628489312e-08,,3.11646614905649e-08,-1.71744688689547e-07,-7.54768124912031e-08,-2.13373453785417e-07,-2.8885026627633e-07,1.0628193639718e-07,-2.83730402198837e-08,-2.83730402197935e-08,-3.78848198939378e-07,3.7884819893921e-07,1.52485943104794e-07,-8.95419742904158e-08,6.67098414888439e-09,,-1.3735499279695e-07,1.82321887323734e-08,-1.19122804064562e-07,1.87876132827885e-07,-4.54155854604849e-08,-4.54155854604135e-08,-1.07156999962857e-07,1.15808236184676e-08,-9.55761763443613e-08,-1.7072673274379e-08,-1.27816647210456e-07,-1.44889320485043e-07,-5.88789473573693e-08,-1.10399344308534e-07,-1.10399344308575e-07,,3.37590443782249e-07,-1.75765387702495e-08,0,0,0,5.32479999999987,103,954.008737864078,542.959223300971,1650.73300970874,946.241747572816,961.77572815534,574.165048543689,511.753398058252,1820.60194174757,1480.8640776699,0
1873.5104,-1.6903189210165e-07,1.23793479212315e-07,-4.52384128894605e-08,3.78144901434236e-07,4.61498562843456e-08,4.61498562840858e-08,-3.99915006616989e-08,,-7.67674799964935e-08,-4.4298210264231e-08,3.70648032748133e-08,-4.429821026414e-08,-5.10037664631955e-07,2.4099617220634e-07,-2.69041492425695e-07,-1.07138004189337e-07,,-9.24772460964895e-08,,2.08943095489612e-08,-1.70003499014934e-07,-9.17737625412263e-08,-2.17259168161276e-07,-3.09032930702215e-07,1.03823671238071e-07,-2.99836992967532e-08,-2.99836992966666e-08,-3.77796644640827e-07,3.77796644640662e-07,1.50196255837594e-07,-8.91202716816412e-08,1.42174510524178e-08,,-1.27575338447381e-07,1.5624296128811e-08,-1.11951042318559e-07,1.906850937781e-07,-5.4604072329741e-08,-5.46040723296737e-08,-1.03638057314204e-07,1.1825742274745e-08,-9.18123150394288e-08,-1.45055649463507e-08,-1.29075322651354e-07,-1.43580887597902e-07,-4.73929304683966e-08,-1.27018170327434e-07,-1.27018170327469e-07,,3.44329421394144e-07,-4.48371384759344e-09,0,0,0,5.42719999999986,102,952.196078431373,539.658823529412,1639.46568627451,946.393137254902,957.999019607843,572.43137254902,506.886274509804,1807.29411764706,1471.63725490196,0
1873.6128,-1.65746721497029e-07,1.21282403950232e-07,-4.44643175469217e-08,3.89840850341843e-07,4.16815574851376e-08,4.16815574848772e-08,-3.68780800331497e-08,,-7.53896709498443e-08,-3.6794222402828e-08,3.87597750055251e-08,-3.67942224027413e-08,-5.0510157845408e-07,2.41114521772849e-07,-2.63987056681308e-07,-1.12203034954278e-07,,-9.18543553440053e-08,,1.08101137576824e-08,-1.69247590439091e-07,-1.05929940382676e-07,-2.19789179784996e-07,-3.25719120167389e-07,1.02301482617534e-07,-3.12200028635157e-08,-3.12200028634324e-08,-3.73402825864906e-07,3.73402825864745e-07,1.49627368775591e-07,-8.80649262375119e-08,2.13760011295601e-08,,-1.18869476453786e-07,1.4011217164814e-08,-1.04858259288964e-07,1.92860181123051e-07,-6.280580222245e-08,-6.28058022223874e-08,-1.00176478432907e-07,1.23832715869706e-08,-8.77932068459049e-08,-1.23786301081783e-08,-1.28062867043383e-07,-1.40441497151749e-07,-3.48354380265735e-08,-1.42664560083916e-07,-1.42664560083947e-07,,3.52689925425482e-07,8.89079590590838e-09,0,0,0,5.52960000000007,103,950.82427184466,536.18640776699,1637.57766990291,945.498058252427,956.150485436893,568.043689320388,504.329126213592,1804.25242718447,1470.90291262136,0
1873.7152,-1.62679157274664e-07,1.19400068822494e-07,-4.32790884522921e-08,3.98464946891399e-07,3.62306896218246e-08,3.62306896215642e-08,-3.59170145768888e-08,,-7.81020762255754e-08,-2.95296085547997e-08,4.08015684787047e-08,-2.9529608554717e-08,-4.98261215375191e-07,2.3776026175792e-07,-2.60500953617346e-07,-1.17328006637917e-07,,-9.14460902255606e-08,,1.25700661344397e-09,-1.69234915472176e-07,-1.17902641910968e-07,-2.21126113740563e-07,-3.39028755651252e-07,1.0176486730715e-07,-3.20076681934872e-08,-3.20076681934065e-08,-3.66184623725665e-07,3.66184623725508e-07,1.50896954547812e-07,-8.71097257454795e-08,2.78592276270306e-08,,-1.1206672257991e-07,1.36282636451873e-08,-9.84384589347179e-08,1.94387401803173e-07,-6.99912934981222e-08,-6.99912934980645e-08,-9.68560609632486e-08,1.33601947806388e-08,-8.34958661825769e-08,-1.12582044909055e-08,-1.24636650719641e-07,-1.35894855210727e-07,-2.170527928763e-08,-1.55994944218137e-07,-1.55994944218164e-07,,3.6177755297509e-07,2.15131959797928e-08,0,0,0,5.63200000000006,102,951.871078431373,537.055392156863,1629.76960784314,944.870588235294,958.871568627451,569.895098039216,504.21568627451,1798.85294117647,1460.6862745098,0
1873.8176,-1.60010508050938e-07,1.18118625202982e-07,-4.18918828480772e-08,4.03528472314891e-07,3.02604030993828e-08,3.02604030991231e-08,-3.76817419043938e-08,,-8.5483435705426e-08,-2.2622315057565e-08,4.32045075900522e-08,-2.26223150574856e-08,-4.90512354411974e-07,2.31445521617745e-07,-2.59066832794302e-07,-1.22329323001156e-07,,-9.12302121417652e-08,,-7.50682195993397e-09,-1.69640843043915e-07,-1.27933127499233e-07,-2.2135224614478e-07,-3.49285373643738e-07,1.02177213384214e-07,-3.22727240241749e-08,-3.22727240240964e-08,-3.56727087200902e-07,3.56727087200748e-07,1.53995695808586e-07,-8.69529408286289e-08,3.3398041530635e-08,,-1.07807882513125e-07,1.46228521845037e-08,-9.31850303286194e-08,1.95332942509806e-07,-7.6220263188169e-08,-7.62202631881161e-08,-9.37032832249772e-08,1.48185553411368e-08,-7.8884727883806e-08,-1.16939766534422e-08,-1.18733753570115e-07,-1.30427730223732e-07,-8.44147996901599e-09,-1.65854164743789e-07,-1.65854164743812e-07,,3.70676068114768e-07,3.24976501786642e-08,0,0,0,5.73440000000005,102,963.71862745098,531.31568627451,1624.60784313725,956.613725490196,970.823529411765,562.856862745098,499.774509803922,1795.23529411765,1453.98039215686,0
1873.92,-1.57892159877119e-07,1.1737686594104e-07,-4.05152939361986e-08,4.04650392213001e-07,2.42136589246251e-08,2.42136589243664e-08,-4.25653757156225e-08,,-9.78620280240778e-08,-1.61340409425932e-08,4.5923174642305e-08,-1.61340409425165e-08,-4.82629693573248e-07,2.22711956345448e-07,-2.59917737227872e-07,-1.2705501990877e-07,,-9.11985861883484e-08,,-1.53149051000053e-08,-1.70118684297176e-07,-1.36489678147571e-07,-2.20443753831759e-07,-3.56933431979059e-07,1.03432196809794e-07,-3.19549830528658e-08,-3.19549830527887e-08,-3.4561513975127e-07,3.45615139751116e-07,1.58790281707819e-07,-8.81801578057523e-08,3.78003122375931e-08,,-1.06474322354981e-07,1.70571130437827e-08,-8.94172093111982e-08,1.95828069048346e-07,-8.16125207813607e-08,-8.16125207813119e-08,-9.06846280658392e-08,1.67691037044219e-08,-7.39155243613817e-08,-1.41786326868865e-08,-1.1033534969298e-07,-1.24513982380038e-07,4.68148535333496e-09,-1.71380201440421e-07,-1.71380201440441e-07,,3.78599337726437e-07,4.1237434144215e-08,0,0,0,5.83680000000004,103,963.288349514563,535.781067961165,1630.3786407767,955.872815533981,970.703883495146,562.97572815534,508.58640776699,1804.26213592233,1456.49514563107,0
1874.0224,-1.56438659584578e-07,1.17089870454489e-07,-3.93487891302081e-08,4.01509734383281e-07,1.84660932649025e-08,1.8466093264645e-08,-5.06942893321242e-08,,-1.15244551154426e-07,-1.00630610390285e-08,4.88458696834708e-08,-1.00630610389538e-08,-4.75082998022228e-07,2.12111404490584e-07,-2.62971593531714e-07,-1.31408034319538e-07,,-9.13653794750888e-08,,-2.21082746378997e-08,-1.70357185564772e-07,-1.44174642088213e-07,-2.18279060616822e-07,-3.62453702704766e-07,1.05360926257255e-07,-3.10272243492341e-08,-3.10272243491577e-08,-3.3340131071487e-07,3.33401310714718e-07,1.65043744449419e-07,-9.1207595710641e-08,4.0997610177421e-08,,-1.08157734422134e-07,2.0916211501509e-08,-8.72415229206267e-08,1.96031318311496e-07,-8.63126058188909e-08,-8.63126058188461e-08,-8.77208831287592e-08,1.91746395939489e-08,-6.85462435347737e-08,-1.91130600160695e-08,-9.94486566977035e-08,-1.18561716713942e-07,1.76288155051556e-08,-1.72061661038533e-07,-1.7206166103855e-07,,3.84970368081683e-07,4.74658194229107e-08,0,0,0,5.93920000000003,102,965.214705882353,532.725980392157,1647.63725490196,958.25,972.179411764706,557.06568627451,508.386274509804,1820.33333333333,1474.94117647059,0
1874.1248,-1.55721960885286e-07,1.17151588820093e-07,-3.85703720653103e-08,3.93818516873405e-07,1.32913259566664e-08,1.32913259564103e-08,-6.18976423703316e-08,,-1.37292402489017e-07,-4.35472286600252e-09,5.17952943609592e-08,-4.35472286592932e-09,-4.68032843946553e-07,2.00210438397241e-07,-2.67822405549382e-07,-1.35367949461584e-07,,-9.17742851708043e-08,,-2.79541391344159e-08,-1.70131053147526e-07,-1.51600138102484e-07,-2.14676773671779e-07,-3.66276911773996e-07,1.07743699804872e-07,-2.95151121748163e-08,-2.95151121747399e-08,-3.20610638238194e-07,3.20610638238042e-07,1.72439501837164e-07,-9.62479170779683e-08,4.30731244941465e-08,,-1.12666242615867e-07,2.6118637084553e-08,-8.6547605531317e-08,1.96100863281945e-07,-9.04592181348871e-08,-9.04592181348459e-08,-8.47076571161619e-08,2.19584752045472e-08,-6.27491819115772e-08,-2.67656835334687e-08,-8.61035165213943e-08,-1.12869200055031e-07,3.06375015940881e-08,-1.67730830188551e-07,-1.67730830188566e-07,,3.89479313447997e-07,5.12354920899543e-08,0,0,0,6.04160000000002,103,966.515048543689,532.611165048544,1677.06310679612,962.281553398058,970.74854368932,555.592233009709,509.630097087379,1848.32038834951,1505.80582524272,0
1874.2272,-1.55766805159287e-07,1.17436125551997e-07,-3.83306796074063e-08,3.8134372999466e-07,8.8266966581547e-09,8.82669665790006e-09,-7.57256620861081e-08,,-1.63342559822792e-07,1.06878996329598e-09,5.45388997861543e-08,1.06878996336831e-09,-4.61411880629434e-07,1.87607934535412e-07,-2.73803946094091e-07,-1.39009201681869e-07,,-9.25095753748571e-08,,-3.30482794544943e-08,-1.69342038990388e-07,-1.59254081786369e-07,-2.09446997463374e-07,-3.68701079249476e-07,1.10341392539039e-07,-2.75121981351997e-08,-2.75121981351224e-08,-3.07769473425266e-07,3.07769473425114e-07,1.80604153359923e-07,-1.03295116443422e-07,4.42623923691869e-08,,-1.19556645127502e-07,3.25266299674193e-08,-8.70300151600864e-08,1.96205730822621e-07,-9.41619571086955e-08,-9.41619571086573e-08,-8.15283459099189e-08,2.50140555760076e-08,-5.65142903338728e-08,-3.72160723150586e-08,-7.03668923036339e-08,-1.07582964618861e-07,4.41799181359349e-08,-1.5849822895473e-07,-1.58498228954744e-07,,3.92123901584671e-07,5.28352104401099e-08,0,1,0,6.14400000000001,102,964.958823529412,536.564215686275,1705.39705882353,960.057843137255,969.859803921569,557.155882352941,515.972549019608,1876.42156862745,1534.37254901961,0
1874.3296,-1.56541740966374e-07,1.17800801869211e-07,-3.87409390972794e-08,3.63962398560618e-07,5.0513010018393e-09,5.05130100158587e-09,-9.14824355298294e-08,,-1.92443174832864e-07,6.27229007044624e-09,5.68096594768165e-08,6.27229007051814e-09,-4.55052887525176e-07,1.74948074960558e-07,-2.80104812564686e-07,-1.42505776326921e-07,,-9.37058992590114e-08,,-3.76892324690764e-08,-1.68041183437355e-07,-1.67380533001943e-07,-2.02440621896873e-07,-3.69821154898549e-07,1.12945959415535e-07,-2.51852673511664e-08,-2.51852673510877e-08,-2.95431980731023e-07,2.95431980730872e-07,1.89131898924243e-07,-1.12124809160396e-07,4.49206661670304e-08,,-1.28186645650694e-07,3.99573060222052e-08,-8.82293396284937e-08,1.9657191715471e-07,-9.74806869435362e-08,-9.74806869435004e-08,-7.80566799491755e-08,2.82154895890206e-08,-4.98411903601154e-08,-5.02939236822994e-08,-5.23747751049594e-08,-1.02668698787427e-07,5.8854237780459e-08,-1.44664250803556e-07,-1.44664250803569e-07,,3.93200198614045e-07,5.26769473475529e-08,0,1,0,6.24639999999999,102,965.187745098039,536.628431372549,1729.36274509804,958.932352941176,971.443137254902,556.056862745098,517.2,1903.66666666667,1555.05882352941,0
1874.432,-1.57941851873657e-07,1.18090052257082e-07,-3.98517996166905e-08,3.41715022776741e-07,1.79617412636987e-09,1.7961741261174e-09,-1.08260655973267e-07,,-2.23390642679083e-07,1.12830485886562e-08,5.83367149945215e-08,1.12830485887279e-08,-4.48814424142882e-07,1.6291850211429e-07,-2.85895922028659e-07,-1.46107027975373e-07,,-9.5539181779659e-08,,-4.22309493145802e-08,-1.66417473139549e-07,-1.75898848603364e-07,-1.93589772905517e-07,-3.69488621508613e-07,1.15430765706458e-07,-2.2766448842483e-08,-2.27664488424022e-08,-2.84181817397763e-07,2.84181817397612e-07,1.9760487301721e-07,-1.22316657417676e-07,4.54621879355211e-08,,-1.37786021747845e-07,4.81936915654523e-08,-8.95923301823984e-08,1.97530402294133e-07,-1.00410395509148e-07,-1.00410395509114e-07,-7.41583699522613e-08,3.1428984318078e-08,-4.27293856341426e-08,-6.55503863595858e-08,-3.23662416748453e-08,-9.7916628034599e-08,7.52295191843264e-08,-1.26653066143286e-07,-1.26653066143299e-07,,3.93224002714667e-07,5.11825585570625e-08,0,1,0,6.34879999999998,103,965.182524271845,534.458252427185,1748.73786407767,957.720388349515,972.644660194175,554.553398058253,514.363106796117,1923.98058252427,1573.49514563107,0
1874.5344,-1.59772382078501e-07,1.18140852869032e-07,-4.16315292095826e-08,3.14847753644399e-07,-1.21148208907449e-09,-1.21148208932664e-09,-1.24998132190944e-07,,-2.54788343904673e-07,1.60870966960072e-08,5.88832797936258e-08,1.60870966960792e-08,-4.42677268220786e-07,1.52237222270325e-07,-2.90440045950527e-07,-1.50080897092053e-07,,-9.81867450579629e-08,,-4.70316926113803e-08,-1.64748119413559e-07,-1.84389053008399e-07,-1.82937114490681e-07,-3.67326167498811e-07,1.17776192318408e-07,-2.05298152739561e-08,-2.05298152738729e-08,-2.74610814077073e-07,2.74610814076924e-07,2.05601008978437e-07,-1.33310124652098e-07,4.62902139230311e-08,,-1.47542558757572e-07,5.69933044904111e-08,-9.05492542671679e-08,1.99526175522157e-07,-1.02881687798652e-07,-1.02881687798621e-07,-6.97032982661494e-08,3.45246339503966e-08,-3.51786643157106e-08,-8.22975805230583e-08,-1.06969577364242e-08,-9.29945382596494e-08,9.36897727274848e-08,-1.04994146235286e-07,-1.04994146235299e-07,,3.92804391372184e-07,4.86892205813036e-08,0,0,0,6.45119999999997,102,963.766666666667,539.137254901961,1759.21568627451,954.089215686275,973.444117647059,559.720588235294,518.553921568628,1937.00980392157,1581.42156862745,0
1874.6368,-1.6175427312376e-07,1.177956713603e-07,-4.39586017635724e-08,2.83851303870053e-07,-4.29614542204597e-09,-4.29614542229827e-09,-1.40579962743579e-07,,-2.85151487197448e-07,2.0640783429414e-08,5.82848897072372e-08,2.06407834294864e-08,-4.36809129049381e-07,1.43640929062019e-07,-2.93168199987424e-07,-1.54643342862749e-07,,-1.01769249324622e-07,,-5.24091597193246e-08,-1.63325078856336e-07,-1.92159419879588e-07,-1.70650402749557e-07,-3.62809822628875e-07,1.20058070059166e-07,-1.87538958077267e-08,-1.87538958076406e-08,-2.6729572159736e-07,2.67295721597212e-07,2.12696422893026e-07,-1.44494205908705e-07,4.77423081091069e-08,,-1.56689476827101e-07,6.60934135041051e-08,-9.05960633230048e-08,2.03062803260583e-07,-1.0478101644199e-07,-1.04781016441961e-07,-6.45902268652187e-08,3.73892794530845e-08,-2.72009474120903e-08,-9.97167335216435e-08,1.21775596242237e-08,-8.75391738975845e-08,1.14313301353365e-07,-8.03427219326004e-08,-8.03427219326132e-08,,3.92519165768509e-07,4.53875497819344e-08,0,0,0,6.55359999999996,102,962.03431372549,539.356862745098,1768.35784313725,951.530392156863,972.538235294118,557.8,520.913725490196,1947.21568627451,1589.5,0
1874.7392,-1.6356299828276e-07,1.16927583982851e-07,-4.66354143000202e-08,2.49479760057502e-07,-7.80273449079796e-09,-7.80273449105132e-09,-1.53979795878597e-07,,-3.13047104900071e-07,2.48842666477662e-08,5.64771606929657e-08,2.48842666478392e-08,-4.31594705653195e-07,1.37876949159327e-07,-2.93717756493926e-07,-1.59901923497457e-07,,-1.06303634673792e-07,,-5.86001752057991e-08,-1.62382585939249e-07,-1.98379983251197e-07,-1.5702220725052e-07,-3.55402190501445e-07,1.22407044742975e-07,-1.76787894168056e-08,-1.76787894167161e-08,-2.62775448869038e-07,2.62775448868893e-07,2.18477728383245e-07,-1.55312857483392e-07,5.00641348783161e-08,,-1.64574612032784e-07,7.52129295127494e-08,-8.93616825200467e-08,2.08596846254337e-07,-1.05984534136132e-07,-1.05984534136106e-07,-5.87727515844701e-08,3.99395327698323e-08,-1.88332188145916e-08,-1.16992078016093e-07,3.57321574992388e-08,-8.12599205170157e-08,1.36799378652063e-07,-5.35106117376261e-08,-5.35106117376385e-08,,3.92826532189564e-07,4.13023679097495e-08,0,0,0,6.65599999999995,103,964.164563106796,539.142718446602,1773.2427184466,955.125242718447,973.203883495146,556.756310679612,521.529126213592,1957.20388349515,1589.28155339806,0
1874.8416,-1.64883151114955e-07,1.15469240131386e-07,-4.94139109836794e-08,2.12706485020691e-07,-1.2082504177715e-08,-1.20825041779702e-08,-1.64392146048594e-07,,-3.37223383789227e-07,2.87506125727875e-08,5.35048888045677e-08,2.87506125728609e-08,-4.27608713909455e-07,1.35673395927613e-07,-2.91935317981895e-07,-1.65827868134633e-07,,-1.11686346899111e-07,,-6.57266730937395e-08,-1.62043621077209e-07,-2.02229942764011e-07,-1.42462755069808e-07,-3.44692697833544e-07,1.24960427818547e-07,-1.74714921623601e-08,-1.74714921622671e-08,-2.61497912262038e-07,2.61497912261898e-07,2.2256826929767e-07,-1.6535024477585e-07,5.34016331776108e-08,,-1.70696547055764e-07,8.40517529382371e-08,-8.66447941175418e-08,2.16438905719324e-07,-1.06394580958411e-07,-1.06394580958387e-07,-5.22684539798192e-08,4.2130270915109e-08,-1.01381830646612e-08,-1.33410324797783e-07,5.93874785728663e-08,-7.4022846225074e-08,1.60443597675048e-07,-2.54856301409156e-08,-2.54856301409275e-08,,3.9400421536581e-07,3.63200918861995e-08,0,0,0,6.75839999999994,102,965.297058823529,536.523039215686,1769.91176470588,957.608823529412,972.985294117647,551.755882352941,521.290196078431,1958.90196078431,1580.92156862745,0
1874.944,-1.65446466585488e-07,1.13427940671813e-07,-5.20185259137827e-08,1.74593957377711e-07,-1.74609488192867e-08,-1.74609488195446e-08,-1.71302239814899e-07,,-3.56696771431454e-07,3.21766934130791e-08,4.95133706541746e-08,3.21766934131526e-08,-4.25506889474057e-07,1.37653136110485e-07,-2.87853753363619e-07,-1.72252453890708e-07,,-1.17703537239155e-07,,-7.37808621442973e-08,-1.6228918013659e-07,-2.029870727496e-07,-1.27493502875803e-07,-3.30480575625125e-07,1.2782586707153e-07,-1.82079916253785e-08,-1.82079916252816e-08,-2.63712217743426e-07,2.63712217743291e-07,2.24660732627797e-07,-1.74361306611926e-07,5.77908943546299e-08,,-1.74711559073313e-07,9.22949470911011e-08,-8.24166119822317e-08,2.26718575765692e-07,-1.05967304281251e-07,-1.05967304281228e-07,-4.5140011438111e-08,4.39554403756887e-08,-1.18457106237029e-09,-1.48391430422513e-07,8.25064518298029e-08,-6.58849785928616e-08,1.84178697037766e-07,2.57057000194082e-09,2.57057000192965e-09,,3.9608075593864e-07,3.0258139035551e-08,0,0,0,6.86079999999993,103,963.005339805825,541.889805825243,1756.65048543689,956.671844660194,969.338834951456,555.85145631068,527.928155339806,1949.84466019417,1563.45631067961,0
1875.0464,-1.65039065834434e-07,1.10879095867264e-07,-5.41599699672754e-08,1.36099851596568e-07,-2.41603222079154e-08,-2.41603222081768e-08,-1.74479472986571e-07,,-3.7080616722521e-07,3.51227570817163e-08,4.4728739176237e-08,3.512275708179e-08,-4.25839769036736e-07,1.44186523785771e-07,-2.81653245251004e-07,-1.78878461230703e-07,,-1.240538829486e-07,,-8.26405504246466e-08,-1.62947193964328e-07,-2.00019807775566e-07,-1.12739167750073e-07,-3.12758975525359e-07,1.31063937203683e-07,-1.9869223569028e-08,-1.98692235689269e-08,-2.69325476575062e-07,2.69325476574932e-07,2.24547774677263e-07,-1.82243544426389e-07,6.31403070710641e-08,,-1.7643227569647e-07,9.96342646320217e-08,-7.67980110644725e-08,2.39421834744965e-07,-1.04722820558704e-07,-1.04722820558682e-07,-3.74530287579083e-08,4.54429114255432e-08,7.98988266769028e-09,-1.61462139590004e-07,1.04397038444661e-07,-5.70651011454887e-08,2.06698076744479e-07,2.93542654399742e-08,2.93542654399642e-08,,3.98738524513852e-07,2.29611752491893e-08,0,0,0,6.96319999999992,102,966.919117647059,541.511764705882,1749.17647058824,963.335294117647,970.502941176471,553.404901960784,529.61862745098,1948.78431372549,1549.56862745098,0
1875.1488,-1.63490064491975e-07,1.07947419423663e-07,-5.55426450684146e-08,9.78760652770159e-08,-3.21897691720724e-08,-3.21897691723381e-08,-1.73920764365106e-07,,-3.7925181695181e-07,3.75971670789626e-08,3.94321227552418e-08,3.75971670790364e-08,-4.28831161921687e-07,1.5521854061671e-07,-2.7361262130501e-07,-1.8530120856607e-07,,-1.30371769710886e-07,,-9.21064272512057e-08,-1.63700338174084e-07,-1.92734617017426e-07,-9.89069985511794e-08,-2.9164161556832e-07,1.34682978303238e-07,-2.23418581004755e-08,-2.23418581003703e-08,-2.7777868527626e-07,2.77778685276138e-07,2.22142315668349e-07,-1.88980054709997e-07,6.92192254083688e-08,,-1.75834346734453e-07,1.0581001044831e-07,-7.00243362861724e-08,2.54457820723065e-07,-1.02737495091234e-07,-1.02737495091213e-07,-2.92274950214999e-08,4.66450458532105e-08,1.74175508317699e-08,-1.72207115112898e-07,1.24338617811811e-07,-4.78684973012266e-08,2.26639729528243e-07,5.3481558331374e-08,5.3481558331366e-08,,4.01211410676723e-07,1.44029507103739e-08,0,0,0,7.0655999999999,102,965.983333333333,542.09362745098,1743.55392156863,964.444117647059,967.522549019608,552.205882352941,531.98137254902,1944.06862745098,1543.03921568627,0
1875.2512,-1.60660967497965e-07,1.04788378201037e-07,-5.58725892970284e-08,6.01323035339484e-08,-4.12523139159916e-08,-4.1252313916262e-08,-1.69783890477537e-07,,-3.82119806761079e-07,3.96772323642439e-08,3.39295732375807e-08,3.96772323643177e-08,-4.34188188666717e-07,1.70132845557401e-07,-2.64055343109341e-07,-1.91035597715917e-07,,-1.36243358436051e-07,,-1.01936357760511e-07,-1.64114790365121e-07,-1.80579718324655e-07,-8.67434644664926e-08,-2.67323182790858e-07,1.38632364096923e-07,-2.54191160108903e-08,-2.5419116010781e-08,-2.88001616750949e-07,2.88001616750836e-07,2.17482841131927e-07,-1.94589361242015e-07,7.5667903246165e-08,,-1.73066826337012e-07,1.10657784704539e-07,-6.24090416325064e-08,2.71695405769661e-07,-1.00128166610218e-07,-1.00128166610196e-07,-2.04030251133995e-08,4.76250239578057e-08,2.72219988444693e-08,-1.80224014186117e-07,1.41619602627207e-07,-3.86044115590421e-08,2.42771180647599e-07,7.35670303659756e-08,7.35670303659712e-08,,4.02243913826356e-07,4.77061461733097e-09,0,0,0,7.16799999999989,103,966.823786407767,546.480097087379,1748.56310679612,964.995145631068,968.652427184466,560.371844660194,532.588349514563,1944.61165048544,1552.5145631068,0
1875.3536,-1.56446972161556e-07,1.01574186391462e-07,-5.48727857701912e-08,2.2627734068419e-08,-5.07223404942594e-08,-5.07223404945344e-08,-1.62347541956e-07,,-3.79891600009635e-07,4.15194404970077e-08,2.85199772089812e-08,4.15194404970819e-08,-4.41018903654036e-07,1.8772288462056e-07,-2.53296019033493e-07,-1.95547948970056e-07,,-1.41215297977774e-07,,-1.11856237089883e-07,-1.63690564331823e-07,-1.6313614760277e-07,-7.69703635025684e-08,-2.40106511105044e-07,1.42787000442552e-07,-2.88059745275529e-08,-2.88059745274396e-08,-2.98484708664428e-07,2.98484708664322e-07,2.10730718858382e-07,-1.99099019301539e-07,8.20307001098046e-08,,-1.68447779656009e-07,1.14136421060772e-07,-5.43113585952742e-08,2.90929814606081e-07,-9.70431186387363e-08,-9.7043118638714e-08,-1.08360130597025e-08,4.84421198303876e-08,3.76061067707522e-08,-1.85092318014744e-07,1.55563065175835e-07,-2.95292528390339e-08,2.54114747632362e-07,8.83026994706539e-08,8.83026994706536e-08,,4.00194518547535e-07,-5.49409494105039e-09,0,0,0,7.27039999999988,102,966.878921568627,547.68431372549,1762.67156862745,964.53137254902,969.226470588235,562.183333333333,533.185294117647,1956.70588235294,1568.63725490196,0
1875.456,-1.50791877313326e-07,9.84831121901361e-08,-5.23087651232839e-08,-1.51849944305444e-08,-5.97168347526738e-08,-5.97168347529533e-08,-1.52018394877617e-07,,-3.73442013660965e-07,4.33538807499997e-08,2.34623577645641e-08,4.33538807500745e-08,-4.4790719093621e-07,2.06309054846513e-07,-2.41598136089707e-07,-1.98294906501578e-07,,-1.4480440621719e-07,,-1.21546957871371e-07,-1.61930295799036e-07,-1.40234323703726e-07,-7.0210631134206e-08,-2.10444954837633e-07,1.46930362834994e-07,-3.21385256818105e-08,-3.21385256816934e-08,-3.07462928682981e-07,3.07462928682883e-07,2.02167980456823e-07,-2.02541352697446e-07,8.78065116867282e-08,,-1.62429838050794e-07,1.16323652017528e-07,-4.6106186033308e-08,3.11784208846444e-07,-9.36698826256669e-08,-9.36698826256437e-08,-3.384321694825e-10,4.91413369046377e-08,4.88029047352261e-08,-1.86361871043204e-07,1.65533442795864e-07,-2.0828428247459e-08,2.59979409742746e-07,9.6530947456241e-08,9.65309474562457e-08,,3.93323210397031e-07,-1.57154463167869e-08,0,1,0,7.37279999999987,103,965.99854368932,545.283980582524,1769.41747572816,964.322330097087,967.674757281553,560.272815533981,530.295145631068,1962.3786407767,1576.45631067961,0
1875.5584,-1.43711340180364e-07,9.56898921457669e-08,-4.80214480346888e-08,-5.39031576404567e-08,-6.72384916303211e-08,-6.72384916306048e-08,-1.39372734315591e-07,,-3.64013192855235e-07,4.54585801151648e-08,1.89440354422823e-08,4.54585801152398e-08,-4.53129041103859e-07,2.239709083317e-07,-2.29158132772163e-07,-1.9877065009979e-07,,-1.46518468503399e-07,,-1.30625662964235e-07,-1.58416022498014e-07,-1.12023359583619e-07,-6.69115510746201e-08,-1.78934910657935e-07,1.50751608007809e-07,-3.50234413065914e-08,-3.50234413064705e-08,-3.13162376708932e-07,3.13162376708841e-07,1.92191153798496e-07,-2.04960465241269e-07,9.25097546232286e-08,,-1.55537226834676e-07,1.17385406746739e-07,-3.81518200879827e-08,3.33600800573773e-07,-9.0254720656399e-08,-9.02547206563758e-08,1.12502495015946e-08,4.9749905089949e-08,6.10001545916179e-08,-1.83571077719686e-07,1.7094246789531e-07,-1.26286098244889e-08,2.5991527639801e-07,9.73191459385379e-08,9.73191459385485e-08,,3.80198957923436e-07,-2.50641487872917e-08,0,1,0,7.47519999999986,102,966.681862745098,544.763235294118,1777.10294117647,964.547058823529,968.816666666667,562.982352941177,526.544117647059,1968.33333333333,1585.87254901961,0
1875.6608,-1.35313245890982e-07,9.3353428043255e-08,-4.19598178478163e-08,-9.39006443309643e-08,-7.23445115051233e-08,-7.234451150541e-08,-1.25190663775599e-07,,-3.5313720065925e-07,4.81157446983603e-08,1.5056737877856e-08,4.81157446984357e-08,-4.54940377816393e-07,2.38818455650485e-07,-2.16121922165906e-07,-1.96559674309561e-07,,-1.45893532773224e-07,,-1.38648629921572e-07,-1.52874113353019e-07,-7.89596024384052e-08,-6.72722164868542e-08,-1.46231818924949e-07,1.53868883746807e-07,-3.70925257847564e-08,-3.70925257846323e-08,-3.14048041879829e-07,3.14048041879745e-07,1.81291376572965e-07,-2.06418208647962e-07,9.57350652060569e-08,,-1.48291815882048e-07,1.17535786966876e-07,-3.07560289152222e-08,3.5539713147305e-07,-8.71112438230403e-08,-8.71112438230172e-08,2.39859394886333e-08,5.0280406864736e-08,7.42663463534465e-08,-1.76299242892555e-07,1.71283865819091e-07,-5.01537707357118e-09,2.53658413605327e-07,9.00508762156232e-08,9.00508762156401e-08,,3.60075322110018e-07,-3.26804968720501e-08,0,1,0,7.57760000000008,103,965.780582524272,541.201941747573,1783.33009708738,965.758252427185,965.802912621359,552.083495145631,530.320388349515,1974.3786407767,1592.28155339806,0
1875.7632,-1.25804272697057e-07,9.15982635281571e-08,-3.42060091689881e-08,-1.35135172032634e-07,-7.43057941196122e-08,-7.43057941199007e-08,-1.10441940190335e-07,,-3.4249263636872e-07,5.1558333175969e-08,1.17927872019925e-08,5.15583331760448e-08,-4.51866382066546e-07,2.49246226748301e-07,-2.02620155318237e-07,-1.91390138380909e-07,,-1.42547076802244e-07,,-1.45157238634998e-07,-1.45208544683961e-07,-4.1726948886265e-08,-7.11905686160317e-08,-1.12917517501979e-07,1.55879968603634e-07,-3.80572502792942e-08,-3.80572502791667e-08,-3.09036191890033e-07,3.09036191889954e-07,1.70018342374696e-07,-2.06994245282963e-07,9.72180488876911e-08,,-1.41149378653392e-07,1.17000917292668e-07,-2.41484613607769e-08,3.75933613484567e-07,-8.45960684732749e-08,-8.45960684732526e-08,3.77676873524496e-08,5.07393299782132e-08,8.85070173307424e-08,-1.64245165710441e-07,1.66210629040765e-07,1.96546333021977e-09,2.41139219920011e-07,7.45379253609513e-08,7.45379253609741e-08,,3.3309877625014e-07,-3.78197943146233e-08,0,0,0,7.68000000000006,102,965.803921568627,541.770588235294,1784.28921568627,964.341176470588,967.266666666667,560.975490196079,522.56568627451,1970.23529411765,1598.3431372549,0
1875.8656,-1.15482376515392e-07,9.04932210242409e-08,-2.49891554912373e-08,-1.77073338896135e-07,-7.27313105747766e-08,-7.27313105750653e-08,-9.6210223296556e-08,,-3.33708834046581e-07,5.59163812093651e-08,9.06880180390339e-09,5.59163812094407e-08,-4.42942724156511e-07,2.54140457945096e-07,-1.88802266211402e-07,-1.83179428950108e-07,,-1.36237170792241e-07,,-1.49764884658738e-07,-1.35498079299862e-07,-1.1557042128165e-09,-7.82498118663991e-08,-7.94055160788899e-08,1.56428173608773e-07,-3.77452285754361e-08,-3.77452285753054e-08,-2.9765183620133e-07,2.97651836201255e-07,1.58932713609937e-07,-2.06787344354948e-07,9.6883527612503e-08,,-1.34463405665265e-07,1.1599131426854e-07,-1.847209139678e-08,3.93875918563628e-07,-8.30527249660795e-08,-8.30527249660584e-08,5.23231342870026e-08,5.11370343921514e-08,1.03460168679235e-07,-1.47317214983092e-07,1.55635083063635e-07,8.31786808044169e-09,2.22571608917435e-07,5.11290609615931e-08,5.11290609616213e-08,,3.00304524587896e-07,-3.99901814560589e-08,0,0,0,7.78240000000005,102,1058.09784864766,496.162253094924,1885.74191318908,963.315546218487,1152.88015107682,543.024048137774,449.300458052073,2000.46960265588,1771.01422372228,0.490196078431373
1875.968,-1.04724142002463e-07,9.00375689220546e-08,-1.46865730804938e-08,-2.187101451265e-07,-6.76221915618735e-08,-6.76221915621607e-08,-8.35736995505548e-08,,-3.28155847216672e-07,6.11757580705681e-08,6.77084820659549e-09,6.11757580706428e-08,-4.27859225583672e-07,2.53004037482324e-07,-1.74855188101331e-07,-1.72058468632077e-07,,-1.26906850252383e-07,,-1.52257323196964e-07,-1.23970097991103e-07,4.17907663625963e-08,-8.77518709431407e-08,-4.59611045802111e-08,1.55263546719306e-07,-3.61070066911234e-08,-3.61070066909898e-08,-2.80098208438987e-07,2.80098208438913e-07,1.48553664558901e-07,-2.05926100649703e-07,9.48702973526229e-08,,-1.2848520400873e-07,1.14683367836761e-07,-1.38018361720254e-08,4.07989658424837e-07,-8.27459295663091e-08,-8.27459295662894e-08,6.72280189898912e-08,5.14928129596824e-08,1.18720831949656e-07,-1.25714092227251e-07,1.39809246428229e-07,1.40951542008778e-08,1.98568514841322e-07,2.07652450187382e-08,2.07652450187714e-08,,2.6342384295936e-07,-3.90394695259163e-08,0,0,0,7.88480000000004,103,1239.58514017417,448.626458100173,1991.80169761858,966.610818307906,1512.55946204043,525.579097960651,371.673818239694,2079.23398571942,1904.36940951775,0.368932038834951
1876.0704,-9.39703735064237e-08,9.01622038865813e-08,-3.80816961992777e-09,-2.58650005204346e-07,-5.93351623195507e-08,-5.93351623198348e-08,-7.34779877867668e-08,,-3.26771073570687e-07,6.71693169125816e-08,4.80330599214488e-09,6.71693169126556e-08,-4.06965723313285e-07,2.45974699849499e-07,-1.60991023463766e-07,-1.5836242828564e-07,,-1.14693266921266e-07,,-1.5267134117829e-07,-1.10965662419317e-07,8.59819947388651e-08,-9.87869157415108e-08,-1.28049210023054e-08,1.52284584632066e-07,-3.31955391814699e-08,-3.31955391813338e-08,-2.57209129543329e-07,2.57209129543255e-07,1.39306045916251e-07,-2.04583368351302e-07,9.15230198880879e-08,,-1.23388638151391e-07,1.13208593003088e-07,-1.01800451483614e-08,4.17307714506207e-07,-8.38068764472087e-08,-8.38068764471911e-08,8.19541580984681e-08,5.18315570648972e-08,1.33785715163448e-07,-9.9967468142835e-08,1.19351887370634e-07,1.93844192276979e-08,1.70199345844471e-07,-1.50664002768782e-08,-1.50664002768405e-08,,2.24562991319891e-07,-3.51572787946886e-08,0,0,0,7.98720000000003,102,974.053921568627,526.307352941177,1884.58333333333,965.949019607843,982.158823529412,544.022549019608,508.592156862745,2062.67647058824,1706.49019607843,0
1876.1728,-8.37002130305028e-08,9.07422308360505e-08,7.04201780546226e-09,-2.95238143696495e-07,-4.84871094422084e-08,-4.84871094424877e-08,-6.66345761652466e-08,,-3.29967002859106e-07,7.3614785006878e-08,3.12401830254718e-09,7.36147850069512e-08,-3.81150867777839e-07,2.33754966345854e-07,-1.47395901431963e-07,-1.42586963524853e-07,,-9.98980819092038e-08,,-1.51323801188218e-07,-9.6901405685622e-08,1.30128329506705e-07,-1.10321191262097e-07,1.98071382449537e-08,1.47558950385289e-07,-2.91328701414093e-08,-2.9132870141271e-08,-2.30296219031811e-07,2.30296219031734e-07,1.31468740615545e-07,-2.02978091337295e-07,8.73520029092325e-08,,-1.1928737476295e-07,1.11647033702552e-07,-7.64034106045608e-09,4.21239728554453e-07,-8.61978884785259e-08,-8.61978884785105e-08,9.59400302927092e-08,5.21731763169043e-08,1.48113206609696e-07,-7.09237749612435e-08,9.52185503209015e-08,2.42947753595549e-08,1.38937621959325e-07,-5.448610548295e-08,-5.44861054829082e-08,,1.85847773517242e-07,-2.87921065092472e-08,0,0,0,8.08960000000002,103,968.218932038835,565.042718446602,1788.44174757282,961.430097087379,975.007766990291,578.761165048544,551.32427184466,1978.60194174757,1598.28155339806,0
1876.2752,-7.43833507306287e-08,9.16105888172072e-08,1.72272380864928e-08,-3.26741764885275e-07,-3.58562003120691e-08,-3.58562003123425e-08,-6.34608821608796e-08,,-3.37640060584406e-07,8.01871750012699e-08,1.75836962417095e-09,8.01871750013418e-08,-3.51658901772067e-07,2.17491582882489e-07,-1.34167318889555e-07,-1.25323859895362e-07,,-8.29364943867706e-08,,-1.4877512709391e-07,-8.22314564508076e-08,1.72871020116416e-07,-1.21291857974015e-07,5.15791621427504e-08,1.41328166374425e-07,-2.40789817528233e-08,-2.40789817526831e-08,-2.00934881241951e-07,2.0093488124187e-07,1.2513050325357e-07,-2.01354684098122e-07,8.2970946531821e-08,,-1.16221204207165e-07,1.10023408044099e-07,-6.1977961631251e-09,4.19616325696663e-07,-8.96985630456287e-08,-8.96985630456155e-08,1.08666643095906e-07,5.25180612172924e-08,1.61184704313281e-07,-3.96699391263587e-08,6.86337717169361e-08,2.89638325904711e-08,1.06513815366894e-07,-9.54338136866842e-08,-9.54338136866394e-08,,1.49134912979892e-07,-2.05145221398876e-08,0,0,0,8.19200000000001,102,960.967647058824,545.538235294118,1775.75980392157,953.490196078431,968.445098039216,560.433333333333,530.643137254902,1969.01960784314,1582.5,0
1876.3776,-6.64172631528612e-08,9.2568753980576e-08,2.61514908276288e-08,-3.51570403067646e-07,-2.23013480764065e-08,-2.23013480766739e-08,-6.40613970727198e-08,,-3.49265283851122e-07,8.6588829823692e-08,7.92682136357258e-10,8.65888298237626e-08,-3.19914617216694e-07,1.98623126224699e-07,-1.21291490991972e-07,-1.07196908613359e-07,,-6.42902849133641e-08,,-1.45731747967443e-07,-6.74154777606613e-08,2.12915663652925e-07,-1.3070527378175e-07,8.22103898715271e-08,1.33996727213175e-07,-1.82094842200923e-08,-1.8209484219951e-08,-1.70737372370725e-07,1.7073737237064e-07,1.20170892099444e-07,-1.99945339253542e-07,7.90228445295233e-08,,-1.14126609294677e-07,1.08312358652333e-07,-5.81425064240251e-09,4.12682340822145e-07,-9.39164602338127e-08,-9.3916460233802e-08,1.19713354274344e-07,5.28341179096697e-08,1.72547472184095e-07,-7.43046629902597e-09,4.10035772323271e-08,3.35731109331915e-08,7.47312555885943e-08,-1.35870126735128e-07,-1.3587012673508e-07,,1.15844729461094e-07,-1.08776950213264e-08,0,0,0,8.2944,102,962.349019607843,545.461764705882,1778.19117647059,954.158823529412,970.539215686274,562.13431372549,528.789215686275,1971.64705882353,1584.73529411765,0
1876.48,-6.00734987857917e-08,9.34019683825223e-08,3.33284695966443e-08,-3.6850851476599e-07,-8.68206878298108e-09,-8.68206878324203e-09,-6.82395961058479e-08,,-3.64031199099169e-07,9.25848891387351e-08,3.48758657913167e-10,9.25848891388037e-08,-2.87387969702932e-07,1.78700336460158e-07,-1.08687633242752e-07,-8.88129834674976e-08,,-4.44796029000756e-08,,-1.42916560837613e-07,-5.28942036212084e-08,2.49159667432406e-07,-1.37735861183352e-07,1.11423806249408e-07,1.26100669943895e-07,-1.17016932797594e-08,-1.17016932796174e-08,-1.4115563372098e-07,1.4115563372089e-07,1.16285085906206e-07,-1.98930354049777e-07,7.61005442739031e-08,,-1.128318446907e-07,1.06461478244196e-07,-6.37036644656121e-09,4.01067348527482e-07,-9.83283105348124e-08,-9.83283105348046e-08,1.28780722853157e-07,5.30527531721431e-08,1.81833476025381e-07,2.45435035079448e-08,1.38076752229279e-08,3.835117873076e-08,4.52893852660907e-08,-1.73926870689297e-07,-1.73926870689247e-07,,8.6906362025885e-08,-3.27120386447091e-10,0,0,0,8.39679999999999,103,962.74854368932,545.831553398058,1782.18446601942,954.556310679612,970.940776699029,562.477669902913,529.185436893204,1975.54368932039,1588.82524271845,0
1876.5824,-5.54744893105797e-08,9.39066360860693e-08,3.84321467754032e-08,-3.76916022232547e-07,4.23521157797732e-09,4.23521157772219e-09,-7.55260151723875e-08,,-3.80962687455819e-07,9.80008270582733e-08,5.44599242360249e-10,9.80008270583392e-08,-2.55495217556731e-07,1.59198051610011e-07,-9.62971659466983e-08,-7.07309420594631e-08,,-2.40503105789901e-08,,-1.40944141518305e-07,-3.90665734772878e-08,2.80784268138157e-07,-1.41817202399868e-07,1.38967065738643e-07,1.18253191416199e-07,-4.72679789887948e-09,-4.72679789873734e-09,-1.13346249404709e-07,1.13346249404616e-07,1.13053081611067e-07,-1.98412204952064e-07,7.46705712325414e-08,,-1.12097699472496e-07,1.0443045966307e-07,-7.66723980948308e-09,3.85745091329041e-07,-1.02355941770576e-07,-1.02355941770571e-07,1.35686986622422e-07,5.30775564243043e-08,1.88764543046807e-07,5.5084627420169e-08,-1.15344144047843e-08,4.35502130152699e-08,1.96239029283994e-08,-2.08012574993021e-07,-2.08012574992967e-07,,6.27788978670327e-08,1.0817285411468e-08,0,0,0,8.49919999999997,102,963.475,547.674019607843,1785.3137254902,956.205882352941,970.744117647059,569.045098039216,526.302941176471,1977.88235294118,1592.74509803922,0
1876.6848,-5.26038138664685e-08,9.39252643834439e-08,4.13214505168895e-08,-3.76839790556605e-07,1.5861942220155e-08,1.58619422199052e-08,-8.52133483816642e-08,,-3.9900135573e-07,1.02704458188221e-07,1.45398610655139e-09,1.02704458188284e-07,-2.25524964065774e-07,1.41357226809896e-07,-8.41677372558567e-08,-5.34410982717511e-08,,-3.56297302178921e-09,,-1.40223789524635e-07,-2.62636089265029e-08,3.07290234638553e-07,-1.42711919826512e-07,1.64578314812392e-07,1.11072744710333e-07,2.5531605214994e-09,2.55316052164054e-09,-8.81137259547183e-08,8.81137259546213e-08,1.10031258303632e-07,-1.98413557167156e-07,7.50163079507141e-08,,-1.11688071501257e-07,1.02232283027949e-07,-9.45578847336512e-09,3.67965168236919e-07,-1.05469139135222e-07,-1.0546913913522e-07,1.40351769740532e-07,5.28029093339994e-08,1.93154679074611e-07,8.32023605655828e-08,-3.38058973876123e-08,4.93964631778547e-08,-1.23335314441265e-09,-2.36890509323967e-07,-2.36890509323909e-07,,4.35209223332152e-08,2.23199059707029e-08,1,0,0,8.60159999999996,102,965.464705882353,549.057352941177,1782.4362745098,957.272549019608,973.656862745098,568.043137254902,530.071568627451,1970.8431372549,1594.02941176471,0
1876.7872,-5.13353381383504e-08,9.33750021093624e-08,4.20396639709269e-08,-3.68995592336555e-07,2.58236549638841e-08,2.58236549636385e-08,-9.64057358816252e-08,,-4.17050874191875e-07,1.0660200654793e-07,3.08092595517601e-09,1.0660200654799e-07,-1.98569360770835e-07,1.26085254118814e-07,-7.24841066520006e-08,-3.73437592374136e-08,,1.64316454934666e-08,,-1.40899012297989e-07,-1.47188147940629e-08,3.28467657075294e-07,-1.40544494049803e-07,1.87923163025839e-07,1.05103697243807e-07,9.98578289183583e-09,9.9857828919756e-09,-6.592130944405e-08,6.59213094439501e-08,1.06836922929044e-07,-1.9889873772358e-07,7.72168627208392e-08,,-1.11437779236516e-07,9.99588390801337e-08,-1.14789401564405e-08,3.49138562063138e-07,-1.07293482090175e-07,-1.07293482090176e-07,1.4278045699754e-07,5.21361412689499e-08,1.94916598266569e-07,1.08139643093087e-07,-5.21083552679991e-08,5.60312878249732e-08,-1.67589878250748e-08,-2.59742095542982e-07,-2.5974209554292e-07,,2.88897600781064e-08,3.39593503217393e-08,1,0,0,8.70399999999995,103,964.434466019418,548.388349514563,1781.02912621359,955.058252427184,973.81067961165,567.320388349515,529.456310679612,1964.46601941748,1597.59223300971,0
1876.8896,-5.14615298423221e-08,9.22587861125863e-08,4.07972562701804e-08,-3.54631415019662e-07,3.39339217436224e-08,3.39339217433807e-08,-1.08096798496051e-07,,-4.34021361253284e-07,1.09665566721566e-07,5.35776382259871e-09,1.09665566721622e-07,-1.75429112282307e-07,1.13909325199264e-07,-6.15197870830221e-08,-2.27209901000112e-08,,3.54367698363672e-08,,-1.42829652913564e-07,-4.5382249778523e-09,3.4430891245631e-07,-1.35779905865897e-07,2.08529006590757e-07,1.00742272177152e-07,1.74313318064534e-08,1.74313318065911e-08,-4.69310192963698e-08,4.69310192962682e-08,1.0320510721131e-07,-1.99804517238649e-07,8.11649081091148e-08,,-1.1129027404061e-07,9.77785792763358e-08,-1.35116947643334e-08,3.30685097096782e-07,-1.07695359504719e-07,-1.07695359504723e-07,1.43062932676745e-07,5.101633308799e-08,1.94079265764814e-07,1.29396578048674e-07,-6.59262494828972e-08,6.34703285656654e-08,-2.69882820818564e-08,-2.7622772885902e-07,-2.76227728858954e-07,,1.84457374047373e-08,4.54641103396765e-08,1,0,0,8.80639999999994,102,963.894117647059,546.347058823529,1777.95588235294,954.033333333333,973.754901960784,566.98137254902,525.712745098039,1958.53921568627,1597.37254901961,0
1876.992,-5.27082720625628e-08,9.06566274564855e-08,3.79483553938403e-08,-3.35325548874043e-07,4.01320645453559e-08,4.01320645451169e-08,-1.19273425935899e-07,,-4.4889812475198e-07,1.11982037915344e-07,8.16403682134428e-09,1.11982037915397e-07,-1.56487950401811e-07,1.04965408208606e-07,-5.15225421931832e-08,-9.71161255505517e-09,,5.30599045948246e-08,,-1.45623659678492e-07,4.32092122072658e-09,3.54898625049238e-07,-1.29141874479131e-07,2.25756750570445e-07,9.81868782791433e-08,2.47718838452712e-08,2.47718838454069e-08,-3.1035592461048e-08,3.10355924609455e-08,9.90093429553585e-08,-2.01059748329451e-07,8.66130979360763e-08,,-1.11292874432586e-07,9.59059926301065e-08,-1.53868818025398e-08,3.13880774261102e-07,-1.06817686068451e-07,-1.0681768606846e-07,1.41391244432558e-07,4.94250507583787e-08,1.90816295191015e-07,1.4674025672312e-07,-7.51362503179883e-08,7.16040064050258e-08,-3.24968891812332e-08,-2.86539433422435e-07,-2.86539433422363e-07,,1.16410261197132e-08,5.64865098840283e-08,0,0,0,8.90879999999993,103,961.964563106796,542.203398058252,1772.64077669903,953.322330097087,970.606796116505,564.567961165049,519.838834951456,1953.07766990291,1592.20388349515,0
1877.0944,-5.47350891228188e-08,8.87000368723585e-08,3.39649477494589e-08,-3.12770545746946e-07,4.44210062502073e-08,4.44210062499701e-08,-1.29024689036402e-07,,-4.60835343616862e-07,1.13789336313642e-07,1.13561495435365e-08,1.13789336313692e-07,-1.41614789121382e-07,9.90258506147296e-08,-4.258893850663e-08,1.69079680856852e-09,,6.9041541743058e-08,,-1.48714974391949e-07,1.20493082879856e-08,3.6032890315366e-07,-1.21490929002718e-07,2.38837974151274e-07,9.74316784443457e-08,3.19245972035675e-08,3.19245972037009e-08,-1.787249704625e-08,1.78724970461472e-08,9.42458938525041e-08,-2.02585311963656e-07,9.32352869403963e-08,,-1.11557022188113e-07,9.45563689635987e-08,-1.70006532245753e-08,2.99750142518272e-07,-1.05051140818196e-07,-1.05051140818207e-07,1.38084123764423e-07,4.73881522199304e-08,1.85472275984433e-07,1.60211346966253e-07,-7.99687424732295e-08,8.0242604492923e-08,-3.43073436350637e-08,-2.91405327312479e-07,-2.91405327312402e-07,,7.89148746021115e-09,6.66293559948616e-08,0,0,0,9.01119999999992,102,961.705392156863,539.383823529412,1774.00490196078,954.107843137255,969.302941176471,558.747058823529,520.020588235294,1954.41176470588,1593.59803921569,0
1877.1968,-5.7131676455067e-08,8.65361392883109e-08,2.94044628331649e-08,-2.88567959246333e-07,4.68168716065141e-08,4.68168716062781e-08,-1.36641580603631e-07,,-4.69266610578651e-07,1.15468969829294e-07,1.47970864332889e-08,1.15468969829341e-07,-1.301748519144e-07,9.55823691864086e-08,-3.45924827279669e-08,1.16059828279308e-08,,8.32436839525263e-08,,-1.51463989185795e-07,1.89541511645147e-08,3.60663546074472e-07,-1.13697313083601e-07,2.46966232991197e-07,9.83035318073489e-08,3.88528358437143e-08,3.88528358438453e-08,-6.83881514435524e-09,6.83881514425237e-09,8.89918900561318e-08,-2.04286787647475e-07,1.00689452991607e-07,,-1.1220636001566e-07,9.3905108226857e-08,-1.83012517888657e-08,2.89022897102682e-07,-1.02950219884145e-07,-1.02950219884159e-07,1.33601272310181e-07,4.497111930024e-08,1.785723916105e-07,1.7012046022679e-07,-8.09347522083444e-08,8.91857080183519e-08,-3.37324857379581e-08,-2.91995969415166e-07,-2.91995969415084e-07,,6.62849083294687e-09,7.55083971709075e-08,0,0,0,9.11359999999991,102,963.828431372549,537.523039215686,1776.21568627451,958.383333333333,969.273529411765,552.84705882353,522.199019607843,1957.53921568627,1594.89215686275,0
1877.2992,-5.94284489860557e-08,8.42913483802873e-08,2.48628993941542e-08,-2.64047828796876e-07,4.73035485569553e-08,4.73035485567198e-08,-1.4169685094906e-07,,-4.7401114376344e-07,1.17494393382277e-07,1.83772663008695e-08,1.17494393382322e-07,-1.21170294346109e-07,9.39780368741146e-08,-2.71922574719685e-08,2.02098593553437e-08,,9.56054921177774e-08,,-1.53248350761833e-07,2.54014721008853e-08,3.55933373685572e-07,-1.06534022384957e-07,2.49399351300935e-07,1.0051850645028e-07,4.55673148444509e-08,4.55673148445797e-08,2.86130590283086e-09,-2.86130590293364e-09,8.33643258713699e-08,-2.06057458380685e-07,1.08667122176831e-07,,-1.13335216569952e-07,9.40672056191384e-08,-1.92680109508771e-08,2.82134716329791e-07,-1.01124011496867e-07,-1.01124011496883e-07,1.28537205872341e-07,4.22730558336854e-08,1.70810261706105e-07,1.77017034029862e-07,-7.87357928020051e-08,9.82812412277692e-08,-3.2189188400376e-08,-2.8972362471014e-07,-2.89723624710054e-07,,7.30577790662707e-09,8.28138249694537e-08,0,0,0,9.21599999999989,103,975.443981573212,526.407643154349,1798.63537745195,969.816950663761,981.071012482663,539.975411135328,512.83987517337,1980.90459679017,1616.36615811373,0.087378640776699
1877.4016,-6.1129531569488e-08,8.2043389529542e-08,2.09138579599783e-08,-2.40138875520439e-07,4.58051743692525e-08,4.58051743690176e-08,-1.44076411800223e-07,,-4.75317687656636e-07,1.20361247808056e-07,2.20212268534995e-08,1.203612478081e-07,-1.13436744366529e-07,9.35413225269342e-08,-1.98954218395661e-08,2.76775083002711e-08,,1.06096304245533e-07,,-1.53525233223433e-07,3.17470966383723e-08,3.46136366874904e-07,-1.00603064071558e-07,2.4553330280366e-07,1.03727170219867e-07,5.21103783212402e-08,5.21103783213672e-08,1.21242006433819e-08,-1.21242006434841e-08,7.75051974949872e-08,-2.07792047713162e-07,1.16914425537513e-07,,-1.14985438821726e-07,9.51009154437378e-08,-1.9884523378052e-08,2.79235392651964e-07,-1.00132045225899e-07,-1.00132045225917e-07,1.23588150795658e-07,3.94232638898675e-08,1.63011414685603e-07,1.81620290734973e-07,-7.41771098342623e-08,1.07443180900628e-07,-3.10253654799044e-08,-2.85999376675906e-07,-2.85999376675817e-07,,9.34033542941262e-09,8.83448661039254e-08,0,0,0,9.31839999999988,102,981.161630333952,480.608302411874,1943.47669294991,974.970663265306,987.352597402598,523.240306122449,437.976298701299,2061.27806122449,1825.67532467532,0.843137254901961
1877.504,-6.17593933808987e-08,7.98061341833969e-08,1.80467408024237e-08,-2.17327798837682e-07,4.22143188444158e-08,4.22143188441814e-08,-1.43933319380919e-07,,-4.73784104766851e-07,1.24524868390366e-07,2.56793877117706e-08,1.24524868390408e-07,-1.05792466069416e-07,9.36674912885796e-08,-1.21249747808061e-08,3.41523581313553e-08,,1.14697285274719e-07,,-1.51866790590617e-07,3.8275441012062e-08,3.31241784849248e-07,-9.63014906346067e-08,2.34940294214951e-07,1.07533238122191e-07,5.85230440657239e-08,5.85230440658493e-08,2.18342088825954e-08,-2.18342088826977e-08,7.15910088544901e-08,-2.09395884934762e-07,1.2521910452074e-07,,-1.17135229261108e-07,9.70242951050143e-08,-2.01109341561575e-08,2.80185011988981e-07,-1.00404905393503e-07,-1.00404905393521e-07,1.19485866680663e-07,3.6576394901385e-08,1.56062261582125e-07,1.84723502884597e-07,-6.81016562178089e-08,1.16621846666708e-07,-3.14006514100164e-08,-2.82050835362276e-07,-2.82050835362184e-07,,1.2000681530656e-08,9.20189675801256e-08,0,0,0,9.42079999999987,103,978.179695183457,495.114960282436,1952.91440234523,972.817441054092,983.541949312823,538.181761442441,452.048159122431,2090.22295423024,1815.60585046022,0
1877.6064,-6.09112269051571e-08,7.75295289933053e-08,1.66183020880748e-08,-1.95727426584478e-07,3.64901220279332e-08,3.64901220276994e-08,-1.41577894700388e-07,,-4.70165622057364e-07,1.30351468663793e-07,2.93090890462149e-08,1.30351468663834e-07,-9.71085269466526e-08,9.38365109101333e-08,-3.27201603648759e-09,3.97471906189208e-08,,1.21417220605109e-07,,-1.47982747702118e-07,4.51613638174415e-08,3.11223187977562e-07,-9.38237896998779e-08,2.17399398277989e-07,1.11495036602415e-07,6.48058575086505e-08,6.48058575087746e-08,3.27628826831615e-08,-3.27628826832647e-08,6.58444620903814e-08,-2.10780148239744e-07,1.3337439464912e-07,,-1.19693958183267e-07,9.98278649384902e-08,-1.98660932448402e-08,2.84550288942036e-07,-1.02200766861214e-07,-1.02200766861232e-07,1.16901262937868e-07,3.38974303213242e-08,1.50798693259268e-07,1.87097898681171e-07,-6.13464053678346e-08,1.25751493313259e-07,-3.42330615949258e-08,-2.78848316411608e-07,-2.78848316411514e-07,,1.42922006203017e-08,9.38695990680814e-08,0,0,0,9.52319999999986,102,968.712254901961,555.910294117647,1825.11764705882,964.816666666667,972.607843137255,579.448039215686,532.372549019608,2015.52941176471,1634.70588235294,0
1877.7088,-5.82920318552856e-08,7.51155723697881e-08,1.68235405144297e-08,-1.75225675174744e-07,2.87825507943726e-08,2.87825507941392e-08,-1.37361421831691e-07,,-4.65171825716179e-07,1.38077257221948e-07,3.28543320023479e-08,1.38077257221989e-07,-8.63557323694863e-08,9.36047299907051e-08,7.24899762125116e-09,4.45591569173199e-08,,1.26318847944335e-07,,-1.41744902315692e-07,5.24608184748007e-08,2.86152951197074e-07,-9.31894694403275e-08,1.92963481757047e-07,1.15133377870327e-07,7.08913321910964e-08,7.08913321912194e-08,4.54850829413813e-08,-4.5485082941486e-08,6.05353004569741e-08,-2.11848843451071e-07,1.41144791437604e-07,,-1.22506228399755e-07,1.03476433379777e-07,-1.90297950200389e-08,2.91627759220647e-07,-1.05598401646046e-07,-1.05598401646062e-07,1.16341740499642e-07,3.15359546357996e-08,1.47877695135515e-07,1.89417857446939e-07,-5.47051027476885e-08,1.34712754699173e-07,-4.01722287167929e-08,-2.77100670481736e-07,-2.77100670481642e-07,,1.49187897101103e-08,9.40398494707442e-08,0,0,0,9.62560000000008,103,967.729126213592,554.399029126214,1825.23300970874,962.370873786408,973.087378640777,577.255339805825,531.542718446602,2017.01941747573,1633.44660194175,0
1877.8112,-5.37582044899702e-08,7.24482990306835e-08,1.8690094540641e-08,-1.5565917818483e-07,1.95172752082517e-08,1.95172752080197e-08,-1.31607654289506e-07,,-4.59356020800639e-07,1.47774311872856e-07,3.62354884944545e-08,1.47774311872897e-07,-7.26801309141109e-08,9.26043900545282e-08,1.99242591404494e-08,4.86788331842559e-08,,1.29529432798763e-07,,-1.33217330575439e-07,6.01256054856732e-08,2.56371521185681e-07,-9.42851899848104e-08,1.62086331201167e-07,1.17962517159368e-07,7.6639483596662e-08,7.66394835967842e-08,6.03143201579981e-08,-6.03143201581045e-08,5.59739190412801e-08,-2.12486601650614e-07,1.48254681746739e-07,,-1.2536988230477e-07,1.07903779691605e-07,-1.7466102613224e-08,3.00507142766006e-07,-1.10512856606093e-07,-1.10512856606106e-07,1.18081339380041e-07,2.9599814697418e-08,1.47681154077531e-07,1.92219322283689e-07,-4.88874040341181e-08,1.43331918249491e-07,-4.95532184530586e-08,-2.77270133283468e-07,-2.77270133283373e-07,,1.23855542624524e-08,9.27711834645559e-08,0,0,0,9.72800000000007,102,965.619117647059,555.004411764706,1837.08333333333,958.401960784314,972.836274509804,580.216666666667,529.792156862745,2029.47058823529,1644.69607843137,0
1877.9136,-4.73328682614425e-08,6.94330460802098e-08,2.21001778186951e-08,-1.3696679450072e-07,9.41335244936858e-09,9.41335244913802e-09,-1.24608588024486e-07,,-4.53127722696963e-07,1.59330244292938e-07,3.93549540913162e-08,1.5933024429298e-07,-5.54886883619603e-08,9.05447159465208e-08,3.50560275845912e-08,5.2191071171323e-08,,1.31231031311543e-07,,-1.22677903122263e-07,6.80316774163645e-08,2.22695431220147e-07,-9.69104570708345e-08,1.25784974149607e-07,1.19541732815643e-07,8.18549190486679e-08,8.18549190487894e-08,7.72876487854129e-08,-7.7287648785522e-08,5.2496976077959e-08,-2.12552274605085e-07,1.54399035527678e-07,,-1.2806512043161e-07,1.13004021359013e-07,-1.50610990726527e-08,3.10164809970083e-07,-1.16716360986369e-07,-1.1671636098638e-07,1.22149275918284e-07,2.8136495690779e-08,1.50285771609131e-07,1.95896797717761e-07,-4.44886205180098e-08,1.51408177199667e-07,-6.23519748032282e-08,-2.79602511237623e-07,-2.79602511237529e-07,,5.22085059955327e-09,9.0385185916865e-08,0,1,0,9.83040000000005,102,963.657352941176,546.43431372549,1844.5,957.487254901961,969.827450980392,566.886274509804,525.982352941177,2036.61764705882,1652.38235294118,0
1878.016,-3.92039837465863e-08,6.60380065975426e-08,2.6834022850884e-08,-1.19288706099667e-07,-5.56440762839067e-10,-5.56440763067263e-10,-1.16667314118626e-07,,-4.46842418535409e-07,1.72448770712905e-07,4.211555865603e-08,1.72448770712948e-07,-3.45007812122178e-08,8.71960703662481e-08,5.26952891540582e-08,5.51775515521864e-08,,1.3164277243236e-07,,-1.10607826858315e-07,7.60107735728042e-08,1.86580029569101e-07,-1.00812039102132e-07,8.57679904672603e-08,1.19530582137569e-07,8.63168331105601e-08,8.63168331106812e-08,9.62201400076465e-08,-9.62201400077591e-08,5.04393438993344e-08,-2.11882788880839e-07,1.59261783539881e-07,,-1.30387838237268e-07,1.18622630944372e-07,-1.17652072929469e-08,3.19565900555547e-07,-1.23856995246082e-07,-1.23856995246089e-07,1.28369608294799e-07,2.7123684927531e-08,1.55493293222396e-07,2.00728809451998e-07,-4.19846313457045e-08,1.58744178106203e-07,-7.82019354892861e-08,-2.84180543584793e-07,-2.84180543584699e-07,,-7.77777259360746e-09,8.72569998389716e-08,0,1,0,9.93280000000004,103,962.653398058252,544.63786407767,1850.69902912621,955.417475728155,969.889320388349,567.663106796117,521.612621359223,2046.54368932039,1654.85436893204,0
1878.1184,-2.97078033614674e-08,6.23261018710497e-08,3.26182985095097e-08,-1.02975504158362e-07,-9.25417840177859e-09,-9.25417840200376e-09,-1.08149700203484e-07,,-4.40884318047748e-07,1.86677434432468e-07,4.44427671605042e-08,1.86677434432513e-07,-9.75274702804659e-09,8.23682898182918e-08,7.26155427902693e-08,5.7724772743315e-08,,1.31005988391663e-07,,-9.76408375847288e-08,8.38788169366888e-08,1.50141819886664e-07,-1.05694608729082e-07,4.4447211157873e-08,1.17728373280269e-07,8.98133274738025e-08,8.98133274739232e-08,1.16795721589868e-07,-1.16795721589986e-07,5.01027798022783e-08,-2.10308638974238e-07,1.6253478229328e-07,,-1.32179620660349e-07,1.24554167027438e-07,-7.62545363295813e-09,3.27753929542105e-07,-1.31477441004988e-07,-1.31477441004992e-07,1.36425340178999e-07,2.64710119669407e-08,1.62896352146002e-07,2.06908301744779e-07,-4.17401346759893e-08,1.65168167068692e-07,-9.64801072425479e-08,-2.9098110439813e-07,-2.90981104398036e-07,,-2.73583555202567e-08,8.37809229274793e-08,0,1,0,10.0352,102,960.444117647059,539.329901960784,1847.08333333333,954.314705882353,966.573529411765,561.992156862745,516.667647058824,2047.57843137255,1646.58823529412,0
1878.2208,-1.92959100953437e-08,5.84615102024412e-08,3.91656001070243e-08,-8.8496805878561e-08,-1.5510539863373e-08,-1.55105398635944e-08,-9.95042189828363e-08,,-4.35677495746363e-07,2.01469600844303e-07,4.63021602269971e-08,2.0146960084435e-07,1.84426068909219e-08,7.59076730358912e-08,9.43502799268321e-08,5.99321958394871e-08,,1.29577099017054e-07,,-8.44892421473282e-08,9.14593006300445e-08,1.1597562393938e-07,-1.11208073479152e-07,4.76755046051669e-09,1.14083608777253e-07,9.2173135008241e-08,9.21731350083612e-08,1.3864905470353e-07,-1.38649054703653e-07,5.17360116897208e-08,-2.0767418818063e-07,1.63939562479386e-07,,-1.33343851084287e-07,1.30551206005791e-07,-2.79264507853893e-09,3.33912509960409e-07,-1.39042290961647e-07,-1.39042290961647e-07,1.45926404905841e-07,2.60358445001895e-08,1.7196224940609e-07,2.14564097944885e-07,-4.40116250937752e-08,1.70552472851004e-07,-1.16418757680096e-07,-2.99915761857417e-07,-2.99915761857323e-07,,-5.37326453975152e-08,8.03323551117368e-08,0,0,0,10.1376,103,959.057281553398,542.766019417476,1836.00485436893,950.953398058252,967.161165048544,567.176699029126,518.355339805825,2039.57281553398,1632.43689320388,0
1878.3232,-8.48176550325772e-09,5.46834599845646e-08,4.6201694481233e-08,-7.62915854531295e-08,-1.82842278109958e-08,-1.82842278112128e-08,-9.12377279923967e-08,,-4.31630537306337e-07,2.16274756841223e-07,4.77067891888544e-08,2.16274756841271e-07,4.95815968377722e-08,6.77134335590295e-08,1.17295030396815e-07,6.19159453897142e-08,,1.27629120268874e-07,,-7.18697199412105e-08,9.86030169842365e-08,8.67798440860644e-08,-1.16930746462164e-07,-3.01509023758136e-08,1.08670270931087e-07,9.32896823340587e-08,9.32896823341784e-08,1.61428893571006e-07,-1.61428893571135e-07,5.55200042311704e-08,-2.03854880321153e-07,1.63253655164086e-07,,-1.33841084993918e-07,1.36340106763146e-07,2.49902176918953e-09,3.3739774806824e-07,-1.45985245259171e-07,-1.45985245259167e-07,1.56474819066502e-07,2.56496733323407e-08,1.821244923989e-07,2.23772820470795e-07,-4.89419260869775e-08,1.74830894383702e-07,-1.37207628640893e-07,-3.10856489906275e-07,-3.10856489906181e-07,,-8.66045903634877e-08,7.72336895936134e-08,0,0,0,10.24,102,957.912745098039,546.006862745098,1826.82843137255,950.148039215686,965.677450980392,569.11568627451,522.898039215686,2033.07843137255,1620.57843137255,0
