time,S1-D1,S1-D8,S1-D9,S1-D15,S2-D1,S2-D2,S2-D3,S2-D9,S3-D1,S3-D2,S3-D16,S4-D2,S4-D3,S4-D5,S5-D3,S5-D4,S5-D5,S6-D2,S6-D5,S6-D17,S7-D6,S7-D7,S8-D6,S8-D7,S8-D18,S9-D3,S9-D4,S9-D9,S9-D11,S9-D19,S10-D8,S10-D9,S10-D10,S10-D11,S11-D8,S11-D10,S11-D20,S12-D10,S12-D11,S12-D12,S13-D4,S13-D11,S13-D12,S14-D10,S14-D12,S14-D21,S15-D13,S15-D14,S16-D13,S16-D14,S16-D22,SART_Target,SART_NonTarget,SART_Probe,t_rel_s,eye_n,xp,yp,ps,xpl_i,xpr_i,ypl_i,ypr_i,psl_i,psr_i,blink_prop
1894.912,-8.43782251025495e-08,1.57646480272186e-07,7.32682551697831e-08,4.65314807628698e-07,1.1212850615326e-07,1.1212850615307e-07,,-4.30521349250553e-08,-6.54281141177231e-08,4.97007279875704e-07,9.63420382977315e-08,4.97007279875979e-07,1.30815483940163e-07,6.36196795224342e-08,,,,2.57175637564663e-07,,,-5.35359843494176e-07,,-8.16589742989669e-08,4.66542448809931e-09,2.0167948728866e-07,6.76247938598103e-08,,,-1.00901441852059e-07,4.91708037975999e-08,-3.83918680021531e-07,-3.90135661433467e-07,,,1.15703698538239e-08,1.88114314669557e-07,3.84457370527175e-08,-7.04644087484699e-08,-7.0464408748654e-08,3.47799000167339e-07,,,,,-1.20385797794414e-08,-1.28786661093587e-07,3.30117902444408e-07,3.30117902444124e-07,-6.91084213494694e-07,6.91084213494483e-07,7.59745934096621e-10,0,1,0,0,103,962.957766990291,551.815048543689,1725.54854368932,966.415533980583,959.5,560.933980582524,542.696116504854,1730.16504854369,1720.93203883495,0
1895.0144,-8.05856819563086e-08,1.5241678732312e-07,7.18311053669571e-08,4.53157947312573e-07,1.07957871249767e-07,1.07957871249576e-07,,-3.84881382658906e-08,-7.09741753988774e-08,5.64830207510048e-07,1.03923055373254e-07,5.64830207510331e-07,1.39789868809576e-07,5.76411533772399e-08,,,,2.77900963487595e-07,,,-5.51082170847361e-07,,-7.99458345767056e-08,4.29896062955636e-09,2.11331806008084e-07,6.75375995671503e-08,,,-9.20497238769902e-08,6.43391862058687e-08,-4.05976926640108e-07,-4.17492147690194e-07,,,3.00443816528346e-08,2.00140448623925e-07,1.68429826761702e-08,-5.30089751379908e-08,-5.3008975138171e-08,3.27159648795109e-07,,,,,-8.5501888503278e-08,-1.41964427109249e-07,3.37534716425049e-07,3.37534716424767e-07,-6.71583019412739e-07,6.71583019412538e-07,-2.85501443654754e-08,0,1,0,0.102399999999989,102,963.422058823529,550.578921568628,1728.00980392157,967.256862745098,959.587254901961,560.357843137255,540.8,1730.45098039216,1725.56862745098,0
1895.1168,-7.77236464182084e-08,1.4717252463629e-07,6.94488782182252e-08,4.42544221670632e-07,1.02601199040229e-07,1.02601199040039e-07,,-3.30418950021986e-08,-7.14731591424012e-08,6.22839276430781e-07,1.11850556047582e-07,6.22839276431073e-07,1.50062855950922e-07,5.17375619991519e-08,,,,2.9329831687518e-07,,,-5.61589882338815e-07,,-7.65970835053146e-08,8.15070969928614e-09,2.20021519198616e-07,6.59168867062159e-08,,,-8.27926731718541e-08,7.86856715054327e-08,-4.28521863568571e-07,-4.45077345381225e-07,,,4.46722544702318e-08,2.0877053997927e-07,-1.15399235323783e-09,-3.86474641035366e-08,-3.86474641037126e-08,3.09225556952812e-07,,,,,-1.54147038261466e-07,-1.54247821796266e-07,3.43987773605509e-07,3.43987773605229e-07,-6.44052753326043e-07,6.44052753325849e-07,-6.46239639327832e-08,0,1,0,0.204799999999977,103,964.389805825243,550.768932038835,1727.33495145631,969.400970873786,959.378640776699,555.247572815534,546.290291262136,1724.55339805825,1730.11650485437,0
1895.2192,-7.59386259599087e-08,1.41761002145107e-07,6.58223761853398e-08,4.33066819359279e-07,9.56888357479896e-08,9.5688835747801e-08,,-2.64117029811006e-08,-6.54603361992882e-08,6.69727449716876e-07,1.19939167693793e-07,6.69727449717175e-07,1.62128946230464e-07,4.57159622407989e-08,,,,3.02308011021072e-07,,,-5.65327420169919e-07,,-7.14464680787833e-08,1.70612439060085e-08,2.27176088365606e-07,6.23985493351608e-08,,,-7.32325396307887e-08,9.19047134522375e-08,-4.52016674498201e-07,-4.72245969256408e-07,,,5.47982348639707e-08,2.13486178753434e-07,-1.51278224792499e-08,-2.7743478883264e-08,-2.77434788834356e-08,2.94267711346782e-07,,,,,-2.16513293625518e-07,-1.65875216943718e-07,3.48988071958849e-07,3.48988071958572e-07,-6.07998879684593e-07,6.07998879684403e-07,-1.07830845853812e-07,0,0,0,0.307199999999966,102,967.116666666667,552.21568627451,1726.86274509804,971.311764705882,962.921568627451,564.691176470588,539.740196078431,1722.47058823529,1731.25490196078,0
1895.3216,-7.51731788171219e-08,1.36007007437916e-07,6.0833828620933e-08,4.24187526238717e-07,8.6948873257667e-08,8.69488732574804e-08,,-1.83904290888469e-08,-5.20374750371677e-08,7.05128484488245e-07,1.27995393007293e-07,7.0512848448855e-07,1.76475969909709e-07,3.93633699911797e-08,,,,3.04281177477638e-07,,,-5.60943605217168e-07,,-6.45291835107217e-08,3.15353921436053e-08,2.32247313656953e-07,5.66841347065215e-08,,,-6.34970493626603e-08,1.03888695084677e-07,-4.77090424682337e-07,-4.98116864145478e-07,,,6.00502366083539e-08,2.13914914813281e-07,-2.49647608217081e-08,-2.04274358446393e-08,-2.0427435844806e-08,2.82384794477284e-07,,,,,-2.71454803886021e-07,-1.77050415877746e-07,3.51894462580607e-07,3.51894462580334e-07,-5.63520814692298e-07,5.6352081469211e-07,-1.58181876072253e-07,0,0,0,0.409599999999955,102,966.830882352941,552.988235294118,1722.77941176471,970.969607843137,962.692156862745,560.568627450981,545.407843137255,1715.14705882353,1730.41176470588,0
1895.424,-7.52097832065954e-08,1.29730846042308e-07,5.4521062835849e-08,4.15343848569564e-07,7.62445124826096e-08,7.62445124824258e-08,,-8.899045057713e-09,-3.09586694406309e-08,7.29455878223242e-07,1.35790069741671e-07,7.29455878223551e-07,1.93503626327759e-07,3.2464265029417e-08,,,,2.99135066668642e-07,,,-5.47375022976347e-07,,-5.61290583469216e-08,5.16683328172332e-08,2.3476636501605e-07,4.85589666259394e-08,,,-5.37563994643711e-08,1.14671878762922e-07,-5.04530478890419e-07,-5.21410980602553e-07,,,6.0357470007973e-08,2.09850275279885e-07,-3.08193682927074e-08,-1.6637018798746e-08,-1.66370187989074e-08,2.73520714393525e-07,,,,,-3.18195309524262e-07,-1.87964010253406e-07,3.52051375615994e-07,3.52051375615724e-07,-5.1138965258742e-07,5.11389652587229e-07,-2.15176064484003e-07,0,0,0,0.511999999999944,103,967.279126213592,551.968446601942,1715.43203883495,971.632038834951,962.926213592233,558.122330097087,545.814563106796,1705.01941747573,1725.84466019417,0
1895.5264,-7.5739167900475e-08,1.22765122131003e-07,4.70259542306623e-08,4.06041144970689e-07,6.35975593609555e-08,6.35975593607745e-08,,1.97644088988256e-09,-2.69074843413275e-09,7.43724045153397e-07,1.43042710340251e-07,7.43724045153709e-07,2.13427818435402e-07,2.48201101544534e-08,,,,2.87437517207736e-07,,,-5.23910961106212e-07,,-4.67850898843762e-08,7.7075283252534e-08,2.34395504751517e-07,3.79184465614767e-08,,,-4.42161656818951e-08,1.2437783171687e-07,-5.35235823688251e-07,-5.40414330449163e-07,,,5.59648783374843e-08,2.01281100593873e-07,-3.30545235174257e-08,-1.61582478408617e-08,-1.61582478410177e-08,2.67424970196737e-07,,,,,-3.56444354222053e-07,-1.98802629898819e-07,3.48944387133341e-07,3.48944387133074e-07,-4.53149026625518e-07,4.53149026625322e-07,-2.7768783872662e-07,0,0,0,0.614399999999932,102,966.121078431373,543.837745098039,1708.31862745098,968.55294117647,963.689215686274,546.898039215686,540.777450980392,1701.60784313725,1715.02941176471,0
1895.6288,-7.64182763819837e-08,1.14970910348309e-07,3.85526339664581e-08,3.95924017585933e-07,4.91978994470492e-08,4.91978994468717e-08,,1.39577391778301e-08,3.15689629334708e-08,7.49412259090305e-07,1.49428608078791e-07,7.49412259090619e-07,2.36192929453239e-07,1.62768164485828e-08,,,,2.70391071179302e-07,,,-4.90223658051899e-07,,-3.72422780774132e-08,1.06848988674527e-07,2.30978387534924e-07,2.48049053587903e-08,,,-3.50993507825288e-08,1.33188092103513e-07,-5.70094317059123e-07,-5.53092021237871e-07,,,4.74366140852679e-08,1.88419032220386e-07,-3.21709272860848e-08,-1.8653010839153e-08,-1.86530108393035e-08,2.63596945486172e-07,,,,,-3.86504878090801e-07,-2.09722682449964e-07,3.42344975250008e-07,3.42344975249743e-07,-3.91193436157087e-07,3.91193436156885e-07,-3.43970479468819e-07,0,0,0,0.716799999999921,103,966.28640776699,536.096601941748,1689.52912621359,969.243689320388,963.329126213592,532.655339805825,539.53786407767,1690.42718446602,1688.63106796117,0
1895.7312,-7.68983407512335e-08,1.06257076591884e-07,2.9358735840782e-08,3.84822564494463e-07,3.34068095163559e-08,3.34068095161834e-08,,2.65790886327877e-08,6.99585711928019e-08,7.48333861662629e-07,1.54609133142845e-07,7.48333861662944e-07,2.61405698146582e-07,6.76311425292451e-09,,,,2.4971466735005e-07,,,-4.46378854728111e-07,,-2.83363233415987e-08,1.39585223527423e-07,2.2457861484842e-07,9.4465799602791e-09,,,-2.66331798399181e-08,1.41329609392054e-07,-6.09752480716707e-07,-5.57336319384368e-07,,,3.56277090542894e-08,1.71702808110086e-07,-2.87566603938596e-08,-2.36764227030202e-08,-2.36764227031653e-08,2.61276742226591e-07,,,,,-4.09301350244978e-07,-2.20770133105774e-07,3.32401942629647e-07,3.32401942629386e-07,-3.28719942457968e-07,3.28719942457759e-07,-4.11821684883957e-07,0,0,0,0.81919999999991,102,966.462254901961,536.68137254902,1678.26470588235,969.200980392157,963.723529411765,535.636274509804,537.726470588235,1684.63725490196,1671.89215686275,0
1895.8336,-7.68320282534376e-08,9.66035224946132e-08,1.97714942413058e-08,3.72762442848098e-07,1.67559544268104e-08,1.67559544266427e-08,,3.92459993370866e-08,1.10153085634989e-07,7.42427965393425e-07,1.58274842975934e-07,7.42427965393743e-07,2.88304101976027e-07,-3.66768972910798e-09,,,,2.27430696003917e-07,,,-3.92841018078526e-07,,-2.08237221215467e-08,1.73513998694207e-07,2.15493540119978e-07,-7.71936683783777e-09,,,-1.9040642941858e-08,1.49069450678935e-07,-6.54285785139366e-07,-5.51273907500527e-07,,,2.16017086469653e-08,1.51764361139854e-07,-2.34728115722237e-08,-3.06981206818845e-08,-3.06981206820249e-08,2.59529651225167e-07,,,,,-4.26275443753819e-07,-2.31747432179764e-07,3.19628407852284e-07,3.19628407852024e-07,-2.69445685168549e-07,2.69445685168333e-07,-4.78892629757966e-07,0,0,0,0.921599999999899,102,966.711274509804,533.68431372549,1677.72549019608,969.578431372549,963.844117647059,533.6,533.76862745098,1684.25490196078,1671.19607843137,0
1895.936,-7.58816388310341e-08,8.60834753337797e-08,1.0201836502874e-08,3.59944040005407e-07,-6.52118261312168e-11,-6.521182629347e-11,,5.13436200530706e-08,1.49698291790009e-07,7.33456882909708e-07,1.60181400048036e-07,7.3345688291003e-07,3.15777282569006e-07,-1.48067514209639e-08,,,,2.05594866157649e-07,,,-3.30498287175281e-07,,-1.52036692832634e-08,2.06729191023212e-07,2.04243148289302e-07,-2.60542457518745e-08,,,-1.25228425008085e-08,1.56707895215297e-07,-7.02841382913196e-07,-5.33528050229341e-07,,,6.50037052555898e-09,1.29360809369354e-07,-1.70498327998957e-08,-3.91316901731522e-08,-3.91316901732884e-08,2.57410566797124e-07,,,,,-4.39152588740121e-07,-2.42080104622996e-07,3.04785839278091e-07,3.04785839277834e-07,-2.1707205535797e-07,2.17072055357747e-07,-5.43044144216062e-07,0,0,0,1.02399999999989,103,967.554368932039,535.33640776699,1684.21359223301,969.742718446602,965.366019417476,536.682524271845,533.990291262136,1690.46601941748,1677.96116504854,0
1896.0384,-7.37469780670385e-08,7.48815156533523e-08,1.13453758644057e-09,3.46723724003751e-07,-1.62364770961255e-08,-1.62364770962827e-08,,6.23505717524657e-08,1.86370964567961e-07,7.22684434369361e-07,1.60165207475743e-07,7.22684434369687e-07,3.42430072942114e-07,-2.62791444238487e-08,,,,1.8604301602765e-07,,,-2.60756823951484e-07,,-1.15969141764403e-08,2.3743962205331e-07,1.91545312671079e-07,-4.47524314629507e-08,,,-7.22508355329939e-09,1.64564021621701e-07,-7.53398848835171e-07,-5.03374875619757e-07,,,-8.59422007738606e-09,1.05292545571742e-07,-1.02554210252334e-08,-4.83681558566876e-08,-4.83681558568205e-08,2.54133027306626e-07,,,,,-4.49636238341071e-07,-2.50759219433693e-07,2.88737164767193e-07,2.88737164766937e-07,-1.74654808329674e-07,1.74654808329445e-07,-6.02603197166226e-07,0,0,0,1.12639999999988,102,966.916666666667,535.437745098039,1703.3431372549,968.828431372549,965.004901960784,538.047058823529,532.828431372549,1707.94117647059,1698.74509803922,0
1896.1408,-7.02132502480263e-08,6.33035058233965e-08,-6.90974442450488e-09,3.33612264867227e-07,-3.08454332485905e-08,-3.08454332487424e-08,,7.19090667734137e-08,2.18423940225611e-07,7.10649592412445e-07,1.58142741977462e-07,7.10649592412775e-07,3.66668060969929e-07,-3.75583538022966e-08,,,,1.70214742429541e-07,,,-1.85694937894808e-07,,-9.72696369103322e-09,2.64145738713423e-07,1.78277779828414e-07,-6.28921294371257e-08,,,-3.20112537467804e-09,1.7295218900726e-07,-8.02770307431613e-07,-4.60800390009444e-07,,,-2.27612688582206e-08,8.03307693184156e-08,-3.82983039732953e-09,-5.78090016555251e-08,-5.78090016556558e-08,2.49169659929259e-07,,,,,-4.59114419311479e-07,-2.56400512046029e-07,2.72338269340392e-07,2.72338269340138e-07,-1.44134902025883e-07,1.4413490202565e-07,-6.56419677673759e-07,0,1,0,1.22879999999986,103,968.42427184466,533.247572815534,1727.93203883495,968.923300970874,967.925242718447,537.820388349515,528.674757281554,1730.30097087379,1725.56310679612,0
1896.2432,-6.51920971537038e-08,5.17668210827632e-08,-1.34252760708189e-08,3.21256602760364e-07,-4.29419263333027e-08,-4.29419263334494e-08,,7.98411113940169e-08,2.44663476464378e-07,6.97140389469125e-07,1.5410244963367e-07,6.97140389469458e-07,3.86805288621778e-07,-4.80093863247517e-08,,,,1.59059879011685e-07,,,-1.08137073101627e-07,,-9.00458285673183e-09,2.85710664789387e-07,1.65411547717371e-07,-7.95023529831292e-08,,,-4.00403378920159e-10,1.82156866927551e-07,-8.46839910645606e-07,-4.06479288690327e-07,,,-3.52888850829436e-08,5.51706200947127e-08,1.58086358594359e-09,-6.68879111246856e-08,-6.6887911124815e-08,2.4226449830651e-07,,,,,-4.68471019947921e-07,-2.57411133810695e-07,2.56375965184098e-07,2.56375965183847e-07,-1.26172181854135e-07,1.26172181853896e-07,-7.03757189149104e-07,0,1,0,1.33119999999985,102,969.528431372549,539.060784313726,1754.6862745098,967.93137254902,971.125490196078,544.538235294118,533.583333333333,1758.77450980392,1750.59803921569,0
1896.3456,-5.87239231501435e-08,4.07608453395704e-08,-1.7963077810455e-08,3.10371124772966e-07,-5.16167131295698e-08,-5.16167131297123e-08,,8.61312893940347e-08,2.64411168191319e-07,6.81402593898132e-07,1.48090983345057e-07,6.81402593898468e-07,4.01220149740822e-07,-5.69577648787976e-08,,,,1.53005988846773e-07,,,-3.14852634182413e-08,,-8.68087561233938e-09,3.01366497232154e-07,1.53910119536532e-07,-9.3651115064145e-08,,,1.3124325108469e-09,1.92415550505876e-07,-8.80959096139938e-07,-3.41677385895726e-07,,,-4.56764844393477e-08,3.04118166346996e-08,5.46979809265937e-09,-7.50704907569481e-08,-7.50704907570772e-08,2.33379006985663e-07,,,,,-4.78058639938579e-07,-2.5222212109114e-07,2.41526769529519e-07,2.41526769529272e-07,-1.20255423810355e-07,1.20255423810111e-07,-7.4413806774197e-07,0,1,0,1.43360000000007,103,972.339320388349,540.740776699029,1779.4854368932,971.732038834952,972.946601941748,542.559223300971,538.922330097087,1787.95145631068,1771.01941747573,0
1896.448,-5.09379740472216e-08,3.07853667136355e-08,-2.01526073334724e-08,3.01632716189711e-07,-5.6096118980227e-08,-5.60961189803643e-08,,9.08964965122734e-08,2.77421291440718e-07,6.62492979899532e-07,1.40196360488569e-07,6.62492979899875e-07,4.08551287496492e-07,-6.37695547003881e-08,,,,1.51969963683316e-07,,,4.06903997153404e-08,,-8.01770348287172e-09,3.1070180458671e-07,1.44611089229627e-07,-1.04544876221321e-07,,,2.11949327130669e-09,2.03908151951646e-07,-9.00396992826664e-07,-2.68091588615511e-07,,,-5.36109975314584e-08,6.55467071954897e-09,7.48981078932725e-09,-8.18389796192306e-08,-8.18389796193602e-08,2.22607007788304e-07,,,,,-4.87815130278014e-07,-2.39528257301379e-07,2.28319999419584e-07,2.28319999419341e-07,-1.24995996428887e-07,1.2499599642864e-07,-7.7722101634666e-07,0,0,0,1.53600000000006,102,975.572549019608,545.641176470588,1798.03921568627,973.850980392157,977.294117647059,551.727450980392,539.554901960784,1811.96078431373,1784.11764705882,0
1896.5504,-4.19955178717896e-08,2.22879990411968e-08,-1.97075188304844e-08,2.95573976233639e-07,-5.58277084645841e-08,-5.58277084647165e-08,,9.4356458783111e-08,2.83794143185081e-07,6.39616554885726e-07,1.3054025031341e-07,6.39616554886075e-07,4.07879507973431e-07,-6.79232582129589e-08,,,,1.5540526802625e-07,,,1.0512910228593e-07,,-6.42665233218837e-09,3.13642623762578e-07,1.38111472988755e-07,-1.11616178268027e-07,,,2.21238788448264e-09,2.1674230216651e-07,-9.0075009928975e-07,-1.87684439158304e-07,,,-5.89351648722309e-08,-1.59992527925344e-08,7.44761042579015e-09,-8.66812190884773e-08,-8.66812190886086e-08,2.10098708944991e-07,,,,,-4.9743784987674e-07,-2.18485776517792e-07,2.17098999422313e-07,2.17098999422076e-07,-1.38496928494597e-07,1.38496928494349e-07,-8.0271167998028e-07,0,0,0,1.63840000000005,102,965.885294117647,545.576960784314,1808.54901960784,965.108823529412,966.661764705882,550.266666666667,540.887254901961,1827.99019607843,1789.10784313726,0
1896.6528,-3.20468888343353e-08,1.56145051814906e-08,-1.6432383652742e-08,2.9249293706939e-07,-5.0542544446881e-08,-5.05425444470078e-08,,9.6810939683314e-08,2.83910783918518e-07,6.12345236018905e-07,1.19287357185961e-07,6.1234523601926e-07,3.98853030439106e-07,-6.90648940547022e-08,,,,1.62375025076577e-07,,,1.59257224491328e-07,,-3.55490273991955e-09,3.10430008549617e-07,1.34676150207672e-07,-1.14584025081346e-07,,,1.76767640385294e-09,2.30932908269616e-07,-8.78277820149021e-07,-1.02584354134861e-07,,,-6.16220066099668e-08,-3.69394087898188e-08,5.27995847816815e-09,-8.90962416490963e-08,-8.90962416492303e-08,1.96020043059594e-07,,,,,-5.06505434228244e-07,-1.88851130822696e-07,2.07985874048809e-07,2.0798587404858e-07,-1.58688007438347e-07,1.58688007438099e-07,-8.20302393890189e-07,0,0,0,1.74080000000004,103,963.861165048544,549.528155339806,1823.52427184466,963.735922330097,963.98640776699,554.632038834952,544.42427184466,1849.25242718447,1797.79611650485,0
1896.7552,-2.12197876339561e-08,1.09686688942024e-08,-1.02511187396581e-08,2.92388616155807e-07,-4.03026878301154e-08,-4.03026878302368e-08,,9.86159925145273e-08,2.78403036421183e-07,5.80732366105048e-07,1.0666042696561e-07,5.8073236610541e-07,3.81759281229917e-07,-6.70516161203381e-08,,,,1.71638184106011e-07,,,2.01416494344799e-07,,6.74729208254473e-10,3.01604130303609e-07,1.34192230318843e-07,-1.13486699114413e-07,,,9.40603569663556e-10,2.46387176143741e-07,-8.30246069597091e-07,-1.50610713039845e-08,,,-6.17579138305991e-08,-5.60222346163329e-08,1.04597472588243e-09,-8.86147459183253e-08,-8.8614745918463e-08,1.80533361847011e-07,,,,,-5.14504272699079e-07,-1.5107523689169e-07,2.00880171449457e-07,2.00880171449239e-07,-1.83560762825413e-07,1.83560762825167e-07,-8.29674650189727e-07,0,0,0,1.84320000000002,102,965.79068627451,550.288725490196,1823.61764705882,965.147058823529,966.43431372549,559.661764705882,540.91568627451,1850.20588235294,1797.02941176471,0
1896.8576,-9.63501691682581e-09,8.37557227481717e-09,-1.25944464192079e-09,2.94929807827677e-07,-2.55407314465979e-08,-2.55407314467142e-08,,1.00149390559021e-07,2.68133177812293e-07,5.45396421822071e-07,9.29440259837354e-08,5.4539642182244e-07,3.57556115110844e-07,-6.1988651354708e-08,,,,1.81752708046985e-07,,,2.30969544410902e-07,,6.06092044180812e-09,2.87984134306448e-07,1.36183230493266e-07,-1.08687141543682e-07,,,-1.24317821438027e-10,2.62906878154763e-07,-7.55363181110351e-07,7.24970432862921e-08,,,-5.95202094968991e-08,-7.30270753398789e-08,-5.04607321988434e-09,-8.4820315523944e-08,-8.48203155240863e-08,1.63768906756921e-07,,,,,-5.20836095317589e-07,-1.06365021537237e-07,1.95516259093583e-07,1.95516259093376e-07,-2.11283401413811e-07,2.11283401413568e-07,-8.30591499272797e-07,0,0,0,1.94560000000001,103,966.258737864078,556.72572815534,1823.45631067961,964.606796116505,967.910679611651,567.971844660194,545.479611650486,1846.16504854369,1800.74757281553,0
1896.96,2.56887800687548e-09,7.65826902162032e-09,1.02271470285753e-08,2.99461731009768e-07,-7.07117257557387e-09,-7.07117257568556e-09,,1.01769125102169e-07,2.54127767983328e-07,5.07597646332345e-07,7.84736989925773e-08,5.0759764633272e-07,3.27842900564641e-07,-5.42480991394557e-08,,,,1.91213259877652e-07,,,2.48318996050398e-07,,1.21608763572732e-08,2.70609544185769e-07,1.39876191160488e-07,-1.00840990819552e-07,,,-1.27431236102385e-09,2.80214769097629e-07,-6.54212092012454e-07,1.57679057479296e-07,,,-5.51346191270063e-08,-8.77067356403274e-08,-1.26077809190564e-08,-7.73575899281145e-08,-7.73575899282623e-08,1.45793713861865e-07,,,,,-5.24891361747327e-07,-5.66834515482261e-08,1.91551661846041e-07,1.91551661845846e-07,-2.4019638383898e-07,2.40196383838744e-07,-8.23054981301437e-07,0,0,0,2.048,102,968.172549019608,554.695098039216,1827.5,964.556862745098,971.788235294118,564.31568627451,545.074509803922,1848.49019607843,1806.50980392157,0
1897.0624,1.52178068949213e-08,8.44533207513349e-09,2.36631389701264e-08,3.05059858182665e-07,1.39570767495515e-08,1.39570767494441e-08,,1.03777513392245e-07,2.37448089825225e-07,4.69238751875023e-07,6.36151113116766e-08,4.69238751875405e-07,2.94738466320749e-07,-4.44509249663331e-08,,,,1.98613510583697e-07,,,2.54842630588952e-07,,1.83686311731806e-08,2.50635370949352e-07,1.44305030133275e-07,-9.08212972510169e-08,,,-2.33346850001782e-09,2.9800196661709e-07,-5.2944997612188e-07,2.38216897141201e-07,,,-4.88205727353915e-08,-9.97639573079314e-08,-2.10781374154589e-08,-6.59332219474838e-08,-6.59332219476378e-08,1.26617407921331e-07,,,,,-5.26165693547372e-07,-4.63844890897438e-09,1.88636097271686e-07,1.88636097271505e-07,-2.6871791770709e-07,2.68717917706862e-07,-8.07461408346779e-07,0,0,0,2.15039999999999,102,971.18137254902,553.192156862745,1832.97058823529,967.179411764706,975.183333333333,562.652941176471,543.73137254902,1855.14705882353,1810.79411764706,0
1897.1648,2.80958188686056e-08,1.02108799980171e-08,3.83066988666869e-08,3.10636241898885e-07,3.61719661216349e-08,3.61719661215314e-08,,1.0639644146094e-07,2.19047884863012e-07,4.32708083114702e-07,4.87359052816171e-08,4.32708083115091e-07,2.60667525979814e-07,-3.34093145640046e-08,,,,2.02795902135631e-07,,,2.52713935922422e-07,,2.40223893497541e-08,2.29219434684295e-07,1.48433433239037e-07,-7.96138257460563e-08,,,-3.10666953157991e-09,3.15974477143793e-07,-3.85633968084763e-07,3.12149486330399e-07,,,-4.07509000018729e-08,-1.08871013161655e-07,-2.97900815815614e-08,-5.03300824636936e-08,-5.03300824638544e-08,1.06250119233687e-07,,,,,-5.24359002561027e-07,4.67491990725187e-08,1.86453499487079e-07,1.86453499486913e-07,-2.95224241964401e-07,2.95224241964183e-07,-7.84687366025526e-07,0,0,0,2.25279999999998,103,973.330097087379,556.362621359223,1844.22330097087,968.606796116505,978.053398058253,566.953398058253,545.771844660194,1868.94174757282,1819.50485436893,0
1897.2672,4.09506588827253e-08,1.23334575155565e-08,5.32841163983398e-08,3.15081475161942e-07,5.81267082919251e-08,5.81267082918253e-08,,1.09750971223887e-07,1.99683055193999e-07,4.00572199405676e-07,3.41727109136552e-08,4.00572199406071e-07,2.28099447746435e-07,-2.20447191353033e-08,,,,2.02972010004461e-07,,,2.44598926927497e-07,,2.85181774682385e-08,2.07444893291018e-07,1.51280960358646e-07,-6.82069981707632e-08,,,-3.4120396035198e-09,3.33870684375747e-07,-2.28713769559207e-07,3.7793091793793e-07,,,-3.10447735410451e-08,-1.14713157353828e-07,-3.8092762135284e-08,-3.04421299723999e-08,-3.04421299725675e-08,8.47802090879251e-08,,,,,-5.19452587939222e-07,9.43604817075079e-08,1.84767401127636e-07,1.84767401127483e-07,-3.17977589755237e-07,3.17977589755034e-07,-7.56078226428238e-07,0,0,0,2.35519999999997,102,975.887745098039,556.6,1860.14705882353,970.903921568627,980.871568627451,568.073529411765,545.126470588235,1891.44117647059,1828.85294117647,0
1897.3696,5.35106885100567e-08,1.41618407559168e-08,6.76725292660256e-08,3.17413741852866e-07,7.84506883687983e-08,7.84506883687017e-08,,1.13860844567647e-07,1.7989737338522e-07,3.75212132667248e-07,2.02028150217197e-08,3.75212132667648e-07,1.99291272708735e-07,-1.12988385304682e-08,,,,1.98823164055617e-07,,,2.33282806647878e-07,,3.14109413208621e-08,1.86288037544226e-07,1.52040366878987e-07,-5.74920956165902e-08,,,-3.13596191814631e-09,3.51439928000965e-07,-6.53600258346638e-08,4.34482872675108e-07,,,-1.97917149380731e-08,-1.17024298324778e-07,-4.54969168032595e-08,-6.31731924974078e-09,-6.31731924991535e-09,6.24282801880137e-08,,,,,-5.11767049514834e-07,1.35321559161474e-07,1.83483410300465e-07,1.83483410300324e-07,-3.35150532077961e-07,3.35150532077771e-07,-7.23361359242543e-07,0,1,0,2.45759999999996,102,978.867647058824,552.141176470588,1878.67156862745,976.241176470588,981.494117647059,559.18137254902,545.100980392157,1916.71568627451,1840.62745098039,0
1897.472,6.55064920091528e-08,1.50818000017803e-08,8.05882920109807e-08,3.16916985719066e-07,9.59790104857275e-08,9.59790104856333e-08,,1.18644075882927e-07,1.60070678924767e-07,3.58498627814196e-07,7.040224069618e-09,3.58498627814601e-07,1.76067773584476e-07,-2.04807553748603e-09,,,,1.90573918555504e-07,,,2.21318120387107e-07,,3.24918929646921e-08,1.66612787693107e-07,1.50176855745267e-07,-4.81805545850095e-08,,,-2.28861592017534e-09,3.68395807037874e-07,9.76624590711966e-08,4.81195085546763e-07,,,-7.09529927719608e-09,-1.1561090157643e-07,-5.17875753966691e-08,2.18008292683403e-08,2.18008292681586e-08,3.95635562008884e-08,,,,,-5.01959247273703e-07,1.67316389837188e-07,1.82697706022801e-07,1.82697706022671e-07,-3.44964452076583e-07,3.44964452076409e-07,-6.88520507631894e-07,0,1,0,2.55999999999995,103,976.492718446602,535.969417475728,1888.8640776699,972.885436893204,980.1,545.519417475728,526.419417475728,1929.09708737864,1848.63106796117,0
1897.5744,7.66854394766485e-08,1.45790600248014e-08,9.12644995014936e-08,3.13257890135688e-07,1.09849698069037e-07,1.09849698068944e-07,,1.23933895181635e-07,1.40505616056222e-07,3.51536865712437e-07,-5.13145088619203e-09,3.51536865712846e-07,1.59655397000949e-07,4.97319461537043e-09,,,,1.78993774899616e-07,,,2.10771857825297e-07,,3.1828059038799e-08,1.49168992275657e-07,1.45495733488426e-07,-4.07451191321169e-08,,,-1.03171277671233e-09,3.84371198205473e-07,2.5393439262784e-07,5.17852611910393e-07,,,6.87142885520359e-09,-1.10388464998474e-07,-5.70557152276862e-08,5.34265071597486e-08,5.34265071595603e-08,1.66931865188164e-08,,,,,-4.90919236624949e-07,1.88811278026015e-07,1.82680998306746e-07,1.82680998306625e-07,-3.45930588874692e-07,3.45930588874535e-07,-6.5364057368231e-07,0,1,0,2.66239999999993,102,979.858333333333,538.292156862745,1891.66666666667,978.595098039216,981.121568627451,549.771568627451,526.812745098039,1935.3137254902,1848.01960784314,0
1897.6768,8.68116500310371e-08,1.22935974528028e-08,9.91052474838808e-08,3.06564881519945e-07,1.19563723440714e-07,1.19563723440623e-07,,1.29504829409162e-07,1.21532580234986e-07,3.5446623896136e-07,-1.61086789453234e-08,3.54466238961774e-07,1.50584186284707e-07,9.23756521061768e-09,,,,1.65285838760874e-07,,,2.03100998194986e-07,,2.9750511872168e-08,1.34585583657623e-07,1.38166436593025e-07,-3.53922274649458e-08,,,3.42761042399265e-10,3.98902493445444e-07,3.97636391059171e-07,5.44499901044358e-07,,,2.18065183333214e-08,-1.01445862786686e-07,-6.16307617613181e-08,8.77766842739066e-08,8.77766842737122e-08,-5.56467812833918e-09,,,,,-4.79579203525339e-07,1.99166263784279e-07,1.83778800543908e-07,1.83778800543795e-07,-3.37138790885219e-07,3.37138790885078e-07,-6.2072075725925e-07,0,0,0,2.76479999999992,103,984.116019417476,541.115533980583,1888.70873786408,983.877669902913,984.354368932039,556.18932038835,526.041747572816,1924.25242718447,1853.16504854369,0
1897.7792,9.5653745627657e-08,8.05979863854294e-09,1.0371354426624e-07,2.97446451703708e-07,1.25003146493219e-07,1.25003146493127e-07,,1.35102263167279e-07,1.03611610700413e-07,3.66324811494532e-07,-2.56414424298308e-08,3.66324811494951e-07,1.48667653359775e-07,1.04726901924875e-08,,,,1.50880197202555e-07,,,1.99138391535697e-07,,2.6794160613808e-08,1.23361132873506e-07,1.28702678347922e-07,-3.20693297234882e-08,,,1.47976806153033e-09,4.1145484301996e-07,5.2372473412781e-07,5.61313859506915e-07,,,3.72299068978695e-08,-8.91180897344281e-08,-6.59316644554206e-08,1.23728288996672e-07,1.23728288996471e-07,-2.65127615671404e-08,,,,,-4.6868772084261e-07,1.9864826319063e-07,1.86257588117399e-07,1.86257588117291e-07,-3.18497460167035e-07,3.18497460166908e-07,-5.91479522322678e-07,0,0,0,2.86719999999991,102,984.219117647059,537.410294117647,1877.47549019608,986.846078431373,981.592156862745,553.994117647059,520.826470588235,1904.61764705882,1850.33333333333,0
1897.8816,1.02972000264363e-07,1.92640213287374e-09,1.04898402397276e-07,2.8693046004455e-07,1.26405288337701e-07,1.26405288337609e-07,,1.40469210965402e-07,8.73949028809824e-08,3.85040010855672e-07,-3.34540348930094e-08,3.85040010856095e-07,1.53056868912599e-07,8.68468823848209e-09,,,,1.3719383734168e-07,,,1.99157831065417e-07,,2.36054856833101e-08,1.15849901390958e-07,1.17908586368304e-07,-3.05025267730746e-08,,,2.04336828802691e-09,4.21486058733615e-07,6.28134868120307e-07,5.68554552929101e-07,,,5.24665606362386e-08,-7.40240501883789e-08,-7.02850779414127e-08,1.59824726319831e-07,1.59824726319626e-07,-4.53973123585177e-08,,,,,-4.58610245321923e-07,1.88370463260512e-07,1.90149825354847e-07,1.90149825354742e-07,-2.90838638369273e-07,2.90838638369157e-07,-5.6719535514564e-07,0,0,0,2.9695999999999,102,982.380392156863,535.491666666667,1847.24509803922,985.250980392157,979.509803921569,555.757843137255,515.225490196078,1857.56862745098,1836.92156862745,0
1897.984,1.08521237916232e-07,-5.84622553317143e-09,1.02675012383101e-07,2.76322020897507e-07,1.24301221176493e-07,1.243012211764e-07,,1.45364178150059e-07,7.37079628935865e-08,4.07610716194241e-07,-3.93026014753998e-08,4.07610716194668e-07,1.62353485520399e-07,4.15427628988799e-09,,,,1.25393777735793e-07,,,2.03002988120905e-07,,2.08345045627015e-08,1.12237251985192e-07,1.06802622722546e-07,-3.02503522676933e-08,,,1.78012573680327e-09,4.28549135937281e-07,7.08062728901592e-07,5.66606560569011e-07,,,6.66838634127168e-08,-5.70354743844231e-08,-7.47691362933448e-08,1.94362298383825e-07,1.94362298383615e-07,-6.14211028988177e-08,,,,,-4.49182693764687e-07,1.70175033036621e-07,1.95149788543726e-07,1.95149788543622e-07,-2.55866848926601e-07,2.55866848926492e-07,-5.48614925928044e-07,0,0,0,3.07199999999989,103,983.013106796117,532.173786407767,1831.92233009709,985.573786407767,980.452427184466,549.41359223301,514.933980582524,1842.40776699029,1821.43689320388,0
1898.0864,1.12081436786778e-07,-1.48089436090301e-08,9.7272493177791e-08,2.67004812165202e-07,1.19435662401118e-07,1.19435662401023e-07,,1.49569067658425e-07,6.34490305182452e-08,4.30475883640018e-07,-4.30415024401303e-08,4.30475883640449e-07,1.7476519180245e-07,-2.59016305660321e-09,,,,1.16174655744143e-07,,,2.10261087037488e-07,,1.90306438731899e-08,1.12513106660766e-07,9.65257117784396e-08,-3.07594393808847e-08,,,5.5160325789356e-10,4.32418000127598e-07,7.62276801034499e-07,5.5610119325845e-07,,,7.89842074485741e-08,-3.9180221636276e-08,-7.91259785066373e-08,2.25553980645318e-07,2.25553980645103e-07,-7.3768014640429e-08,,,,,-4.39595543998727e-07,1.4648006088963e-07,2.00591387916578e-07,2.00591387916473e-07,-2.15987522907506e-07,2.15987522907402e-07,-5.35930427615404e-07,0,0,0,3.17439999999988,102,983.064705882353,533.127450980392,1816.82352941176,985.553921568627,980.575490196079,551.496078431373,514.758823529412,1825.80392156863,1807.8431372549,0
1898.1888,1.13511071599475e-07,-2.4364585067396e-08,8.91464865321243e-08,2.6023635237771e-07,1.12683240129871e-07,1.12683240129776e-07,,1.52892508964018e-07,5.74651765645033e-08,4.49972826680139e-07,-4.46709524694055e-08,4.49972826680572e-07,1.88285264994152e-07,-1.08216955629045e-08,,,,1.09601114522088e-07,,,2.20432055705643e-07,,1.85736338800144e-08,1.16468043128414e-07,8.82342405587576e-08,-3.14190057527239e-08,,,-1.66063332122261e-09,4.33179198246202e-07,7.91299006775396e-07,5.38103007893489e-07,,,8.85222167435087e-08,-2.15162262964049e-08,-8.27601128917501e-08,2.51727457679777e-07,2.51727457679558e-07,-8.16624726947215e-08,,,,,-4.28294313882838e-07,1.2010968402251e-07,2.05501684746933e-07,2.05501684746826e-07,-1.74061964077695e-07,1.7406196407759e-07,-5.28811315256427e-07,0,0,0,3.27679999999987,103,981.73640776699,535.57572815534,1810.97572815534,984.994174757282,978.478640776699,549.265048543689,521.88640776699,1820.80582524272,1801.14563106796,0
1898.2912,1.1279932989553e-07,-3.38269476495675e-08,7.89723822460112e-08,2.56989852226355e-07,1.04969860615221e-07,1.04969860615125e-07,,1.55176673422912e-07,5.64630082891409e-08,4.62753323616836e-07,-4.43512735946562e-08,4.6275332361727e-07,2.00869397779135e-07,-1.96894375925599e-08,,,,1.05098415872004e-07,,,2.3303822134972e-07,,1.96691932774651e-08,1.23727358608896e-07,8.29832451307897e-08,-3.16196301554497e-08,,,-4.77247581166791e-09,4.31229398589588e-07,7.97315801741603e-07,5.14305072545991e-07,,,9.46067413119969e-08,-5.015464809952e-09,-8.48176083347507e-08,2.71505443216761e-07,2.71505443216539e-07,-8.4459808622151e-08,,,,,-4.1295277653164e-07,9.41025380361499e-08,2.08702781362641e-07,2.08702781362531e-07,-1.33116024550514e-07,1.33116024550404e-07,-5.26480255598167e-07,0,0,0,3.37919999999986,102,981.14362745098,539.729901960784,1806.93137254902,983.077450980392,979.209803921569,552.646078431373,526.813725490196,1817.10784313726,1796.75490196078,0
1898.3936,1.10092279471077e-07,-4.24965557516962e-08,6.75957237194335e-08,2.5786855329909e-07,9.72045409444358e-08,9.7204540944338e-08,,1.56314600822586e-07,6.09599700616626e-08,4.6607278393919e-07,-4.23888470576325e-08,4.66072783939622e-07,2.10586955201689e-07,-2.83145329438872e-08,,,,1.01621679288453e-07,,,2.47655304962619e-07,,2.24116522214696e-08,1.33815881665746e-07,8.16160368416513e-08,-3.08192393750348e-08,,,-8.63113189741469e-09,4.27178220426259e-07,7.83848523689702e-07,4.87142097189112e-07,,,9.67670473654436e-08,9.52236697861412e-09,-8.43273479277759e-08,2.83941696136483e-07,2.83941696136258e-07,-8.17308223403516e-08,,,,,-3.90604308191185e-07,7.14786001471308e-08,2.08943233769206e-07,2.08943233769093e-07,-9.60200992522421e-08,9.60200992521254e-08,-5.27831164353991e-07,0,0,0,3.48160000000007,103,980.193689320388,541.478640776699,1814.21359223301,981.854368932039,978.533009708738,554.853398058252,528.103883495146,1825.57281553398,1802.85436893204,0
1898.496,1.05684386317001e-07,-4.97441531892711e-08,5.59402331277867e-08,2.63084547464572e-07,9.02222599102781e-08,9.02222599101794e-08,,1.56279035371572e-07,7.12569747734527e-08,4.57944795306759e-07,-3.92047350664839e-08,4.57944795307187e-07,2.15749711827359e-07,-3.58915750091273e-08,,,,9.79362408188201e-08,,,2.63887494135236e-07,,2.68765388399024e-08,1.46235876298446e-07,8.46790400990535e-08,-2.86097385953329e-08,,,-1.30541868182818e-08,4.21712360383435e-07,7.55294098403588e-07,4.59731860687174e-07,,,9.4782661029513e-08,2.15258875706239e-08,-8.03710691859172e-08,2.88603335592383e-07,2.88603335592157e-07,-7.33030789750791e-08,,,,,-3.57963023705778e-07,5.49683277150413e-08,2.05044740128485e-07,2.05044740128368e-07,-6.51889087040981e-08,6.51889087039726e-08,-5.3158574872776e-07,0,0,0,3.58400000000006,102,981.916176470588,540.546078431373,1820.18137254902,982.102941176471,981.729411764706,553.324509803922,527.767647058824,1833,1807.36274509804,0
1898.5984,9.9982438609628e-08,-5.50846768101422e-08,4.48977617995462e-08,2.72475667042548e-07,8.47335227478449e-08,8.47335227477457e-08,,1.5515167527643e-07,8.74244532845823e-08,4.37203233493203e-07,-3.52883158917607e-08,4.37203233493623e-07,2.1503880608824e-07,-4.17756205328204e-08,,,,9.28938420153295e-08,,,2.81331727775348e-07,,3.31865987354505e-08,1.60539591093745e-07,9.23724779070717e-08,-2.47683243890276e-08,,,-1.78601370602939e-08,4.15482529115464e-07,7.16397386121646e-07,4.35591133710378e-07,,,8.86830472934112e-08,3.06828033584028e-08,-7.22362276621295e-08,2.85588535925564e-07,2.85588535925337e-07,-5.92572454688434e-08,,,,,-3.11900769968046e-07,4.67551180637964e-08,1.96038901737999e-07,1.9603890173788e-07,-4.23791199045378e-08,4.23791199044018e-08,-5.36470850092233e-07,0,1,0,3.68640000000005,102,983.519117647059,537.526470588235,1822.16666666667,983.108823529412,983.929411764706,555.589215686275,519.463725490196,1838.69607843137,1805.63725490196,0
1898.7008,9.34592221710501e-08,-5.82257745832698e-08,3.52334475878436e-08,2.85536089330994e-07,8.12799000470232e-08,8.1279900046924e-08,,1.53133578979087e-07,1.09291154366892e-07,4.03527960713369e-07,-3.11366342022129e-08,4.03527960713782e-07,2.07633943032099e-07,-4.55395235325628e-08,,,,8.56275230594128e-08,,,2.99569529688449e-07,,4.15146453457672e-08,1.76374942886087e-07,1.04537414734384e-07,-1.92762602929901e-08,,,-2.28820895674941e-08,4.09045828552433e-07,6.71705547361888e-07,4.18148762273056e-07,,,7.87279023960023e-08,3.69470849353669e-08,-5.95220375501454e-08,2.75480157018492e-07,2.75480157018264e-07,-3.99084837246063e-08,,,,,-2.50001831877165e-07,4.82999142120223e-08,1.81268224871368e-07,1.81268224871246e-07,-2.86234018232662e-08,2.86234018231214e-08,-5.41384895443434e-07,0,1,0,3.78880000000004,103,984.442233009709,538.152427184466,1825.49514563107,989.220388349515,979.664077669903,559.619417475728,516.685436893204,1835.30097087379,1815.68932038835,0
1898.8032,8.66185645008681e-08,-5.90865534634213e-08,2.75320110375128e-08,3.01452185984185e-07,8.02030702923746e-08,8.02030702922761e-08,,1.50527301581138e-07,1.36409777593204e-07,3.57471321076383e-07,-2.71895237782207e-08,3.57471321076786e-07,1.93317682697889e-07,-4.69933647498098e-08,,,,7.56552370687595e-08,,,3.18188192234182e-07,,5.20333053835072e-08,1.93483601335185e-07,1.20673488503691e-07,-1.22995899006489e-08,,,-2.7965566411776e-08,4.02865771639834e-07,6.25117793309842e-07,4.10165408074277e-07,,,6.53824919422243e-08,4.05183996804155e-08,-4.22025518403898e-08,2.5926054905642e-07,2.59260549056193e-07,-1.5797240577226e-08,,,,,-1.71093387872592e-07,6.02714979832153e-08,1.60441811991275e-07,1.60441811991152e-07,-2.42591508800801e-08,2.42591508799286e-08,-5.45528753451571e-07,0,1,0,3.89120000000003,102,989.782352941176,537.024509803922,1828.56862745098,990.933333333333,988.63137254902,557.65,516.399019607843,1838.43137254902,1818.70588235294,0
1898.9056,7.99814785258988e-08,-5.77905496778838e-08,2.21909288480827e-08,3.19149131744767e-07,8.1635262724005e-08,8.16352627239068e-08,,1.47701203385154e-07,1.67989899447093e-07,3.00475082575622e-07,-2.37799263627605e-08,3.00475082576015e-07,1.72518896998631e-07,-4.61654227615634e-08,,,,6.29040237643889e-08,,,3.36799605713381e-07,,6.48527029481432e-08,2.11644744995065e-07,1.39977318320938e-07,-4.14354620352828e-09,,,-3.29574710780409e-08,3.97352081233843e-07,5.79661092535201e-07,4.13212290509855e-07,,,4.92955392121722e-08,4.17869869192839e-08,-2.06534305741922e-08,2.38217443959425e-07,2.38217443959199e-07,1.23170912578493e-08,,,,,-7.56667946440952e-08,8.25465593046527e-08,1.3365194082013e-07,1.33651940820006e-07,-2.89857979046758e-08,2.89857979045194e-08,-5.48485978829195e-07,0,0,0,3.99360000000002,103,988.07572815534,545.880097087379,1824.55339805825,990.397087378641,985.754368932039,567.820388349515,523.939805825243,1834.41747572816,1814.68932038835,0
1899.008,7.40808646174781e-08,-5.46359061918376e-08,1.94449584257095e-08,3.37353575182889e-07,8.55113602367935e-08,8.55113602366962e-08,,1.45052523402673e-07,2.0283455734402e-07,2.34825899656657e-07,-2.11166376653789e-08,2.34825899657039e-07,1.46278001754393e-07,-4.32532047766427e-08,,,,4.76608980889895e-08,,,3.55028436400758e-07,,7.99788203677863e-08,2.30581845180596e-07,1.61389200753496e-07,4.79964269442109e-09,,,-3.76938643175841e-08,3.92906615842179e-07,5.37529687433919e-07,4.27347233927378e-07,,,3.12745289964125e-08,4.12481661539699e-08,4.36660144320248e-09,2.1385052895485e-07,2.13850528954627e-07,4.34859662627086e-08,,,,,3.38719478456091e-08,1.14248275298658e-07,1.0136435854856e-07,1.01364358548435e-07,-4.19414562602506e-08,4.19414562600915e-08,-5.50229567465578e-07,0,0,0,4.096,102,976.11862745098,544.263725490196,1819.44117647059,981.200980392157,971.036274509804,565.206862745098,523.320588235294,1829.73529411765,1809.14705882353,0
1899.1104,6.94432360972806e-08,-5.0045717441661e-08,1.93975186556889e-08,3.54674248842429e-07,9.15981957990243e-08,9.15981957989285e-08,,1.42974377352663e-07,2.39341605143289e-07,1.63496733082974e-07,-1.93010951826607e-08,1.63496733083345e-07,1.1613361975178e-07,-3.8560265712552e-08,,,,3.04778133172278e-08,,,3.7246897239081e-07,,9.73059459536673e-08,2.49872121863746e-07,1.83647196753055e-07,1.40962073601272e-08,,,-4.19922747904658e-08,3.89937623987582e-07,5.00302303993231e-07,4.51066717269054e-07,,,1.22440168133507e-08,3.94065634262409e-08,3.17805457275517e-08,1.87766173232149e-07,1.87766173231929e-07,7.66388121031182e-08,,,,,1.53197347846186e-07,1.53844793123833e-07,6.43887647168709e-08,6.43887647167459e-08,-6.18319498489915e-08,6.18319498488305e-08,-5.51044783261555e-07,0,0,0,4.19839999999999,102,982.1,540.628921568627,1820.42647058824,982.772549019608,981.427450980392,565,516.257843137255,1823.73529411765,1817.11764705882,0
1899.2128,6.65496480150851e-08,-4.45081266675527e-08,2.20415213476014e-08,3.69706389766402e-07,9.95365436414244e-08,9.95365436413299e-08,,1.41821210579e-07,2.7560671531178e-07,8.98623815150015e-08,-1.83666070615592e-08,8.98623815153638e-08,8.39367681292353e-08,-3.24355382238092e-08,,,,1.20765360488931e-08,,,3.88637319162065e-07,,1.16647593620023e-07,2.68904522939788e-07,2.05370513771993e-07,2.33071747390841e-08,,,-4.56559687747055e-08,3.88829797578603e-07,4.69205466657606e-07,4.81536388342732e-07,,,-6.82826966912607e-09,3.66905994933775e-08,6.02917751603368e-08,1.61544557144064e-07,1.61544557143849e-07,1.10672565229511e-07,,,,,2.76381219648584e-07,1.99340985256787e-07,2.38242236716391e-08,2.38242236715145e-08,-8.71033692399268e-08,8.7103369239765e-08,-5.51402655339006e-07,0,0,0,4.30079999999998,103,975.209708737864,549.682524271845,1811.73300970874,981.736893203884,968.682524271845,567.206796116505,532.158252427185,1817.08737864078,1806.3786407767,0
1899.3152,6.57897808465263e-08,-3.8519653463372e-08,2.7270127383222e-08,3.81162279556194e-07,1.08889237881021e-07,1.08889237880928e-07,,1.41869883828869e-07,3.09615413624453e-07,1.73360967950534e-08,-1.8325843998077e-08,1.73360967954068e-08,5.16206562273949e-08,-2.52258249340904e-08,,,,-6.72639098861968e-09,,,4.0295686090328e-07,,1.37791574473206e-07,2.86915349413061e-07,2.25195255069371e-07,3.20198462915973e-08,,,-4.84969356341773e-08,3.89897423135386e-07,4.45311726623634e-07,5.1505022173309e-07,,,-2.50358974769028e-08,3.33914122323617e-08,8.85123043159083e-08,1.36588951556962e-07,1.36588951556751e-07,1.44538431905823e-07,,,,,3.96537157397437e-07,2.48545063376175e-07,-1.90203627635661e-08,-1.90203627636892e-08,-1.16103172051629e-07,1.1610317205147e-07,-5.51841901751585e-07,0,0,0,4.40319999999997,102,973.333333333333,546.511274509804,1798.11274509804,978.179411764706,968.487254901961,568.560784313725,524.461764705882,1805.50980392157,1790.71568627451,0
1899.4176,6.74311414653629e-08,-3.25404588678468e-08,3.48906825975817e-08,3.88010995645808e-07,1.19185279380068e-07,1.19185279379977e-07,,1.43282906903036e-07,3.39471268056241e-07,-5.09849381948354e-08,-1.92129924979042e-08,-5.09849381944892e-08,2.09842576278991e-08,-1.72443632578074e-08,,,,-2.50841281386259e-08,,,4.14791302369064e-07,,1.60539599397587e-07,3.03094651786441e-07,2.41948812286893e-07,3.98783192649327e-08,,,-5.03722214684566e-08,3.9335704916282e-07,4.29595911407017e-07,5.47640392271185e-07,,,-4.16407364486112e-08,2.96388654975076e-08,1.15118328237374e-07,1.13998993718267e-07,1.13998993718062e-07,1.77313005445553e-07,,,,,5.06676493701667e-07,2.99342761307075e-07,-6.27144547789156e-08,-6.27144547790362e-08,-1.47193709176953e-07,1.47193709176798e-07,-5.5289581949615e-07,0,0,0,4.50559999999996,102,972.882352941176,543.436274509804,1791.8137254902,974.938235294118,970.826470588235,565.477450980392,521.395098039216,1803.92156862745,1779.70588235294,0
1899.52,7.16113267839869e-08,-2.69637547432279e-08,4.4647572040821e-08,3.89598949503577e-07,1.29950667139058e-07,1.29950667138968e-07,,1.46083687605829e-07,3.6359642996907e-07,-1.1258180900457e-07,-2.111050782207e-08,-1.12581809004229e-07,-6.45978563386253e-09,-8.75652924752737e-09,,,,-4.21830486788839e-08,,,4.23500520934221e-07,,1.84695888933407e-07,3.16719477323524e-07,2.54811944213262e-07,4.6609503425598e-08,,,-5.12189455103634e-08,3.993209171597e-07,4.22834826598659e-07,5.75732283312388e-07,,,-5.61469083265184e-08,2.54174474719872e-08,1.3900875254778e-07,9.45062535284767e-08,9.45062535282762e-08,2.08246531016325e-07,,,,,6.00571956870443e-07,3.49913840552067e-07,-1.0578985100152e-07,-1.05789851001638e-07,-1.78808099506486e-07,1.78808099506337e-07,-5.55061100771429e-07,0,0,0,4.60799999999995,103,974.11213592233,545.502427184466,1795.11165048544,976.344660194175,971.879611650485,559.899029126214,531.105825242718,1809.29126213592,1780.93203883495,0
1899.6224,7.83412216598901e-08,-2.209843956816e-08,5.62427820917875e-08,3.8573495862641e-07,1.40722559574591e-07,1.40722559574502e-07,,1.50148566906438e-07,3.80867342262407e-07,-1.65645480507397e-07,-2.41580269519092e-08,-1.65645480507058e-07,-2.9562199803974e-08,1.48945063050534e-11,,,,-5.73120799641891e-08,,,4.2848671061715e-07,,2.1000264392622e-07,3.27264387353574e-07,2.63423769768888e-07,5.20343865545456e-08,,,-5.10803618243052e-08,4.07782608058369e-07,4.2540979690649e-07,5.96721950450752e-07,,,-6.83243190681758e-08,2.06074487862926e-08,1.59431211338585e-07,7.84735238145239e-08,7.84735238143286e-08,2.36773841589176e-07,,,,,6.73448430169052e-07,3.9885458950589e-07,-1.46826087252582e-07,-1.46826087252696e-07,-2.09443731162224e-07,2.09443731162086e-07,-5.5877197252135e-07,0,0,0,4.71039999999994,102,972.030882352941,553.614215686275,1798.77941176471,974.310784313725,969.750980392157,566.716666666667,540.511764705882,1813.87254901961,1783.6862745098,0
1899.7248,8.75029693308598e-08,-1.81636018544075e-08,6.93393674765046e-08,3.7673859379377e-07,1.51050140550961e-07,1.51050140550873e-07,,1.55212925003747e-07,3.90688317461181e-07,-2.09096164619786e-07,-2.85462639972678e-08,-2.09096164619445e-07,-4.75529222860386e-08,8.86625773066756e-09,,,,-6.99410234051685e-08,,,4.2921899338892e-07,,2.36046985445279e-07,3.34468503084145e-07,2.6792107583232e-07,5.60586384528766e-08,,,-5.01230841684772e-08,4.18584246170268e-07,4.37102398612616e-07,6.09367418359581e-07,,,-7.8186138622775e-08,1.50327882189063e-08,1.76057145719702e-07,6.59343709419943e-08,6.5934370941804e-08,2.62482317346695e-07,,,,,7.22424277471886e-07,4.45189073983325e-07,-1.84539715077815e-07,-1.84539715077924e-07,-2.37607174775753e-07,2.37607174775625e-07,-5.64343206343835e-07,0,1,0,4.81279999999993,103,971.114077669903,556.636893203883,1802.72815533981,974.560194174757,967.667961165048,575.528155339806,537.745631067961,1816.72815533981,1788.72815533981,0
1899.8272,9.88378048789641e-08,-1.52950584366212e-08,8.35427464423896e-08,3.6344692348534e-07,1.6048947504861e-07,1.60489475048524e-07,,1.60886049759655e-07,3.9302000473747e-07,-2.42539881558355e-07,-3.45015486854192e-08,-2.4253988155801e-07,-6.00125914146152e-08,1.75804187821648e-08,,,,-7.97845593203526e-08,,,4.25242684521478e-07,,2.6217306501569e-07,3.38363021675347e-07,2.68924196713416e-07,5.86491621143137e-08,,,-4.86396022878681e-08,4.31387511809029e-07,4.56946604942983e-07,6.13922714175638e-07,,,-8.59338764268887e-08,8.50936270822048e-09,1.89007020901119e-07,5.66535726701829e-08,5.66535726699973e-08,2.85065551921929e-07,,,,,7.46719300999725e-07,4.88269867283733e-07,-2.17849689931107e-07,-2.1784968993121e-07,-2.61740327703215e-07,2.617403277031e-07,-5.71887872335697e-07,0,1,0,4.91519999999991,102,973.300490196078,555.464215686275,1805.84803921569,975.328431372549,971.272549019608,577.676470588235,533.251960784314,1818.38235294118,1793.3137254902,0
1899.9296,1.11931135374985e-07,-1.35644598137488e-08,9.8366675561277e-08,3.47162415970131e-07,1.6859921794106e-07,1.68599217940975e-07,,1.66674366641828e-07,3.88368585606244e-07,-2.66198581356306e-07,-4.22668882979336e-08,-2.66198581355955e-07,-6.68179053217165e-08,2.58973257639778e-08,,,,-8.6815175049527e-08,,,4.16192547615016e-07,,2.87435682848605e-07,3.39266050830968e-07,2.67476223341733e-07,5.98109760290378e-08,,,-4.70258106966179e-08,4.45671789987172e-07,4.83143361869332e-07,6.11997584710773e-07,,,-9.18841358857156e-08,9.01429586357668e-10,1.98829254782291e-07,5.02008195057654e-08,5.02008195055838e-08,3.04309891828776e-07,,,,,7.4767795741389e-07,5.27608134822116e-07,-2.45883032841725e-07,-2.45883032841821e-07,-2.80160438787767e-07,2.80160438787666e-07,-5.81253964229955e-07,0,1,0,5.0175999999999,102,975.251470588235,555.011764705882,1806.31862745098,977.851960784314,972.650980392157,572.472549019608,537.550980392157,1823.24509803922,1789.39215686275,0
1900.032,1.26211142110912e-07,-1.30068694861992e-08,1.13204272624748e-07,3.29526104323619e-07,1.7494309366519e-07,1.74943093665107e-07,,1.72017029024597e-07,3.77727493553167e-07,-2.80817994584553e-07,-5.20756774664898e-08,-2.80817994584192e-07,-6.80802332727237e-08,3.34976335145992e-08,,,,-9.1221410739693e-08,,,4.01829840328765e-07,,3.10624016656935e-07,3.37747557511972e-07,2.64932349802793e-07,5.95759511787184e-08,,,-4.57362404369479e-08,4.60762400427448e-07,5.13031064318995e-07,6.06192260714016e-07,,,-9.63887851324172e-08,-7.80782944117338e-09,2.0642467509669e-07,4.60330583672256e-08,4.60330583670473e-08,3.20125440504877e-07,,,,,7.28624737180947e-07,5.62708641491603e-07,-2.67929723426374e-07,-2.67929723426464e-07,-2.91060389302278e-07,2.9106038930219e-07,-5.92016735926486e-07,0,0,0,5.11999999999989,103,975.414077669903,549.762621359223,1802.23786407767,975.579611650485,975.24854368932,568.677669902913,530.847572815534,1821.81553398058,1782.66019417476,0
1900.1344,1.40977820010513e-07,-1.3644477469524e-08,1.27333342541018e-07,3.1232302226401e-07,1.79107439515743e-07,1.79107439515661e-07,,1.76337712533568e-07,3.62462929399626e-07,-2.87548617526831e-07,-6.41032942547074e-08,-2.87548617526459e-07,-6.40938490421739e-08,4.00079188697266e-08,,,,-9.33447127714675e-08,,,3.82095181790176e-07,,3.30365989363403e-07,3.34563807475433e-07,2.62798988100817e-07,5.8006639676146e-08,,,-4.52318632933102e-08,4.75881107247673e-07,5.43166901766423e-07,5.99607237186641e-07,,,-9.97591387568614e-08,-1.74480035908055e-08,2.12906944386524e-07,4.35770121573389e-08,4.35770121571626e-08,3.32581331607372e-07,,,,,6.94512377480856e-07,5.92980083554764e-07,-2.83406521330016e-07,-2.83406521330099e-07,-2.92618000532373e-07,2.92618000532299e-07,-6.03537778137258e-07,0,0,0,5.22239999999988,102,976.883333333333,552.145588235294,1799.3431372549,976.660784313725,977.105882352941,573.227450980392,531.063725490196,1818.97058823529,1779.71568627451,0
1900.2368,1.55465672897158e-07,-1.54911278973409e-08,1.39974544999843e-07,2.97255241666648e-07,1.80740526817701e-07,1.8074052681762e-07,,1.79116625920055e-07,3.44159237817097e-07,-2.8780855187236e-07,-7.83931828790924e-08,-2.87808551871975e-07,-5.53015929235638e-08,4.50354421511996e-08,,,,-9.36311674826806e-08,,,3.57144191328979e-07,,3.45306398794613e-07,3.30564451054101e-07,2.62539598543107e-07,5.52090457462885e-08,,,-4.59281563529352e-08,4.90212902581157e-07,5.69610441271015e-07,5.9534578571292e-07,,,-1.02208785422858e-07,-2.76348278782078e-08,2.19420877947566e-07,4.23023027778383e-08,4.23023027776624e-08,3.4190389987994e-07,,,,,6.5133426674397e-07,6.17755504837782e-07,-2.91884877809519e-07,-2.91884877809598e-07,-2.83218428796238e-07,2.83218428796175e-07,-6.1508796453553e-07,0,0,0,5.32479999999987,103,974.185436893204,557.955825242719,1795.29126213592,972.988349514563,975.382524271845,576.666019417476,539.245631067961,1814.77669902913,1775.80582524272,0
1900.3392,1.68927429649986e-07,-1.85343286010913e-08,1.50393101048917e-07,2.85731165001146e-07,1.79607713835203e-07,1.79607713835123e-07,,1.79978304573414e-07,3.24464474435948e-07,-2.83142326153534e-07,-9.47848330956039e-08,-2.83142326153135e-07,-4.2272798752585e-08,4.82291220081938e-08,,,,-9.26153722972282e-08,,,3.27345295413846e-07,,3.54327699626302e-07,3.2659024939642e-07,2.65383919079812e-07,5.1340618792812e-08,,,-4.81430654244861e-08,5.02984190957063e-07,5.88440008328839e-07,5.96112692912447e-07,,,-1.0383072522289e-07,-3.78156926252508e-08,2.26969971984832e-07,4.17811797674392e-08,4.17811797672621e-08,3.48434813746383e-07,,,,,6.05379122543459e-07,6.36410122628427e-07,-2.93182261009103e-07,-2.93182261009177e-07,-2.6171439940367e-07,2.61714399403617e-07,-6.2600710510644e-07,0,0,0,5.42719999999986,102,969.101960784314,557.748039215686,1789.39215686275,966.527450980392,971.676470588235,573.572549019608,541.923529411765,1808.03921568627,1770.74509803922,0
1900.4416,1.80721488746829e-07,-2.27095811880086e-08,1.58011907558841e-07,2.78714529685988e-07,1.75643890816282e-07,1.75643890816202e-07,,1.78770818661792e-07,3.0496386459255e-07,-2.75091321204943e-07,-1.12882136196525e-07,-2.75091321204531e-07,-2.56835273180658e-08,4.93469721858515e-08,,,,-9.09226750381256e-08,,,2.93247895567306e-07,,3.56755599460874e-07,3.23386845917367e-07,2.72180614264406e-07,4.66024389293364e-08,,,-5.20498751235056e-08,5.13543228076984e-07,5.96424355444114e-07,6.03952432374776e-07,,,-1.04612452040886e-07,-4.73801850903447e-08,2.36288345858024e-07,4.17318983182963e-08,4.17318983181165e-08,3.52570575745751e-07,,,,,5.62490174147949e-07,6.48509170649473e-07,-2.87464845475258e-07,-2.8746484547533e-07,-2.27605581767429e-07,2.27605581767384e-07,-6.35838943163753e-07,0,0,0,5.52960000000007,103,974.578155339806,559.671359223301,1774.2572815534,972.752427184466,976.403883495146,573.791262135922,545.55145631068,1786.06796116505,1762.44660194175,0
1900.544,1.90386085524607e-07,-2.78835015799135e-08,1.62502583944712e-07,2.7665361264754e-07,1.68986314219023e-07,1.68986314218944e-07,,1.75606436171089e-07,2.87084195466326e-07,-2.65100809436028e-07,-1.32072386871204e-07,-2.65100809435603e-07,-6.29746063624779e-09,4.83094330042905e-08,,,,-8.92506612669628e-08,,,2.55543299080273e-07,,3.52494659603582e-07,3.21546422030747e-07,2.83312537371033e-07,4.121829153815e-08,,,-5.76426184051636e-08,5.21428282301639e-07,5.9167890245252e-07,6.20088957061411e-07,,,-1.04478261709332e-07,-5.57982365230796e-08,2.47760320094763e-07,4.20304814349673e-08,4.20304814347836e-08,3.54708957788111e-07,,,,,5.27452471457962e-07,6.5390188064802e-07,-2.75308158985543e-07,-2.75308158985614e-07,-1.81093599187444e-07,1.81093599187403e-07,-6.44376549471407e-07,0,0,0,5.63200000000006,102,982.033823529412,563.663235294118,1764.97549019608,979.670588235294,984.397058823529,581.939215686275,545.387254901961,1771.3431372549,1758.60784313726,0
1900.6464,1.97683278853706e-07,-3.38472688078949e-08,1.63836010045832e-07,2.79479265862388e-07,1.59981916037839e-07,1.59981916037761e-07,,1.70849052761368e-07,2.72024365065311e-07,-2.54484850492646e-07,-1.5157936079397e-07,-2.54484850492209e-07,1.50478041295074e-08,4.5230685998087e-08,,,,-8.83068734906681e-08,,,2.1503947235777e-07,,3.42069336963745e-07,3.21470848698314e-07,2.98667206275892e-07,3.54142057352229e-08,,,-6.47176743225801e-08,5.26407885891083e-07,5.74099697777523e-07,6.44809521980169e-07,,,-1.0334409001034e-07,-6.27431870908101e-08,2.61388623910024e-07,4.26683859211668e-08,4.2668385920978e-08,3.552227515521e-07,,,,,5.03571811061438e-07,6.52744239872042e-07,-2.5770009940073e-07,-2.57700099400801e-07,-1.23095402413979e-07,1.23095402413943e-07,-6.51592674748322e-07,0,0,0,5.73440000000005,102,985.927450980392,562.247058823529,1761.13235294118,982.973529411765,988.88137254902,582.813725490196,541.680392156863,1766.28431372549,1755.98039215686,0
1900.7488,2.026038488319e-07,-4.03139502632654e-08,1.62289898568659e-07,2.86646373361568e-07,1.49170405838892e-07,1.49170405838814e-07,,1.65048906133353e-07,2.60700199112668e-07,-2.44441311562627e-07,-1.70540941201749e-07,-2.44441311562179e-07,3.74497263615584e-08,4.0427031058143e-08,,,,-8.87244673199016e-08,,,1.72662665319752e-07,,3.26569356414578e-07,3.23348130958118e-07,3.1765079052324e-07,2.94104068520557e-08,,,-7.28778360528392e-08,5.28485602177759e-07,5.45425881358372e-07,6.77400532962018e-07,,,-1.01171128425806e-07,-6.81646004370213e-08,2.76825813551628e-07,4.36577992757791e-08,4.36577992755846e-08,3.54461943872804e-07,,,,,4.92526609280802e-07,6.45516823392576e-07,-2.36000870020266e-07,-2.3600087002034e-07,-5.52964987126004e-08,5.52964987125662e-08,-6.57500557947331e-07,0,0,0,5.83680000000004,103,984.165048543689,563.292233009709,1762.2572815534,983.296116504854,985.033980582524,581.04854368932,545.535922330097,1769.07766990291,1755.43689320388,0
1900.8512,2.05341772973719e-07,-4.69215247299472e-08,1.584202482438e-07,2.97205008731747e-07,1.37244678430819e-07,1.37244678430741e-07,,1.58840229068433e-07,2.53687771939553e-07,-2.36073035953535e-07,-1.88112217957164e-07,-2.36073035953077e-07,5.99575438143709e-08,3.44003017427169e-08,,,,-9.09901593242222e-08,,,1.29485004845779e-07,,3.07511299594609e-07,3.27143527769648e-07,3.39247743209248e-07,2.34252476903356e-08,,,-8.15684612208072e-08,5.27875937225395e-07,5.08926595044914e-07,7.16221516666297e-07,,,-9.80027744222964e-08,-7.22886003135584e-08,2.93471929860441e-07,4.49319958655734e-08,4.49319958653731e-08,3.52766207775997e-07,,,,,4.94529430990671e-07,6.3308721262547e-07,-2.11870289536208e-07,-2.11870289536285e-07,1.98023489539754e-08,-1.98023489540103e-08,-6.62045686226743e-07,0,0,0,5.93920000000003,102,984.561274509804,566.503921568627,1774.12254901961,984.093137254902,985.029411764706,586.964705882353,546.043137254902,1783.88235294118,1764.36274509804,0
1900.9536,2.06255578733364e-07,-5.32529143258018e-08,1.53002664407595e-07,3.0990638123461e-07,1.24987923343869e-07,1.2498792334379e-07,,1.52833781978775e-07,2.51165509345709e-07,-2.3036172537381e-07,-2.03585944131635e-07,-2.30361725373343e-07,8.16181759671852e-08,2.77934073738855e-08,,,,-9.53931061579986e-08,,,8.6749014129963e-08,,2.86639620027827e-07,3.32611359921823e-07,3.62132243183154e-07,1.76768132919497e-08,,,-9.01443615049751e-08,5.24964925317209e-07,4.68861166174019e-07,7.58995534356824e-07,,,-9.39704773806826e-08,-7.5551005382668e-08,3.10609331845969e-07,4.63038163455827e-08,4.63038163453766e-08,3.50467485781031e-07,,,,,5.08660023502344e-07,6.16762224496044e-07,-1.87145611782938e-07,-1.87145611783019e-07,9.89717708186101e-08,-9.89717708186482e-08,-6.65097166703509e-07,0,0,0,6.04160000000002,103,982.008252427184,566.942233009709,1780.4854368932,981.799029126214,982.217475728155,589.966019417476,543.918446601942,1789.6213592233,1771.34951456311,0
1901.056,2.05820194026219e-07,-5.88785202868163e-08,1.46941673739441e-07,3.23357891635285e-07,1.13189674125495e-07,1.13189674125414e-07,,1.47533277227899e-07,2.52875960350979e-07,-2.28087285168281e-07,-2.16510631163257e-07,-2.28087285167808e-07,1.01564533029624e-07,2.13192850271152e-08,,,,-1.01990857115921e-07,,,4.58313912079952e-08,,2.65695867950379e-07,3.39333948900221e-07,3.84826912891145e-07,1.2369249974219e-08,,,-9.79477008369983e-08,5.20264776602436e-07,4.29900314255711e-07,8.03265498537639e-07,,,-8.92672223930291e-08,-7.85012824675179e-08,3.27536969810986e-07,4.74996477330767e-08,4.74996477328651e-08,3.47870639414142e-07,,,,,5.33168797937516e-07,5.98226592097193e-07,-1.63645968692484e-07,-1.6364596869257e-07,1.78552775851306e-07,-1.78552775851346e-07,-6.66520626415031e-07,0,1,0,6.14400000000001,102,981.785784313725,567.039705882353,1782.10784313725,981.014705882353,982.556862745098,588.149019607843,545.930392156863,1788.94117647059,1775.27450980392,0
1901.1584,2.04560446133886e-07,-6.34099344399574e-08,1.41150511693973e-07,3.36222126254631e-07,1.02554677726315e-07,1.02554677726232e-07,,1.43286972368924e-07,2.58138285046374e-07,-2.29747542934759e-07,-2.26774744825595e-07,-2.29747542934282e-07,1.19127153828574e-07,1.56760548318114e-08,,,,-1.10599342517626e-07,,,8.1089695319139e-09,,2.46195295106643e-07,3.46790509157005e-07,4.05887463802057e-07,7.66961203652557e-09,,,-1.04372006196311e-07,5.14366229147924e-07,3.96619475292845e-07,8.46827775506942e-07,,,-8.41058444046805e-08,-8.17198157797941e-08,3.43678076334023e-07,4.82263915904403e-08,4.82263915902241e-08,3.45216754835032e-07,,,,,5.65701517893198e-07,5.79336076211e-07,-1.42927277276617e-07,-1.42927277276708e-07,2.5492949973378e-07,-2.54929499733825e-07,-6.6627359973351e-07,0,1,0,6.24639999999999,102,982.896568627451,567.253921568628,1777.99509803922,981.009803921569,984.783333333333,590.173529411765,544.33431372549,1785.78431372549,1770.20588235294,0
1901.2608,2.02968137502852e-07,-6.65450008044134e-08,1.36423136698488e-07,3.47411869622184e-07,9.36282599778891e-08,9.36282599778045e-08,,1.40277541580659e-07,2.65942129595271e-07,-2.355355096748e-07,-2.34615663284384e-07,-2.35535509674319e-07,1.3391961385343e-07,1.14710759054163e-08,,,,-1.20816427643318e-07,,,-2.52337742492941e-08,,2.29264097872544e-07,3.5444269102814e-07,4.24073598934474e-07,3.69336772749368e-09,,,-1.08901977196575e-07,5.07885787999689e-07,3.73093925162208e-07,8.8796900231673e-07,,,-7.86844292897242e-08,-8.57622704741544e-08,3.5863690295606e-07,4.82181367856857e-08,4.82181367854656e-08,3.42654807666514e-07,,,,,6.03530014597385e-07,5.61836117569536e-07,-1.26069783638561e-07,-1.26069783638657e-07,3.25022336399048e-07,-3.25022336399098e-07,-6.64475285925145e-07,0,1,0,6.34879999999998,103,985.958252427185,567.860194174757,1781.83495145631,984.282524271845,987.633980582524,589.166019417476,546.554368932039,1788.40776699029,1775.26213592233,0
1901.3632,2.01416099212867e-07,-6.80916363558292e-08,1.33324462857093e-07,3.56220570081013e-07,8.67538925227853e-08,8.67538925226989e-08,,1.38547926654816e-07,2.75128748497509e-07,-2.4538017541325e-07,-2.4053169553541e-07,-2.45380175412768e-07,1.4585487200268e-07,9.16977670865704e-09,,,,-1.32072519533352e-07,,,-5.33664057327259e-08,,2.15572842641618e-07,3.61807813082337e-07,4.38466909213238e-07,5.08563650650699e-10,,,-1.11137513013923e-07,5.01396658035964e-07,3.62552115750001e-07,9.2547859501477e-07,,,-7.31700371992374e-08,-9.11148168802771e-08,3.72196139853559e-07,4.72400740138467e-08,4.72400740136236e-08,3.40245412383106e-07,,,,,6.43858022248449e-07,5.47117011592729e-07,-1.13571662970529e-07,-1.13571662970631e-07,3.86599892513963e-07,-3.86599892514018e-07,-6.61424390817098e-07,0,0,0,6.45119999999997,102,987.732428344303,561.547967827663,1797.00659385947,985.966901108269,989.497955580337,580.242529838022,542.853405817303,1810.99957374254,1783.0136139764,0
1901.4656,2.00079687336825e-07,-6.79707026613692e-08,1.32108984675516e-07,3.62359460075361e-07,8.20579075578992e-08,8.20579075578106e-08,,1.38045975187263e-07,2.84619962694159e-07,-2.59014426596188e-07,-2.45117484950607e-07,-2.59014426595706e-07,1.55091724057423e-07,9.06643373056392e-09,,,,-1.43683359259444e-07,,,-7.58894651696213e-08,,2.05354977859955e-07,3.68499488493223e-07,4.48522466478257e-07,-1.84612436925394e-09,,,-1.10813136836476e-07,4.95338505346737e-07,3.66995245512891e-07,9.58510636831258e-07,,,-6.76981753950577e-08,-9.81337723965782e-08,3.84281274982124e-07,4.50596383466581e-08,4.50596383464323e-08,3.37994082763938e-07,,,,,6.84189401856083e-07,5.36077014998204e-07,-1.05361693889235e-07,-1.0536169388934e-07,4.3830072072561e-07,-4.3830072072567e-07,-6.57571565214206e-07,0,0,0,6.55359999999996,102,994.829448279415,639.967286128855,1704.8414382856,989.638043478261,1000.02085308057,579.689311594203,700.245260663507,1827.52173913043,1582.16113744076,0.764705882352941
1901.568,1.98882118999765e-07,-6.62052749970498e-08,1.32676844002779e-07,3.65902625255946e-07,7.94471739312672e-08,7.94471739311767e-08,,1.38662540160036e-07,2.93628015887706e-07,-2.76026138933246e-07,-2.48868226102577e-07,-2.76026138932765e-07,1.61950279674664e-07,1.12658518048948e-08,,,,-1.54884928954553e-07,,,-9.28400206377884e-08,,1.98471960967108e-07,3.74239970913524e-07,4.54062455161278e-07,-3.34067757006921e-09,,,-1.07812270084474e-07,4.89931066341008e-07,3.86787816547477e-07,9.86370736673426e-07,,,-6.23778182969581e-08,-1.06958991454311e-07,3.94917650514867e-07,4.14135724950883e-08,4.14135724948604e-08,3.35895226686782e-07,,,,,7.22672107732013e-07,5.29091087578329e-07,-1.00909714535392e-07,-1.00909714535499e-07,4.7944441353966e-07,-4.79444413539724e-07,-6.5347098300456e-07,0,0,0,6.65599999999995,103,1002.5493826259,748.899710518366,1562.17392004545,994.317391304348,1010.78137394745,585.891304347826,911.908116688906,1809.69565217391,1314.65218791699,0.941747572815534
1901.6704,1.97493199965179e-07,-6.29025620715519e-08,1.34590637893695e-07,3.67164354105155e-07,7.86180592928301e-08,7.86180592927384e-08,,1.40248250454313e-07,3.01781553245314e-07,-2.95871386214997e-07,-2.52008246331037e-07,-2.95871386214518e-07,1.66838448462472e-07,1.56732064822748e-08,,,,-1.64860344194341e-07,,,-1.04661491118129e-07,,1.94492107793719e-07,3.78858106574224e-07,4.55226331678479e-07,-3.9402974928453e-09,,,-1.02170203447215e-07,4.85136934114678e-07,4.20398032094414e-07,1.0083164799713e-06,,,-5.729229703728e-08,-1.17428557207676e-07,4.04179843596497e-07,3.60020100335995e-08,3.60020100333698e-08,3.33965314275845e-07,,,,,7.58309425508587e-07,5.26046804532474e-07,-9.94063027567734e-08,-9.94063027568819e-08,5.09804607087159e-07,-5.09804607087227e-07,-6.49710185346445e-07,0,0,0,6.75839999999994,102,992.48531543052,589.824499147485,1776.09398976982,998.397101449275,986.573529411765,575.648017902813,604.000980392157,1854.89386189258,1697.29411764706,0
1901.7728,1.95399564156947e-07,-5.8231768869786e-08,1.3716779528723e-07,3.66562948966889e-07,7.90890458781756e-08,7.9089045878083e-08,,1.4261517533866e-07,3.09134195208828e-07,-3.17865167154936e-07,-2.54407493774855e-07,-3.1786516715446e-07,1.70204462586057e-07,2.19987459977789e-08,,,,-1.7278652841855e-07,,,-1.12148800646949e-07,,1.92770764557964e-07,3.82282140537056e-07,4.52396605123864e-07,-3.60677386703318e-09,,,-9.40669853720053e-08,4.80694958769691e-07,4.64486201962274e-07,1.02349337096445e-06,,,-5.249605162481e-08,-1.29050794979759e-07,4.1213498096476e-07,2.85256196602441e-08,2.85256196600131e-08,3.32241692319914e-07,,,,,7.90972819175927e-07,5.26427316023663e-07,-9.99632379235498e-08,-9.99632379236594e-08,5.29452006387863e-07,-5.29452006387937e-07,-6.46797678313354e-07,0,0,0,6.86079999999993,103,980.300970873786,554.131067961165,1879.82038834951,975.891262135922,984.71067961165,560.34854368932,547.91359223301,1936.74757281553,1822.8932038835,0
1901.8752,1.92030265965652e-07,-5.23996118543447e-08,1.39630654111379e-07,3.64529029476077e-07,8.0264443524981e-08,8.02644435248879e-08,,1.45543589556556e-07,3.1608800780188e-07,-3.41189566022257e-07,-2.5562451315556e-07,-3.41189566021785e-07,1.72510221892785e-07,2.97858844756356e-08,,,,-1.779160873465e-07,,,-1.16351913525833e-07,,1.92538044552e-07,3.84541287484666e-07,4.46119669756282e-07,-2.31798545423004e-09,,,-8.38163112753803e-08,4.76202203310348e-07,5.14382690733918e-07,1.03106413885437e-06,,,-4.80203692251448e-08,-1.41075005952844e-07,4.1880201419535e-07,1.87538773595496e-08,1.87538773593176e-08,3.30739802177087e-07,,,,,8.21219398775156e-07,5.29441648008239e-07,-1.01778087143797e-07,-1.01778087143907e-07,5.3867988372018e-07,-5.38679883720263e-07,-6.45021396333624e-07,0,0,0,6.96319999999992,102,972.018137254902,542.383333333333,1852.38725490196,961.809803921569,982.226470588235,555.256862745098,529.509803921569,1885.42156862745,1819.35294117647,0
1901.9776,1.86893545251414e-07,-4.56239356904248e-08,1.41269609561062e-07,3.61481251945583e-07,8.15185198858441e-08,8.151851988575e-08,,1.48804270484435e-07,3.23304153876933e-07,-3.64955716870315e-07,-2.55050004380329e-07,-3.6495571686985e-07,1.74218403904903e-07,3.84662895026064e-08,,,,-1.79686278731275e-07,,,-1.18418513460425e-07,,1.9299865528984e-07,3.85791147512279e-07,4.37033945872681e-07,-9.87422126508741e-11,,,-7.1848913920139e-08,4.71204854857881e-07,5.64815021480164e-07,1.03044789135771e-06,,,-4.39015776380865e-08,-1.52650154413079e-07,4.24150142568193e-07,6.58849978531248e-09,6.58849978507991e-09,3.29391394450097e-07,,,,,8.4999226524315e-07,5.34189758430966e-07,-1.04230119255451e-07,-1.0423011925556e-07,5.37975227961527e-07,-5.37975227961619e-07,-6.44342790094268e-07,0,0,0,7.0655999999999,102,968.26862745098,547.155882352941,1817.44607843137,956.61862745098,979.91862745098,568.502941176471,525.808823529412,1827.75490196078,1807.13725490196,0
1902.08,1.79678266485656e-07,-3.81099345464825e-08,1.41568331939247e-07,3.57847947486704e-07,8.22756164385457e-08,8.22756164384514e-08,,1.52185358136127e-07,3.31629636923226e-07,-3.88317956762979e-07,-2.52080996105466e-07,-3.88317956762522e-07,1.75789137392791e-07,4.74320325438005e-08,,,,-1.77820387897034e-07,,,-1.1938957633153e-07,,1.93426996096273e-07,3.86352336607226e-07,4.25808004647143e-07,2.95096729031842e-09,,,-5.86814948180792e-08,4.65270555874748e-07,6.10647400951792e-07,1.02152080446672e-06,,,-4.02260247441123e-08,-1.63010348382925e-07,4.281306149418e-07,-7.91085229209239e-09,-7.91085229232493e-09,3.27991987496249e-07,,,,,8.78325954406793e-07,5.39817150210435e-07,-1.06900197334733e-07,-1.06900197334842e-07,5.28006747023104e-07,-5.28006747023209e-07,-6.44391536838248e-07,0,0,0,7.16799999999989,103,967.66359223301,548.320388349515,1795.18446601942,953.948543689321,981.378640776699,563.066019417476,533.574757281553,1798.80582524272,1791.56310679612,0
1902.1824,1.70297524627634e-07,-3.00395582340376e-08,1.40257966393671e-07,3.54084942521575e-07,8.20633612206202e-08,8.20633612205257e-08,,1.55507430775091e-07,3.42010503543613e-07,-4.1059031093648e-07,-2.4626636143445e-07,-4.10590310936034e-07,1.776835218026e-07,5.61021690818882e-08,,,,-1.7237593845146e-07,,,-1.20008451226928e-07,,1.93225554401737e-07,3.86723084235688e-07,4.13081513203764e-07,6.63945491404513e-09,,,-4.48686784593222e-08,4.58037474109007e-07,6.47442086550589e-07,1.00468370304825e-06,,,-3.71677679751254e-08,-1.71618875666651e-07,4.30706004938879e-07,-2.45447629314168e-08,-2.45447629316484e-08,3.26171313814655e-07,,,,,9.07138170851892e-07,5.45601366694382e-07,-1.09528678412894e-07,-1.09528678413004e-07,5.0963617121511e-07,-5.09636171215228e-07,-6.44558348366018e-07,0,0,0,7.27039999999988,102,972.185294117647,540.55931372549,1739.23529411765,960.772549019608,983.598039215686,548.496078431373,532.622549019608,1736.85294117647,1741.61764705882,0
1902.2848,1.58877369230179e-07,-2.15777298689403e-08,1.37299639361315e-07,3.50650435019835e-07,8.05332205665943e-08,8.05332205664995e-08,,1.58620362687079e-07,3.55369698061609e-07,-4.313149370169e-07,-2.37392730148513e-07,-4.31314937016466e-07,1.80363630802387e-07,6.39669387158394e-08,,,,-1.63726076432839e-07,,,-1.20614517792313e-07,,1.91927954475383e-07,3.87531718939775e-07,3.9940285898023e-07,1.06817363314853e-08,,,-3.09483971628085e-08,4.4924998989475e-07,6.71778843170761e-07,9.80790147977194e-07,,,-3.49990138680766e-08,-1.78237321761008e-07,4.31851979068912e-07,-4.30209455066859e-08,-4.30209455069159e-08,3.2339563624292e-07,,,,,9.37109662816511e-07,5.50948146042561e-07,-1.11949347551196e-07,-1.11949347551307e-07,4.83941573252318e-07,-4.83941573252452e-07,-6.44118049280226e-07,0,1,0,7.37279999999987,103,982.085922330097,539.176213592233,1675.64077669903,972.831067961165,991.340776699029,545.709708737864,532.642718446602,1663.66019417476,1687.6213592233,0
1902.3872,1.45701295552697e-07,-1.28863672821949e-08,1.32814928270578e-07,3.47939243752358e-07,7.74605826002831e-08,7.74605826001878e-08,,1.61387107549542e-07,3.72468279022229e-07,-4.50277922406966e-07,-2.25497448858191e-07,-4.50277922406547e-07,1.8426359498456e-07,7.06103956618328e-08,,,,-1.52495151505925e-07,,,-1.21148608683985e-07,,1.89165871098567e-07,3.8942751402735e-07,3.85171399409769e-07,1.47158182367791e-08,,,-1.73968141392395e-08,4.38783688046998e-07,6.81348208320925e-07,9.50986432651026e-07,,,-3.40709048815713e-08,-1.82918990506808e-07,4.31535908009841e-07,-6.30072726787372e-08,-6.30072726789648e-08,3.19010516230002e-07,,,,,9.68604382874998e-07,5.55325131898718e-07,-1.14036402497571e-07,-1.14036402497683e-07,4.5220052235532e-07,-4.52200522355472e-07,-6.42325396065661e-07,0,1,0,7.47519999999986,102,990.954411764706,535.304901960784,1631.41666666667,982.949019607843,998.959803921569,538.862745098039,531.747058823529,1612.89215686275,1649.94117647059,0
1902.4896,1.31127588082941e-07,-4.13880994479546e-09,1.26988778138222e-07,3.46201618540075e-07,7.27379111047605e-08,7.27379111046645e-08,,1.63667655303419e-07,3.9377800065135e-07,-4.67483650213459e-07,-2.10818020566289e-07,-4.67483650213058e-07,1.89716963346163e-07,7.57190542658711e-08,,,,-1.39461776440968e-07,,,-1.2123911166804e-07,,1.84641032890848e-07,3.92937106596777e-07,3.70599327507767e-07,1.83361250590003e-08,,,-4.60530850280879e-09,4.2665175253669e-07,6.74860800978981e-07,9.16525147908207e-07,,,-3.47694851114622e-08,-1.8593456720026e-07,4.29680237256201e-07,-8.41639732138724e-08,-8.41639732140975e-08,3.1232204734202e-07,,,,,1.0015707899034e-06,5.58178738461188e-07,-1.15671127668371e-07,-1.15671127668486e-07,4.15811434499332e-07,-4.15811434499503e-07,-6.38486531824511e-07,0,1,0,7.57760000000008,103,994.672815533981,538.360679611651,1609.44660194175,990.199029126214,999.146601941748,542.576699029126,534.144660194175,1586.44660194175,1632.44660194175,0
1902.592,1.15513499614022e-07,4.46560007020004e-09,1.19979099684301e-07,3.45466544424046e-07,6.63633292904819e-08,6.6363329290385e-08,,1.65313996907884e-07,4.1937679004292e-07,-4.83072877256322e-07,-1.93717877079854e-07,-4.83072877255939e-07,1.96872967598707e-07,7.90798433038686e-08,,,,-1.25428108480192e-07,,,-1.20316315973233e-07,,1.78120146674478e-07,3.98329260382822e-07,3.55702751898177e-07,2.1136927569271e-08,,,7.11887028348135e-09,4.12996128009964e-07,6.51850184209327e-07,8.78598727877845e-07,,,-3.7447719814938e-08,-1.87644944809506e-07,4.26119665943417e-07,-1.06132268332533e-07,-1.06132268332755e-07,3.02697657635728e-07,,,,,1.03541362786243e-06,5.58875152522693e-07,-1.1671567628006e-07,-1.16715676280178e-07,3.76194933297071e-07,-3.76194933297261e-07,-6.32036906206343e-07,0,0,0,7.68000000000006,102,996.213235294118,538.458333333333,1603.5931372549,991.180392156863,1001.24607843137,540.962745098039,535.953921568628,1578.23529411765,1628.95098039216,0
1902.6944,9.91843142659511e-08,1.26899007302079e-08,1.11874214996239e-07,3.45493699429851e-07,5.8422131325988e-08,5.84221313258899e-08,,1.66176402361258e-07,4.48875225338032e-07,-4.97178034314445e-07,-1.74634268492953e-07,-4.97178034314081e-07,2.05662994828605e-07,8.05702215721697e-08,,,,-1.11069747443753e-07,,,-1.17727588269323e-07,,1.69439115196556e-07,4.05536590513856e-07,3.40328521531456e-07,2.27579914673895e-08,,,1.75399925175147e-08,3.98083728853363e-07,6.12483395901215e-07,8.38234949716412e-07,,,-4.23398693003106e-08,-1.88358822771234e-07,4.20579694491398e-07,-1.28480078000898e-07,-1.28480078001117e-07,2.89658003843708e-07,,,,,1.06890486929741e-06,5.5669598467259e-07,-1.16992358109487e-07,-1.16992358109606e-07,3.3472995950424e-07,-3.3472995950445e-07,-6.22634017822163e-07,0,0,0,7.78240000000005,102,991.097058823529,538.400980392157,1608.60294117647,984.788235294118,997.405882352941,542.910784313725,533.891176470588,1585.73529411765,1631.47058823529,0
1902.7968,8.2457456110784e-08,2.02590311407215e-08,1.02716487251587e-07,3.45788647431984e-07,4.9066653390688e-08,4.90666533905877e-08,,1.66116121555091e-07,4.81392974048361e-07,-5.09768748689774e-07,-1.54060890640408e-07,-5.09768748689431e-07,2.1583744570031e-07,8.01477774320451e-08,,,,-9.6812171620378e-08,,,-1.12858860032963e-07,,1.58510376055925e-07,4.1416153340352e-07,3.24220239068566e-07,2.29272275935036e-08,,,2.64849300914692e-08,3.8231984596101e-07,5.57485847180963e-07,7.96287696456988e-07,,,-4.94820780038886e-08,-1.88231548791522e-07,4.12704562043661e-07,-1.50633821493505e-07,-1.50633821493722e-07,2.72941636715444e-07,,,,,1.10021450546706e-06,5.50897863330159e-07,-1.16287083460731e-07,-1.16287083460853e-07,2.92738640628841e-07,-2.9273864062907e-07,-6.10245308307799e-07,0,0,0,7.88480000000004,103,983.340776699029,536.957281553398,1618.34466019418,977.252427184466,989.429126213592,539.102912621359,534.811650485437,1600.29126213592,1636.39805825243,0
1902.8992,6.56939080104738e-08,2.68763915829657e-08,9.25702995935238e-08,3.45695511305577e-07,3.85081074248878e-08,3.85081074247858e-08,,1.65021463833728e-07,5.15598403200554e-07,-5.2056997788322e-07,-1.32542278643615e-07,-5.20569977882898e-07,2.27026063509783e-07,7.78478552793394e-08,,,,-8.27920791451001e-08,,,-1.05273109496633e-07,,1.4535231988994e-07,4.23546188814469e-07,3.07111111014265e-07,2.14961477673804e-08,,,3.38461588734474e-08,3.66265312882985e-07,4.88222524619425e-07,7.53510541094306e-07,,,-5.86676778783349e-08,-1.87246590736142e-07,4.02131701343129e-07,-1.71834877333907e-07,-1.71834877334123e-07,2.52541413031173e-07,,,,,1.12707350764857e-06,5.40826048749411e-07,-1.14396723049235e-07,-1.14396723049361e-07,2.51481641526383e-07,-2.51481641526631e-07,-5.95198332474551e-07,0,0,0,7.98720000000003,102,980.607352941177,535.591176470588,1635.5637254902,973.736274509804,987.478431372549,535.226470588235,535.955882352941,1614.1862745098,1656.94117647059,0
1903.0016,4.93368863042557e-08,3.22556702950785e-08,8.15925565994216e-08,3.44539176477449e-07,2.70265809755199e-08,2.70265809754155e-08,,1.62826103760019e-07,5.4980442632534e-07,-5.29090796845612e-07,-1.10656967080575e-07,-5.2909079684531e-07,2.38767771366929e-07,7.37915451447222e-08,,,,-6.89248411410832e-08,,,-9.48558420922825e-08,,1.30153452567416e-07,4.32863290421411e-07,2.88814646865979e-07,1.84629896088414e-08,,,3.95957304829802e-08,3.50632243294326e-07,4.0687518924855e-07,7.10651489003505e-07,,,-6.94495605268022e-08,-1.85276341515975e-07,3.88584080857966e-07,-1.9114845181328e-07,-1.91148451813494e-07,2.28711009513221e-07,,,,,1.14701316920203e-06,5.26058897820712e-07,-1.11215513768025e-07,-1.11215513768153e-07,2.12113762931382e-07,-2.12113762931649e-07,-5.78161754549459e-07,0,0,0,8.08960000000002,103,978.784466019417,539.630582524272,1654.12621359223,972.772815533981,984.796116504854,543.009708737864,536.25145631068,1627.95145631068,1680.30097087379,0
1903.104,3.39122364639803e-08,3.61579801692124e-08,7.00702166332829e-08,3.41765958887998e-07,1.49848371762455e-08,1.49848371761386e-08,,1.59527690154259e-07,5.82111985089342e-07,-5.34739287565897e-07,-8.89869622615666e-08,-5.34739287565614e-07,2.50509745321703e-07,6.81950232905252e-08,,,,-5.50392133337869e-08,,,-8.19306799465388e-08,,1.13346406908281e-07,4.41209975865648e-07,2.69285899269418e-07,1.39760468296536e-08,,,4.38031350765607e-08,3.36242602843214e-07,3.16557398877451e-07,6.68501907192949e-07,,,-8.11871968980086e-08,-1.82181628684473e-07,3.71955381733956e-07,-2.07538074401779e-07,-2.07538074401993e-07,2.01931385837763e-07,,,,,1.15761711401556e-06,5.0654133454565e-07,-1.06829826316903e-07,-1.06829826317034e-07,1.755900747811e-07,-1.75590074781383e-07,-5.60052045008279e-07,0,0,0,8.19200000000001,102,989.281862745098,532.075490196079,1675.5,980.936274509804,997.627450980392,537.548039215686,526.602941176471,1650.48039215686,1700.51960784314,0
1903.2064,1.99849000975068e-08,3.84201647814067e-08,5.84050648790072e-08,3.37035463104399e-07,2.81960514337363e-09,2.81960514326418e-09,,1.55201952309473e-07,6.10601192776955e-07,-5.36968748953819e-07,-6.80793687429635e-08,-5.36968748953552e-07,2.61616103086369e-07,6.13641036011581e-08,,,,-4.10198654459428e-08,,,-6.72917223454988e-08,,9.564142478421e-08,4.47709940941969e-07,2.48639503110855e-07,8.31025675271439e-09,,,4.66484528644953e-08,3.23950234231007e-07,2.21192634791806e-07,6.27851896128141e-07,,,-9.31300392400667e-08,-1.7790010560739e-07,3.52371872436587e-07,-2.20001202386298e-07,-2.20001202386511e-07,1.72836495310475e-07,,,,,1.15675479276092e-06,4.82654553657178e-07,-1.01577699726363e-07,-1.01577699726494e-07,1.4255505761173e-07,-1.42555057612028e-07,-5.4189588282657e-07,0,0,0,8.2944,102,990.962254901961,531.113235294118,1693.40196078431,979.308823529412,1002.61568627451,535.552941176471,526.673529411765,1670.30392156863,1716.5,0
1903.3088,8.08517356866179e-09,3.8962299484261e-08,4.70474730530187e-08,3.30234177684412e-07,-9.00500431565369e-09,-9.00500431576497e-09,,1.50005527368333e-07,6.3355860855651e-07,-5.35394785886433e-07,-4.84012380006799e-08,-5.3539478588618e-07,2.71418407781513e-07,5.36629213172758e-08,,,,-2.69158256058968e-08,,,-5.21112330243564e-08,,7.79841105605376e-08,4.51623708038709e-07,2.27122912996317e-07,1.8168537615014e-09,,,4.84230524621323e-08,3.14541311658233e-07,1.25093779466519e-07,5.89327660520751e-07,,,-1.04521999609339e-07,-1.72486695325075e-07,3.3020518157595e-07,-2.27733672821449e-07,-2.27733672821662e-07,1.42117519465521e-07,,,,,1.14277875537338e-06,4.55185599806066e-07,-9.60288611603559e-08,-9.6028861160488e-08,1.13252078104743e-07,-1.13252078105055e-07,-5.24683641707216e-07,0,0,0,8.39679999999999,103,991.230582524272,533.373300970874,1712.52912621359,980.188349514563,1002.27281553398,541.198058252427,525.54854368932,1692.8932038835,1732.16504854369,0
1903.4112,-1.36508294779738e-09,3.7773520659264e-08,3.64084377115645e-08,3.21416677946059e-07,-2.00721174347293e-08,-2.00721174348416e-08,,1.44163739658621e-07,6.4970600061076e-07,-5.29841928311123e-07,-3.02894844896588e-08,-5.29841928310882e-07,2.7930788193188e-07,4.54619825036648e-08,,,,-1.29874364125535e-08,,,-3.7732912643538e-08,,6.14477251102714e-08,4.52454177987077e-07,2.0505633333676e-07,-5.1427985336475e-09,,,4.95102407153421e-08,3.08636815353926e-07,3.23641478456419e-08,5.53142459507005e-07,,,-1.14705325897902e-07,-1.66099838060039e-07,3.06011558816942e-07,-2.30272150409187e-07,-2.302721504094e-07,1.10434677491583e-07,,,,,1.11466637428046e-06,4.25203558522572e-07,-9.08728691968258e-08,-9.08728691969574e-08,8.74781792360736e-08,-8.74781792363979e-08,-5.09234306263155e-07,0,0,0,8.49919999999997,102,992.307352941176,530.794117647059,1725.63725490196,980.572549019608,1004.04215686275,536.58137254902,525.006862745098,1708.42156862745,1742.85294117647,0
1903.5136,-8.09864480698574e-09,3.48916588839263e-08,2.67930140770399e-08,3.10721707269923e-07,-3.0085005079547e-08,-3.00850050796605e-08,,1.37947142469325e-07,6.58380989448284e-07,-5.20324793687905e-07,-1.39103897845202e-08,-5.20324793687673e-07,2.84843433670457e-07,3.70869554344323e-08,,,,3.25900962016459e-10,,,-2.54223519601711e-08,,4.71058254593334e-08,4.50029503036827e-07,1.82763774713342e-07,-1.22578487592561e-08,,,5.03443755568384e-08,3.06617697404003e-07,-5.36420117774784e-08,5.1887545140628e-07,,,-1.23201068911871e-07,-1.58960910841001e-07,2.80413699661209e-07,-2.27573413609818e-07,-2.27573413610033e-07,7.83594877874207e-08,,,,,1.07210094705465e-06,3.93891355591756e-07,-8.67582275510084e-08,-8.67582275511386e-08,6.46077251143065e-08,-6.46077251146403e-08,-4.96089763264276e-07,0,1,0,8.60159999999996,102,994.403921568627,536.051470588235,1745.29901960784,984.169607843137,1004.63823529412,548.978431372549,523.124509803922,1732.25490196078,1758.3431372549,0
1903.616,-1.20182865071849e-08,3.03971948581862e-08,1.83789083511012e-08,2.98318323497052e-07,-3.89087249689509e-08,-3.8908724969065e-08,,1.31645863452971e-07,6.59618715093374e-07,-5.0700014231941e-07,7.49284211680925e-10,-5.07000142319184e-07,2.87839743125355e-07,2.87892979335081e-08,,,,1.25103582574753e-08,,,-1.6161607557896e-08,,3.59204783383709e-08,4.44538411208492e-07,1.60519547309688e-07,-1.93026927405342e-08,,,5.13580510183609e-08,3.0857745265045e-07,-1.3061856768349e-07,4.85426394433226e-07,,,-1.29747054892353e-07,-1.51319789258684e-07,2.53980710748623e-07,-2.20015884219638e-07,-2.20015884219853e-07,4.63501070000191e-08,,,,,1.01550024936117e-06,3.62384385517375e-07,-8.4150047470651e-08,-8.41500474707786e-08,4.37090808012524e-08,-4.37090808015933e-08,-4.854535177792e-07,0,1,0,8.70399999999995,103,995.36359223301,534.203398058252,1763.02427184466,988.783495145631,1001.94368932039,542.009708737864,526.397087378641,1756.42718446602,1769.6213592233,0
1903.7184,-1.31999812082924e-08,2.44302967982356e-08,1.12303155900425e-08,2.8440468408448e-07,-4.65674397160754e-08,-4.65674397161895e-08,,1.25549462663365e-07,6.54107295787053e-07,-4.90116052674597e-07,1.38519481571965e-08,-4.90116052674375e-07,2.88400088893834e-07,2.07441754952714e-08,,,,2.31078624623443e-08,,,-1.05354199020626e-08,,2.86464289167818e-08,4.36491004429187e-07,1.38523773581166e-07,-2.61394414237942e-08,,,5.29285639514187e-08,3.1429268511479e-07,-1.97363600897369e-07,4.51227968557757e-07,,,-1.34287364182101e-07,-1.43434973724669e-07,2.27158157760492e-07,-2.08333131653374e-07,-2.0833313165359e-07,1.47470655153855e-08,,,,,9.46021549600673e-07,3.31641754902627e-07,-8.32575752041469e-08,-8.325757520427e-08,2.3756256251012e-08,-2.37562562513566e-08,-4.77174900899286e-07,0,1,0,8.80639999999994,102,988.812745098039,536.538725490196,1774.26470588235,984.863725490196,992.761764705882,544.040196078431,529.037254901961,1774.62745098039,1773.90196078431,0
1903.8208,-1.18988900195004e-08,1.72264100105855e-08,5.32751999118338e-09,2.6924426033286e-07,-5.31985373789203e-08,-5.31985373790342e-08,,1.19936637662918e-07,6.43039915064855e-07,-4.69968255971864e-07,2.56516946588485e-08,-4.69968255971645e-07,2.86867017669872e-07,1.30692042495564e-08,,,,3.17943009848435e-08,,,-8.70393886387229e-09,,2.57452624620587e-08,4.26599042394994e-07,1.16914600333976e-07,-3.26948650945628e-08,,,5.53278629657028e-08,3.23211010015994e-07,-2.53680849351594e-07,4.14678216107854e-07,,,-1.36928238156384e-07,-1.35558536899623e-07,2.00274456238905e-07,-1.93504801926733e-07,-1.9350480192695e-07,-1.62124632217454e-08,,,,,8.65609366211904e-07,3.02376813022664e-07,-8.4055074901368e-08,-8.40550749014852e-08,3.88253219229546e-09,-3.88253219264243e-09,-4.70770727209386e-07,0,0,0,8.90879999999993,103,979.466504854369,542.216990291262,1779.08252427184,974.397087378641,984.535922330097,556.479611650486,527.954368932039,1781.90291262136,1776.26213592233,0
1903.9232,-8.55088355744041e-09,9.15694637026998e-09,6.06062812926092e-10,2.53202665644736e-07,-5.89733249121865e-08,-5.89733249122998e-08,,1.15074153334021e-07,6.27931047324694e-07,-4.46877822085982e-07,3.64239536617828e-08,-4.46877822085764e-07,2.83691396358102e-07,5.85517320646624e-09,,,,3.83463131219017e-08,,,-1.04295449641216e-08,,2.73231825709299e-08,4.15609536174736e-07,9.58158494570953e-08,-3.89234096124765e-08,,,5.86791895666208e-08,3.34477526357258e-07,-3.00164289616396e-07,3.74658230598968e-07,,,-1.37888491548563e-07,-1.27922894272132e-07,1.73622507079579e-07,-1.76637117580577e-07,-1.76637117580795e-07,-4.63478414174818e-08,,,,,7.77122733044638e-07,2.75093547009981e-07,-8.63848522503671e-08,-8.63848522504771e-08,-1.64339016855122e-08,1.64339016851645e-08,-4.65468153125603e-07,0,0,0,9.01119999999992,102,983.359803921569,543.30637254902,1779.43137254902,978.232352941177,988.487254901961,558.125490196079,528.487254901961,1785.26470588235,1773.59803921569,0
1904.0256,-3.74835094130905e-09,7.49783605309554e-10,-2.99856733590556e-09,2.36743348970974e-07,-6.40100320183667e-08,-6.40100320184795e-08,,1.11215665656564e-07,6.10463355365417e-07,-4.21197230126532e-07,4.64001966055196e-08,-4.21197230126315e-07,2.79266347845502e-07,-8.03384197830276e-10,,,,4.25122699673849e-08,,,-1.51347435279855e-08,,3.31123083143936e-08,4.04153483600263e-07,7.53934347073661e-08,-4.47717376583052e-08,,,6.29290463455044e-08,3.47020865593925e-07,-3.37903854652334e-07,3.30939633349894e-07,,,-1.37465006287889e-07,-1.20732725710625e-07,1.47570675489057e-07,-1.58858798955299e-07,-1.58858798955518e-07,-7.54538151168697e-08,,,,,6.84450414211945e-07,2.50239512275645e-07,-9.0091447907386e-08,-9.00914479074882e-08,-3.73606099008731e-08,3.73606099005256e-08,-4.60253888969136e-07,0,0,0,9.11359999999991,102,984.601470588235,541.430882352941,1780.57843137255,978.954901960784,990.248039215686,556.13431372549,526.727450980392,1781.20588235294,1779.95098039216,0
1904.128,1.82306009863289e-09,-7.34049329122081e-09,-5.51743319249559e-09,2.20359282121111e-07,-6.83187389959316e-08,-6.83187389960437e-08,,1.08589969757876e-07,5.92383810810262e-07,-3.93316570018179e-07,5.57449037550609e-08,-3.93316570017963e-07,2.73801751681957e-07,-6.79383773903255e-09,,,,4.38738953409127e-08,,,-2.19898734075269e-08,,4.25036376265631e-08,3.92660957367158e-07,5.58796492906424e-08,-5.01618628582678e-08,,,6.78448994610671e-08,3.5969196614849e-07,-3.68253696315601e-07,2.84288320087078e-07,,,-1.3601257448234e-07,-1.14153497221952e-07,1.22619534629746e-07,-1.41238648177319e-07,-1.41238648177539e-07,-1.03210395453715e-07,,,,,5.92436490647369e-07,2.28383769010447e-07,-9.51206865463718e-08,-9.51206865464663e-08,-5.88970747409172e-08,5.88970747405719e-08,-4.53946952076101e-07,0,0,0,9.21599999999989,103,984.312621359223,543.621844660194,1773.79126213592,977.052427184466,991.572815533981,557.633980582524,529.609708737864,1774.91262135922,1772.66990291262,0
1904.2304,7.47776312770144e-09,-1.4420636213615e-08,-6.94287308582257e-09,2.04461519333921e-07,-7.18037709142483e-08,-7.18037709143603e-08,,1.07380888583809e-07,5.75416856254972e-07,-3.63630823604827e-07,6.46010408770402e-08,-3.63630823604611e-07,2.67292014087417e-07,-1.19963566111945e-08,,,,4.17865121766313e-08,,,-3.00306665239429e-08,,5.46275910111791e-08,3.81352788848243e-07,3.75507840963864e-08,-5.49998157537478e-08,,,7.30441371674979e-08,3.71420552858501e-07,-3.92796411484012e-07,2.36207516034049e-07,,,-1.33923586849661e-07,-1.08283621935783e-07,9.93520834381571e-08,-1.24714601416994e-07,-1.24714601417214e-07,-1.29119532314882e-07,,,,,5.06524590618257e-07,2.10280126525696e-07,-1.015478805594e-07,-1.01547880559487e-07,-8.11379877244095e-08,8.11379877240664e-08,-4.45339105676673e-07,0,0,0,9.31839999999988,102,983.098529411765,546.019117647059,1784.93137254902,975.441176470588,990.755882352941,561.248039215686,530.790196078431,1783.58823529412,1786.27450980392,0
1904.3328,1.26255243480828e-08,-1.9874994352829e-08,-7.24947000465683e-09,1.89281412064472e-07,-7.43125878228409e-08,-7.43125878229538e-08,,1.07710412245056e-07,5.61156756476402e-07,-3.3247198287381e-07,7.31726756880259e-08,-3.32471982873597e-07,2.59569053523223e-07,-1.63113758117548e-08,,,,3.54229656276209e-08,,,-3.82923873146179e-08,,6.84703178371459e-08,3.7028274754724e-07,2.06794393157732e-08,-5.91999516357515e-08,,,7.80515615683193e-08,3.81343583501301e-07,-4.13459388073045e-07,1.88469036729176e-07,,,-1.31598930013683e-07,-1.03121126743079e-07,7.83094224664332e-08,-1.10030100295425e-07,-1.10030100295645e-07,-1.52498124282433e-07,,,,,4.32213649805465e-07,1.96771437318198e-07,-1.09554904460869e-07,-1.09554904460949e-07,-1.0442584700636e-07,1.04425847006021e-07,-4.33415073267584e-07,0,0,0,9.42079999999987,103,983.082524271845,542.335922330097,1782.06796116505,975.961165048544,990.203883495146,552.765048543689,531.906796116505,1782.08737864078,1782.04854368932,0
1904.4352,1.68397511147768e-08,-2.32630446496816e-08,-6.4232935348168e-09,1.74832549993546e-07,-7.56962316698511e-08,-7.56962316699655e-08,,1.09630654656348e-07,5.50938468713962e-07,-3.00051903475802e-07,8.17812198892736e-08,-3.00051903475594e-07,2.50386317937091e-07,-1.96833550695333e-08,,,,2.38748295703707e-08,,,-4.59417310065925e-08,,8.30077880175983e-08,3.5939484411062e-07,5.48547191183162e-09,-6.27068427812156e-08,,,8.23746524188785e-08,3.88872904994882e-07,-4.32628075167968e-07,1.42659129711239e-07,,,-1.29415515788922e-07,-9.85577096002055e-08,5.98716257625139e-08,-9.76924993053466e-08,-9.76924993055653e-08,-1.72545040090108e-07,,,,,3.74510557038535e-07,1.88622148541456e-07,-1.19403245016934e-07,-1.19403245017008e-07,-1.29302863567605e-07,1.2930286356727e-07,-4.17594545265691e-07,0,0,0,9.52319999999986,102,985.485294117647,539.745098039216,1783.70098039216,977.443137254902,993.527450980392,547.428431372549,532.061764705882,1784.60784313725,1782.79411764706,0
1904.5376,1.98836526165315e-08,-2.4370631101074e-08,-4.48697848445547e-09,1.60935072292407e-07,-7.58536755483502e-08,-7.58536755484668e-08,,1.13119522191733e-07,5.45709306628206e-07,-2.66456782926829e-07,9.08585156310372e-08,-2.66456782926626e-07,2.39485386228322e-07,-2.21083330338683e-08,,,,6.25869914699923e-09,,,-5.23855061817001e-08,,9.73337097198503e-08,3.48572056548242e-07,-7.90753879642128e-09,-6.55029772154017e-08,,,8.55797203844506e-08,3.93702003473056e-07,-4.53152884820464e-07,9.9885966686089e-08,,,-1.2769843486906e-07,-9.44152836589671e-08,4.4198985356682e-08,-8.79683662574874e-08,-8.79683662577047e-08,-1.88477459696118e-07,,,,,3.37471422554998e-07,1.86375995514207e-07,-1.31417327789194e-07,-1.31417327789265e-07,-1.56331803238051e-07,1.5633180323772e-07,-3.97907910883399e-07,0,0,0,9.62560000000008,103,988.423300970874,544.458737864078,1788.35436893204,980.494174757282,996.352427184466,556.132038834952,532.785436893204,1790.32038834951,1786.38834951456,0
1904.64,2.16950746363351e-08,-2.32180357279587e-08,-1.52296109153737e-09,1.47277697898491e-07,-7.47566164251192e-08,-7.47566164252387e-08,,1.18072480542461e-07,5.45908206473722e-07,-2.31698706422321e-07,1.00871313408449e-07,-2.31698706422126e-07,2.26642092588737e-07,-2.36306343095837e-08,,,,-1.81512800456332e-08,,,-5.73326225200985e-08,,1.10755482076203e-07,3.37671066799941e-07,-1.95080002039374e-08,-6.76035359247246e-08,,,8.73523199616585e-08,3.95778566207228e-07,-4.78204460234308e-07,6.06922785687962e-08,,,-1.26697026622569e-07,-9.05016412803299e-08,3.12383346690863e-08,-8.09090132814684e-08,-8.09090132816832e-08,-1.9970377181223e-07,,,,,3.23763512538994e-07,1.90250896996129e-07,-1.45941636024957e-07,-1.45941636025024e-07,-1.8588699121479e-07,1.85886991214464e-07,-3.75057646065887e-07,0,0,0,9.72800000000007,102,990.458333333333,546.251470588235,1786.75490196078,981.902941176471,999.013725490196,562.054901960784,530.448039215686,1790.59803921569,1782.91176470588,0
1904.7424,2.23452144291381e-08,-2.00413558409792e-08,2.30385858824428e-09,1.33496922831702e-07,-7.24650586030933e-08,-7.24650586032162e-08,,1.24289194360416e-07,5.51352086714912e-07,-1.95802096830483e-07,1.12184810343696e-07,-1.95802096830296e-07,2.1172150258745e-07,-2.43393521339354e-08,,,,-4.9701427343905e-08,,,-6.08005411294254e-08,,1.22839885336046e-07,3.26552167592579e-07,-2.94755058270812e-08,-6.90458163828699e-08,,,8.75372573620849e-08,3.95273790697313e-07,-5.10928256549353e-07,2.51347856766245e-08,,,-1.26560821909411e-07,-8.66527221835826e-08,2.07744022764934e-08,-7.63852705509447e-08,-7.63852705511556e-08,-2.05984875709131e-07,,,,,3.34162127833342e-07,2.00039597176435e-07,-1.63237243913314e-07,-1.63237243913379e-07,-2.1795158382029e-07,2.17951583819969e-07,-3.50379203857114e-07,0,1,0,9.83040000000005,102,993.661274509804,546.345588235294,1791.26960784314,985.921568627451,1001.40098039216,558.738235294118,533.952941176471,1795.77450980392,1786.76470588235,0
1904.8448,2.19937269479929e-08,-1.52587504052865e-08,6.73497654279099e-09,1.19265866871054e-07,-6.91361206289244e-08,-6.91361206290512e-08,,1.31462204184252e-07,5.61150380285648e-07,-1.58901884726661e-07,1.24894711314667e-07,-1.58901884726485e-07,1.94751577177392e-07,-2.43641077418106e-08,,,,-8.80604357076162e-08,,,-6.30827605461449e-08,,1.33402986693418e-07,3.15109791689774e-07,-3.81128664561833e-08,-6.98759134674455e-08,,,8.61656718562928e-08,3.92567931573642e-07,-5.53875673678099e-07,-7.04948254943052e-09,,,-1.27317467264408e-07,-8.27537795785672e-08,1.25141090359985e-08,-7.41138610793669e-08,-7.41138610795722e-08,-2.07535235844599e-07,,,,,3.67042133649796e-07,2.15017823932303e-07,-1.83333402157428e-07,-1.83333402157492e-07,-2.51951440519561e-07,2.51951440519248e-07,-3.25744370994394e-07,0,1,0,9.93280000000004,103,994.462621359223,549.048058252427,1801.89805825243,987.029126213592,1001.89611650485,561.603883495146,536.492233009709,1806.68932038835,1797.10679611651,0
1904.9472,2.0853095761592e-08,-9.42520024492801e-09,1.14278955167472e-08,1.0438519748646e-07,-6.50168690607317e-08,-6.5016869060863e-08,,1.39177267490644e-07,5.73685684347248e-07,-1.2133732660172e-07,1.38684155021621e-07,-1.21337326601557e-07,1.7598109842812e-07,-2.3862585480073e-08,,,,-1.31969781918757e-07,,,-6.46997737545869e-08,,1.42450621262869e-07,3.03289278264535e-07,-4.58287773623772e-08,-7.01318014129889e-08,,,8.34704457518155e-08,3.88246952459133e-07,-6.08310330545607e-07,-3.62308790805672e-08,,,-1.28860980687612e-07,-7.87525306125147e-08,6.19647999376149e-09,-7.36695195169099e-08,-7.36695195171085e-08,-2.05026535750647e-07,,,,,4.18056578619768e-07,2.33909563119886e-07,-2.05888675920987e-07,-2.05888675921052e-07,-2.86706076089396e-07,2.86706076089088e-07,-3.0342977332826e-07,0,1,0,10.0352,102,993.862745098039,544.854411764706,1815.06862745098,986.8,1000.92549019608,552.021568627451,537.687254901961,1820.35294117647,1809.78431372549,0
1905.0496,1.9157114549366e-08,-3.17826051385557e-09,1.59788540355921e-08,8.88526099221197e-08,-6.04183284687495e-08,-6.04183284688849e-08,,1.46931383196881e-07,5.86694811616528e-07,-8.37114081558291e-08,1.5276730071061e-07,-8.37114081556771e-08,1.55879447338246e-07,-2.30011055152145e-08,,,,-1.79179042668747e-07,,,-6.63472107703242e-08,,1.5008996999559e-07,2.91072342910453e-07,-5.30844261183872e-08,-6.98299291020518e-08,,,7.98760221130749e-08,3.8307526106555e-07,-6.73652665415105e-07,-6.26428604569784e-08,,,-1.30958605968406e-07,-7.46717172111727e-08,1.69431498343382e-09,-7.44929568287392e-08,-7.44929568289301e-08,-1.99487114238075e-07,,,,,4.80206791936478e-07,2.5496333249593e-07,-2.30120705556097e-07,-2.30120705556163e-07,-3.20565688124619e-07,3.20565688124315e-07,-2.85933579886572e-07,0,0,0,10.1376,103,994.357766990291,547.550485436893,1817.73300970874,987.092233009709,1001.62330097087,557.316504854369,537.784466019418,1821.77669902913,1813.68932038835,0
1905.152,1.71224821846453e-08,2.81883315846158e-09,1.99413153431873e-08,7.28766732299735e-08,-5.56833286867665e-08,-5.5683328686906e-08,,1.54170756644126e-07,5.97465540269499e-07,-4.68644389632443e-08,1.65957155999789e-07,-4.68644389631024e-08,1.35072443492591e-07,-2.19400873192581e-08,,,,-2.26614596068401e-07,,,-6.88523767527139e-08,,1.56447717630942e-07,2.78436194443018e-07,-6.03445860605087e-08,-6.89692098767519e-08,,,7.59494978333229e-08,3.7790692757583e-07,-7.47372040648671e-07,-8.61888053232957e-08,,,-1.33277155252838e-07,-7.06084134780178e-08,-9.49859986765018e-10,-7.59144212531429e-08,-7.59144212533258e-08,-1.92130638306672e-07,,,,,5.44422965047339e-07,2.76140850639378e-07,-2.54838548516265e-07,-2.54838548516332e-07,-3.51705434847089e-07,3.51705434846788e-07,-2.75723437186939e-07,0,0,0,10.24,102,984.941176470588,558.101960784314,1829.73039215686,977.420588235294,992.461764705882,570.886274509804,545.317647058824,1841.82352941176,1817.63725490196,0
1905.2544,1.49021120192598e-08,7.92925281550412e-09,2.28313648348425e-08,5.68179596130774e-08,-5.1162254967968e-08,-5.11622549681101e-08,,1.60345631597389e-07,6.03127428640061e-07,-1.17321389561686e-08,1.76848389253641e-07,-1.17321389560354e-08,1.14243204683966e-07,-2.08338328459869e-08,,,,-2.70743508052819e-07,,,-7.3139004382866e-08,,1.61625561374515e-07,2.65306493280507e-07,-6.80440134014102e-08,-6.75558812205114e-08,,,7.2316510487093e-08,3.73538388255595e-07,-8.25452580285237e-07,-1.06415960688201e-07,,,-1.35420104979639e-07,-6.66988268602053e-08,-1.58236856123044e-09,-7.72035893593551e-08,-7.72035893595302e-08,-1.84172286860344e-07,,,,,6.00621079994858e-07,2.95356111429786e-07,-2.78565907961034e-07,-2.78565907961103e-07,-3.78451704744223e-07,3.78451704743924e-07,-2.74945166062781e-07,0,0,0,10.3424,102,985.248529411765,557.343137254902,1817.9362745098,978.221568627451,992.275490196078,569.014705882353,545.671568627451,1825.29411764706,1810.57843137255,0
1905.3568,1.25412258378083e-08,1.15860980384563e-08,2.41273238763414e-08,4.10725209201754e-08,-4.71984640676048e-08,-4.71984640677481e-08,,1.64971128237044e-07,6.0097801570515e-07,2.08713754148118e-08,1.84058892118903e-07,2.08713754149404e-08,9.40347169519713e-08,-1.98439414814342e-08,,,,-3.08055121448501e-07,,,-8.01751661402619e-08,,1.65690546676396e-07,2.51521114588914e-07,-7.65678296747919e-08,-6.56348972033822e-08,,,6.95597721084033e-08,3.70554149449367e-07,-9.0326608080934e-07,-1.22665281190561e-07,,,-1.36964292776598e-07,-6.30427565222437e-08,-6.12232357907499e-11,-7.76382793607266e-08,-7.76382793608951e-08,-1.76683609607212e-07,,,,,6.39031349957914e-07,3.10690435692279e-07,-2.99711048447446e-07,-2.99711048447516e-07,-3.99509797270671e-07,3.9950979727037e-07,-2.85150019611367e-07,0,0,0,10.4448,103,981.231067961165,554.124757281553,1800.79611650485,975.418446601942,987.043689320388,563.738834951456,544.510679611651,1805.92233009709,1795.66990291262,0
1905.4592,9.95550007708547e-09,1.33273615866715e-08,2.32828616638318e-08,2.59325153061226e-08,-4.41166272536635e-08,-4.41166272538063e-08,,1.67681125675421e-07,5.88787997853331e-07,5.04572451906667e-08,1.864596648437e-07,5.04572451907933e-08,7.49838656185781e-08,-1.91584602183871e-08,,,,-3.35563587662287e-07,,,-9.0877370747185e-08,,1.6866921017029e-07,2.36821884055086e-07,-8.62398515958012e-08,-6.33101419734207e-08,,,6.81221243526221e-08,3.69227700257711e-07,-9.76517341534268e-07,-1.34290671063988e-07,,,-1.37493317649737e-07,-5.96108265358261e-08,3.61481731451696e-09,-7.65762931016607e-08,-7.6576293101824e-08,-1.70502420628631e-07,,,,,6.51513702423055e-07,3.20554012675575e-07,-3.1674973305994e-07,-3.1674973306001e-07,-4.14056963058855e-07,4.14056963058549e-07,-3.07073923723952e-07,0,0,0,10.5472,102,986.124019607843,533.969607843137,1792.98039215686,979.683333333333,992.564705882353,543.28137254902,524.657843137255,1801.60784313725,1784.35294117647,0
1905.5616,6.95296490314912e-09,1.28247850434343e-08,1.97777499466564e-08,1.14691707879108e-08,-4.22075930214777e-08,-4.22075930216183e-08,,1.68264448374092e-07,5.65064820970804e-07,7.69817466359567e-08,1.83346811557776e-07,7.69817466360859e-08,5.75038999311305e-08,-1.90040868405235e-08,,,,-3.51230995365198e-07,,,-1.05977284871084e-07,,1.70525071205383e-07,2.20898560393812e-07,-9.73057450280956e-08,-6.07458399668003e-08,,,6.82317774914443e-08,3.69513271558119e-07,-1.04196867430203e-06,-1.40850671280376e-07,,,-1.36634922334063e-07,-5.61798491685723e-08,9.21502287024003e-09,-7.35189057909269e-08,-7.35189057910873e-08,-1.66181324548424e-07,,,,,6.32642458092996e-07,3.23815014457397e-07,-3.28419523963268e-07,-3.28419523963338e-07,-4.21756848806503e-07,4.21756848806189e-07,-3.40472708346096e-07,0,0,0,10.6496,102,986.420098039216,542.604901960784,1789.80392156863,980.553921568627,992.286274509804,558.436274509804,526.773529411765,1792.23529411765,1787.37254901961,0
1905.664,3.31007103085284e-09,9.90891213392955e-09,1.32189831648529e-08,-2.51065191021194e-09,-4.17063192539078e-08,-4.17063192540441e-08,,1.66674046360795e-07,5.29265797137623e-07,1.00853946321231e-07,1.74538909046603e-07,1.00853946321367e-07,4.19102733931547e-08,-1.96368629454892e-08,,,,-3.54235715276304e-07,,,-1.2589161053279e-07,,1.71134123356684e-07,2.03495965679175e-07,-1.09893350367973e-07,-5.81491601991561e-08,,,6.98606623083389e-08,3.7112795938288e-07,-1.09778820469151e-06,-1.42246055753095e-07,,,-1.34108509559047e-07,-5.23392098177997e-08,1.62437353178817e-08,-6.81585780550956e-08,-6.81585780552553e-08,-1.63959381438396e-07,,,,,5.80451175353932e-07,3.19916187274553e-07,-3.33924952297429e-07,-3.33924952297498e-07,-4.22734182785801e-07,4.22734182785475e-07,-3.84029349379273e-07,0,0,0,10.752,103,984.971359223301,545.243689320388,1793.17475728155,978.659223300971,991.283495145631,561.457281553398,529.030097087379,1793.46601941748,1792.88349514563,0
1905.7664,-1.11787596655865e-09,4.58918898616086e-09,3.47131301967084e-09,-1.64043539853956e-08,-4.27621497584944e-08,-4.27621497586257e-08,,1.63008744851644e-07,4.81923969729767e-07,1.22828413901362e-07,1.60393239997756e-07,1.22828413901509e-07,2.84589111375401e-08,-2.13040807199886e-08,,,,-3.45049106863737e-07,,,-1.50639326880836e-07,,1.70292645037827e-07,1.84549720449565e-07,-1.2395026828444e-07,-5.57366375334938e-08,,,7.27247182430068e-08,3.73687231682277e-07,-1.14348739115349e-06,-1.38800579011188e-07,,,-1.2977590347127e-07,-4.75799041515527e-08,2.39691808045951e-08,-6.04041063190286e-08,-6.04041063191898e-08,-1.63766346474538e-07,,,,,4.96748857559932e-07,3.08954886676669e-07,-3.33115570483382e-07,-3.3311557048345e-07,-4.17477873021123e-07,4.17477873020784e-07,-4.3537422335635e-07,0,0,0,10.8543999999999,102,987.970588235294,540.523529411765,1802.57352941176,980.176470588235,995.764705882353,552.935294117647,528.111764705882,1811.76470588235,1793.38235294118,0
1905.8688,-6.30085476214145e-09,-2.93218122064893e-09,-9.23303598272313e-09,-3.06692494372784e-08,-4.54020176049507e-08,-4.54020176050763e-08,,1.57482017349736e-07,4.24641651355903e-07,1.43798523643544e-07,1.41738121042773e-07,1.43798523643707e-07,1.73564475025064e-08,-2.4182638194843e-08,,,,-3.25328430036808e-07,,,-1.79828871525844e-07,,1.67777524874504e-07,1.64282318887549e-07,-1.39186637095063e-07,-5.36890746252125e-08,,,7.63333143590162e-08,3.76834096019381e-07,-1.1795119410782e-06,-1.31262867598917e-07,,,-1.23678639841227e-07,-4.14380988032788e-08,3.15106944475787e-08,-5.03834962061072e-08,-5.03834962062718e-08,-1.65272192558529e-07,,,,,3.86912366390195e-07,2.91692070650868e-07,-3.265760238133e-07,-3.26576023813368e-07,-4.06660547702502e-07,4.06660547702147e-07,-4.91249675585237e-07,0,0,0,10.9567999999999,103,988.951941747573,545.972815533981,1815.65048543689,979.312621359223,998.591262135922,560.672815533981,531.272815533981,1825.26213592233,1806.03883495146,0
1905.9712,-1.19984014681949e-08,-1.22547913407113e-08,-2.42531928088399e-08,-4.56552336841507e-08,-4.94915484593862e-08,-4.94915484595057e-08,,1.50395869776219e-07,3.59943389259784e-07,1.64536530216457e-07,1.19731504671025e-07,1.64536530216637e-07,8.72416555496123e-09,-2.83106517907004e-08,,,,-2.97665901868691e-07,,,-2.12714630699356e-07,,1.63446390697447e-07,1.43212984268347e-07,-1.55058305906519e-07,-5.21041899516591e-08,,,8.00814035259735e-08,3.80316823728209e-07,-1.20664419658254e-06,-1.20698344343192e-07,,,-1.16047361038904e-07,-3.36417832869026e-08,3.79753574858561e-08,-3.84323092454571e-08,-3.84323092456267e-08,-1.6796293921604e-07,,,,,2.59133753169631e-07,2.69489534041506e-07,-3.15583655011529e-07,-3.15583655011595e-07,-3.90958000562957e-07,3.90958000562587e-07,-5.47814299448131e-07,0,1,0,11.0591999999999,102,983.718137254902,553.071078431373,1826.93137254902,972.483333333333,994.952941176471,564.826470588235,541.31568627451,1838.10784313725,1815.75490196078,0
1906.0736,-1.7794706875345e-08,-2.27989654994855e-08,-4.05936723747648e-08,-6.1486162051066e-08,-5.47147886723201e-08,-5.47147886724342e-08,,1.42125420112024e-07,2.91005423632818e-07,1.85471454412026e-07,9.5672783559113e-08,1.85471454412224e-07,2.53899835904518e-09,-3.3541071545003e-08,,,,-2.65221275005781e-07,,,-2.48307153326064e-07,,1.57339780137648e-07,1.22082281309221e-07,-1.70811466863535e-07,-5.09664731363684e-08,,,8.33591868360323e-08,3.8400464380699e-07,-1.22545197181758e-06,-1.08274845817031e-07,,,-1.07275766901019e-07,-2.42087136720314e-08,4.26084830224317e-08,-2.50654201841473e-08,-2.50654201843229e-08,-1.71208049343762e-07,,,,,1.2318426491116e-07,2.44173541541522e-07,-3.01917894077818e-07,-3.01917894077882e-07,-3.70968367666509e-07,3.70968367666125e-07,-6.01058079167264e-07,0,1,0,11.1615999999999,102,978.220098039216,565.560294117647,1825.21078431373,968.314705882353,988.125490196079,578.825490196079,552.295098039216,1832.73529411765,1817.6862745098,0
1906.176,-2.31824358890402e-08,-3.38726664573212e-08,-5.70551023462957e-08,-7.80343574434016e-08,-6.06040552282064e-08,-6.06040552283155e-08,,1.3310308822905e-07,2.21276228314296e-07,2.06606779360953e-07,7.0808757978081e-08,2.06606779361171e-07,-1.39931143196223e-09,-3.95465344236284e-08,,,,-2.31258278116903e-07,,,-2.85504734574192e-07,,1.49742218180412e-07,1.01719014629543e-07,-1.85587052946119e-07,-5.01560021616859e-08,,,8.56512112369406e-08,3.87853514649878e-07,-1.23603062677329e-06,-9.50201571288055e-08,,,-9.78585732992225e-08,-1.3462539980468e-08,4.48992939883144e-08,-1.09170845903892e-08,-1.09170845905715e-08,-1.74316048660987e-07,,,,,-1.1167416224122e-08,2.17792119217091e-07,-2.87543269075031e-07,-2.87543269075094e-07,-3.47240250862494e-07,3.47240250862095e-07,-6.47289669325519e-07,0,1,0,11.2639999999999,103,978.011650485437,563.758737864078,1831.45145631068,968.616504854369,987.406796116505,575.508737864078,552.008737864078,1838.76699029126,1824.1359223301,0
1906.2784,-2.76634740813733e-08,-4.47838443945232e-08,-7.2447318475831e-08,-9.4984295910191e-08,-6.66291953940148e-08,-6.66291953941197e-08,,1.23786670961511e-07,1.54034109140642e-07,2.27610309527242e-07,4.6185382291261e-08,2.2761030952748e-07,-3.44104090994036e-09,-4.58809444871325e-08,,,,-1.98663516607103e-07,,,-3.23183252649351e-07,,1.41170694897712e-07,8.28855527352491e-08,-1.98558129941817e-07,-4.94967762186733e-08,,,8.66085739300561e-08,3.91847701574238e-07,-1.23815690521413e-06,-8.16757447786114e-08,,,-8.83045935650571e-08,-1.96315193405398e-09,4.46137029639041e-08,3.35248991721527e-09,3.35248991702615e-09,-1.76606480995069e-07,,,,,-1.35746738151043e-07,1.92268758388983e-07,-2.74238648515577e-07,-2.74238648515639e-07,-3.20345911973379e-07,3.2034591197297e-07,-6.83621868960583e-07,0,0,0,11.3663999999999,102,981.493526897939,559.341098770511,1829.49353261118,970.372786690434,992.614267105444,569.155199049317,549.526998491704,1852.58318478907,1806.40388043329,0
1906.3808,-3.08408665668386e-08,-5.49578293811714e-08,-8.57986959479441e-08,-1.11948729137871e-07,-7.23143689453058e-08,-7.23143689454075e-08,,1.14608233342429e-07,9.19898019806516e-08,2.48013711777733e-07,2.25910800145995e-08,2.48013711777992e-07,-4.00805600936176e-09,-5.20731497524584e-08,,,,-1.69584236575803e-07,,,-3.60169604486998e-07,,1.32284051748699e-07,6.61411031266074e-08,-2.09061433077999e-07,-4.88181856491222e-08,,,8.60849533034697e-08,3.95948973718889e-07,-1.23174686714886e-06,-6.87256866979437e-08,,,-7.9048863542652e-08,9.62495745017301e-09,4.17835800143545e-08,1.7156391566069e-08,1.7156391565873e-08,-1.77513586063951e-07,,,,,-2.4504038772386e-07,1.69053493035139e-07,-2.63276432508637e-07,-2.63276432508698e-07,-2.90942511021376e-07,2.90942511020959e-07,-7.08327035327774e-07,0,0,0,11.4687999999999,103,996.576095571096,699.855722610723,1667.33554778555,977.794848484849,1015.35734265734,565.596060606061,834.115384615385,1880.79696969697,1453.87412587413,0.699029126213592
1906.4832,-3.24858851677877e-08,-6.40136354305514e-08,-9.64995205982728e-08,-1.28593890191656e-07,-7.73344767589347e-08,-7.73344767590345e-08,,1.05914317902659e-07,3.7044428892671e-08,2.67427825305104e-07,6.0120930028524e-10,2.67427825305383e-07,-3.50147896740844e-09,-5.77186814753541e-08,,,,-1.45293843936909e-07,,,-3.95100426539982e-07,,1.23736932631173e-07,5.175803832477e-08,-2.16694661756346e-07,-4.79988021496967e-08,,,8.4126848816392e-08,4.00070834683494e-07,-1.21738976354775e-06,-5.6584914776107e-08,,,-7.03894049681815e-08,2.06857047855839e-08,3.66934013764172e-08,3.00475965858274e-08,3.0047596585625e-08,-1.76703743130422e-07,,,,,-3.36348869848359e-07,1.48914204631311e-07,-2.55237656476005e-07,-2.55237656476065e-07,-2.59802207648433e-07,2.59802207648015e-07,-7.20951827635194e-07,0,0,0,11.5711999999999,102,1015.04402543535,907.16265905663,1432.25452831482,988.759242424242,1041.32880844646,556.495303030303,1257.83001508296,1884.83484848485,979.674208144796,1
1906.5856,-3.25742905571115e-08,-7.1783019719234e-08,-1.04357310276278e-07,-1.44738388093746e-07,-8.15647384885912e-08,-8.15647384886908e-08,,9.7908950894394e-08,-9.76646912293298e-09,2.85706961491348e-07,-1.93128073556287e-08,2.85706961491644e-07,-2.22617573382322e-09,-6.25493939257924e-08,,,,-1.26297418725254e-07,,,-4.26286009209416e-07,,1.16023918986969e-07,3.97133778227169e-08,-2.2136987975408e-07,-4.6979487003351e-08,,,8.09150109547097e-08,4.04071189523801e-07,-1.19680719191438e-06,-4.58692287697791e-08,,,-6.24612060982545e-08,3.07892295685815e-08,2.98634127216678e-08,4.17323512161807e-08,4.17323512159726e-08,-1.74174344739248e-07,,,,,-4.09101316051213e-07,1.31934743877701e-07,-2.49990631617816e-07,-2.49990631617877e-07,-2.27809100359487e-07,2.27809100359073e-07,-7.22191177966804e-07,0,0,0,11.6736000000001,103,1004.56812886143,677.649699911739,1654.07714033539,999.723636363636,1009.41262135922,547.394545454545,807.904854368932,1888.87272727273,1419.28155339806,0.533980582524272
1906.688,-3.12933294082496e-08,-7.828811083397e-08,-1.09581440242151e-07,-1.60408449814369e-07,-8.50855463447576e-08,-8.50855463448583e-08,,9.06107929362514e-08,-4.81895460256779e-08,3.03026488713147e-07,-3.66685118914878e-08,3.0302648871346e-07,-3.44434541696792e-10,-6.64770708310545e-08,,,,-1.12587382265323e-07,,,-4.51700106980907e-07,,1.09368586172698e-07,2.97542152575178e-08,-2.23323313939507e-07,-4.57535142991328e-08,,,7.66759872580758e-08,4.07749143097398e-07,-1.1731772613429e-06,-3.76393369056672e-08,,,-5.52437932751704e-08,3.97942655140428e-08,2.19954661026945e-08,5.20395630275127e-08,5.20395630272996e-08,-1.70307356626979e-07,,,,,-4.63791443342697e-07,1.17672277304974e-07,-2.46800924215733e-07,-2.46800924215794e-07,-1.95911148425021e-07,1.95911148424615e-07,-7.1361310301441e-07,0,0,0,11.7760000000001,102,1011.87097593583,539.859639037433,1854.70040106952,1006.90175579323,1016.84019607843,538.216336898396,541.502941176471,1953.01844919786,1756.38235294118,0
1906.7904,-2.90196155410934e-08,-8.37010643230367e-08,-1.12720679864061e-07,-1.75845936525642e-07,-8.8153819672248e-08,-8.81538196723508e-08,,8.38424225489667e-08,-7.85919219947015e-08,3.19865455488479e-07,-5.0904171020477e-08,3.19865455488806e-07,2.1362463373291e-09,-6.960680929902e-08,,,,-1.0390120852495e-07,,,-4.69091079594601e-07,,1.03704068717133e-07,2.15098818788978e-08,-2.23082537792321e-07,-4.4349462929456e-08,,,7.1606440773039e-08,4.10844383237188e-07,-1.1512140314724e-06,-3.34875379883122e-08,,,-4.85905441421668e-08,4.78978470453223e-08,1.38676216307315e-08,6.08758293660754e-08,6.08758293658587e-08,-1.65859478518586e-07,,,,,-5.01030344016412e-07,1.05375925798384e-07,-2.44516086017396e-07,-2.44516086017456e-07,-1.65002115470968e-07,1.65002115470576e-07,-6.97331869667762e-07,0,0,0,11.8784000000001,102,988.160784313725,544.673039215686,1877.88725490196,978.93137254902,997.390196078431,552.169607843137,537.176470588235,1933.1862745098,1822.58823529412,0
1906.8928,-2.62607555206681e-08,-8.82979147530194e-08,-1.14558670273617e-07,-1.91464476382326e-07,-9.11484469875313e-08,-9.11484469876373e-08,,7.7267253015306e-08,-1.01759001054317e-07,3.36922010131755e-07,-6.13825047767788e-08,3.36922010132092e-07,5.34619433832999e-09,-7.22093742609646e-08,,,,-9.98543454612867e-08,,,-4.76138146332666e-07,,9.87531992932253e-08,1.46178322588016e-08,-2.21393371187082e-07,-4.28161519820178e-08,,,6.58486407828389e-08,4.13053907367639e-07,-1.13685250634943e-06,-3.53898848993834e-08,,,-4.22682260202033e-08,5.56103314054243e-08,6.20900702188304e-09,6.81919266290169e-08,6.81919266287983e-08,-1.61880069675384e-07,,,,,-5.20983081125133e-07,9.41806646574758e-08,-2.4177783988048e-07,-2.41777839880543e-07,-1.35736568322601e-07,1.35736568322224e-07,-6.75683869660664e-07,0,0,0,11.9808,103,975.845145631068,557.332524271845,1875.40776699029,964.21359223301,987.476699029126,568.435922330097,546.229126213592,1904.40776699029,1846.40776699029,0
1906.9952,-2.35553091823431e-08,-9.2408330167994e-08,-1.15963639350264e-07,-2.07751543524354e-07,-9.44982469868353e-08,-9.44982469869457e-08,,7.0469546313812e-08,-1.18670676712862e-07,3.55004014327294e-07,-6.74566503491903e-08,3.55004014327639e-07,9.52673612716355e-09,-7.46508520192854e-08,,,,-9.99287559921302e-08,,,-4.70637548286792e-07,,9.41604044899499e-08,8.84476417921211e-09,-2.19113517828596e-07,-4.12097013331943e-08,,,5.95164641652917e-08,4.14080979939258e-07,-1.13650830601876e-06,-4.53937007537948e-08,,,-3.60019668801919e-08,6.36463151777538e-08,-3.96762352400471e-10,7.39621014060596e-08,7.39621014058409e-08,-1.59565584409169e-07,,,,,-5.23209861765607e-07,8.32328779517899e-08,-2.37236474816276e-07,-2.37236474816343e-07,-1.08367707369983e-07,1.08367707369622e-07,-6.50907741596854e-07,0,0,0,12.0832,102,975.368137254902,557.86862745098,1842.05882352941,964.791176470588,985.945098039216,569.722549019608,546.014705882353,1849.3431372549,1834.77450980392,0
1907.0976,-2.1345408658956e-08,-9.63623798919239e-08,-1.17707788550803e-07,-2.25133878816654e-07,-9.86046773142825e-08,-9.86046773143978e-08,,6.3054322821874e-08,-1.30275954101608e-07,3.74914733450927e-07,-6.85716451579737e-08,3.74914733451277e-07,1.50039785350551e-08,-7.72984067756051e-08,,,,-1.03412369326305e-07,,,-4.50771452945357e-07,,8.96055193780016e-08,4.1847046813338e-09,-2.17085111822612e-07,-3.95824045979649e-08,,,5.27353878436707e-08,4.13706705383501e-07,-1.15603840362021e-06,-6.52765138779182e-08,,,-2.95258383818722e-08,7.27496053545227e-08,-5.55512887581387e-09,7.81635322670334e-08,7.81635322668166e-08,-1.60086838294348e-07,,,,,-5.06848517031457e-07,7.17647859659306e-08,-2.29757880117534e-07,-2.29757880117605e-07,-8.27525553279727e-08,8.2752555327627e-08,-6.24815199242154e-07,0,0,0,12.1856,103,975.41359223301,559.942718446602,1833.33009708738,967.38640776699,983.440776699029,572.157281553398,547.728155339806,1836.4854368932,1830.17475728155,0
1907.2,-1.98606919325613e-08,-1.00441528285711e-07,-1.20302220218193e-07,-2.43846355112605e-07,-1.03770458359067e-07,-1.03770458359188e-07,,5.47434583319808e-08,-1.37306836284092e-07,3.97335833057042e-07,-6.43758172597454e-08,3.97335833057391e-07,2.21450845768975e-08,-8.04311416879188e-08,,,,-1.09399667254129e-07,,,-4.15466778225228e-07,,8.48660140147505e-08,8.92969875697456e-10,-2.16007404634354e-07,-3.79781838144544e-08,,,4.56634207203245e-08,4.11847353145116e-07,-1.19960816191935e-06,-9.62220335041893e-08,,,-2.26330484404481e-08,8.34953905677669e-08,-9.06045452382907e-09,8.0759086219314e-08,8.07590862191012e-08,-1.64438184047786e-07,,,,,-4.71089919878865e-07,5.91633743297609e-08,-2.18607297414239e-07,-2.18607297414315e-07,-5.85806694579298e-08,5.85806694576024e-08,-5.98507360131768e-07,1,0,0,12.288,102,978.554411764706,559.310294117647,1831.38725490196,971.251960784314,985.856862745098,572.69705882353,545.923529411765,1832.04901960784,1830.72549019608,0
1907.3024,-1.90582833249438e-08,-1.04844541629306e-07,-1.23902824954167e-07,-2.63849579513015e-07,-1.1014271562973e-07,-1.10142715629857e-07,,4.54515505104212e-08,-1.40184261002781e-07,4.22715418831154e-07,-5.48158772759303e-08,4.22715418831499e-07,3.12728600816192e-08,-8.41789644294896e-08,,,,-1.16883200790096e-07,,,-3.64740100321434e-07,,7.98422054078173e-08,-5.84742579697231e-10,-2.16339964191664e-07,-3.64383508728342e-08,,,3.84889987220463e-08,4.08564866460486e-07,-1.26872389572815e-06,-1.38502825745298e-07,,,-1.52129515670487e-08,9.61234943196758e-08,-1.08740078537644e-08,8.17002538785635e-08,8.1700253878357e-08,-1.73333462080683e-07,,,,,-4.15844221150794e-07,4.50506334115071e-08,-2.03577218168906e-07,-2.0357721816899e-07,-3.57121388626399e-08,3.57121388623293e-08,-5.72269253406261e-07,1,0,0,12.3904,102,977.620588235294,563.65637254902,1823.52941176471,972.189215686275,983.051960784314,579.089215686275,548.223529411765,1819.04901960784,1828.00980392157,0
1907.4048,-1.86453821769261e-08,-1.09674829688264e-07,-1.28320211865103e-07,-2.84822878572015e-07,-1.17680771180909e-07,-1.17680771181042e-07,,3.53251547447883e-08,-1.39049158074437e-07,4.51173948657243e-07,-4.01920518012646e-08,4.51173948657582e-07,4.25475187154291e-08,-8.85022776458784e-08,,,,-1.24885914469026e-07,,,-2.99888014189967e-07,,7.45619477813958e-08,2.21274573954039e-10,-2.18261776489861e-07,-3.50134845561055e-08,,,3.14196092943857e-08,4.04029872696205e-07,-1.36172413812307e-06,-1.91245750896735e-07,,,-7.26635867333802e-09,1.10451625646294e-07,-1.10940864922294e-08,8.09532089517952e-08,8.09532089515969e-08,-1.87141037516369e-07,,,,,-3.42382359705497e-07,2.93515186996361e-08,-1.85023946474919e-07,-1.8502394647501e-07,-1.44333748379942e-08,1.44333748376973e-08,-5.45734994802838e-07,1,0,0,12.4928,103,975.654368932039,565.386893203884,1801.83495145631,969.527184466019,981.781553398058,582.241747572816,548.532038834951,1799.04854368932,1804.6213592233,0
