time,S1-D1,S1-D8,S1-D9,S1-D15,S2-D1,S2-D2,S2-D3,S2-D9,S3-D1,S3-D2,S3-D16,S4-D2,S4-D3,S4-D5,S5-D3,S5-D4,S5-D5,S6-D2,S6-D5,S6-D17,S7-D6,S7-D7,S8-D6,S8-D7,S8-D18,S9-D3,S9-D4,S9-D9,S9-D11,S9-D19,S10-D8,S10-D9,S10-D10,S10-D11,S11-D8,S11-D10,S11-D20,S12-D10,S12-D11,S12-D12,S13-D4,S13-D11,S13-D12,S14-D10,S14-D12,S14-D21,S15-D13,S15-D14,S16-D13,S16-D14,S16-D22,SART_Target,SART_NonTarget,SART_Probe,t_rel_s,eye_n,xp,yp,ps,xpl_i,xpr_i,ypl_i,ypr_i,psl_i,psr_i,blink_prop
1996.8,1.18423726919875e-07,4.709310795334e-08,1.65516834873203e-07,4.0647950082637e-07,8.82071872004468e-07,8.82071872004838e-07,1.14686231350653e-07,1.64486564379687e-08,1.31134887788532e-07,4.47401493734437e-07,1.11455270644447e-07,4.47401493734189e-07,8.99336636713501e-09,,1.30049431771815e-07,,,2.60706547542948e-08,1.14358106313195e-08,-4.93244135795854e-08,1.14358106314927e-08,3.05412668501976e-08,1.28477881894304e-07,1.59019148744366e-07,8.46549454967145e-08,-1.93679712032453e-08,,1.90272960780998e-08,-1.90272960781392e-08,1.25163943899563e-07,,-2.19948896593891e-08,8.6356771156649e-08,4.1961801577566e-09,6.69816707026876e-08,7.11778508604525e-08,2.69192091551309e-07,4.08687087976838e-08,4.08687087975597e-08,,1.64770312172268e-06,4.83557443818445e-07,1.42221379587933e-07,,,-2.14931590965444e-07,-2.8570437652496e-08,-2.85704376526209e-08,-1.74660889194315e-07,1.74660889193827e-07,4.63182434654917e-07,1,0,0,0,103,950.952912621359,525.431553398058,2236.58252427185,952.307766990291,949.598058252427,515.785436893204,535.077669902913,2400.30097087379,2072.8640776699,0
1996.9024,1.21582742519144e-07,4.7641283956834e-08,1.69224026475967e-07,4.07105907499842e-07,7.58888036817885e-07,7.58888036818225e-07,1.13862800768576e-07,1.67161648946199e-08,1.30578965663105e-07,4.53773396302532e-07,1.09469968027198e-07,4.53773396302293e-07,5.51722396724312e-09,,1.26448579273269e-07,,,2.71970395495635e-08,1.08541970234533e-08,-3.82749421723549e-08,1.08541970236272e-08,3.36866159120577e-08,1.26260520777027e-07,1.59947136688948e-07,8.79340181679608e-08,-2.24179408661165e-08,,2.38845909548419e-08,-2.3884590954877e-08,1.24108956854344e-07,,-2.55485001936026e-08,8.55127135798391e-08,8.10710762841545e-09,6.57349268506148e-08,7.38420344790366e-08,2.68676369461165e-07,3.94903478014459e-08,3.9490347801323e-08,,1.612037396348e-06,4.92006027498825e-07,1.33249642763906e-07,,,-2.2585102490026e-07,-2.54032195967689e-08,-2.54032195968906e-08,-1.67808527258414e-07,1.67808527257931e-07,4.62314748108215e-07,1,0,0,0.102399999999989,102,949.495588235294,520.80637254902,2236.83333333333,950.550980392157,948.440196078431,516.824509803922,524.788235294118,2398.63725490196,2075.02941176471,0
1997.0048,1.25299987669831e-07,4.82983842978696e-08,1.73598371967689e-07,3.80884617639509e-07,6.21005013885985e-07,6.21005013886277e-07,1.14014228858999e-07,1.70509365726921e-08,1.310651654316e-07,4.62554722956776e-07,1.06775749149391e-07,4.6255472295655e-07,2.49247962560468e-09,,1.23191134571318e-07,,,2.81995361946575e-08,1.12411199512934e-08,-2.76303640145821e-08,1.12411199514668e-08,3.83398568822402e-08,1.23708892402871e-07,1.62048749284974e-07,8.9663508672712e-08,-2.53491247047086e-08,,2.85543722717474e-08,-2.85543722717769e-08,1.22242518883584e-07,,-2.89444420342732e-08,8.47281699143598e-08,1.21225300538166e-08,6.49912991990497e-08,7.71138292528713e-08,2.65706394690844e-07,3.96215197469981e-08,3.96215197468777e-08,,1.58751176251544e-06,5.05996676432002e-07,1.26218962129245e-07,,,-2.33130815077925e-07,-1.91555843067975e-08,-1.91555843069143e-08,-1.62182259553933e-07,1.62182259553458e-07,4.56804534077202e-07,1,0,0,0.204799999999977,103,948.898058252427,521.904854368932,2236.18446601942,947.487378640777,950.308737864078,522.366990291262,521.442718446602,2396.90291262136,2075.46601941748,0
1997.1072,1.29388078221463e-07,4.90213681376058e-08,1.78409446359056e-07,3.29944903097632e-07,4.77541389782687e-07,4.77541389782925e-07,1.15070216672139e-07,1.74141942682719e-08,1.32484410940319e-07,4.73201815868793e-07,1.03421475463062e-07,4.73201815868582e-07,7.63376849696686e-11,,1.20395841759266e-07,,,2.88945302206324e-08,1.267151075633e-08,-1.80335495223722e-08,1.26715107565026e-08,4.42984701868395e-08,1.20905240439355e-07,1.65203710626056e-07,8.98756041694917e-08,-2.81156452447292e-08,,3.29151698681378e-08,-3.29151698681611e-08,1.19763525015083e-07,,-3.20735809269176e-08,8.3973588831114e-08,1.61019954030091e-08,6.47191321999764e-08,8.082112760299e-08,2.60426636333275e-07,4.10553343316959e-08,4.10553343315791e-08,,1.57234943844758e-06,5.23559439941437e-07,1.2159203312939e-07,,,-2.35896943243774e-07,-1.00613852821581e-08,-1.00613852822688e-08,-1.57649434399376e-07,1.57649434398912e-07,4.46493469716017e-07,0,0,0,0.307199999999966,102,947.869607843137,530.716666666667,2237.83333333333,948.55,947.189215686275,527.345098039216,534.088235294118,2399.49019607843,2076.17647058824,0
1997.2096,1.33557028034066e-07,4.97635999281909e-08,1.83320627962242e-07,2.5755066511168e-07,3.37324181767682e-07,3.37324181767857e-07,1.16833688830054e-07,1.77703534695955e-08,1.34604042299557e-07,4.8500755795532e-07,9.94747216408616e-08,4.85007557955129e-07,-1.72009341889801e-09,,1.18088489344471e-07,,,2.91096934894304e-08,1.51771774819782e-08,-9.79683253316284e-09,1.51771774821492e-08,5.12137939656949e-08,1.17932024244574e-07,1.6914581821013e-07,8.88717375071842e-08,-3.06497550189043e-08,,3.68248138287215e-08,-3.68248138287386e-08,1.17053349518317e-07,,-3.4826005913219e-08,8.31664808099414e-08,1.98755085645816e-08,6.48544392626086e-08,8.47299478271946e-08,2.53336893467329e-07,4.35102254405931e-08,4.35102254404801e-08,,1.56352346705078e-06,5.42834805314882e-07,1.19572846208715e-07,,,-2.33801466103361e-07,1.35928074493656e-09,1.35928074483306e-09,-1.54086349365445e-07,1.54086349364993e-07,4.31970823971893e-07,0,0,0,0.409599999999955,102,949.698529411765,523.103921568628,2240.44117647059,949.748039215686,949.649019607843,517.308823529412,528.899019607843,2404.08823529412,2076.79411764706,0
1997.312,1.37475527992951e-07,5.04799642780804e-08,1.87955492271014e-07,1.68186818854159e-07,2.07871185319809e-07,2.07871185319907e-07,1.19043131075163e-07,1.80920919814579e-08,1.37135223056527e-07,4.97273649437486e-07,9.50180140683599e-08,4.97273649437319e-07,-3.00943928470101e-09,,1.16215485962084e-07,,,2.87047591322759e-08,1.87242597346696e-08,-2.95657192319195e-09,1.87242597348386e-08,5.86369052566258e-08,1.14871754501595e-07,1.73508659758081e-07,8.71816174668833e-08,-3.28791781779118e-08,,4.01353421779062e-08,-4.01353421779159e-08,1.14623564350351e-07,,-3.71128970992962e-08,8.21676482118307e-08,2.32633760176187e-08,6.5310636936755e-08,8.85740129543782e-08,2.45249186938333e-07,4.66623046347852e-08,4.66623046346766e-08,,1.55735469498463e-06,5.62293781159972e-07,1.2010949621857e-07,,,-2.27044887185055e-07,1.43529560697551e-08,1.43529560696592e-08,-1.51426125993117e-07,1.51426125992679e-07,4.14479022669534e-07,0,0,0,0.511999999999944,103,942.860679611651,540.33932038835,2245.96116504854,941.854368932039,943.866990291262,535.979611650486,544.699029126214,2409.44660194175,2082.47572815534,0
1997.4144,1.40847332413944e-07,5.11303289252564e-08,1.9197766133918e-07,6.73168719331013e-08,9.4851685247883e-08,9.48516852478972e-08,1.21449445350417e-07,1.83627528836066e-08,1.39812198233929e-07,5.09446524330548e-07,9.01487528128435e-08,5.09446524330408e-07,-3.96421947933771e-09,,1.14681962183174e-07,,,2.75967057282396e-08,2.31962144846205e-08,2.59363249189452e-09,2.31962144847875e-08,6.6098431773633e-08,1.11803868383509e-07,1.77902300157002e-07,8.54108154604307e-08,-3.47503474072452e-08,,4.27149137231095e-08,-4.27149137231119e-08,1.12972021215192e-07,,-3.88826838040415e-08,8.07992604520785e-08,2.61070890261215e-08,6.59950245443492e-08,9.21021135704759e-08,2.37095686447965e-07,5.01797374698892e-08,5.01797374697847e-08,,1.55000222815398e-06,5.8072481858221e-07,1.22926080911329e-07,,,-2.16276096544197e-07,2.80558244662396e-08,2.80558244661511e-08,-1.49669138996938e-07,1.49669138996513e-07,3.95563154677503e-07,0,0,0,0.614399999999932,102,938.079901960784,535.544117647059,2249.60294117647,937.627450980392,938.532352941176,532.28137254902,538.806862745098,2410.86274509804,2088.3431372549,0
1997.5168,1.43471965783527e-07,5.16813329590315e-08,1.95153298742535e-07,-3.89409597813042e-08,2.0388478313039e-09,2.03884783123233e-09,1.23875291616979e-07,1.85751925271346e-08,1.42450484144017e-07,5.21179059853746e-07,8.49797066175678e-08,5.21179059853636e-07,-4.74561076900424e-09,,1.13394084361819e-07,,,2.57799067891894e-08,2.83945956332208e-08,6.96369089262383e-09,2.83945956333865e-08,7.31828519330435e-08,1.08801438292974e-07,1.81984290225875e-07,8.40381024728274e-08,-3.62469577816788e-08,,4.44704081253568e-08,-4.4470408125352e-08,1.12407916537744e-07,,-4.01286021548717e-08,7.88681738229394e-08,2.8301906696029e-08,6.68251172697923e-08,9.51270239658277e-08,2.29660734821783e-07,5.37494211558854e-08,5.37494211557861e-08,,1.53781736409179e-06,5.97080524002502e-07,1.27594023104056e-07,,,-2.02513211857425e-07,4.16421277137175e-08,4.16421277136368e-08,-1.48912995292907e-07,1.48912995292498e-07,3.7669009489296e-07,0,0,0,0.716800000000148,103,940.860194174757,538.999514563107,2242.31553398058,941.099029126214,940.621359223301,536.964077669903,541.034951456311,2404.39805825243,2080.23300970874,0
1997.6192,1.45261597995297e-07,5.21081007950153e-08,1.97369698790285e-07,-1.44158116176465e-07,-6.83610219976972e-08,-6.83610219978477e-08,1.26231540316984e-07,1.87281411514648e-08,1.44959681468351e-07,5.32291210929762e-07,7.96374921353271e-08,5.32291210929681e-07,-5.46094574955858e-09,,1.12283701269419e-07,,,2.33298962938161e-08,3.40584142526158e-08,1.01993359063117e-08,3.40584142527795e-08,7.95637406379198e-08,1.05932820652607e-07,1.85496561290383e-07,8.32485930113024e-08,-3.73950831185941e-08,,4.53618042622845e-08,-4.53618042622715e-08,1.12924170439401e-07,,-4.08846227130383e-08,7.61840504402466e-08,2.98173294032809e-08,6.77387548666364e-08,9.75560842699254e-08,2.23346465310714e-07,5.70939218877731e-08,5.70939218876785e-08,,1.51778965893304e-06,6.10378738706599e-07,1.3362435363442e-07,,,-1.87126356322406e-07,5.4447726897987e-08,5.44477268979136e-08,-1.49382881514931e-07,1.49382881514536e-07,3.58968043347166e-07,0,0,0,0.819200000000137,102,944.000980392157,533.521078431373,2241.44607843137,944.036274509804,943.96568627451,535.486274509804,531.555882352941,2401.94117647059,2080.95098039216,0
1997.7216,1.46208623672357e-07,5.23956255941615e-08,1.98604249266487e-07,-2.42144105355567e-07,-1.15252195279845e-07,-1.15252195280073e-07,1.28487625076604e-07,1.88224649493165e-08,1.47310090025821e-07,5.42650070269463e-07,7.42569615687778e-08,5.4265007026941e-07,-6.16557022250214e-09,,1.11304305739769e-07,,,2.03879944822865e-08,3.98968379389008e-08,1.23029836743838e-08,3.98968379390632e-08,8.49948968326299e-08,1.03271365583811e-07,1.88266262416297e-07,8.28880873955257e-08,-3.82500396268662e-08,,4.54033543420418e-08,-4.54033543420208e-08,1.14188165282384e-07,,-4.12088984192585e-08,7.25752306659785e-08,3.06913664653665e-08,6.8695536315313e-08,9.93869027806893e-08,2.18087738722982e-07,5.9985820384291e-08,5.99858203842e-08,,1.48815675273001e-06,6.19775104310581e-07,1.40541085394481e-07,,,-1.71740928656729e-07,6.60390995982109e-08,6.60390995981445e-08,-1.51378203724657e-07,1.51378203724275e-07,3.42989283891437e-07,0,0,0,0.921600000000126,103,946.759708737864,527.83932038835,2243.94660194175,945.533009708738,947.98640776699,526.249514563107,529.429126213592,2403.94174757282,2083.95145631068,0
1997.824,1.46327458859807e-07,5.25374085321371e-08,1.9886486739191e-07,-3.27859082331615e-07,-1.38368603251963e-07,-1.3836860325226e-07,1.30618480910176e-07,1.88595413447253e-08,1.49478022254801e-07,5.52045523989091e-07,6.89705127735505e-08,5.52045523989065e-07,-6.89735656748281e-09,,1.10403558278651e-07,,,1.71348269221458e-08,4.56303695658221e-08,1.32899027707162e-08,4.56303695659825e-08,8.92794945067343e-08,1.0090938874566e-07,1.90188883252249e-07,8.2574446185793e-08,-3.88704313835355e-08,,4.46532789555285e-08,-4.46532789555007e-08,1.15673997497242e-07,,-4.11653898748891e-08,6.78996452700855e-08,3.09937442920437e-08,6.96693512145945e-08,1.00663095506649e-07,2.13478015987e-07,6.2265717064902e-08,6.22657170648138e-08,,1.44890162197295e-06,6.24748057541683e-07,1.47912374235034e-07,,,-1.57952454264105e-07,7.62199967792746e-08,7.62199967792146e-08,-1.55120105152793e-07,1.55120105152426e-07,3.28822659173188e-07,0,0,0,1.02400000000011,102,945.235784313726,530.641176470588,2256.14215686275,945.406862745098,945.064705882353,530.78137254902,530.500980392157,2412.6568627451,2099.62745098039,0
1997.9264,1.45608658118752e-07,5.25306331544356e-08,1.9813929127315e-07,-3.98444795896958e-07,-1.38318855307333e-07,-1.38318855307691e-07,1.32563398446475e-07,1.8842623470435e-08,1.51406021916808e-07,5.60144460596992e-07,6.38950549397316e-08,5.60144460596988e-07,-7.71483404793888e-09,,1.09492037868097e-07,,,1.37642309283306e-08,5.10325689041045e-08,1.32130497655509e-08,5.10325689042625e-08,9.22490570142798e-08,9.89654548209797e-08,1.91214511835113e-07,8.19111548110868e-08,-3.9294631810943e-08,,4.31988564202614e-08,-4.31988564202281e-08,1.16877990286002e-07,,-4.08194197110931e-08,6.20413776342972e-08,3.07721818922371e-08,7.06342288579751e-08,1.01406410750225e-07,2.09048387242254e-07,6.38599721707515e-08,6.38599721706657e-08,,1.4018372343852e-06,6.25254618123541e-07,1.55347206955627e-07,,,-1.46954402834669e-07,8.49833069546023e-08,8.49833069545487e-08,-1.6060203166882e-07,1.60602031668466e-07,3.16171684639369e-07,0,0,0,1.1264000000001,102,945.163725490196,524.893137254902,2272.13235294118,944.948039215686,945.379411764706,530.575490196079,519.210784313726,2427.79411764706,2116.47058823529,0
1998.0288,1.44015420287046e-07,5.23699385485701e-08,1.96385358835576e-07,-4.53724795175654e-07,-1.16816723426359e-07,-1.16816723426771e-07,1.34223761176979e-07,1.8779953793018e-08,1.53003714969894e-07,5.66564833457694e-07,5.91219753695218e-08,5.66564833457708e-07,-8.7105413063858e-09,,1.08432550169219e-07,,,1.04631677232764e-08,5.59558352106222e-08,1.21376606643285e-08,5.59558352107781e-08,9.37701843237365e-08,9.75767956594831e-08,1.91346979983073e-07,8.06857746603511e-08,-3.95330832487483e-08,,4.1146055184479e-08,-4.11460551844409e-08,1.17505922633758e-07,,-4.02484230525719e-08,5.48998367262872e-08,3.0011529255236e-08,7.15509951125734e-08,1.01562524367824e-07,2.04542486025698e-07,6.47869942215014e-08,6.4786994221418e-08,,1.35027952964371e-06,6.21769306131203e-07,1.62482898808915e-07,,,-1.39275688456136e-07,9.24301413307543e-08,9.24301413307076e-08,-1.6754418341566e-07,1.67544183415318e-07,3.04636105253694e-07,0,0,0,1.22880000000009,103,943.658737864078,532.951941747573,2287.33980582524,944.643689320388,942.673786407767,532.728155339806,533.17572815534,2441.22330097087,2133.45631067961,0
1998.1312,1.41524672746138e-07,5.20430574185446e-08,1.9356773016464e-07,-4.95776536713641e-07,-7.68058689516482e-08,-7.6805868952107e-08,1.35501662590686e-07,1.86868071263714e-08,1.54188469716955e-07,5.71041298361716e-07,5.47135026044062e-08,5.71041298361745e-07,-9.98943957685091e-09,,1.0706217734125e-07,,,7.39602468130074e-09,6.03291097140291e-08,1.01039622360174e-08,6.03291097141817e-08,9.37742855449196e-08,9.68777781156659e-08,1.90652063660437e-07,7.89570079493542e-08,-3.95779719061288e-08,,3.86196714060779e-08,-3.86196714060361e-08,1.17546152972808e-07,,-3.9553630050726e-08,4.63937906280134e-08,2.86298117412972e-08,7.23651674156482e-08,1.00994979156961e-07,2.00044461858575e-07,6.51470705577178e-08,6.51470705576373e-08,,1.29851969624476e-06,6.15206206591229e-07,1.68981965983226e-07,,,-1.34704812712974e-07,9.86935667323602e-08,9.869356673232e-08,-1.7545776166157e-07,1.75457761661238e-07,2.93929999540407e-07,0,1,0,1.33120000000008,102,944.821568627451,532.814705882353,2301.48039215686,945.163725490196,944.479411764706,533.248039215686,532.38137254902,2453.77450980392,2149.1862745098,0
1998.2336,1.38184797866621e-07,5.15313307387702e-08,1.89716128605347e-07,-5.27852283666234e-07,-2.23217867997768e-08,-2.2321786800278e-08,1.36355733529437e-07,1.85843758006267e-08,1.5494010932996e-07,5.73588977343554e-07,5.07052581841563e-08,5.73588977343595e-07,-1.1626543245887e-08,,1.05236800775651e-07,,,4.69228642443961e-09,6.41342270043526e-08,7.13147131716725e-09,6.41342270045015e-08,9.22942244806976e-08,9.6969114163854e-08,1.89263338644403e-07,7.70042197335893e-08,-3.94233708166664e-08,,3.5773047924998e-08,-3.57730479249523e-08,1.17210554254344e-07,,-3.88619966238695e-08,3.64881769665593e-08,2.65116293091601e-08,7.30203008939453e-08,9.95319302031221e-08,1.95918283953649e-07,6.51009674843831e-08,6.51009674843055e-08,,1.25126598659677e-06,6.06777592599903e-07,1.7454190923275e-07,,,-1.32347351354753e-07,1.0390553772712e-07,1.03905537727087e-07,-1.83759622450601e-07,1.83759622450278e-07,2.83908244066958e-07,0,1,0,1.43360000000007,103,945.118446601942,531.978640776699,2310.55825242718,944.395145631068,945.841747572815,531.957281553398,532,2462.26213592233,2158.85436893204,0
1998.336,1.34153368573281e-07,5.0814850984085e-08,1.8496821955732e-07,-5.53219933359651e-07,4.18735788695791e-08,4.18735788690459e-08,1.36840933633292e-07,1.84957236446085e-08,1.55336657277796e-07,5.74566819176589e-07,4.71128401601093e-08,5.74566819176639e-07,-1.36307195289374e-08,,1.0287310312751e-07,,,2.44109225658836e-09,6.73751532364035e-08,3.27854218151665e-09,6.73751532365493e-08,8.94899654770709e-08,9.78840413937431e-08,1.87374006870665e-07,7.51715894818065e-08,-3.9088329841323e-08,,3.28007982199718e-08,-3.28007982199233e-08,1.16776518575422e-07,,-3.83207095704156e-08,2.52237595336753e-08,2.35605051326681e-08,7.34788040265118e-08,9.70393091591979e-08,1.92607851659854e-07,6.48413452886451e-08,6.48413452885696e-08,,1.21307810809879e-06,5.97836159523203e-07,1.78923896244375e-07,,,-1.30798079642249e-07,1.08209947868649e-07,1.08209947868623e-07,-1.91867156452725e-07,1.91867156452409e-07,2.74418109968e-07,0,1,0,1.53600000000006,102,944.081862745098,523.311764705882,2318.10784313726,944.312745098039,943.850980392157,524.420588235294,522.202941176471,2466.43137254902,2169.78431372549,0
1998.4384,1.2969326976227e-07,4.98774136513467e-08,1.79570683413569e-07,-5.74369640033307e-07,1.10835793030419e-07,1.10835793029866e-07,1.37109057305205e-07,1.84402413351266e-08,1.55549298640226e-07,5.74603024173632e-07,4.39396185167304e-08,5.74603024173688e-07,-1.5935986799523e-08,,9.99660202225851e-08,,,6.93966161804391e-10,7.0048567376981e-08,-1.28089021121821e-09,7.00485673771243e-08,8.56453702055239e-08,9.9563148232657e-08,1.85208518438032e-07,7.36741036748387e-08,-3.86347948203906e-08,,2.99427433281728e-08,-2.99427433281226e-08,1.16394739019515e-07,,-3.80900515408511e-08,1.27219451935998e-08,1.97478991961187e-08,7.37357599306419e-08,9.34836591267801e-08,1.90389819591254e-07,6.45559649526166e-08,6.4555964952542e-08,,1.18776608820665e-06,5.89709384736144e-07,1.82006754237995e-07,,,-1.28486305260627e-07,1.11779953842317e-07,1.11779953842297e-07,-1.99227892854348e-07,1.99227892854039e-07,2.65184716910846e-07,0,0,0,1.63840000000005,102,943.456862745098,526.846568627451,2321.91176470588,943.853921568627,943.059803921569,527.26862745098,526.424509803922,2469.1568627451,2174.66666666667,0
1998.5408,1.25124982812332e-07,4.87074140673657e-08,1.73832396879648e-07,-5.92818702397748e-07,1.80125197548835e-07,1.80125197548266e-07,1.3736592745752e-07,1.84281341983567e-08,1.55794061655771e-07,5.74413524319609e-07,4.11822979841862e-08,5.74413524319669e-07,-1.84265350936453e-08,,9.65743662553975e-08,,,-5.30560167154341e-10,7.21260961658708e-08,-6.21028047430801e-09,7.2126096166012e-08,8.1125047357381e-08,1.01851273749059e-07,1.8297632110629e-07,7.24527311473086e-08,-3.8169743680988e-08,,2.74659991045554e-08,-2.74659991045039e-08,1.15947295047357e-07,,-3.83332127825019e-08,-8.41202525625547e-10,1.51402567811707e-08,7.38167627125627e-08,8.89570194937541e-08,1.8918416644566e-07,6.43873835138663e-08,6.43873835137931e-08,,1.17784346504436e-06,5.83538837839704e-07,1.83839361625719e-07,,,-1.2416150919311e-07,1.14801135045734e-07,1.1480113504572e-07,-2.0528518400977e-07,2.05285184009467e-07,2.55891939042629e-07,0,0,0,1.74080000000004,103,947.102427184466,535.098058252427,2324.33980582524,945.836893203884,948.367961165049,537.233980582524,532.96213592233,2472.60194174757,2176.07766990291,0
1998.6432,1.20747749139353e-07,4.72966835074596e-08,1.68044432646761e-07,-6.09430031786511e-07,2.46450459058154e-07,2.46450459057572e-07,1.37800172128696e-07,1.84571397117502e-08,1.5625731184034e-07,5.74586191901469e-07,3.88312037484365e-08,5.74586191901533e-07,-2.09861483235039e-08,,9.27833775109948e-08,,,-1.2473553108149e-09,7.356417548608e-08,-1.10149899807216e-08,7.35641754862208e-08,7.62973415322364e-08,1.04521340602691e-07,1.80818682134778e-07,7.11590666651686e-08,-3.78247324981039e-08,,2.56231705415613e-08,-2.56231705415091e-08,1.15033447163539e-07,,-3.91976736316911e-08,-1.52717528640086e-08,9.8919388247742e-09,7.37619082192022e-08,8.36538470439985e-08,1.88518717637434e-07,6.44030184363169e-08,6.4403018436245e-08,,1.1841868775023e-06,5.80155158705556e-07,1.84635094572863e-07,,,-1.17298967433619e-07,1.1742224329005e-07,1.17422243290043e-07,-2.09414354431177e-07,2.09414354430881e-07,2.46395755566148e-07,0,0,0,1.84320000000002,102,949.786274509804,541.252941176471,2319.44117647059,948.749019607843,950.823529411765,543.072549019608,539.433333333333,2470.36274509804,2168.51960784314,0
1998.7456,1.16757645916316e-07,4.56410366394176e-08,1.6239868255568e-07,-6.24879701812165e-07,3.07993072782236e-07,3.0799307278164e-07,1.38513830925348e-07,1.85137553916239e-08,1.57027586316866e-07,5.75420694801849e-07,3.68652214503308e-08,5.75420694801916e-07,-2.35500416598111e-08,,8.86632850043226e-08,,,-1.50930771038702e-09,7.43456821413691e-08,-1.51024624387442e-08,7.43456821415094e-08,7.14503248191958e-08,1.07316375814792e-07,1.78766700633838e-07,6.92940939736484e-08,-3.77192732884337e-08,,2.46012871447245e-08,-2.46012871446716e-08,1.13108821524767e-07,,-4.07904048863188e-08,-3.03853461892712e-08,4.20480662932589e-09,7.36048661311156e-08,7.78096727604654e-08,1.87685962939388e-07,6.45874112321816e-08,6.45874112321108e-08,,1.20591782903506e-06,5.79985338968409e-07,1.84684652942523e-07,,,-1.08198854681887e-07,1.19701193672518e-07,1.19701193672516e-07,-2.1088376337613e-07,2.10883763375839e-07,2.36899225176326e-07,0,0,0,1.94560000000001,103,948.623786407767,535.087378640777,2310.39805825243,946.511650485437,950.735922330097,530.177669902913,539.997087378641,2464.34951456311,2156.44660194175,0
1998.848,1.13198534471847e-07,4.37421391441733e-08,1.56940673615966e-07,-6.39950060442473e-07,3.64336844399573e-07,3.64336844398963e-07,1.39488602530614e-07,1.85790525440485e-08,1.58067655074556e-07,5.76895479060423e-07,3.52448257931216e-08,5.76895479060492e-07,-2.61343780945851e-08,,8.42427648955249e-08,,,-1.41111629520997e-09,7.45316818203475e-08,-1.78905115850874e-08,7.45316818204883e-08,6.67352198751525e-08,1.0999328920491e-07,1.76728509079913e-07,6.64349145328104e-08,-3.792732444113e-08,,2.44826870398726e-08,-2.44826870398186e-08,1.09716971168973e-07,,-4.31578459832402e-08,-4.60240733940104e-08,-1.7273682779712e-09,7.33553064304963e-08,7.16279381525499e-08,1.86023079393048e-07,6.48568460522515e-08,6.48568460521815e-08,,1.24045080420442e-06,5.82978639550642e-07,1.84235992314239e-07,,,-9.77863316195631e-08,1.21575996857852e-07,1.21575996857856e-07,-2.08915156845778e-07,2.08915156845491e-07,2.28004304012772e-07,0,0,0,2.048,102,949.938725490196,536.21568627451,2302.83823529412,947.883333333333,951.994117647059,530.236274509804,542.195098039216,2460.89215686275,2144.78431372549,0
1998.9504,1.09967798717515e-07,4.1607300457812e-08,1.51575099175271e-07,-6.55551974299125e-07,4.16145530937031e-07,4.16145530936403e-07,1.40603628632309e-07,1.86363998685562e-08,1.59240028500759e-07,5.78770586727542e-07,3.39075483253023e-08,5.78770586727613e-07,-2.88312438851589e-08,,7.95049587595227e-08,,,-1.08921331736461e-09,7.42915580089245e-08,-1.89331985314371e-08,7.42915580090657e-08,6.21546636526118e-08,1.12356671052236e-07,1.74511334704698e-07,6.24263268543747e-08,-3.84659322600104e-08,,2.52326813947059e-08,-2.52326813946497e-08,1.04691337202303e-07,,-4.62793257273669e-08,-6.20704327853805e-08,-7.76343866649735e-09,7.29889983170679e-08,6.52255596505965e-08,1.83169285356733e-07,6.50860735880451e-08,6.5086073587976e-08,,1.28378293385087e-06,5.88599413366445e-07,1.83421252575382e-07,,,-8.73296847390968e-08,1.22876195606447e-07,1.22876195606457e-07,-2.02870451460201e-07,2.02870451459916e-07,2.20682187709846e-07,0,0,0,2.15039999999999,102,948.666666666667,543.550490196078,2300.88725490196,946.807843137255,950.525490196078,541.000980392157,546.1,2460.59803921569,2141.17647058824,0
1999.0528,1.06869162215534e-07,3.92464934505185e-08,1.46115655665996e-07,-6.72505413659646e-07,4.64704854390101e-07,4.64704854389452e-07,1.41690591723693e-07,1.86781823942986e-08,1.60368774117886e-07,5.80759065689314e-07,3.27688954660081e-08,5.80759065689386e-07,-3.17752938943134e-08,,7.44012776749098e-08,,,-7.15084522966338e-10,7.38954167733166e-08,-1.80136085922558e-08,7.38954167734577e-08,5.75899708821399e-08,1.14279482873654e-07,1.71869453755644e-07,5.74430994806967e-08,-3.93110765625005e-08,,2.67173963088369e-08,-2.67173963087779e-08,9.82289226995519e-08,,-5.0075077655512e-08,-7.84582398435599e-08,-1.38321846452916e-08,7.24477677618277e-08,5.86155831165628e-08,1.79180836453033e-07,6.51346783243693e-08,6.51346783243011e-08,,1.3311491218653e-06,5.95947372192181e-07,1.82264747842155e-07,,,-7.82398764572006e-08,1.233699172805e-07,1.23369917280515e-07,-1.92472447249454e-07,1.92472447249173e-07,2.1619494272623e-07,0,0,0,2.25279999999998,103,947.252912621359,541.57572815534,2303.6359223301,946.531067961165,947.974757281553,539.227184466019,543.92427184466,2462.02912621359,2145.2427184466,0
1999.1552,1.03683353368578e-07,3.66707358564076e-08,1.40354089224929e-07,-6.91140756397651e-07,5.11378517882287e-07,5.11378517881614e-07,1.42594775207784e-07,1.87101839356756e-08,1.61304959143355e-07,5.82664543292449e-07,3.17298805966506e-08,5.82664543292522e-07,-3.50974851290339e-08,,6.88744998918458e-08,,,-4.7790955689723e-10,7.36705967849835e-08,-1.51655219365168e-08,7.36705967851258e-08,5.28553458343858e-08,1.15708914828158e-07,1.68564260662393e-07,5.19073412332331e-08,-4.04298157831957e-08,,2.87446026024261e-08,-2.87446026023643e-08,9.08159529826406e-08,,-5.44253140544213e-08,-9.51719721747203e-08,-1.99230943984341e-08,7.16510695454044e-08,5.1727975146997e-08,1.74472714767713e-07,6.48662273511397e-08,6.48662273510713e-08,,1.37792593241407e-06,6.03960446592241e-07,1.80743356412066e-07,,,-7.1907220520326e-08,1.2283518391996e-07,1.22835183919979e-07,-1.77928525747774e-07,1.77928525747495e-07,2.15873735221071e-07,0,0,0,2.35519999999997,102,950.141176470588,542.242647058824,2308.29411764706,947.362745098039,952.919607843137,537.548039215686,546.937254901961,2463.77450980392,2152.8137254902,0
1999.2576,1.00226959943472e-07,3.3895797475914e-08,1.34122757419329e-07,-7.10840837473924e-07,5.57134898253663e-07,5.57134898252962e-07,1.43216685841943e-07,1.8752544524491e-08,1.6196923036633e-07,5.84415056875978e-07,3.0690411692854e-08,5.84415056876051e-07,-3.88805270625669e-08,,6.28847314289722e-08,,,-5.55196779887326e-10,7.3932826633997e-08,-1.06315360138015e-08,7.39328266341401e-08,4.77669789405768e-08,1.1665541292787e-07,1.64422391868296e-07,4.63081286469571e-08,-4.1810125756227e-08,,3.11134454128693e-08,-3.11134454128037e-08,8.30490015050861e-08,,-5.91930437538656e-08,-1.12228460252521e-07,-2.60593363972466e-08,7.0517529065487e-08,4.44581926682672e-08,1.69627743777319e-07,6.41599530688018e-08,6.41599530687339e-08,,1.4203712793965e-06,6.11564918748437e-07,1.78860743621192e-07,,,-6.94824848285502e-08,1.21144589546571e-07,1.21144589546594e-07,-1.59927970825671e-07,1.59927970825395e-07,2.20682954420536e-07,0,0,0,2.45759999999996,102,948.739705882353,538.934803921569,2318.02941176471,947.851960784314,949.627450980392,532.825490196079,545.044117647059,2469.1862745098,2166.87254901961,0
1999.36,9.63816308142423e-08,3.09497371990956e-08,1.27331368013281e-07,-7.29682884449849e-07,6.02389316378561e-07,6.02389316377834e-07,1.43522204156254e-07,1.88361933190091e-08,1.6235839747516e-07,5.85992254258095e-07,2.95655139437668e-08,5.85992254258167e-07,-4.31301783666444e-08,,5.64307974888469e-08,,,-1.07760451593763e-09,7.49118371296256e-08,-4.7950229707464e-09,7.49118371297705e-08,4.22061056920184e-08,1.17168337876369e-07,1.59374443568237e-07,4.10016378714333e-08,-4.34722278010835e-08,,3.36580594895185e-08,-3.36580594894498e-08,7.54241724290863e-08,,-6.42409049309257e-08,-1.29644064385696e-07,-3.22623249577088e-08,6.8988316866135e-08,3.67259919084529e-08,1.65153331934003e-07,6.29173857058754e-08,6.2917385705807e-08,,1.45587758471422e-06,6.17708317754795e-07,1.76715912353014e-07,,,-7.16648758950205e-08,1.18339010887399e-07,1.18339010887424e-07,-1.39569037204247e-07,1.39569037203975e-07,2.30749532484484e-07,0,1,0,2.55999999999995,103,949.774757281553,533.645145631068,2326.76213592233,949.328155339806,950.221359223301,528.304854368932,538.985436893204,2478.4854368932,2175.03883495146,0
1999.4624,9.20870556662262e-08,2.78796484720835e-08,1.19966704138253e-07,-7.44310292558982e-07,6.4722682104721e-07,6.47226821046456e-07,1.43517958645142e-07,1.89961048131054e-08,1.62514063458145e-07,5.87305500564368e-07,2.82992229660446e-08,5.87305500564439e-07,-4.77760150871854e-08,,4.9557161677776e-08,,,-2.10128015675074e-09,7.66967249615357e-08,1.89056928840507e-09,7.66967249616821e-08,3.61498627745035e-08,1.17308269573152e-07,1.53458132347504e-07,3.60802722501781e-08,-4.54552601556542e-08,,3.6273637443858e-08,-3.62736374437859e-08,6.81797447193771e-08,,-6.94350296265901e-08,-1.47395220116308e-07,-3.85207801129761e-08,6.70418953242834e-08,2.85211152113337e-08,1.61289285095155e-07,6.10667282016212e-08,6.10667282015523e-08,,1.48288756648827e-06,6.21373438802633e-07,1.74545745175419e-07,,,-7.86302100334589e-08,1.14653909331501e-07,1.14653909331527e-07,-1.18246318200713e-07,1.18246318200446e-07,2.45171550647156e-07,0,1,0,2.66239999999993,102,949.974019607843,538.413235294118,2334.33333333333,949.707843137255,950.240196078431,533.040196078431,543.786274509804,2486.11764705882,2182.54901960784,0
1999.5648,8.7304189497148e-08,2.47549388609972e-08,1.12059128358089e-07,-7.50100592400069e-07,6.91749604314816e-07,6.91749604314044e-07,1.43202053889669e-07,1.92648295061298e-08,1.62466883395697e-07,5.88079578197042e-07,2.68705251080267e-08,5.88079578197111e-07,-5.27041659193009e-08,,4.23416290525853e-08,,,-3.59923926662432e-09,7.92173901335636e-08,8.96877273729918e-09,7.92173901337118e-08,2.96566159578419e-08,1.17128653022477e-07,1.46785268980168e-07,3.13789664979833e-08,-4.77865612661906e-08,,3.89184814912907e-08,-3.8918481491215e-08,6.1266701987525e-08,,-7.46367187965657e-08,-1.65381922137233e-07,-4.47806678518624e-08,6.46957633195482e-08,1.99150954677119e-08,1.57961878631294e-07,5.85674807550765e-08,5.85674807550061e-08,,1.5008405309865e-06,6.2169751492128e-07,1.72714670333977e-07,,,-9.00959949559726e-08,1.10477861577278e-07,1.10477861577305e-07,-9.74843916189818e-08,9.74843916187204e-08,2.62232800252487e-07,0,1,0,2.76480000000015,103,949.270388349515,536.630582524272,2341.28640776699,949.011650485437,949.529126213592,532.423300970874,540.83786407767,2492.27184466019,2190.30097087379,0
1999.6672,8.19740966809467e-08,2.16660242139173e-08,1.03640120894808e-07,-7.41589170467717e-07,7.3619971157791e-07,7.36199711577131e-07,1.42520570016518e-07,1.96681413621616e-08,1.62188711378579e-07,5.87826855447195e-07,2.52886352479608e-08,5.87826855447262e-07,-5.78038970716779e-08,,3.48722422075749e-08,,,-5.47213038590969e-09,8.22621838714479e-08,1.60284917175626e-08,8.22621838715976e-08,2.2819637595038e-08,1.16674696132863e-07,1.3949433372775e-07,2.6619660187343e-08,-5.04508583808309e-08,,4.15945796727213e-08,-4.15945796726425e-08,5.44639121268563e-08,,-7.96915454493488e-08,-1.83408804226696e-07,-5.09631982115696e-08,6.19994107211337e-08,1.10362125095898e-08,1.54910008521039e-07,5.54161776720115e-08,5.54161776719399e-08,,1.51020343474099e-06,6.1815597663628e-07,1.71637776182652e-07,,,-1.05395141343859e-07,1.06259889389852e-07,1.06259889389881e-07,-7.87197684339482e-08,7.87197684336937e-08,2.79868850499054e-07,0,0,0,2.86720000000014,102,949.012254901961,532.531862745098,2345.62745098039,949.400980392157,948.623529411765,532.500980392157,532.562745098039,2496.3431372549,2194.91176470588,0
1999.7696,7.60049051015992e-08,1.8716641290224e-08,9.47215463917681e-08,-7.13046780883189e-07,7.80740359312272e-07,7.8074035931149e-07,1.4136276546346e-07,2.02216678190379e-08,1.61584433282398e-07,5.85940633982612e-07,2.35806469814983e-08,5.85940633982674e-07,-6.2999864418055e-08,,2.72292241392379e-08,,,-7.57108280113545e-09,8.55214093594023e-08,2.27180901544454e-08,8.55214093595533e-08,1.57229963428129e-08,1.15994272000226e-07,1.31717268342888e-07,2.16108675042461e-08,-5.3376654725444e-08,,4.43205419758016e-08,-4.43205419757202e-08,4.75694338258337e-08,,-8.44284265329501e-08,-2.01195357384e-07,-5.69976751334202e-08,5.90249801753743e-08,2.02730504197902e-09,1.51903569888074e-07,5.16514035518714e-08,5.16514035517983e-08,,1.51235916902705e-06,6.10661099476781e-07,1.71656391304484e-07,,,-1.23490992347589e-07,1.02405685548758e-07,1.02405685548788e-07,-6.30868476997944e-08,6.30868476995456e-08,2.96138114573052e-07,0,0,0,2.96960000000013,103,949.841579987888,532.353487671451,2334.0195524453,948.195356909301,951.487803066476,533.398661904522,531.308313438379,2484.69797273505,2183.34113215555,0
1999.872,6.92988450085592e-08,1.60093088976028e-08,8.53081539061076e-08,-6.59205601786157e-07,8.25065603202004e-07,8.25065603201226e-07,1.3960018543706e-07,2.09269069680951e-08,1.60527092405056e-07,5.81873029914017e-07,2.17784174156086e-08,5.81873029914073e-07,-6.8255926085802e-08,,1.94802337146603e-08,,,-9.72736501921075e-09,8.86445794611905e-08,2.87388262542868e-08,8.86445794613419e-08,8.4240265447039e-09,1.15146613412109e-07,1.23570639956662e-07,1.63887724453039e-08,-5.64468732203605e-08,,4.71101770478089e-08,-4.71101770477255e-08,4.05555470208143e-08,,-8.86751819445133e-08,-2.18410947689976e-07,-6.28448743534614e-08,5.58582191555419e-08,-6.98665519789632e-09,1.48919553278637e-07,4.7354113963767e-08,4.73541139636935e-08,,1.50926318415539e-06,5.99526317517897e-07,1.72923185781007e-07,,,-1.43015443253078e-07,9.91967271455532e-08,9.91967271455866e-08,-5.12954094243115e-08,5.12954094240675e-08,3.0956456246605e-07,0,0,0,3.07200000000012,102,964.658961182366,561.715650216597,2253.266669498,956.122020725389,973.195901639344,557.977202072539,565.454098360656,2395.13989637306,2111.39344262295,0.901960784313725
1999.9744,6.18026494402027e-08,1.36278613531767e-08,7.5430510793326e-08,-5.76165008865871e-07,8.68122903741114e-07,8.68122903740344e-07,1.3714507767106e-07,2.17676328805394e-08,1.58912710551502e-07,5.75310536167169e-07,1.99096611656228e-08,5.75310536167218e-07,-7.35574759791256e-08,,1.1686224476315e-08,,,-1.17844038364188e-08,9.13001165882348e-08,3.38451591335338e-08,9.13001165883861e-08,9.60416560617402e-10,1.14201273996286e-07,1.15161690556754e-07,1.12330400354305e-08,-5.95278409741402e-08,,4.99561343224407e-08,-4.99561343223565e-08,3.36109866371945e-08,,-9.22869733193163e-08,-2.34720116803216e-07,-6.84963094598395e-08,5.25898736803424e-08,-1.59064357794757e-08,1.46183292673965e-07,4.26404869993294e-08,4.2640486999254e-08,,1.50302982784607e-06,5.85369470646172e-07,1.7535755607894e-07,,,-1.62442095692734e-07,9.67533026340558e-08,9.6753302634093e-08,-4.3650766900313e-08,4.36507669000742e-08,3.19332868694657e-07,0,0,0,3.17440000000011,102,972.918168829864,555.56367105635,2231.39005695429,961.933648277964,983.902689381764,556.781992278777,554.345349833923,2359.21411155136,2103.56600235723,0
2000.0768,5.35530944447015e-08,1.16243011427907e-08,6.51773955874399e-08,-4.62316789017511e-07,9.08161345274029e-07,9.08161345273272e-07,1.3399734900988e-07,2.27101809264196e-08,1.56707529936203e-07,5.66267719246988e-07,1.79942304898301e-08,5.6626771924703e-07,-7.8885538901235e-08,,3.91297922876925e-09,,,-1.36219142759427e-08,9.32246330029176e-08,3.78540967947691e-08,9.32246330030697e-08,-6.63079701674393e-09,1.13230947087207e-07,1.06600150070314e-07,6.5633905593792e-09,-6.2502680920455e-08,,5.28133688919091e-08,-5.28133688918241e-08,2.70661410961278e-08,,-9.51751557710042e-08,-2.49824462512515e-07,-7.39524903290279e-08,4.93090036643509e-08,-2.46434866646577e-08,1.44069055662319e-07,3.76493803809829e-08,3.76493803809042e-08,,1.49564688112698e-06,5.69010126075403e-07,1.786829499174e-07,,,-1.80360713682972e-07,9.50560456104779e-08,9.50560456105202e-08,-4.01783898484829e-08,4.01783898482464e-08,3.25292862183272e-07,0,0,0,3.27680000000009,103,963.88786407767,519.955825242719,2288.16504854369,960.491262135922,967.284466019417,518.653398058252,521.258252427185,2428.4854368932,2147.84466019417,0
2000.1792,4.4694518381875e-08,1.00152179929921e-08,5.4709736374816e-08,-3.18995394899459e-07,9.43121480441256e-07,9.43121480440521e-07,1.30258676350039e-07,2.37095879824831e-08,1.53968264332428e-07,5.55057603777215e-07,1.60450584390516e-08,5.55057603777249e-07,-8.41938485374733e-08,,-3.75702855197984e-09,,,-1.51617261372498e-08,9.42495887315727e-08,4.06552003100632e-08,9.42495887317255e-08,-1.42901215328298e-08,1.1230151964286e-07,9.80113981098825e-08,2.77310942783644e-09,-6.52941474155413e-08,,5.55911266026576e-08,-5.55911266025731e-08,2.12488947737171e-08,,-9.73213137051323e-08,-2.63489375347623e-07,-7.91934280745931e-08,4.60997787119947e-08,-3.30936493625819e-08,1.42920343375272e-07,3.25293980971398e-08,3.25293980970577e-08,,1.48884363658907e-06,5.51360805049384e-07,1.82510624518996e-07,,,-1.95686719475598e-07,9.40183116229527e-08,9.40183116230004e-08,-4.07446692370961e-08,4.07446692368597e-08,3.27715784368188e-07,0,0,0,3.37920000000008,102,950.800490196078,523.889215686275,2292.00980392157,950.28431372549,951.316666666667,522.921568627451,524.856862745098,2426.83333333333,2157.1862745098,0
2000.2816,3.54570235259796e-08,8.78705304078008e-09,4.42440765667095e-08,-1.50681773493958e-07,9.71197399902421e-07,9.71197399901708e-07,1.26104594377345e-07,2.4718936892146e-08,1.50823531269399e-07,5.42146085775693e-07,1.40725101390664e-08,5.42146085775719e-07,-8.94021203704602e-08,,-1.12222412529699e-08,,,-1.63571829838308e-08,9.43016299577353e-08,4.22329761333494e-08,9.4301629957889e-08,-2.19181008568119e-08,1.11457874573701e-07,8.95397737167416e-08,7.97786523790321e-11,-6.78669427717645e-08,,5.81687622871722e-08,-5.81687622870882e-08,1.63436764382135e-08,,-9.87682004497226e-08,-2.75549391115361e-07,-8.41565654837357e-08,4.30400575182906e-08,-4.11165079654316e-08,1.42882943629466e-07,2.74275364546134e-08,2.74275364545276e-08,,1.48394982131916e-06,5.33311647803864e-07,1.86431310494748e-07,,,-2.07705528158732e-07,9.35641924907354e-08,9.35641924907892e-08,-4.50744587119033e-08,4.50744587116669e-08,3.26902761448133e-07,0,0,0,3.48160000000007,103,946.638834951456,529.077184466019,2300.84951456311,947.928155339806,945.349514563107,530.290291262136,527.864077669903,2432.15533980583,2169.54368932039,0
2000.384,2.60989225235631e-08,7.9063848844336e-09,3.40053074079473e-08,3.5220554722159e-08,9.91352540106891e-07,9.91352540106201e-07,1.21721565888934e-07,2.56972884510011e-08,1.47418854339844e-07,5.27946188030224e-07,1.2088773775961e-08,5.27946188030242e-07,-9.44160138043039e-08,,-1.83771948709279e-08,,,-1.71792710731199e-08,9.33881979189078e-08,4.27050916979444e-08,9.33881979190624e-08,-2.93801247646801e-08,1.10708204222225e-07,8.13280794573987e-08,-1.52701775067116e-09,-7.02100633617813e-08,,6.04306060745832e-08,-6.04306060745009e-08,1.23308792024114e-08,,-9.9592688279754e-08,-2.85898610676498e-07,-8.87351962753779e-08,4.01976555308827e-08,-4.85375407444846e-08,1.43845049029053e-07,2.24781881515886e-08,2.24781881514997e-08,,1.48163486009187e-06,5.15627618545732e-07,1.90082999566859e-07,,,-2.1601772855021e-07,9.36597893856913e-08,9.36597893857503e-08,-5.26548325808346e-08,5.26548325805993e-08,3.2290032922037e-07,0,0,0,3.58400000000006,102,948.412254901961,522.458333333333,2308.57352941177,951.812745098039,945.011764705882,524.654901960784,520.261764705882,2435.35294117647,2181.79411764706,0
2000.4864,1.68347920326061e-08,7.33282358062031e-09,2.41676156131767e-08,2.28966399920488e-07,1.00362200613266e-06,1.00362200613199e-06,1.17236414571709e-07,2.66144583975749e-08,1.43850872969195e-07,5.12640330500827e-07,1.01084949593298e-08,5.12640330500838e-07,-9.91662128324824e-08,,-2.51389629350893e-08,,,-1.76092599754665e-08,9.15885814338095e-08,4.23423372463983e-08,9.15885814339652e-08,-3.65409888825421e-08,1.10018654502163e-07,7.34776656194762e-08,-2.20685550896038e-09,-7.23115777052386e-08,,6.22947813850927e-08,-6.22947813850119e-08,9.04753410823321e-09,,-9.98767239777648e-08,-2.9448022989654e-07,-9.28014234438392e-08,3.76231494185421e-08,-5.51782740252892e-08,1.45527704939014e-07,1.77950300267702e-08,1.77950300266787e-08,,1.48167109022029e-06,4.9889325056407e-07,1.93165626408813e-07,,,-2.2049328281687e-07,9.42904070595819e-08,9.42904070596469e-08,-6.26205646567041e-08,6.26205646564696e-08,3.15485689128912e-07,0,0,0,3.68640000000005,102,948.28431372549,526.601960784314,2315.46078431373,954.430392156863,942.138235294118,525.025490196078,528.178431372549,2443.58823529412,2187.33333333333,0
2000.5888,7.78411456274187e-09,7.03234342484824e-09,1.48164579875402e-08,4.19402420672487e-07,1.00911444823149e-06,1.00911444823084e-06,1.12676168045161e-07,2.74538271592726e-08,1.40129995204347e-07,4.96116515781485e-07,8.14570654207699e-09,4.96116515781491e-07,-1.03638980206648e-07,,-3.14649888196263e-08,,,-1.76358965401173e-08,8.905678675033e-08,4.15335452247697e-08,8.90567867504865e-08,-4.33121160726545e-08,1.09329916469316e-07,6.6017800396518e-08,-2.10923614567918e-09,-7.41423169083669e-08,,6.37210504646706e-08,-6.37210504645906e-08,6.32971655386904e-09,,-9.96915361360533e-08,-3.01280701771359e-07,-9.62416830442209e-08,3.53437921215788e-08,-6.08978909226367e-08,1.47670271770315e-07,1.34721929210846e-08,1.34721929209906e-08,,1.48295817839184e-06,4.8352232975015e-07,1.95402298043883e-07,,,-2.21243469873458e-07,9.54264851616049e-08,9.54264851616758e-08,-7.37547740473335e-08,7.37547740470997e-08,3.04346634155338e-07,0,1,0,3.78880000000004,103,948.870873786408,526.726699029126,2321.86893203884,954.763106796116,942.978640776699,527.295145631068,526.158252427185,2450.56310679612,2193.17475728155,0
2000.6912,-1.03168879306981e-09,6.98692654545653e-09,5.95523775233648e-09,5.95235508204e-07,1.00974532039158e-06,1.00974532039095e-06,1.07981129990289e-07,2.82137811765853e-08,1.3619491116679e-07,4.78049735165416e-07,6.21090809056517e-09,4.78049735165417e-07,-1.07871979500498e-07,,-3.73464651672527e-08,,,-1.72504045988953e-08,8.60216331937407e-08,4.06903002592394e-08,8.60216331938979e-08,-4.96807665897394e-08,1.08592856932966e-07,5.89120903430839e-08,-1.24121839712565e-09,-7.56573576466341e-08,,6.4705249308435e-08,-6.47052493083563e-08,4.13650355714351e-09,,-9.90982469995377e-08,-3.06322196244303e-07,-9.89833106103883e-08,3.33638191817156e-08,-6.56194914286699e-08,1.50187783984825e-07,9.59474664320263e-09,9.59474664310601e-09,,1.48383889343845e-06,4.69783641055209e-07,1.96482169013881e-07,,,-2.18556810129448e-07,9.70170141938902e-08,9.70170141939669e-08,-8.46731341475374e-08,8.46731341473049e-08,2.89271852876644e-07,0,1,0,3.89120000000003,102,948.941666666667,523.103921568628,2328.86274509804,954.210784313726,943.672549019608,520.019607843137,526.188235294118,2460.60784313725,2197.11764705882,0
2000.7936,-9.64369537771003e-09,7.19626997309295e-09,-2.44742540466806e-09,7.46438151872275e-07,1.00785588323097e-06,1.00785588323033e-06,1.03061562305561e-07,2.89064756572419e-08,1.31968037962719e-07,4.58081804804862e-07,4.31085165668644e-09,4.58081804804861e-07,-1.11913143593723e-07,,-4.27792822333088e-08,,,-1.64378396703245e-08,8.27671126907825e-08,4.01093823178215e-08,8.27671126909401e-08,-5.57038015029651e-08,1.07803733993524e-07,5.20999324904171e-08,5.56409246785322e-10,-7.68117882649318e-08,,6.52717048791289e-08,-6.52717048790514e-08,2.57559344978498e-09,,-9.81567348855065e-08,-3.09650751049422e-07,-1.00997907388938e-07,3.16707634008741e-08,-6.93271439880636e-08,1.53205192838909e-07,6.24825050381745e-09,6.24825050371847e-09,,1.48249632965271e-06,4.57777807222721e-07,1.96028997572948e-07,,,-2.12819419824647e-07,9.90021118165884e-08,9.90021118166717e-08,-9.41399985247463e-08,9.41399985245147e-08,2.7026550340705e-07,0,1,0,3.99360000000002,103,949.559708737864,530.084466019418,2333.67475728155,952.63786407767,946.481553398058,529.11359223301,531.055339805825,2464.64077669903,2202.70873786408,0
2000.896,-1.80659826291036e-08,7.66954107913112e-09,-1.03964415500241e-08,8.65437145438434e-07,1.0058850556396e-06,1.00588505563897e-06,9.78659370900799e-08,2.95523531855811e-08,1.27418290275578e-07,4.36014042580712e-07,2.45028308941515e-09,4.36014042580709e-07,-1.15765103566025e-07,,-4.77293176882334e-08,,,-1.51701135744123e-08,7.95861329272236e-08,3.98334699736744e-08,7.95861329273814e-08,-6.14763695929534e-08,1.07020357189217e-07,4.55439875961229e-08,3.51608964829823e-09,-7.75792447351314e-08,,6.5466057146842e-08,-6.54660571467656e-08,1.82254721479715e-09,,-9.6932488930677e-08,-3.11328821516751e-07,-1.0228242853281e-07,3.02430259077505e-08,-7.20394026250612e-08,1.5695646098991e-07,3.51614087679087e-09,3.51614087668944e-09,,1.47725053179496e-06,4.47392833233858e-07,1.9363127758202e-07,,,-2.04534014904285e-07,1.0131334052024e-07,1.01313340520329e-07,-1.01376603441485e-07,1.01376603441252e-07,2.47650463345293e-07,0,0,0,4.096,102,949.445098039216,533.687254901961,2337.20588235294,953.186274509804,945.703921568628,530.375490196079,536.999019607843,2468.22549019608,2206.1862745098,0
2000.9984,-2.62353237077365e-08,8.40940894874171e-09,-1.78259147590472e-08,9.47761381076587e-07,1.00615049271549e-06,1.00615049271485e-06,9.24273490899951e-08,3.01710992429988e-08,1.22598448332911e-07,4.11935859665068e-07,6.34675744246271e-10,4.11935859665065e-07,-1.19345508206602e-07,,-5.21110961045394e-08,,,-1.34067991832794e-08,7.6715921989229e-08,3.95771672565867e-08,7.67159219893871e-08,-6.70994486674386e-08,1.06356057907707e-07,3.92566092401273e-08,7.78494361256821e-09,-7.79610087108111e-08,,6.53463721750147e-08,-6.53463721749393e-08,1.98291988654115e-09,,-9.5495414375407e-08,-3.11437193778547e-07,-1.0283001893414e-07,2.9055880076348e-08,-7.37741388577964e-08,1.61602293722834e-07,1.46345664374258e-09,1.46345664363853e-09,,1.46682864623717e-06,4.38335334476205e-07,1.88936167112294e-07,,,-1.94483031733932e-07,1.03856968820448e-07,1.03856968820542e-07,-1.06224208789579e-07,1.06224208789347e-07,2.22214713593293e-07,0,0,0,4.19839999999999,102,948.300490196078,537.097549019608,2338.13235294118,951.425490196078,945.175490196078,538.978431372549,535.216666666667,2466.64705882353,2209.61764705882,0
2001.1008,-3.39898852873732e-08,9.39668779548943e-09,-2.45931974919376e-08,9.92032682061206e-07,1.01068806779038e-06,1.01068806778973e-06,8.68661849408574e-08,3.07730467561731e-08,1.17639231696948e-07,3.86234565874195e-07,-1.12598676267534e-09,3.86234565874194e-07,-1.22483851323849e-07,,-5.57905856459438e-08,,,-1.11048194447774e-08,7.42841104078254e-08,3.87694471841259e-08,7.4284110407984e-08,-7.2658715100314e-08,1.05957879485988e-07,3.3299164385534e-08,1.32829208043409e-08,-7.7978619270017e-08,,6.49710976350096e-08,-6.49710976349346e-08,2.97126635697635e-09,,-9.39094814906257e-08,-3.10074068704674e-07,-1.02608204546402e-07,2.80866823833332e-08,-7.45215221630747e-08,1.67057261085409e-07,1.16594374597285e-10,1.16594374491593e-10,,1.45076278802579e-06,4.3025751207335e-07,1.81760074752446e-07,,,-1.83877751111478e-07,1.06504312129684e-07,1.06504312129782e-07,-1.09109627768674e-07,1.09109627768442e-07,1.95282698340807e-07,0,0,0,4.30079999999998,103,950.760194174757,534.16359223301,2338.19417475728,953.37572815534,948.144660194175,538.228155339806,530.099029126214,2466.99029126214,2209.39805825243,0
2001.2032,-4.11012176490966e-08,1.05857248849379e-08,-3.05154927642142e-08,9.99472738892302e-07,1.0210675693456e-06,1.02106756934495e-06,8.13464839113464e-08,3.13556581652654e-08,1.12702142076529e-07,3.59473838499931e-07,-2.81383561584249e-09,3.59473838499931e-07,-1.24957171864036e-07,,-5.86110358906245e-08,,,-8.23334008086778e-09,7.22967298671663e-08,3.66941771977151e-08,7.2296729867326e-08,-7.82137336748402e-08,1.05976067017511e-07,2.776233334253e-08,1.96631398340011e-08,-7.76521782331923e-08,,6.43847285502916e-08,-6.43847285502171e-08,4.48137591765097e-09,,-9.22161479605253e-08,-3.07335522322861e-07,-1.01560767231089e-07,2.7319676802369e-08,-7.42410904287273e-08,1.72929566066125e-07,-5.47866871027932e-10,-5.47866871135379e-10,,1.42977737836794e-06,4.22873917650171e-07,1.72161218124604e-07,,,-1.74262182621914e-07,1.091051493473e-07,1.09105149347403e-07,-1.10859890855967e-07,1.10859890855734e-07,1.68545961953684e-07,0,0,0,4.40319999999997,102,953.204901960784,524.799509803922,2332.20098039216,954.436274509804,951.973529411765,525.905882352941,523.693137254902,2460.01960784314,2204.38235294118,0
2001.3056,-4.73453979761215e-08,1.19132006393295e-08,-3.54321973368493e-08,9.73210054656243e-07,1.03813423127151e-06,1.03813423127084e-06,7.60076925518689e-08,3.19063860537517e-08,1.07914078605537e-07,3.32202420337473e-07,-4.40363317981428e-09,3.32202420337472e-07,-1.2655061154373e-07,,-6.04318523505034e-08,,,-4.78916163065098e-09,7.06723531720976e-08,3.26613009248445e-08,7.06723531722593e-08,-8.37967085232837e-08,1.06533016538581e-07,2.27363080151576e-08,2.64156057895378e-08,-7.69759568402927e-08,,6.36039333123048e-08,-6.360393331223e-08,6.08417470873386e-09,,-9.0419172610334e-08,-3.03283033757934e-07,-9.96370735833204e-08,2.67486602326529e-08,-7.28884133506757e-08,1.78633084789242e-07,-5.98525284984429e-10,-5.98525285092009e-10,,1.40579667943997e-06,4.15974721267367e-07,1.60450222931202e-07,,,-1.67147392702304e-07,1.11516296729548e-07,1.11516296729654e-07,-1.12454407282882e-07,1.1245440728265e-07,1.43707864204522e-07,0,0,0,4.50559999999996,102,954.122058823529,528.137254901961,2327.08333333333,953.936274509804,954.307843137255,528.583333333333,527.691176470588,2453.72549019608,2200.44117647059,0
2001.408,-5.25742359961468e-08,1.33130851429259e-08,-3.92611508532803e-08,9.17547194290036e-07,1.06172331396164e-06,1.06172331396095e-06,7.09087762798371e-08,3.24097405210968e-08,1.03318516800849e-07,3.04807777407924e-07,-5.8689962125601e-09,3.04807777407921e-07,-1.27120562049741e-07,,-6.11667647176786e-08,,,-8.08524526417938e-10,6.9300301889521e-08,2.61651494202329e-08,6.93003018896847e-08,-8.9421481056765e-08,1.07700266002048e-07,1.8278784945143e-08,3.30657778057564e-08,-7.59064437240271e-08,,6.26084252932706e-08,-6.26084252931961e-08,7.40927578390135e-09,,-8.84808194837437e-08,-2.97923486025122e-07,-9.68329393402741e-08,2.63760608869737e-08,-7.04568784533093e-08,1.83624059879666e-07,-1.32423212755303e-10,-1.3242321286477e-10,,1.38143873341325e-06,4.09386941329031e-07,1.47140919597109e-07,,,-1.6361637139486e-07,1.13627844211391e-07,1.13627844211501e-07,-1.14782037241706e-07,1.14782037241474e-07,1.22201619459245e-07,0,0,0,4.60799999999995,103,954.845631067961,526.590291262136,2324.45145631068,954.166019417476,955.525242718447,525.181553398058,527.999029126214,2452.07766990291,2196.82524271845,0
2001.5104,-5.6746856947037e-08,1.47281564902572e-08,-4.20187004568412e-08,8.37329521088091e-07,1.09049206694019e-06,1.09049206693949e-06,6.6014171182207e-08,3.28553053861196e-08,9.88694765682409e-08,2.77501453089352e-07,-7.19187307958386e-09,2.77501453089345e-07,-1.26637314432495e-07,,-6.08073737462696e-08,,,3.62805241376499e-09,6.80969639598634e-08,1.70261186701802e-08,6.80969639600303e-08,-9.50971623102859e-08,1.09488934276197e-07,1.43917719657725e-08,3.93527234647078e-08,-7.43721687959038e-08,,6.13434828724627e-08,-6.13434828723881e-08,8.30400588648258e-09,,-8.63333562657345e-08,-2.91217479640205e-07,-9.32166474265955e-08,2.62093435555796e-08,-6.70073038710257e-08,1.87625567894755e-07,7.43929095899337e-10,7.43929095788339e-10,,1.35927985728254e-06,4.03003710336955e-07,1.32865039547148e-07,,,-1.64137957498994e-07,1.15375017365634e-07,1.15375017365746e-07,-1.18449298960122e-07,1.18449298959889e-07,1.05147667426637e-07,0,0,0,4.71039999999994,102,953.730882352941,531.860294117647,2326.76470588235,953.666666666667,953.795098039216,524.492156862745,539.228431372549,2453.29411764706,2200.23529411765,0
2001.6128,-5.99074929473501e-08,1.61142813936808e-08,-4.37932115537324e-08,7.37654296444043e-07,1.12199110329777e-06,1.12199110329705e-06,6.12259282366115e-08,3.32437120951557e-08,9.44696403316802e-08,2.50428873311329e-07,-8.3704127455408e-09,2.50428873311315e-07,-1.25189940544001e-07,,-5.94218875406422e-08,,,8.39989221818625e-09,6.70443895311588e-08,5.49857134691718e-09,6.7044389531329e-08,-1.00832824323566e-07,1.11853352753703e-07,1.10205284299989e-08,4.52905824844404e-08,-7.23025480266036e-08,,5.97380829919926e-08,-5.97380829919186e-08,8.88385189413972e-09,,-8.38994049977139e-08,-2.83108035077102e-07,-8.89241021226396e-08,2.62579603718407e-08,-6.26661417508092e-08,1.90716747506025e-07,1.92854146941246e-09,1.92854146930053e-09,,1.3412705282072e-06,3.96891561767799e-07,1.18283266410683e-07,,,-1.6859032088166e-07,1.16739060687218e-07,1.16739060687334e-07,-1.23686941063495e-07,1.23686941063265e-07,9.34404785939741e-08,0,0,0,4.81280000000015,103,953.14854368932,532.277669902913,2335.57766990291,952.781553398058,953.515533980583,524.433980582524,540.121359223301,2458.94174757282,2212.21359223301,0
2001.7152,-6.21270947669022e-08,1.74395588824182e-08,-4.46875358845487e-08,6.24007913737989e-07,1.15298026039439e-06,1.15298026039365e-06,5.64424547260276e-08,3.35881104980184e-08,9.00305652239578e-08,2.23812418359039e-07,-9.42097716261242e-09,2.23812418359016e-07,-1.22949785520152e-07,,-5.71286107914164e-08,,,1.3359238863563e-08,6.62023948711805e-08,-7.71335266162371e-09,6.62023948713548e-08,-1.06621805613405e-07,1.14703066017101e-07,8.08126040355868e-09,5.10916663251432e-08,-6.96629154283141e-08,,5.77311193758552e-08,-5.77311193757819e-08,9.46042589840289e-09,,-8.11112004787855e-08,-2.73554226001558e-07,-8.41278395209588e-08,2.65335906474831e-08,-5.75942488734852e-08,1.93253167862728e-07,3.3309929419297e-09,3.33099294181669e-09,,1.32844273102009e-06,3.91348333190207e-07,1.04007809225805e-07,,,-1.7635095325448e-07,1.17753909974309e-07,1.17753909974426e-07,-1.30389509151065e-07,1.30389509150836e-07,8.77288751297652e-08,0,0,0,4.91520000000014,102,952.390196078431,535.841666666667,2342.08823529412,951.008823529412,953.771568627451,531.832352941177,539.850980392157,2465.40196078431,2218.77450980392,0
2001.8176,-6.34421511864714e-08,1.86805928459568e-08,-4.47615583405807e-08,5.02592743794992e-07,1.17990893228315e-06,1.1799089322824e-06,5.16148943732922e-08,3.39091758226879e-08,8.55240701958904e-08,1.98027857439122e-07,-1.03721185556992e-08,1.98027857439089e-07,-1.20106763056519e-07,,-5.40563212257056e-08,,,1.83505116156487e-08,6.56847494981791e-08,-2.15832786314295e-08,6.5684749498357e-08,-1.12412336922711e-07,1.17918749347041e-07,5.50641242419444e-09,5.69933823480563e-08,-6.64804177740268e-08,,5.52914076109283e-08,-5.52914076108559e-08,1.03879418075202e-08,,-7.792321071838e-08,-2.6256227939374e-07,-7.89962454093821e-08,2.70524895040448e-08,-5.19437559053452e-08,1.95665344803897e-07,4.87221988945722e-09,4.87221988934287e-09,,1.32085294964081e-06,3.86807738051532e-07,9.053836787793e-08,,,-1.86398178190522e-07,1.18523949196933e-07,1.18523949197053e-07,-1.38274524562769e-07,1.38274524562541e-07,8.82242232015447e-08,0,1,0,5.01760000000013,103,951.256796116505,534.234951456311,2347.19417475728,951.426213592233,951.087378640777,531.558252427185,536.911650485437,2468.8932038835,2225.49514563107,0
2001.92,-6.38207439665308e-08,1.98165057026761e-08,-4.40042382639217e-08,3.80485387670908e-07,1.19945443218069e-06,1.19945443217993e-06,4.67761135119436e-08,3.42237414959233e-08,8.09998550077759e-08,1.73571370500039e-07,-1.12515918568505e-08,1.73571370499998e-07,-1.16806395409842e-07,,-5.03106221898037e-08,,,2.32299145151241e-08,6.55989453211397e-08,-3.50049921284782e-08,6.55989453213211e-08,-1.18087378081062e-07,1.21368168909009e-07,3.28079082781259e-09,6.30664628435562e-08,-6.28489266521256e-08,,5.24221788424128e-08,-5.24221788423406e-08,1.18937620024629e-08,,-7.43163825746306e-08,-2.50209337685675e-07,-7.36583640164097e-08,2.7835513012572e-08,-4.58228510038441e-08,1.98223576606138e-07,6.47884288550415e-09,6.47884288538856e-09,,1.31774231694284e-06,3.8364162667935e-07,7.82207888464748e-08,,,-1.97480288950365e-07,1.19231855540098e-07,1.19231855540218e-07,-1.47080476984285e-07,1.47080476984059e-07,9.45074364359238e-08,0,1,0,5.12000000000012,102,951.639215686274,535.658333333333,2351.9068627451,951.961764705882,951.316666666667,532.860784313726,538.455882352941,2472.83333333333,2230.98039215686,0
2002.0224,-6.31733577130863e-08,2.08233141290679e-08,-4.23500435840855e-08,2.65421740835342e-07,1.20900714613395e-06,1.20900714613317e-06,4.20282354399813e-08,3.45320903570907e-08,7.65603257969801e-08,1.50939378007263e-07,-1.20721651819465e-08,1.50939378007217e-07,-1.13117340135732e-07,,-4.59617250353153e-08,,,2.78790437003634e-08,6.59755227695435e-08,-4.70380431960628e-08,6.59755227697282e-08,-1.23470908776865e-07,1.24916655587863e-07,1.44574681086484e-09,6.90964232323659e-08,-5.89082827689727e-08,,4.91488513859337e-08,-4.91488513858616e-08,1.3969022757331e-08,,-7.02919290321375e-08,-2.36648040177052e-07,-6.81858563148147e-08,2.89025271474437e-08,-3.92833291673756e-08,2.00872903873231e-07,8.0790495042734e-09,8.07904950415676e-09,,1.3179460646412e-06,3.82001479819466e-07,6.72411729587611e-08,,,-2.0835398840208e-07,1.20110745057727e-07,1.20110745057848e-07,-1.56692425105087e-07,1.56692425104864e-07,1.05518044421693e-07,0,1,0,5.22240000000011,102,951.550980392157,532.528431372549,2356.89215686275,951.940196078431,951.161764705882,537.545098039216,527.511764705882,2478,2235.78431372549,0
2002.1248,-6.14059861872662e-08,2.16735024198956e-08,-3.97324837674374e-08,1.65230882289211e-07,1.207032911007e-06,1.20703291100621e-06,3.74935610963581e-08,3.48122899415348e-08,7.23058510378003e-08,1.30489038344075e-07,-1.28252579815599e-08,1.30489038344026e-07,-1.09044964023947e-07,,-4.10572235255107e-08,,,3.22092642201211e-08,6.67274916151657e-08,-5.70391823885906e-08,6.67274916153529e-08,-1.283605575918e-07,1.28430588369135e-07,7.00307772019658e-11,7.46110770737715e-08,-5.48037990982454e-08,,4.5496637776151e-08,-4.54966377760769e-08,1.63818940565217e-08,,-6.58556667761097e-08,-2.22083112919425e-07,-6.26000041729025e-08,3.02626640502229e-08,-3.23373401226826e-08,2.03227989935774e-07,9.60848954416682e-09,9.60848954405039e-09,,1.32043959450291e-06,3.81783876417451e-07,5.76531064914475e-08,,,-2.17974374359723e-07,1.21377390308253e-07,1.21377390308375e-07,-1.67127294452613e-07,1.67127294452396e-07,1.19750158157456e-07,0,0,0,5.3248000000001,103,952.292718446602,524.418446601942,2359.26213592233,952.474757281553,952.110679611651,530.617475728155,518.219417475728,2480.34951456311,2238.17475728155,0
2002.2272,-5.84886537256499e-08,2.23431725126461e-08,-3.61454812130704e-08,8.70293099532652e-08,1.19331394497105e-06,1.19331394497024e-06,3.32564200094858e-08,3.50264817830793e-08,6.8282901792472e-08,1.12360968647954e-07,-1.34882738317183e-08,1.12360968647903e-07,-1.04581248727931e-07,,-3.56498479463826e-08,,,3.61580597164322e-08,6.76608561220933e-08,-6.46364356927139e-08,6.76608561222826e-08,-1.32572880807494e-07,1.31778729534684e-07,-7.94151272942556e-10,7.90573697244444e-08,-5.06422103993305e-08,,4.14723973731901e-08,-4.14723973731149e-08,1.88192880794038e-08,,-6.10039205656324e-08,-2.06733189460081e-07,-5.69026350659202e-08,3.19059226934469e-08,-2.49967123724748e-08,2.04748667161429e-07,1.10277669843109e-08,1.10277669841943e-08,,1.3247290768936e-06,3.82706148547022e-07,4.94131273732681e-08,,,-2.25538095688872e-07,1.23153688687294e-07,1.23153688687417e-07,-1.78397153409894e-07,1.78397153409683e-07,1.35560870141e-07,0,0,0,5.42720000000008,102,939.911764705882,533.707843137255,2358.22058823529,939.817647058824,940.005882352941,537.51862745098,529.897058823529,2479.76470588235,2236.67647058824,0
2002.3296,-5.45034759200045e-08,2.28240948872789e-08,-3.1679381032792e-08,3.62702304968626e-08,1.16906232923716e-06,1.16906232923633e-06,2.93291024809301e-08,3.51361347154128e-08,6.44652371962494e-08,9.65015571051974e-08,-1.40423335669811e-08,9.65015571051486e-08,-9.97617058334005e-08,,-2.98237761370713e-08,,,3.96802118600021e-08,6.85248517714263e-08,-6.95983435733389e-08,6.85248517716167e-08,-1.35981567469833e-07,1.34834175436901e-07,-1.14739203306387e-09,8.20412026103126e-08,-4.64635378025276e-08,,3.70645367494356e-08,-3.70645367493586e-08,2.10848228183621e-08,,-5.57249643412052e-08,-1.90804835143307e-07,-5.11166735360523e-08,3.38001591584081e-08,-1.73165143776439e-08,2.05013082468101e-07,1.23419210789784e-08,1.23419210788625e-08,,1.33085145459935e-06,3.84432731130633e-07,4.23959099398206e-08,,,-2.30425908010601e-07,1.25419404758799e-07,1.25419404758923e-07,-1.90346516930554e-07,1.90346516930351e-07,1.51470949989891e-07,0,0,0,5.52960000000007,103,938.718932038835,535.527184466019,2357.95631067961,937.350485436893,940.087378640777,539.421359223301,531.633009708738,2479.15533980583,2236.7572815534,0
2002.432,-4.96512874397557e-08,2.31340968167014e-08,-2.65171906231208e-08,1.58434483902597e-08,1.13682746693301e-06,1.13682746693215e-06,2.56557494665761e-08,3.51175584190112e-08,6.07733078854938e-08,8.27532225204658e-08,-1.44901666941801e-08,8.27532225204221e-08,-9.47002416575915e-08,,-2.37075221073727e-08,,,4.27354073618429e-08,6.90739763784323e-08,-7.17011083669605e-08,6.90739763786221e-08,-1.38534712887954e-07,1.37476008720399e-07,-1.05870416768708e-09,8.35062232878562e-08,-4.22416838465751e-08,,3.22620875283473e-08,-3.22620875282675e-08,2.32445036558496e-08,,-5.0017319305555e-08,-1.74490582391139e-07,-4.53159687808887e-08,3.58928104288255e-08,-9.42315835206115e-09,2.0394928549689e-07,1.36057662269198e-08,1.36057662268051e-08,,1.33905761716512e-06,3.86704189214373e-07,3.6393650791467e-08,,,-2.32163722533861e-07,1.28021441497683e-07,1.28021441497809e-07,-2.02580446598193e-07,2.02580446597999e-07,1.66382244851131e-07,0,0,0,5.63200000000006,102,939.838725490196,531.104901960784,2356.26960784314,937.805882352941,941.871568627451,532.105882352941,530.103921568627,2478.36274509804,2234.17647058824,0
2002.5344,-4.42163527336395e-08,2.33190311492904e-08,-2.08973215844156e-08,2.55185595455071e-08,1.10014115868719e-06,1.10014115868631e-06,2.21465160548849e-08,3.49697076423985e-08,5.71162236971906e-08,7.09575421645098e-08,-1.48650128595158e-08,7.09575421644757e-08,-8.95869638694847e-08,,-1.74692076685699e-08,,,4.52759739271625e-08,6.91188613225951e-08,-7.06761231178925e-08,6.91188613227843e-08,-1.4024897771816e-07,1.39592987717108e-07,-6.55990001183523e-10,8.37691756712056e-08,-3.79133182073598e-08,,2.70808537764649e-08,-2.70808537763821e-08,2.56471658626969e-08,,-4.39131397686337e-08,-1.57980936211562e-07,-3.96311312078317e-08,3.81159459565038e-08,-1.51518525132373e-09,2.01920344161489e-07,1.49056340414335e-08,1.49056340413199e-08,,1.3495330169919e-06,3.89451803093872e-07,3.11339365313107e-08,,,-2.30443968135665e-07,1.30730720102196e-07,1.30730720102324e-07,-2.14543904663337e-07,2.14543904663155e-07,1.7968929326369e-07,0,0,0,5.73440000000005,102,941.170098039216,529.796078431373,2353.74019607843,939.625490196078,942.714705882353,533.082352941177,526.509803921569,2475.25490196079,2232.22549019608,0
2002.6368,-3.85035663017936e-08,2.34444503327906e-08,-1.50591159690698e-08,6.18518916594009e-08,1.06298122174567e-06,1.06298122174476e-06,1.87250690542643e-08,3.47124336373425e-08,5.34375026915147e-08,6.10287380522856e-08,-1.52269590413512e-08,6.10287380522648e-08,-8.4649644848642e-08,,-1.12957337565166e-08,,,4.72432439396268e-08,6.8555190495064e-08,-6.62610639121179e-08,6.85551904952502e-08,-1.41184711134033e-07,1.41093175662371e-07,-9.15354717936516e-11,8.34034539063152e-08,-3.34226087123265e-08,,2.1580905683531e-08,-2.15809056834454e-08,2.88155444787757e-08,,-3.7494800965335e-08,-1.41477888208636e-07,-3.42309955560875e-08,4.03951531411128e-08,6.16415758503183e-09,1.99635027926201e-07,1.63238624216763e-08,1.63238624215646e-08,,1.36238453167593e-06,3.92864514064171e-07,2.63260408246903e-08,,,-2.25154706275365e-07,1.33323274800399e-07,1.3332327480053e-07,-2.25718618612028e-07,2.2571861861186e-07,1.91249700802867e-07,0,0,0,5.83680000000004,103,942.870873786408,529.384951456311,2355.77184466019,942.181553398058,943.560194174757,538.44854368932,520.321359223301,2476.06796116505,2235.47572815534,0
2002.7392,-3.27731750840638e-08,2.35809247819884e-08,-9.19225030214245e-09,1.18490796238276e-07,1.02921249678586e-06,1.02921249678492e-06,1.53690236075344e-08,3.43786616109031e-08,4.97476852183458e-08,5.29651933236333e-08,-1.5647932786318e-08,5.29651933236307e-08,-8.00946515658738e-08,,-5.36367391112838e-09,,,4.85782289600506e-08,6.73639410814201e-08,-5.83204312602187e-08,6.7363941081603e-08,-1.41411814991739e-07,1.41917771663376e-07,5.05956671504391e-10,8.30197466762996e-08,-2.87645862997967e-08,,1.58654056238892e-08,-1.58654056237995e-08,3.32551615470343e-08,,-3.08996596826234e-08,-1.25208076875835e-07,-2.92883081225327e-08,4.26609603991476e-08,1.33726522766233e-08,1.97921444080246e-07,1.79014843609046e-08,1.79014843607961e-08,,1.37768073981658e-06,3.97331186915387e-07,2.17058943060077e-08,,,-2.16379659728558e-07,1.35661697777938e-07,1.35661697778072e-07,-2.35834993434908e-07,2.35834993434756e-07,2.01187402208821e-07,0,0,0,5.93920000000003,102,942.583333333333,529.996078431373,2355.50980392157,941.882352941177,943.28431372549,539.802941176471,520.189215686275,2478.27450980392,2232.74509803922,0
2002.8416,-2.71983056835484e-08,2.37880351128607e-08,-3.4102705707556e-09,1.86861012347623e-07,1.00211728462345e-06,1.00211728462248e-06,1.21247543668479e-08,3.40040992274068e-08,4.61288535941639e-08,4.67909180193382e-08,-1.61901978821428e-08,4.6790918019358e-08,-7.60537404708069e-08,,1.85309816719207e-10,,,4.92421572635576e-08,6.5579998910719e-08,-4.6969659716276e-08,6.55799989108976e-08,-1.40984296650432e-07,1.42052790068688e-07,1.06849341812264e-09,8.30253016561418e-08,-2.40111720839993e-08,,1.00625962795057e-08,-1.00625962794125e-08,3.92498683668959e-08,,-2.43121976548365e-08,-1.09435369201193e-07,-2.4941554151202e-08,4.48578983551071e-08,1.99163442039148e-08,1.97445537748827e-07,1.961212324303e-08,1.96121232429256e-08,,1.39523258934021e-06,4.03235263201564e-07,1.70591785602371e-08,,,-2.04406253914276e-07,1.37746140753048e-07,1.37746140753184e-07,-2.44986647275062e-07,2.44986647274928e-07,2.09633323669045e-07,0,0,0,6.04160000000002,103,942.37427184466,530.13932038835,2354.19417475728,941.499029126214,943.249514563107,535.834951456311,524.443689320388,2475.98058252427,2232.40776699029,0
2002.944,-2.18596291263939e-08,2.41007536149101e-08,2.24112448844785e-09,2.57246225720623e-07,9.84054467473253e-07,9.84054467472256e-07,9.08848512435467e-09,3.36162727678047e-08,4.2704757892069e-08,4.24572941860615e-08,-1.68862318735427e-08,4.24572941861071e-08,-7.25616151484838e-08,,5.25361448770895e-09,,,4.92365238194614e-08,6.32437180721143e-08,-3.26408936556508e-08,6.32437180722886e-08,-1.39941368106582e-07,1.41534745279509e-07,1.59337717279279e-09,8.34575742388169e-08,-1.93079959162513e-08,,4.3024255009671e-09,-4.30242550086944e-09,4.67192540123866e-08,,-1.7943225075885e-08,-9.44609835167315e-08,-2.12658911397676e-08,4.69461459037517e-08,2.56802547639953e-08,1.98482664792312e-07,2.13557462948116e-08,2.13557462947115e-08,,1.41424385600235e-06,4.10724028610579e-07,1.22335958860544e-08,,,-1.89784119983391e-07,1.3970802383883e-07,1.39708023838968e-07,-2.53571689616746e-07,2.53571689616634e-07,2.16600497845781e-07,0,0,0,6.14400000000001,102,941.422549019608,528.696078431373,2358.12254901961,940.152941176471,942.692156862745,536.005882352941,521.386274509804,2480.49019607843,2235.75490196078,0
2003.0464,-1.67762062322948e-08,2.45226677295552e-08,7.74646149719119e-09,3.20154731376825e-07,9.76239781235087e-07,9.76239781234063e-07,6.36078353683918e-09,3.32261066014623e-08,3.95868901382113e-08,3.9757893592136e-08,-1.7728854978936e-08,3.97578935922088e-08,-6.95742327784035e-08,,9.77943001072852e-09,,,4.86142636855755e-08,6.03651510761345e-08,-1.60582809861433e-08,6.03651510763052e-08,-1.38338754035289e-07,1.40451859173232e-07,2.11310513780845e-09,8.39727846439379e-08,-1.48392219980957e-08,,-1.30287331904958e-09,1.30287331915217e-09,5.52061842435971e-08,,-1.19978775020982e-08,-8.05966369942212e-08,-1.82656104567436e-08,4.88947945911905e-08,3.062918413446e-08,2.00845064845037e-07,2.29773765341148e-08,2.29773765340197e-08,,1.43327266312054e-06,4.19626051358532e-07,7.14924609682493e-09,,,-1.73389981051363e-07,1.41751790621501e-07,1.41751790621641e-07,-2.62055748586964e-07,2.62055748586875e-07,2.22075587092382e-07,0,1,0,6.24639999999999,102,942.535294117647,530.017156862745,2366.30882352941,941.560784313725,943.509803921569,538.835294117647,521.199019607843,2485.66666666667,2246.95098039216,0
2003.1488,-1.19538641267174e-08,2.50299433187725e-08,1.3076079191985e-08,3.67798029199659e-07,9.7863133593736e-07,9.7863133593631e-07,3.99628965056344e-09,3.28274655011973e-08,3.68237551516708e-08,3.83086339161372e-08,-1.86769541512156e-08,3.83086339162376e-08,-6.70156492720965e-08,,1.37200282907065e-08,,,4.74784167980977e-08,5.69203714907504e-08,1.87245496400922e-09,5.69203714909168e-08,-1.36291552832654e-07,1.38942380377331e-07,2.65082754454223e-09,8.4004626175857e-08,-1.07728565990167e-08,,-6.67139320217822e-09,6.67139320228546e-09,6.4016945973143e-08,,-6.64062684054877e-09,-6.81159156141037e-08,-1.58936943888978e-08,5.06720203397897e-08,3.47783259509067e-08,2.04007023566589e-07,2.4307029631984e-08,2.43070296318945e-08,,1.45066114129931e-06,4.29558372038311e-07,1.79396277585389e-09,,,-1.56377961942506e-07,1.44084819693547e-07,1.44084819693688e-07,-2.70647402994349e-07,2.70647402994284e-07,2.26201300532555e-07,0,1,0,6.34879999999998,103,942.195145631068,531.983495145631,2372.10679611651,941.36213592233,943.028155339806,537.205825242719,526.761165048544,2490.23300970874,2253.98058252427,0
2003.2512,-7.42207080475495e-09,2.55842910678909e-08,1.81622202630658e-08,3.95413623446739e-07,9.89943325621934e-07,9.89943325620863e-07,1.97584185736749e-09,3.24062920468421e-08,3.43821339041193e-08,3.76164793321128e-08,-1.96740330653933e-08,3.76164793322412e-08,-6.48253996905606e-08,,1.7039984682041e-08,,,4.59683635156819e-08,5.28750276929838e-08,2.02173168086131e-08,5.28750276931456e-08,-1.33996421625008e-07,1.37186269975696e-07,3.18984835055243e-09,8.30133542315786e-08,-7.21115548735494e-09,,-1.17531887550399e-08,1.17531887551529e-08,7.24524094302337e-08,,-1.96876720283941e-09,-5.72079458003138e-08,-1.40895942956542e-08,5.22400758173408e-08,3.81504815217034e-08,2.07363525463324e-07,2.5204999751686e-08,2.52049997516022e-08,,1.46511303890857e-06,4.40093534279464e-07,-3.80205865074134e-09,,,-1.3994664479282e-07,1.46876331758577e-07,1.46876331758719e-07,-2.79045365225375e-07,2.79045365225334e-07,2.29355333620545e-07,0,1,0,6.45119999999997,102,942.225980392157,529.255882352941,2375.92156862745,941.245098039216,943.206862745098,528.903921568627,529.607843137255,2494.79411764706,2257.04901960784,0
2003.3536,-3.23952145629922e-09,2.61471528778144e-08,2.2907631421445e-08,4.02004341023458e-07,1.00783104654302e-06,1.00783104654193e-06,2.16341945049376e-10,3.1953082804921e-08,3.216942474988e-08,3.72112691801721e-08,-2.06699284701838e-08,3.7211269180329e-08,-6.29824776401064e-08,,1.97111550027095e-08,,,4.42364892827836e-08,4.82187422391906e-08,3.81460530322645e-08,4.82187422393475e-08,-1.31715052175098e-07,1.35387029155636e-07,3.67197698040249e-09,8.06956362878705e-08,-4.16799586753053e-09,,-1.6515748957371e-08,1.65157489574903e-08,8.0013603331649e-08,,1.99924766079584e-09,-4.79539278103214e-08,-1.2814550214011e-08,5.35579117175806e-08,4.07433615035886e-08,2.10483165541548e-07,2.55925690015149e-08,2.5592569001437e-08,,1.47599777196279e-06,4.50846083780453e-07,-9.58144170589955e-09,,,-1.25030941890547e-07,1.50252795795948e-07,1.5025279579609e-07,-2.86398292823075e-07,2.86398292823057e-07,2.32076112141782e-07,0,0,0,6.55359999999996,102,942.669607843137,528.49362745098,2374.62745098039,938.832352941177,946.506862745098,528.786274509804,528.200980392157,2493.40196078431,2255.85294117647,0
2003.456,5.31559055049025e-10,2.66874354997341e-08,2.72189945547125e-08,3.90126665300848e-07,1.02922840125206e-06,1.02922840125095e-06,-1.38727824910605e-09,3.14701811313937e-08,3.00829028821972e-08,3.67884391967504e-08,-2.16357635329071e-08,3.67884391969326e-08,-6.15004518644657e-08,,2.17217510001843e-08,,,4.24222575327174e-08,4.30012473934304e-08,5.50016887949899e-08,4.30012473935835e-08,-1.29731857562539e-07,1.33750655419543e-07,4.01879785686857e-09,7.70631814511867e-08,-1.57916911278831e-09,,-2.09180961989477e-08,2.09180961990731e-08,8.64917197576346e-08,,5.31943475549521e-09,-4.03321435008372e-08,-1.20653387657527e-08,5.4587750660293e-08,4.25224118945615e-08,2.1323437258638e-07,2.54583794301853e-08,2.54583794301134e-08,,1.48327375295474e-06,4.6148035876596e-07,-1.54254089212191e-08,,,-1.12142574305477e-07,1.54306697683564e-07,1.54306697683707e-07,-2.91512126797149e-07,2.91512126797154e-07,2.34966435272502e-07,0,0,0,6.65599999999995,103,959.320873786408,530.015048543689,2370.12621359223,954.602912621359,964.038834951456,531.931067961165,528.099029126214,2489.95145631068,2250.30097087379,0
2003.5584,3.86778310848634e-09,2.71813461737254e-08,3.10491292821414e-08,3.64804614362679e-07,1.050724485435e-06,1.05072448543388e-06,-2.90872364882749e-09,3.09714193807537e-08,2.80626957318354e-08,3.631216430601e-08,-2.25665557497775e-08,3.63121643062154e-08,-6.04018720545093e-08,,2.30892091780344e-08,,,4.06336298549327e-08,3.73683959827614e-08,7.03129173555175e-08,3.73683959829109e-08,-1.28307992012458e-07,1.32471927073337e-07,4.16393506074251e-09,7.23771005794831e-08,6.64073288006957e-10,,-2.48891405921021e-08,2.48891405922317e-08,9.19255685788686e-08,,8.10208094853483e-09,-3.42453644714681e-08,-1.18605549913453e-08,5.53018165100865e-08,4.34412615187654e-08,2.1574495248295e-07,2.48465993933586e-08,2.4846599393293e-08,,1.4872686706759e-06,4.71725355141016e-07,-2.10806224890461e-08,,,-1.01461988790526e-07,1.59098450582174e-07,1.59098450582316e-07,-2.9322300067672e-07,2.93223000676747e-07,2.38665145111124e-07,0,0,0,6.75839999999994,102,957.012254901961,529.257352941177,2366.98529411765,952.73431372549,961.290196078431,531.922549019608,526.592156862745,2486.66666666667,2247.30392156863,0
2003.6608,6.82158899102222e-09,2.76089910565763e-08,3.44305800475287e-08,3.32120669780594e-07,1.06885553510722e-06,1.06885553510609e-06,-4.3502562347833e-09,3.04780393539001e-08,2.61277831190255e-08,3.60355951826957e-08,-2.34712477551195e-08,3.60355951829212e-08,-5.96839400714747e-08,,2.38726271243117e-08,,,3.89414050760526e-08,3.15836380271466e-08,8.37795445499815e-08,3.15836380272931e-08,-1.27636900772915e-07,1.31725230769148e-07,4.08832999609589e-09,6.69851158674571e-08,2.6743098646424e-09,,-2.83230134363388e-08,2.83230134364728e-08,9.6469143366975e-08,,1.04797153998745e-08,-2.95576641481988e-08,-1.22090289311627e-08,5.56888454756483e-08,4.34798165445122e-08,2.18233730958099e-07,2.38402667316203e-08,2.38402667315597e-08,,1.48854639447256e-06,4.81412460886766e-07,-2.61130651093043e-08,,,-9.30436896319714e-08,1.64655324010318e-07,1.64655324010461e-07,-2.90787517952691e-07,2.90787517952741e-07,2.43782660910712e-07,0,0,0,6.86080000000015,103,947.560679611651,527.861650485437,2361.95631067961,943.983495145631,951.13786407767,531.434951456311,524.288349514563,2480.80582524272,2243.1067961165,0
2003.7632,9.53036536227499e-09,2.7952486913703e-08,3.74828522759084e-08,2.98038604418197e-07,1.08029481287911e-06,1.08029481287798e-06,-5.63484001462451e-09,3.00144991300017e-08,2.43796591152854e-08,3.64148867673542e-08,-2.4355355955009e-08,3.6414886767596e-08,-5.92906957812265e-08,,2.41780565134901e-08,,,3.73835908306232e-08,2.60054679819198e-08,9.52519087946437e-08,2.60054679820642e-08,-1.27802724911769e-07,1.3164862654475e-07,3.84590163284418e-09,6.1141434765074e-08,4.53587824733173e-09,,-3.10923252456111e-08,3.10923252457488e-08,1.00241254166071e-07,,1.25738755577375e-08,-2.61252913081298e-08,-1.30791565200592e-08,5.57596183328341e-08,4.26804618128042e-08,2.20806303745707e-07,2.25475807982113e-08,2.25475807981556e-08,,1.48779039048978e-06,4.9046812405828e-07,-2.99449834013629e-08,,,-8.69348831894978e-08,1.70975988631019e-07,1.70975988631161e-07,-2.84122803525865e-07,2.84122803525937e-07,2.50700410225456e-07,0,0,0,6.96320000000014,102,948.983823529412,525.191666666667,2354.35784313726,945.347058823529,952.620588235294,533.248039215686,517.135294117647,2474.89215686275,2233.82352941176,0
2003.8656,1.2184696392919e-08,2.8196543134269e-08,4.0381239527119e-08,2.6764460601686e-07,1.08202290611925e-06,1.08202290611812e-06,-6.63718560181613e-09,2.96039780799818e-08,2.29667924780736e-08,3.79352055450741e-08,-2.52052114433321e-08,3.7935205545328e-08,-5.91096022963078e-08,,2.41473455223853e-08,,,3.59730037371104e-08,2.10097756268001e-08,1.04700917376301e-07,2.10097756269425e-08,-1.28761473319815e-07,1.32320934469345e-07,3.55946114939318e-09,5.49007804003087e-08,6.29420849321309e-09,,-3.30758315445938e-08,3.30758315447339e-08,1.03233801400218e-07,,1.44732227594761e-08,-2.38101624542844e-08,-1.43868278413623e-08,5.55466338802428e-08,4.11598060389118e-08,2.23329228216609e-07,2.10897393878739e-08,2.10897393878226e-08,,1.48551930342394e-06,4.98823990967384e-07,-3.19643147002071e-08,,,-8.31742085781928e-08,1.78028784246293e-07,1.78028784246434e-07,-2.73795227124699e-07,2.73795227124795e-07,2.59362879460656e-07,0,0,0,7.06560000000013,103,951.258252427185,523.958252427185,2348.93203883495,946.245631067961,956.270873786408,534.32427184466,513.592233009709,2473.43689320388,2224.42718446602,0
2003.968,1.49627460876265e-08,2.83309078680192e-08,4.32936539555773e-08,2.44745721586217e-07,1.07154688290809e-06,1.07154688290697e-06,-7.24230716780886e-09,2.92634925743677e-08,2.20211854064664e-08,4.09154622836518e-08,-2.59823284947432e-08,4.0915462283915e-08,-5.90022409567715e-08,,2.3927210591441e-08,,,3.47019982197989e-08,1.68890418403395e-08,1.12177040583703e-07,1.68890418404796e-08,-1.30366722201678e-07,1.33744801158398e-07,3.3780789565839e-09,4.81483113802736e-08,7.96995399487418e-09,,-3.41984054644772e-08,3.41984054646189e-08,1.05329112804975e-07,,1.62281145517254e-08,-2.24771632550295e-08,-1.60098962635463e-08,5.50936962968001e-08,3.90838000332875e-08,2.2546287301821e-07,1.95874878399524e-08,1.95874878399049e-08,,1.48167826020973e-06,5.06305672043466e-07,-3.16530701743272e-08,,,-8.17781331502709e-08,1.85729174993489e-07,1.85729174993631e-07,-2.60815669953785e-07,2.60815669953902e-07,2.69276424791714e-07,0,0,0,7.16800000000012,102,951.847549019608,520.854411764706,2349.49019607843,947.764705882353,955.930392156863,529.266666666667,512.442156862745,2473.70588235294,2225.27450980392,0
2004.0704,1.79623484277831e-08,2.83538444041418e-08,4.63161928318572e-08,2.31695815369821e-07,1.04714860352714e-06,1.04714860352602e-06,-7.40021072790406e-09,2.90012997144733e-08,2.16010889864769e-08,4.53887668911968e-08,-2.66308758141949e-08,4.53887668914662e-08,-5.88574393520157e-08,,2.36288857594147e-08,,,3.35409709116247e-08,1.37821551379091e-08,1.17786211161643e-07,1.37821551380476e-08,-1.3242893148721e-07,1.35845248926963e-07,3.41631743961715e-09,4.07449467779858e-08,9.58513828130455e-09,,-3.44717866425118e-08,3.4471786642655e-08,1.06412898070009e-07,,1.78554056044486e-08,-2.19903982205027e-08,-1.78230637616089e-08,5.4440225699555e-08,3.66171619379821e-08,2.26835339103504e-07,1.81487364962613e-08,1.81487364962171e-08,,1.47536016841118e-06,5.12602962366976e-07,-2.86955656971844e-08,,,-8.27640237913584e-08,1.93909581380688e-07,1.93909581380829e-07,-2.46393219272176e-07,2.46393219272313e-07,2.79734775645045e-07,0,0,0,7.27040000000011,102,954.203431372549,522.390196078431,2354.09803921569,950.983333333333,957.423529411765,531.270588235294,513.509803921569,2477.69607843137,2230.5,0
2004.1728,2.11705658581733e-08,2.82739104706525e-08,4.94444763287594e-08,2.29315813450917e-07,1.00806716579881e-06,1.0080671657977e-06,-7.14247783451008e-09,2.88185679447294e-08,2.16760901101271e-08,5.11256895918447e-08,-2.70935932315583e-08,5.11256895921185e-08,-5.86358680154753e-08,,2.32980027052494e-08,,,3.24329342413411e-08,1.16701290055852e-08,1.21701472259722e-07,1.16701290057214e-08,-1.34767979364391e-07,1.38480557667821e-07,3.71257830329408e-09,3.26889388242375e-08,1.1179716611706e-08,,-3.40122199980401e-08,3.40122199981849e-08,1.06504156963028e-07,,1.93437511682851e-08,-2.22213228076977e-08,-1.97355736244149e-08,5.3611691945807e-08,3.38761183214307e-08,2.2724573994551e-07,1.68605779355706e-08,1.68605779355286e-08,,1.46486557253654e-06,5.17347120702496e-07,-2.30463987253172e-08,,,-8.6134783204524e-08,2.02310040324756e-07,2.02310040324898e-07,-2.31751956847535e-07,2.31751956847689e-07,2.90091733378964e-07,0,0,0,7.3728000000001,103,954.158252427185,521.795145631068,2361.98058252427,952.709708737864,955.606796116505,526.795145631068,516.795145631068,2483.20388349515,2240.7572815534,0
2004.2752,2.4488606733712e-08,2.81064586180606e-08,5.25950653517072e-08,2.36932444917665e-07,9.54537065275696e-07,9.54537065274606e-07,-6.55169649127109e-09,2.87137131911358e-08,2.2162016699773e-08,5.77830370812942e-08,-2.73279368606842e-08,5.77830370815703e-08,-5.83784959608362e-08,,2.29095980642688e-08,,,3.12912102362766e-08,1.04331410374936e-08,1.2417721756073e-07,1.04331410376279e-08,-1.37230261153283e-07,1.41458145004346e-07,4.22788385092773e-09,2.41922139255456e-08,1.28063454959536e-08,,-3.30208089597648e-08,3.30208089599109e-08,1.05816804814195e-07,,2.06564273223849e-08,-2.30662294109166e-08,-2.17123727632293e-08,5.26216850437335e-08,3.09093122805449e-08,2.2677617090908e-07,1.57845159315126e-08,1.57845159314724e-08,,1.44808873029488e-06,5.20216971069702e-07,-1.4930774346379e-08,,,-9.17846907387579e-08,2.10600261506227e-07,2.10600261506369e-07,-2.18049027760601e-07,2.18049027760771e-07,2.99935943976124e-07,0,1,0,7.47520000000009,102,953.387254901961,520.176960784314,2370.4362745098,951.267647058824,955.506862745098,523.772549019608,516.58137254902,2490.90196078431,2249.97058823529,0
2004.3776,2.77975857786275e-08,2.78636742856652e-08,5.56612600642282e-08,2.52706090011552e-07,8.87714713134204e-07,8.87714713133128e-07,-5.70465364098839e-09,2.86858554773014e-08,2.29812018362218e-08,6.50998261911332e-08,-2.73165296193508e-08,6.50998261914096e-08,-5.8176813617078e-08,,2.23881239159974e-08,,,3.00058991392498e-08,9.93014307446719e-09,1.2552897018789e-07,9.93014307459941e-09,-1.39677561600811e-07,1.44553839937908e-07,4.87627833696313e-09,1.56338441282374e-08,1.45075766353757e-08,,-3.17352609899731e-08,3.17352609901203e-08,1.04719046268831e-07,,2.17359027467075e-08,-2.44637476216585e-08,-2.37677195989262e-08,5.14805925400737e-08,2.77128729411898e-08,2.25758073377027e-07,1.49523475005652e-08,1.49523475005265e-08,,1.42303731725647e-06,5.21010793465619e-07,-4.76209396477842e-09,,,-9.94385160472034e-08,2.18419400377838e-07,2.18419400377983e-07,-2.06379717849075e-07,2.06379717849259e-07,3.0919391136169e-07,0,1,0,7.57760000000008,103,953.509223300971,520.291262135922,2376.64563106796,951.774757281554,955.243689320388,518.407766990291,522.174757281553,2496.18446601942,2257.10679611651,0
2004.48,3.10305170181785e-08,2.7541711764605e-08,5.85722287827206e-08,2.74247773080186e-07,8.09585028871325e-07,8.09585028870266e-07,-4.62171263640123e-09,2.87351753795199e-08,2.41134627430281e-08,7.30512638214537e-08,-2.70696724528141e-08,7.30512638217291e-08,-5.81265982879397e-08,,2.16393156556799e-08,,,2.84603361774764e-08,1.00560366107718e-08,1.26092218655834e-07,1.00560366109027e-08,-1.41972754724668e-07,1.47536783583273e-07,5.56402885847171e-09,7.41922335932988e-09,1.62880761453034e-08,,-3.03722778090449e-08,3.03722778091929e-08,1.03611702105262e-07,,2.25142831578775e-08,-2.64067054224354e-08,-2.59342960751505e-08,5.02031867762198e-08,2.42688907011135e-08,2.24615098638352e-07,1.43623403650291e-08,1.43623403649912e-08,,1.38834107388262e-06,5.19707326589591e-07,6.98469296382973e-09,,,-1.08747841682179e-07,2.25415483229747e-07,2.25415483229894e-07,-1.97777900356609e-07,1.97777900356807e-07,3.1822278734075e-07,0,1,0,7.68000000000006,102,951.938725490196,523.246078431373,2382.82352941177,947.972549019608,955.904901960784,528.43431372549,518.057843137255,2502.79411764706,2262.85294117647,0
2004.5824,3.42104813293989e-08,2.71128606696424e-08,6.13233419989801e-08,2.99183396381479e-07,7.22871206917959e-07,7.22871206916919e-07,-3.25110012438673e-09,2.88611003824534e-08,2.56100002579771e-08,8.18754762760814e-08,-2.66199702338059e-08,8.18754762763551e-08,-5.82920290466208e-08,,2.05768914754626e-08,,,2.65545128893761e-08,1.07578170781241e-08,1.26188962877472e-07,1.07578170782533e-08,-1.43979851182609e-07,1.50200080503382e-07,6.22022932064125e-09,-1.85711585343001e-10,1.80953669678055e-08,,-2.90797348934909e-08,2.90797348936389e-08,1.02780628154067e-07,,2.29275998746263e-08,-2.89424751330192e-08,-2.82259888868747e-08,4.88117421317546e-08,2.05857532449261e-08,2.2366090329913e-07,1.39754997705225e-08,1.39754997704841e-08,,1.34375516348815e-06,5.16541147721453e-07,1.98715460112423e-08,,,-1.19483974826565e-07,2.31278806398526e-07,2.31278806398675e-07,-1.93114770486209e-07,1.93114770486419e-07,3.27809118849159e-07,0,0,0,7.78240000000005,102,951.619607843137,525.962745098039,2388.76470588235,947.326470588235,955.912745098039,527.227450980392,524.698039215686,2507.94117647059,2269.58823529412,0
2004.6848,3.74286506657997e-08,2.65291768063804e-08,6.39578274721209e-08,3.25276872555066e-07,6.30887293911444e-07,6.30887293910425e-07,-1.50221824905969e-09,2.90607746815081e-08,2.75585564323595e-08,9.1930727816637e-08,-2.60114693623716e-08,9.19307278169078e-08,-5.86984334748011e-08,,1.9131363912509e-08,,,2.42266592471782e-08,1.2023000924273e-08,1.26110384700881e-07,1.20230009244009e-08,-1.45582765074418e-07,1.52391633939301e-07,6.8088688647526e-09,-7.15820949524462e-09,1.98211577289199e-08,,-2.79142920519271e-08,2.79142920520747e-08,1.0229603017934e-07,,2.29281525348537e-08,-3.21529968060593e-08,-3.0618658526334e-08,4.73351219871661e-08,1.67164634608794e-08,2.2295957587908e-07,1.37125017444624e-08,1.37125017444246e-08,,1.29060936708862e-06,5.12060923543084e-07,3.35303959058642e-08,,,-1.31629099737595e-07,2.35771080912559e-07,2.35771080912711e-07,-1.929000717932e-07,1.92900071793422e-07,3.38951288111139e-07,0,0,0,7.88480000000004,103,948.505339805825,526.010194174757,2387.08252427185,943.976699029126,953.033980582524,527.699029126214,524.321359223301,2506.65048543689,2267.5145631068,0
2004.7872,4.07731190462865e-08,2.57363664742372e-08,6.65094855204667e-08,3.50164800906927e-07,5.3726515214925e-07,5.37265152148259e-07,6.8669540304598e-10,2.93285358180112e-08,3.00152312209689e-08,1.0345517380318e-07,-2.52883954469859e-08,1.03455173803449e-07,-5.93569263492915e-08,,1.72399370954968e-08,,,2.14626597332806e-08,1.38607743617933e-08,1.26122127306521e-07,1.38607743619198e-08,-1.46716770648229e-07,1.54033769777093e-07,7.31699912873546e-09,-1.36927905500582e-08,2.13288858265818e-08,,-2.68501118921976e-08,2.68501118923447e-08,1.02020072435939e-07,,2.2493033013582e-08,-3.61142893265572e-08,-3.30613046683583e-08,4.58051414164228e-08,1.27438367481129e-08,2.22334668319033e-07,1.34569271257386e-08,1.34569271257017e-08,,1.23195413986028e-06,5.07130199276644e-07,4.76578100375669e-08,,,-1.45265144340009e-07,2.38748532492775e-07,2.38748532492929e-07,-1.97075983126215e-07,1.97075983126448e-07,3.52513936659294e-07,0,0,0,7.98720000000003,102,948.497549019608,531.558333333333,2384.03921568627,944.032352941177,952.962745098039,533.354901960784,529.761764705882,2503.37254901961,2264.70588235294,0
2004.8896,4.42556992039213e-08,2.46911184695713e-08,6.89468176734378e-08,3.71202520387171e-07,4.45554868287986e-07,4.45554868287022e-07,3.28947569412092e-09,2.96554260957429e-08,3.29449017897764e-08,1.163912855157e-07,-2.44886300145379e-08,1.16391285515965e-07,-6.03034732338293e-08,,1.48316968584446e-08,,,1.82918292399572e-08,1.62832692381382e-08,1.26487250687517e-07,1.62832692382638e-08,-1.47397617864311e-07,1.55123431328074e-07,7.7258134636357e-09,-2.00485124338463e-08,2.24986514661333e-08,,-2.58123635695349e-08,2.5812363569682e-08,1.01727182904959e-07,,2.16309716868943e-08,-4.0854074309173e-08,-3.55081679847157e-08,4.42513308696453e-08,8.7431628849788e-09,2.21528638678888e-07,1.3071791764937e-08,1.30717917649005e-08,,1.17220488155526e-06,5.02857216290594e-07,6.20169038540921e-08,,,-1.60365990177694e-07,2.4017877583618e-07,2.40178775836336e-07,-2.0491488645143e-07,2.04914886451673e-07,3.68994722403417e-07,0,0,0,8.08960000000002,103,949.378155339806,529.911165048544,2376.82038834951,944.665048543689,954.091262135922,532.107766990291,527.714563106796,2495.29126213592,2258.34951456311,0
2004.992,4.77824965286117e-08,2.33756494125155e-08,7.11581459410746e-08,3.85803941150042e-07,3.5880402317948e-07,3.58804023178539e-07,6.18077739638946e-09,3.00286948127373e-08,3.62094722090403e-08,1.30381313957083e-07,-2.3642649026244e-08,1.30381313957345e-07,-6.16224727607614e-08,,1.18266261398428e-08,,,1.47758526625341e-08,1.92861908775199e-08,1.27473348044489e-07,1.92861908776435e-08,-1.47729894301122e-07,1.55716671403264e-07,7.98677710201514e-09,-2.63547468867128e-08,2.32671679165363e-08,,-2.47206136831428e-08,2.47206136832899e-08,1.01268543317524e-07,,2.0386932776677e-08,-4.63297221988262e-08,-3.7949948483348e-08,4.26959623401292e-08,4.74601385683098e-09,2.20419070681531e-07,1.24270980304486e-08,1.24270980304132e-08,,1.1164068986412e-06,5.00456369932194e-07,7.64513700867165e-08,,,-1.76637640317176e-07,2.40159553977928e-07,2.40159553978086e-07,-2.15105090090228e-07,2.15105090090482e-07,3.88482323347707e-07,0,0,0,8.19200000000001,102,950.71568627451,527.779411764706,2365.19607843137,946.51568627451,954.91568627451,527.116666666667,528.442156862745,2487.96078431373,2242.43137254902,0
2005.0944,5.11778078633145e-08,2.18062989130961e-08,7.29841067763604e-08,3.92148990888745e-07,2.79272970370835e-07,2.79272970369918e-07,9.17549315341169e-09,3.04323159604312e-08,3.96078091137576e-08,1.4489550255081e-07,-2.2774019232796e-08,1.44895502551069e-07,-6.34361715777459e-08,,8.15388845511887e-09,,,1.09962332905924e-08,2.28338366858422e-08,1.29321220030461e-07,2.28338366859644e-08,-1.4788300361425e-07,1.55906889396838e-07,8.02388578246278e-09,-3.24852163903478e-08,2.36418747628142e-08,,-2.35222960458323e-08,2.35222960459789e-08,1.00684569866314e-07,,1.88401690749538e-08,-5.24291829164816e-08,-4.04267910423389e-08,4.11520450292913e-08,7.25253987003044e-10,2.19169268617466e-07,1.14263732120594e-08,1.14263732120253e-08,,1.06938481966114e-06,5.01045461068291e-07,9.08751707879941e-08,,,-1.93419322722136e-07,2.38946520135509e-07,2.38946520135668e-07,-2.26025434765741e-07,2.26025434766005e-07,4.10653432670375e-07,0,0,0,8.2944,102,952.23431372549,526.810294117647,2350.75980392157,949.027450980392,955.441176470588,523.710784313726,529.909803921569,2480.8431372549,2220.67647058824,0
2005.1968,5.42402005971998e-08,2.00353161501024e-08,7.42755167472541e-08,3.89804485172998e-07,2.08384596832312e-07,2.08384596831412e-07,1.2091794863151e-08,3.08486509508126e-08,4.29404458138793e-08,1.59385583225478e-07,-2.18981154915886e-08,1.59385583225734e-07,-6.58644253446785e-08,,3.78014294873724e-09,,,7.04272259592359e-09,2.68576511178536e-08,1.32190233676947e-07,2.68576511179758e-08,-1.48038277082534e-07,1.55801653303004e-07,7.76337622034505e-09,-3.80629422967094e-08,2.36842833471486e-08,,-2.22011638402267e-08,2.22011638403743e-08,1.00206046009219e-07,,1.70924944549557e-08,-5.89844937151213e-08,-4.30175355517705e-08,3.96257990386594e-08,-3.39173651305967e-09,2.18238570149552e-07,1.00222626529518e-08,1.00222626529178e-08,,1.03490894019313e-06,5.05394277111822e-07,1.05215462979916e-07,,,-2.09624778042296e-07,2.36981333356063e-07,2.36981333356223e-07,-2.36110461764569e-07,2.36110461764844e-07,4.3468639808627e-07,0,0,0,8.39679999999999,103,952.791262135922,527.026699029126,2347.00485436893,949.249514563107,956.333009708738,523.885436893204,530.167961165049,2479.66019417476,2214.34951456311,0
2005.2992,5.68058230352159e-08,1.8145443306923e-08,7.49512663420926e-08,3.79898627489031e-07,1.46906657731027e-07,1.46906657730141e-07,1.48093343014707e-08,3.12600965294404e-08,4.60694308308278e-08,1.73396543698905e-07,-2.10193056944818e-08,1.7339654369916e-07,-6.89729135344897e-08,,-1.26407366806744e-09,,,3.00555020770034e-09,3.12662295238428e-08,1.36106356862109e-07,3.12662295239646e-08,-1.48326052973119e-07,1.55498587821789e-07,7.17253484854567e-09,-4.25906037865259e-08,2.3473350463625e-08,,-2.07620994323771e-08,2.07620994325252e-08,1.0014726969199e-07,,1.52481331602867e-08,-6.57940302185929e-08,-4.58088817882691e-08,3.81224003751239e-08,-7.68648141309263e-09,2.18246691712372e-07,8.2197487413678e-09,8.21974874133434e-09,,1.01497724132959e-06,5.13687136107588e-07,1.1933471530591e-07,,,-2.23807363666375e-07,2.34889016122268e-07,2.34889016122427e-07,-2.44171476201719e-07,2.44171476202003e-07,4.59176077355988e-07,0,0,0,8.49919999999997,102,950.836764705882,528.236274509804,2352.48039215686,949.037254901961,952.636274509804,524.809803921569,531.662745098039,2485.45098039216,2219.50980392157,0
2005.4016,5.8801256637646e-08,1.62367922244172e-08,7.50380488620185e-08,3.64787175667236e-07,9.5297323417463e-08,9.52973234165882e-08,1.73051369998314e-08,3.16494220626624e-08,4.89545590624115e-08,1.86621930665823e-07,-2.01281469315905e-08,1.86621930666078e-07,-7.27279582418147e-08,,-6.86776531506256e-09,,,-1.02697170107898e-09,3.59540261634127e-08,1.40926601826649e-07,3.59540261635353e-08,-1.48776082011067e-07,1.55062867281802e-07,6.28678527061158e-09,-4.56515007276596e-08,2.30666672831519e-08,,-1.92093413832042e-08,1.92093413833532e-08,1.00742763184252e-07,,1.33916959730381e-08,-7.26531012035567e-08,-4.88540601665251e-08,3.66520775706556e-08,-1.22019825958167e-08,2.1974097574002e-07,6.07011596798216e-09,6.07011596794954e-09,,1.00942406381441e-06,5.25399192037786e-07,1.32973707598618e-07,,,-2.34426674203108e-07,2.33410897147841e-07,2.33410897147999e-07,-2.49594952731355e-07,2.4959495273165e-07,4.82207149959355e-07,0,0,0,8.60159999999996,102,951.11568627451,524.697549019608,2362.33823529412,949.438235294118,952.793137254902,524.362745098039,525.032352941177,2490.10784313726,2234.56862745098,0
2005.504,6.0268919307307e-08,1.44086562433277e-08,7.46775755505909e-08,3.4736365653123e-07,5.40887211272194e-08,5.40887211263579e-08,1.96561568547677e-08,3.19987363217526e-08,5.16548931764388e-08,1.98895626220874e-07,-1.91997695538671e-08,1.98895626221128e-07,-7.69725480155433e-08,,-1.28382710312617e-08,,,-4.96700034539589e-09,4.08024397609265e-08,1.46325578043811e-07,4.08024397610498e-08,-1.49297620238209e-07,1.54513173280869e-07,5.21555304253711e-09,-4.70984021979015e-08,2.2476929067315e-08,,-1.75355750916802e-08,1.75355750918313e-08,1.02002038226936e-07,,1.15741767693865e-08,-7.93824548207738e-08,-5.21365192625934e-08,3.5233738533464e-08,-1.69027807290761e-08,2.22957742322446e-07,3.6595238375599e-09,3.65952383752732e-09,,1.01601426609922e-06,5.39340830929868e-07,1.45734552221356e-07,,,-2.40219671347738e-07,2.33275222481382e-07,2.33275222481538e-07,-2.52410098800217e-07,2.52410098800521e-07,5.01600367257384e-07,0,1,0,8.70399999999995,103,953.457766990291,525.22572815534,2367.3786407767,951.632038834951,955.283495145631,526.765048543689,523.68640776699,2491.8640776699,2242.8932038835,0
2005.6064,6.13470255333632e-08,1.27439479405558e-08,7.40909734738758e-08,3.30306205356497e-07,2.41153386539915e-08,2.41153386531402e-08,2.20010692911306e-08,3.2288937689968e-08,5.42900069810177e-08,2.10113203821405e-07,-1.8195468466704e-08,2.10113203821657e-07,-8.14379993033907e-08,,-1.89213605704275e-08,,,-8.72629273691008e-09,4.56761651705542e-08,1.51816499007258e-07,4.56761651706785e-08,-1.49696811276981e-07,1.53820562923447e-07,4.12375164634334e-09,-4.71391400463123e-08,2.16748559625516e-08,,-1.5725266363592e-08,1.57252663637442e-08,1.03656942180687e-07,,9.81558528007845e-09,-8.58386402914189e-08,-5.55570467097243e-08,3.38938145572377e-08,-2.1663232152433e-08,2.27692937692276e-07,1.09558649399989e-09,1.09558649396733e-09,,1.03090852889031e-06,5.53830447132455e-07,1.5711666578953e-07,,,-2.40473935887641e-07,2.35050790833201e-07,2.35050790833355e-07,-2.53206899450273e-07,2.53206899450586e-07,5.15219860931441e-07,0,1,0,8.80639999999994,102,951.982843137255,534.841666666667,2370.26470588235,950.286274509804,953.679411764706,535.699019607843,533.98431372549,2490.71568627451,2249.8137254902,0
2005.7088,6.22046047580131e-08,1.13027399004086e-08,7.35073446583789e-08,3.15617937827213e-07,6.40865018217581e-09,6.40865018133196e-09,2.44704466795142e-08,3.25017482656808e-08,5.69721949451142e-08,2.20122628859984e-07,-1.70696109441617e-08,2.20122628860236e-07,-8.57981763101502e-08,,-2.48434398479897e-08,,,-1.22216972865834e-08,5.04204855467206e-08,1.56821053356262e-07,5.0420485546847e-08,-1.49728784091672e-07,1.52915986544651e-07,3.18720245285647e-09,-4.6259320872071e-08,2.06176840861212e-08,,-1.37644272080883e-08,1.37644272082414e-08,1.05245884330559e-07,,8.1241147025508e-09,-9.19035422977834e-08,-5.89543088728171e-08,3.26592153145661e-08,-2.62950935581965e-08,2.33365397502382e-07,-1.50454723895467e-09,-1.50454723898874e-09,,1.04923057444217e-06,5.66920539938465e-07,1.66624845386698e-07,,,-2.35111273668719e-07,2.39034472309003e-07,2.39034472309156e-07,-2.52885507832739e-07,2.52885507833061e-07,5.21295238226202e-07,0,1,0,8.90880000000016,103,951.425242718447,529.01213592233,2372.06796116505,948.859223300971,953.991262135922,531.22427184466,526.8,2492.47572815534,2251.66019417476,0
2005.8112,6.29685958896325e-08,1.01231224754429e-08,7.30917183650322e-08,3.04633757174711e-07,1.76523629830062e-09,1.76523629746836e-09,2.71230708730399e-08,3.26239598710161e-08,5.97470307439757e-08,2.28684807734045e-07,-1.57806509337176e-08,2.28684807734297e-07,-8.97485396634262e-08,,-3.03620044921717e-08,,,-1.53895357617954e-08,5.48695594044494e-08,1.60778933554164e-07,5.48695594045777e-08,-1.49165800314799e-07,1.51700145980387e-07,2.53434566546619e-09,-4.50070733305285e-08,1.92885925732047e-08,,-1.16500486745299e-08,1.16500486746833e-08,1.06310470380332e-07,,6.52016462873307e-09,-9.74688291818274e-08,-6.21495321424065e-08,3.15473663728489e-08,-3.06021657695031e-08,2.39251822648734e-07,-4.01922101772614e-09,-4.01922101776084e-09,,1.06568901666105e-06,5.76661875169948e-07,1.73932580375937e-07,,,-2.24647798552807e-07,2.45197254382605e-07,2.45197254382758e-07,-2.52337161875344e-07,2.52337161875673e-07,5.18795491111258e-07,0,0,0,9.01120000000014,102,950.823039215686,525.883823529412,2377.89705882353,947.130392156863,954.51568627451,525.149019607843,526.61862745098,2499.76470588235,2256.02941176471,0
2005.9136,6.36917064235399e-08,9.22270504246333e-09,7.29144114659598e-08,2.98318292491671e-07,1.02172929750824e-08,1.02172929742561e-08,2.99300607520033e-08,3.2651225090921e-08,6.25812858428446e-08,2.35574599459064e-07,-1.4301563867938e-08,2.35574599459315e-07,-9.30729881684789e-08,,-3.53018953384008e-08,,,-1.82041354883652e-08,5.88730728346493e-08,1.63264821454927e-07,5.88730728347807e-08,-1.47853780466888e-07,1.50057850987503e-07,2.2040705204946e-09,-4.37500540586595e-08,1.77257504282226e-08,,-9.3955276104626e-09,9.39552761061653e-09,1.06607614131537e-07,,5.0510800766244e-09,-1.02428689254092e-07,-6.49921617143499e-08,3.05603996037848e-08,-3.44317621105104e-08,2.44768370132258e-07,-6.31730559081115e-09,-6.3173055908466e-09,,1.07546847114981e-06,5.81449304752497e-07,1.7902837677973e-07,,,-2.10087606774729e-07,2.53196292861555e-07,2.53196292861708e-07,-2.5221650401994e-07,2.52216504020274e-07,5.07785548588096e-07,0,0,0,9.11360000000013,103,941.855339805825,537.555825242719,2382.02912621359,937.290291262136,946.420388349515,539.997087378641,535.114563106796,2502.91262135922,2261.14563106796,0
2006.016,6.43764338507963e-08,8.59725255538601e-09,7.29736864061378e-08,2.97506816479172e-07,3.06598106728088e-08,3.06598106719904e-08,3.28130324910761e-08,3.25893827740109e-08,6.5402415265008e-08,2.40774457089595e-07,-1.26256393731231e-08,2.40774457089845e-07,-9.56711569902874e-08,,-3.95651640615901e-08,,,-2.0690587873274e-08,6.23329325642028e-08,1.64077801400106e-07,6.23329325643357e-08,-1.45739915768218e-07,1.4788384555799e-07,2.14392978965303e-09,-4.25248198290135e-08,1.60261914732496e-08,,-7.02827280371923e-09,7.02827280387292e-09,1.06228545037259e-07,,3.7907602001404e-09,-1.06677481705506e-07,-6.73874213544969e-08,2.96885579137431e-08,-3.76988634406993e-08,2.49662167439145e-07,-8.25033910226928e-09,-8.25033910230585e-09,,1.07536960388578e-06,5.80419320575114e-07,1.82275516003194e-07,,,-1.92715013570604e-07,2.62456545431734e-07,2.62456545431889e-07,-2.52831389336168e-07,2.52831389336504e-07,4.89565505465435e-07,0,0,0,9.21600000000012,102,938.826795627191,536.251938736311,2375.88072075777,932.792034313725,944.861556940657,535.799468954248,536.704408518374,2496.73910675381,2255.02233476172,0
2006.1184,6.50312823283888e-08,8.21811822727429e-09,7.32494005556176e-08,3.02936968207317e-07,6.07171823798373e-08,6.07171823790273e-08,3.57073498279108e-08,3.24535687569671e-08,6.81609185847995e-08,2.44637894878527e-07,-1.07667064310286e-08,2.44637894878775e-07,-9.75433616475499e-08,,-4.31182336098988e-08,,,-2.2923605649074e-08,6.52288729328318e-08,1.63268221836316e-07,6.52288729329664e-08,-1.42870470252806e-07,1.45116837892146e-07,2.24636763922301e-09,-4.10368322770001e-08,1.43234417334212e-08,,-4.57811719596594e-09,4.57811719611844e-09,1.05573636898931e-07,,2.8266816725499e-09,-1.10107156407163e-07,-6.93002977712113e-08,2.89207653517478e-08,-4.03795324194091e-08,2.54045597521155e-07,-9.65600250990187e-09,-9.65600250993945e-09,,1.06468698013307e-06,5.73719285423601e-07,1.84374836336805e-07,,,-1.73792212481818e-07,2.72304065605965e-07,2.72304065606125e-07,-2.54089462274305e-07,2.5408946227464e-07,4.66474442510557e-07,0,0,0,9.31840000000011,102,944.34423634106,548.803694122517,2335.35527041943,932.265625,956.422847682119,551.859375,545.748013245033,2456.54166666667,2214.16887417219,0.5
2006.2208,6.57234675459579e-08,8.03221243574098e-09,7.37556799816523e-08,3.15274757329339e-07,9.67883249701885e-08,9.67883249693871e-08,3.86157447686601e-08,3.22661613825757e-08,7.08819061511579e-08,2.47927241203393e-07,-8.75491667078526e-09,2.47927241203639e-07,-9.87476834224591e-08,,-4.59670784316205e-08,,,-2.50118401860334e-08,6.761016160007e-08,1.61083950599366e-07,6.76101616002062e-08,-1.39366904263396e-07,1.41765079010642e-07,2.3981747471281e-09,-3.87992498715481e-08,1.27478922400024e-08,,-2.06061873427169e-09,2.06061873442284e-09,1.05203369659282e-07,,2.24006588797979e-09,-1.12611946174535e-07,-7.07397223524285e-08,2.82551786760314e-08,-4.2484543676343e-08,2.58280346633055e-07,-1.0381219644008e-08,-1.03812196440469e-08,,1.04535204609145e-06,5.62479938661526e-07,1.86261550609105e-07,,,-1.54305396269742e-07,2.82102367013173e-07,2.82102367013338e-07,-2.55527462268888e-07,2.55527462269222e-07,4.41437524768982e-07,0,0,0,9.4208000000001,103,950.642036303286,540.369907266015,2344.14008640705,938.766686893204,962.517385713367,546.062601132686,534.677213399344,2473.52777777778,2214.75239503633,0
2006.3232,6.66017777298019e-08,7.96640573238846e-09,7.45681834621422e-08,3.353378053096e-07,1.34246263024445e-07,1.34246263023651e-07,4.16293446174691e-08,3.20535931493417e-08,7.3682937766733e-08,2.51699408520267e-07,-6.62962829847058e-09,2.51699408520509e-07,-9.93510585171255e-08,,-4.81322585204623e-08,,,-2.70729738811509e-08,6.95467267424775e-08,1.57866470443212e-07,6.95467267426154e-08,-1.35394149527331e-07,1.37911551314899e-07,2.51740178745145e-09,-3.53523866954872e-08,1.13838480949866e-08,,5.36047299574653e-10,-5.360472994249e-10,1.05629425759724e-07,,2.08564495910314e-09,-1.14109962457873e-07,-7.17313048966752e-08,2.77035187871409e-08,-4.4027786109481e-08,2.6276540150192e-07,-1.03196466208459e-08,-1.03196466208858e-08,,1.02145012756265e-06,5.48532583673215e-07,1.88963139033493e-07,,,-1.34905531248987e-07,2.91344066246162e-07,2.91344066246333e-07,-2.56472465337542e-07,2.56472465337873e-07,4.17432227821412e-07,0,0,0,9.52320000000009,102,948.276960784314,533.45931372549,2353.83823529412,940.952941176471,955.600980392157,535.1,531.818627450981,2486.72549019608,2220.95098039216,0
2006.4256,6.78776360889376e-08,7.93543398883596e-09,7.58130700777239e-08,3.6427521916241e-07,1.67873868082163e-07,1.6787386808138e-07,4.49070255130629e-08,3.18417341426513e-08,7.67487596556366e-08,2.57067948364652e-07,-4.43113599034822e-09,2.5706794836489e-07,-9.93961487895874e-08,,-4.96351957862504e-08,,,-2.92055059672105e-08,7.10685424986267e-08,1.53958805733035e-07,7.10685424987664e-08,-1.31136144939876e-07,1.33704003025368e-07,2.56785808537564e-09,-3.04782102376387e-08,1.02402638262894e-08,,3.25153267302809e-09,-3.25153267287983e-09,1.07124714846808e-07,,2.37822848441302e-09,-1.14575962733383e-07,-7.22917991782487e-08,2.72880977756201e-08,-4.50037014025759e-08,2.67714840929018e-07,-9.44696564175422e-09,-9.44696564179588e-09,,9.9849631065013e-07,5.34044183409304e-07,1.93439043413465e-07,,,-1.160181758681e-07,2.99682830793955e-07,2.99682830794131e-07,-2.56264047734453e-07,2.56264047734782e-07,3.97005506817688e-07,0,0,0,9.62560000000008,103,951.643689320388,520.797087378641,2355.56310679612,948.333009708738,954.954368932039,520.300970873787,521.293203883495,2489.14563106796,2221.98058252427,0
2006.528,6.97658118858785e-08,7.8525775000919e-09,7.76183893859194e-08,4.0324958174077e-07,1.92564757178629e-07,1.92564757177856e-07,4.86175511096241e-08,3.16510164791978e-08,8.02685675887445e-08,2.64903992450947e-07,-2.19405900610684e-09,2.64903992451181e-07,-9.88983039455171e-08,,-5.05027237678254e-08,,,-3.14636305561398e-08,7.21391962207228e-08,1.49659158234059e-07,7.21391962208643e-08,-1.26785092526902e-07,1.29338952691921e-07,2.55386016490448e-09,-2.43154247675407e-08,9.25069825211287e-09,,6.13696562174023e-09,-6.13696562159364e-09,1.09627027653051e-07,,3.09186285109991e-09,-1.14064008652394e-07,-7.2420471472198e-08,2.70342085914182e-08,-4.53862628807277e-08,2.73027587535139e-07,-7.83532271737163e-09,-7.83532271741427e-09,,9.82540619359559e-07,5.21163911103413e-07,2.00432400122316e-07,,,-9.79590503079387e-08,3.06920789489141e-07,3.06920789489321e-07,-2.54407110567718e-07,2.54407110568045e-07,3.8189930143755e-07,0,0,0,9.72800000000007,102,936.902941176471,551.520588235294,2369.88235294118,936.224509803922,937.58137254902,553.099019607843,549.942156862745,2503.70588235294,2236.05882352941,0
2006.6304,7.24047394106819e-08,7.64230230099366e-09,8.00470417116237e-08,4.52606515157049e-07,2.04125084561791e-07,2.04125084561028e-07,5.28664174295453e-08,3.14935236794283e-08,8.43599411088961e-08,2.75577339419829e-07,5.41920781204624e-11,2.75577339420059e-07,-9.78715041295662e-08,,-5.07866018484462e-08,,,-3.38433658469862e-08,7.26821080262112e-08,1.45200532052051e-07,7.26821080263546e-08,-1.22539082080157e-07,1.25038820263701e-07,2.49973818343036e-09,-1.73127595148206e-08,8.30624703328573e-09,,9.22491341690217e-09,-9.22491341675706e-09,1.12781877920637e-07,,4.1701463786291e-09,-1.12703471766646e-07,-7.21143981253321e-08,2.69608724636684e-08,-4.51535256616124e-08,2.78323728758154e-07,-5.63934773400737e-09,-5.6393477340504e-09,,9.79006154104124e-07,5.11686827039536e-07,2.10362382774697e-07,,,-8.09494717091675e-08,3.12973516654545e-07,3.12973516654728e-07,-2.50610330188219e-07,2.50610330188545e-07,3.72861203385626e-07,0,0,0,9.83040000000005,102,938.503921568627,551.428431372549,2379.20588235294,937.93431372549,939.073529411765,554.259803921569,548.597058823529,2512.82352941177,2245.58823529412,0
2006.7328,7.5796360023996e-08,7.25046694249264e-09,8.30468269664359e-08,5.11050589488267e-07,1.99924276737763e-07,1.99924276736997e-07,5.76449545754937e-08,3.13731776714106e-08,8.90181322468268e-08,2.88859904877757e-07,2.28925246612783e-09,2.88859904877985e-07,-9.63637683860994e-08,,-5.0583322841087e-08,,,-3.62847085952351e-08,7.264105600053e-08,1.40723469254335e-07,7.26410560006757e-08,-1.18597602217918e-07,1.21020099470174e-07,2.42249725214296e-09,-1.00425608577252e-08,7.30593169857028e-09,,1.24970380578864e-08,-1.2497038057743e-08,1.16104882858312e-07,,5.53853039671627e-09,-1.10674141695999e-07,-7.13982411666264e-08,2.70729745191527e-08,-4.43252666474221e-08,2.83132734595111e-07,-3.06187824227466e-09,-3.06187824231793e-09,,9.91528093893637e-07,5.06779952160718e-07,2.23269434159986e-07,,,-6.50747601942587e-08,3.17826922321576e-07,3.17826922321761e-07,-2.44777273466593e-07,2.44777273466917e-07,3.69747095319941e-07,0,1,0,9.93280000000004,103,939.990291262136,546.18932038835,2382.88349514563,938.38640776699,941.594174757281,551.310679611651,541.067961165049,2519.16504854369,2246.60194174757,0
2006.8352,7.97988250149475e-08,6.64780931327456e-09,8.64466343281694e-08,5.75297357975609e-07,1.79235685721938e-07,1.79235685721169e-07,6.28298097585433e-08,3.12884359794848e-08,9.41182457379509e-08,3.040386474595e-07,4.48433429972246e-09,3.04038647459723e-07,-9.44767029495499e-08,,-5.0038224624751e-08,,,-3.86866717122143e-08,7.20448842820004e-08,1.36243457963593e-07,7.20448842821471e-08,-1.15148358976089e-07,1.17461267866797e-07,2.31290889059502e-09,-2.97968725507419e-09,6.19781685894314e-09,,1.58665850636502e-08,-1.58665850635083e-08,1.1917644023464e-07,,7.11089194997911e-09,-1.08179324004993e-07,-7.03487286391628e-08,2.73579238643233e-08,-4.29908047747873e-08,2.87124585947477e-07,-3.14203646679983e-10,-3.14203646723241e-10,,1.021292177682e-06,5.06847066622332e-07,2.38812187792139e-07,,,-5.02677144924268e-08,3.21497547415228e-07,3.21497547415416e-07,-2.37032597773258e-07,2.37032597773582e-07,3.71871357246204e-07,0,1,0,10.0352,102,938.919117647059,536.653431372549,2382.75490196078,940.53137254902,937.306862745098,538.680392156863,534.626470588235,2518.61764705882,2246.89215686275,0
2006.9376,8.41691897364701e-08,5.82878265154414e-09,8.99979723879613e-08,6.40290011323706e-07,1.43243948148469e-07,1.43243948147694e-07,6.82266973902773e-08,3.12362356190344e-08,9.9462933009235e-08,3.20150550867432e-07,6.60898109714552e-09,3.20150550867652e-07,-9.23569533151708e-08,,-4.93285961987834e-08,,,-4.09273075854594e-08,7.10514402827966e-08,1.31638530491982e-07,7.10514402829452e-08,-1.12345938579886e-07,1.1448282110306e-07,2.13688252306117e-09,3.64231282529743e-09,4.99238495160038e-09,,1.91882168921393e-08,-1.91882168919977e-08,1.21771405417392e-07,,8.79073317772605e-09,-1.05427082191088e-07,-6.90991841096957e-08,2.77877054452272e-08,-4.13114786644155e-08,2.90260635913612e-07,2.41674610387111e-09,2.41674610382707e-09,,1.06701774388633e-06,5.11529917701428e-07,2.56311452883566e-07,,,-3.63216580221971e-08,3.24012878815945e-07,3.24012878816135e-07,-2.27777634927265e-07,2.27777634927588e-07,3.78352449079354e-07,0,1,0,10.1376,103,938.120873786408,539.581553398058,2384.68932038835,939.091262135922,937.150485436893,541.784466019418,537.378640776699,2517.46601941748,2251.91262135922,0
2007.04,8.86274715888554e-08,4.8107492320829e-09,9.34382208208852e-08,6.99964097589431e-07,9.47856660909607e-08,9.47856660901775e-08,7.36293199404744e-08,3.12155897100786e-08,1.04844909650476e-07,3.36210168665134e-07,8.63281537808279e-09,3.36210168665348e-07,-9.01653084863349e-08,,-4.86317853731028e-08,,,-4.28821109136972e-08,6.99516963776754e-08,1.2667044454023e-07,6.99516963778261e-08,-1.1028652192133e-07,1.12141084257718e-07,1.85456233627556e-09,9.84726412000229e-09,3.74784347547006e-09,,2.2293473267267e-08,-2.22934732671254e-08,1.23876177925915e-07,,1.04725046170482e-08,-1.02617527450321e-07,-6.78212244436347e-08,2.83242640542332e-08,-3.94969603893472e-08,2.92803511379056e-07,4.98610883735863e-09,4.98610883731336e-09,,1.12532687584019e-06,5.19776878616008e-07,2.74837575363775e-07,,,-2.29125903635445e-08,3.25423437559324e-07,3.25423437559515e-07,-2.1770414677494e-07,2.17704146775263e-07,3.88250182285251e-07,0,0,0,10.24,102,937.014215686274,546.890196078431,2384.89215686275,937.522549019608,936.505882352941,544.43431372549,549.346078431373,2514.85294117647,2254.93137254902,0
2007.1424,9.29159740296455e-08,3.63441243987311e-09,9.65503864694652e-08,7.48558779238451e-07,3.79210782499732e-08,3.79210782491775e-08,7.88676011300222e-08,3.12291219224202e-08,1.10096723052366e-07,3.51368891949257e-07,1.05300318205801e-08,3.51368891949467e-07,-8.80399141407685e-08,,-4.80899138491127e-08,,,-4.44389169320715e-08,6.91226766081833e-08,1.21041204207607e-07,6.9122676608336e-08,-1.08986301081929e-07,1.10428190849568e-07,1.44188976752672e-09,1.58205369742815e-08,2.5390070306555e-09,,2.5036011345509e-08,-2.50360113453674e-08,1.25606085027913e-07,,1.20484006860427e-08,-9.99338077238535e-08,-6.66890344165633e-08,2.89258050308603e-08,-3.77632293856476e-08,2.95196517410844e-07,7.29086831079198e-09,7.29086831074498e-09,,1.19130235734039e-06,5.29977275720195e-07,2.9332666647309e-07,,,-9.67332629854653e-09,3.25834379998271e-07,3.25834379998464e-07,-2.07741176412667e-07,2.07741176412988e-07,4.00547892738021e-07,0,0,0,10.3424,102,938.391176470588,542.101960784314,2379.46078431373,937.676470588235,939.105882352941,543.627450980392,540.576470588235,2508.22549019608,2250.69607843137,0
2007.2448,9.68371220601268e-08,2.3624515487225e-09,9.91995736087953e-08,7.8216488178088e-07,-2.25776578571831e-08,-2.25776578579901e-08,8.38301554221988e-08,3.12818821297638e-08,1.15112037551886e-07,3.65001866411773e-07,1.22805017105959e-08,3.65001866411978e-07,-8.60719095914715e-08,,-4.77845518267228e-08,,,-4.55111147225545e-08,6.89370671839264e-08,1.14486821770428e-07,6.89370671840818e-08,-1.08376337084582e-07,1.09275667272768e-07,8.9933018807495e-10,2.17591554321245e-08,1.42494863731567e-09,,2.73266990654707e-08,-2.73266990653292e-08,1.2707693964316e-07,,1.34226927560683e-08,-9.75366446760399e-08,-6.58377257679932e-08,2.95530065746699e-08,-3.62847191932668e-08,2.97872786788653e-07,9.25663140747672e-09,9.25663140742912e-09,,1.25926877171556e-06,5.40241340278805e-07,3.10698788488294e-07,,,3.65166710508293e-09,3.25425813294686e-07,3.25425813294881e-07,-1.98965184516665e-07,1.98965184516985e-07,4.14157172945491e-07,0,0,0,10.4448,103,947.220388349515,543.010194174757,2373.23786407767,944.883495145631,949.557281553398,542.336893203884,543.683495145631,2500.28155339806,2246.19417475728,0
2007.3472,1.00257897304285e-07,1.07449014965138e-09,1.01332387453882e-07,7.9985993218684e-07,-8.17426575561507e-08,-8.17426575569647e-08,8.84543766339214e-08,3.13781958128614e-08,1.19832572446706e-07,3.76717822738755e-07,1.38672966430159e-08,3.76717822738954e-07,-8.43047955353011e-08,,-4.77313443296041e-08,,,-4.60508121885166e-08,6.96617213308156e-08,1.06891664011793e-07,6.96617213309734e-08,-1.08324171750733e-07,1.08567400748321e-07,2.43228997477874e-10,2.77468106811717e-08,4.30616478919942e-10,,2.91477101194903e-08,-2.9147710119349e-08,1.2830213039278e-07,,1.453175515339e-08,-9.55581840279843e-08,-6.5332229945918e-08,3.01742447512374e-08,-3.51579851946234e-08,3.01086444996013e-07,1.08227298308872e-08,1.08227298308395e-08,,1.32373534085866e-06,5.48809819146396e-07,3.25960843116305e-07,,,1.70620758054136e-08,3.24445080875577e-07,3.24445080875772e-07,-1.92469575958384e-07,1.92469575958703e-07,4.28013979445488e-07,0,0,0,10.5472,102,963.991712916009,555.727877084742,2326.36095733792,957.758510348584,970.224915483435,553.167687908497,558.288066260987,2458.10900054466,2194.61291413117,0.333333333333333
2007.4496,1.030799818444e-07,-1.39884684279202e-10,1.02940097160065e-07,8.03915284556616e-07,-1.34866023589133e-07,-1.34866023589953e-07,9.26900819743048e-08,3.15178824441173e-08,1.24207964418345e-07,3.86293229029818e-07,1.52730853830244e-08,3.8629322903001e-07,-8.27557042466913e-08,,-4.78947866343247e-08,,,-4.60606629403506e-08,7.13847725595491e-08,9.83773664101692e-08,7.13847725597104e-08,-1.08677573028974e-07,1.08162157177509e-07,-5.1541585157426e-10,3.37246191749889e-08,-4.47636779088618e-10,,3.05464550947621e-08,-3.05464550946225e-08,1.29176036357845e-07,,1.53637922824649e-08,-9.4091283693008e-08,-6.5161305730107e-08,3.07678857318188e-08,-3.43934199982304e-08,3.04857071924202e-07,1.19369546833249e-08,1.19369546832754e-08,,1.38015679910254e-06,5.54410009304165e-07,3.38289499644295e-07,,,3.02893410049133e-08,3.23179862587381e-07,3.23179862587577e-07,-1.89168148988794e-07,1.89168148989113e-07,4.41208626581746e-07,0,0,0,10.6496,102,961.222012574187,582.800554287807,2288.48953285816,945.833646514161,976.610378634212,579.379370915033,586.221737660581,2420.06256808279,2156.91649763354,0.107843137254902
2007.552,1.05196258278054e-07,-1.18814372544239e-09,1.04008114552555e-07,7.99035867712662e-07,-1.77881813034717e-07,-1.77881813035532e-07,9.64595380027746e-08,3.16930688345637e-08,1.2815260683726e-07,3.93580904651703e-07,1.64773714983307e-08,3.93580904651886e-07,-8.14444684095703e-08,,-4.82126270152592e-08,,,-4.56003881013113e-08,7.39956790988046e-08,8.93255039413163e-08,7.39956790989699e-08,-1.09310295872522e-07,1.0791356340816e-07,-1.39673246447134e-09,3.95754413114487e-08,-1.21652423703997e-09,,3.16148791131257e-08,-3.16148791129879e-08,1.29558156792513e-07,,1.59675815936292e-08,-9.31801685542762e-08,-6.5258626506216e-08,3.13205677500087e-08,-3.39380587561489e-08,3.09060095514063e-07,1.25639344051523e-08,1.25639344051004e-08,,1.42521671336166e-06,5.56400120352057e-07,3.47086355902349e-07,,,4.29073218193349e-08,3.21921215575051e-07,3.21921215575246e-07,-1.89575308830611e-07,1.8957530883093e-07,4.53109863327843e-07,0,0,0,10.752,103,954.228155339806,546.701941747573,2347.79126213592,944.65145631068,963.804854368932,545.869902912621,547.533980582524,2486.84466019417,2208.73786407767,0
2007.6544,1.06466787802289e-07,-1.98341837923978e-09,1.04483369422992e-07,7.90993663626197e-07,-2.07686749810047e-07,-2.07686749810862e-07,9.96419210009988e-08,3.18863355377018e-08,1.31528256538622e-07,3.98471128706484e-07,1.74555353814518e-08,3.98471128706658e-07,-8.04128891933669e-08,,-4.86164772326414e-08,,,-4.47843261415078e-08,7.72161206801179e-08,8.03338382351081e-08,7.72161206802882e-08,-1.10150386499619e-07,1.07678834765997e-07,-2.47155173373071e-09,4.52638352580368e-08,-1.85898761996885e-09,,3.24619364815549e-08,-3.24619364814197e-08,1.29405598037564e-07,,1.64414935433077e-08,-9.28216262765162e-08,-6.55366722956675e-08,3.18230445115447e-08,-3.37136277840643e-08,3.13602004204655e-07,1.27002131336716e-08,1.27002131336169e-08,,1.45671275275577e-06,5.54723468895681e-07,3.52000559378165e-07,,,5.44494648955594e-08,3.20914234435872e-07,3.20914234436066e-07,-1.93658046806443e-07,1.93658046806763e-07,4.63504858781793e-07,0,0,0,10.8543999999999,102,952.516666666667,544.920098039216,2346.13725490196,947.325490196078,957.707843137255,543.026470588235,546.813725490196,2482.64705882353,2209.62745098039,0
