time,S1-D1,S1-D8,S1-D9,S1-D15,S2-D1,S2-D2,S2-D3,S2-D9,S3-D1,S3-D2,S3-D16,S4-D2,S4-D3,S4-D5,S5-D3,S5-D4,S5-D5,S6-D2,S6-D5,S6-D17,S7-D6,S7-D7,S8-D6,S8-D7,S8-D18,S9-D3,S9-D4,S9-D9,S9-D11,S9-D19,S10-D8,S10-D9,S10-D10,S10-D11,S11-D8,S11-D10,S11-D20,S12-D10,S12-D11,S12-D12,S13-D4,S13-D11,S13-D12,S14-D10,S14-D12,S14-D21,S15-D13,S15-D14,S16-D13,S16-D14,S16-D22,SART_Target,SART_NonTarget,SART_Probe,t_rel_s,eye_n,xp,yp,ps,xpl_i,xpr_i,ypl_i,ypr_i,psl_i,psr_i,blink_prop
1656.4224,-5.81239946423976e-08,-5.55675678213851e-08,-1.13691562464119e-07,3.27057853003866e-07,-2.8352998515083e-08,-2.83529985155306e-08,-2.00125725684833e-07,-1.86571940501971e-07,-3.86697666186783e-07,-7.46202685603765e-09,-5.9596146340496e-08,-7.46202685636397e-09,-1.17787736736461e-07,5.82690361933716e-08,-5.95187005429822e-08,-1.29785719248338e-07,,-5.05551740668249e-09,-1.56721930129496e-08,-7.43139342943392e-08,-1.5672193012781e-08,-2.75323620255409e-07,-2.06043554410221e-08,-2.95927975696456e-07,1.09727265581262e-07,9.78641186449593e-08,,4.62403216457331e-08,-4.62403216458799e-08,-9.75306313017937e-09,3.69786481528981e-07,-3.78624303140494e-08,3.31924051214394e-07,-5.69473877094047e-08,1.37603031100156e-08,-4.31870845992601e-08,-7.21111473416181e-08,-1.09148429352255e-08,-1.09148429351891e-08,-7.073003499606e-07,7.32022896480468e-07,2.47225465199838e-08,1.23311657060293e-07,-8.31532490699139e-08,4.01584079903238e-08,3.29468401990021e-08,-6.37106011733097e-08,-6.37106011734304e-08,-4.68327872947891e-07,4.68327872947624e-07,5.93923016525953e-07,0,1,0,0,103,633.541262135922,569.561165048544,1959.82524271845,637.480582524272,629.601941747573,592.014563106796,547.107766990291,2006.96116504854,1912.68932038835,0
1656.5248,-5.1534478672506e-08,-5.88008388625841e-08,-1.10335317535425e-07,3.13307903004186e-07,-3.17090613104565e-08,-3.1709061310904e-08,-1.98028938532237e-07,-1.91731789245765e-07,-3.8976072777798e-07,-3.1906463237924e-08,-5.22641389011208e-08,-3.19064632382432e-08,-1.09828907111704e-07,5.50719957062904e-08,-5.47569114053117e-08,-1.3198647792709e-07,,-8.3999108089721e-09,-1.92065216545588e-08,-7.11174977012219e-08,-1.92065216543914e-08,-2.72047652630292e-07,-1.82768651721997e-08,-2.90324517802519e-07,1.10289793780045e-07,9.18924171211466e-08,,6.19323679298696e-08,-6.19323679300173e-08,-1.82150766270879e-08,3.44961620810343e-07,-3.58611495128972e-08,3.09100471296902e-07,-5.05259459846647e-08,1.32191281715246e-08,-3.73068178130102e-08,-7.328057500436e-08,-9.73218184824854e-09,-9.73218184821088e-09,-7.11397752006307e-07,7.37662344606962e-07,2.62645926007642e-08,1.501471506733e-07,-9.51342073573715e-08,5.50129433158775e-08,2.72331191616453e-08,-6.7345579642176e-08,-6.73455796422975e-08,-4.61314661399431e-07,4.61314661399169e-07,5.87120288233468e-07,0,1,0,0.102399999999989,102,685.149509803922,553.352450980392,1921.26960784314,687.460784313726,682.838235294118,567.369607843137,539.335294117647,1970.01960784314,1872.51960784314,0
1656.6272,-4.24134260255399e-08,-6.01037323965869e-08,-1.02517158422459e-07,3.02662039118555e-07,-3.39853413534153e-08,-3.3985341353861e-08,-1.97152851754709e-07,-1.94627039385308e-07,-3.91779891139992e-07,-6.12629982155594e-08,-4.56835677635668e-08,-6.126299821587e-08,-1.03167258020406e-07,5.19178728734679e-08,-5.12493851468412e-08,-1.30190913475889e-07,,-1.22508794862772e-08,-2.30295886419234e-08,-7.06218048174653e-08,-2.30295886417579e-08,-2.60586814792251e-07,-1.85135764454945e-08,-2.79100391237776e-07,1.15368501857177e-07,8.62667256699004e-08,,7.49345355598824e-08,-7.49345355600302e-08,-2.31133341134722e-08,3.102845348647e-07,-3.22037844228985e-08,2.78080750441256e-07,-4.15151626426462e-08,1.37041738183751e-08,-2.78109888241414e-08,-7.35631600945038e-08,-7.98054408956435e-09,-7.98054408952543e-09,-7.08053629453448e-07,7.40523634583712e-07,3.24700051303676e-08,1.67578274577578e-07,-1.02931414347704e-07,6.46468602298273e-08,2.45862213647633e-08,-7.17338096238549e-08,-7.17338096239769e-08,-4.47975812740049e-07,4.47975812739793e-07,5.71029428496742e-07,0,1,0,0.204799999999977,103,953.953398058252,547.152912621359,1870.8640776699,959.109708737864,948.797087378641,558.706796116505,535.599029126214,1915.79611650485,1825.93203883495,0
1656.7296,-3.14354472763367e-08,-5.95528643284688e-08,-9.0988311605133e-08,2.95457426191869e-07,-3.52194869271091e-08,-3.52194869275513e-08,-1.96997037895276e-07,-1.95865675351149e-07,-3.92862713246398e-07,-9.43420258129655e-08,-3.97113706803192e-08,-9.43420258132664e-08,-9.77037224858395e-08,4.87552111849658e-08,-4.89485113007821e-08,-1.2414355537989e-07,,-1.62710455511657e-08,-2.70203697684874e-08,-7.29626260077875e-08,-2.70203697683249e-08,-2.41469430050893e-07,-2.14383752058251e-08,-2.62907805256751e-07,1.24718237056306e-07,8.08978799193355e-08,,8.4902987615702e-08,-8.49029876158489e-08,-2.48204543396912e-08,2.66848267749498e-07,-2.72790426605414e-08,2.39569225088414e-07,-3.01098623755403e-08,1.52558680076878e-08,-1.48539943677242e-08,-7.28625408125205e-08,-5.73390566404885e-09,-5.73390566400826e-09,-6.97171235270701e-07,7.40311638667037e-07,4.31404033964341e-08,1.75155337912734e-07,-1.06672837105173e-07,6.84825008075192e-08,2.54331701282013e-08,-7.69957732125263e-08,-7.69957732126487e-08,-4.29382738689616e-07,4.29382738689363e-07,5.46900919488996e-07,0,0,0,0.307199999999966,102,953.399509803921,549.477941176471,1856.15196078431,960.760784313726,946.038235294118,560.792156862745,538.163725490196,1903.67647058824,1808.62745098039,0
1656.832,-1.93694618752418e-08,-5.73630449765661e-08,-7.67325068521293e-08,2.91867190886483e-07,-3.55155225706028e-08,-3.55155225710403e-08,-1.96948697141616e-07,-1.96179101995266e-07,-3.93127799136853e-07,-1.2966134823636e-07,-3.41198116508884e-08,-1.29661348236651e-07,-9.32049149721298e-08,4.55450838831369e-08,-4.7659831088907e-08,-1.1388233507638e-07,,-2.00797232229624e-08,-3.11548179361511e-08,-7.81574252869505e-08,-3.1154817935992e-08,-2.15659309179796e-07,-2.70503848473773e-08,-2.42709694027209e-07,1.37884209197017e-07,7.56753302919872e-08,,9.17042199029444e-08,-9.17042199030895e-08,-2.39562332811461e-08,2.16316186929891e-07,-2.16116731801685e-08,1.94704513749187e-07,-1.67064579879616e-08,1.77721131037192e-08,1.06565511588324e-09,-7.11149003440649e-08,-3.1433775791543e-09,-3.1433775791123e-09,-6.79087778451089e-07,7.36963170266254e-07,5.78753918152569e-08,1.72881629104353e-07,-1.06634177622498e-07,6.62474514818176e-08,2.98386436387186e-08,-8.31032603805306e-08,-8.31032603806528e-08,-4.06785141987749e-07,4.06785141987498e-07,5.16469192369088e-07,0,0,0,0.409600000000182,103,951.270388349515,546.88640776699,1870.69417475728,956.764077669903,945.776699029126,559.77572815534,533.997087378641,1917.44660194175,1823.94174757282,0
1656.9344,-6.9392149632772e-09,-5.38501278418716e-08,-6.07893428054631e-08,2.91959353344306e-07,-3.50221259868951e-08,-3.50221259873273e-08,-1.96342491687085e-07,-1.96317478367961e-07,-3.92659970055016e-07,-1.65521305643175e-07,-2.86740993751168e-08,-1.65521305643455e-07,-8.93374664650511e-08,4.22949641014423e-08,-4.70425023635285e-08,-9.98589732212992e-08,,-2.33346027837112e-08,-3.55117380983873e-08,-8.6015707609511e-08,-3.55117380982318e-08,-1.84646165478105e-07,-3.51137354506597e-08,-2.19759900928804e-07,1.54217444485267e-07,7.05110772215046e-08,,9.53767232109107e-08,-9.53767232110532e-08,-2.12662319767616e-08,1.60802287765734e-07,-1.57421012095919e-08,1.45060186555616e-07,-1.89365065073235e-09,2.10087361912489e-08,1.91150855406386e-08,-6.83645981403294e-08,-4.17907822272802e-10,-4.1790782222957e-10,-6.54493523315106e-07,7.30663165387517e-07,7.61696420724962e-08,1.61357795775861e-07,-1.03315173040203e-07,5.8042622735625e-08,3.73699375564936e-08,-8.98449553947086e-08,-8.98449553948304e-08,-3.81374475950887e-07,3.81374475950639e-07,4.8191602873345e-07,0,0,0,0.512000000000171,102,953.639705882353,546.636274509804,1904.85294117647,959.291176470588,947.988235294118,554.213725490196,539.058823529412,1950.21568627451,1859.49019607843,0
1657.0368,5.2665611152803e-09,-4.93866559480231e-08,-4.41200948330494e-08,2.95716852731642e-07,-3.39013349476349e-08,-3.39013349480614e-08,-1.94554048210351e-07,-1.96925097755685e-07,-3.91479145966006e-07,-2.00146862110395e-07,-2.31995028119047e-08,-2.00146862110665e-07,-8.57201620236008e-08,3.90794445644959e-08,-4.66407174590302e-08,-8.3028754844017e-08,,-2.58001159158674e-08,-4.02641952982828e-08,-9.60765089442646e-08,-4.02641952981311e-08,-1.50459987464092e-07,-4.50680229409857e-08,-1.9552801040512e-07,1.72852806594785e-07,6.53829569630161e-08,,9.61171039140877e-08,-9.61171039142272e-08,-1.7493678429381e-08,1.02718098785052e-07,-1.01008754149984e-08,9.26172233695401e-08,1.35831439943451e-08,2.4605892827766e-08,3.81890368222291e-08,-6.48092034776779e-08,2.2077371794502e-09,2.20773717949499e-09,-6.24315264494828e-07,7.21773423811806e-07,9.74581593170561e-08,1.41877849836676e-07,-9.74971863126909e-08,4.43806635239567e-08,4.70591427895463e-08,-9.68464447600318e-08,-9.68464447601528e-08,-3.54154434246787e-07,3.54154434246542e-07,4.45794703630992e-07,0,0,0,0.61440000000016,102,953.043137254902,550.039705882353,1943.34803921569,959.240196078431,946.846078431373,553.26862745098,546.810784313725,1993.56862745098,1893.12745098039,0
1657.1392,1.68093365564209e-08,-4.43566209412939e-08,-2.75472843851719e-08,3.03009736514059e-07,-3.22955780597395e-08,-3.22955780601602e-08,-1.91093401854553e-07,-1.98427687165496e-07,-3.89521089020018e-07,-2.31879559974496e-07,-1.76184556067751e-08,-2.31879559974758e-07,-8.19873979239464e-08,3.60368964768297e-08,-4.5950501447047e-08,-6.48576114195754e-08,,-2.73826383727042e-08,-4.56450931520026e-08,-1.07601002144647e-07,-4.56450931518546e-08,-1.15544044790403e-07,-5.6018429906921e-08,-1.7156247469737e-07,1.92682353372672e-07,6.03627897016019e-08,,9.42825990825691e-08,-9.42825990827055e-08,-1.32568821648898e-08,4.45849739252272e-08,-4.91774809199405e-09,3.96672258327313e-08,2.88867250851914e-08,2.81412025262912e-08,5.70279276115961e-08,-6.07920720679009e-08,4.51281009507594e-09,4.51281009512194e-09,-5.8957729962884e-07,7.10697256210741e-07,1.21119956581975e-07,1.16398072212275e-07,-9.02270498820407e-08,2.61710223302112e-08,5.74898746126945e-08,-1.03643659013878e-07,-1.03643659013998e-07,-3.25943322955131e-07,3.25943322954887e-07,4.10882712460359e-07,0,0,0,0.716800000000148,103,953.003398058252,553.269417475728,1964.16990291262,960.201941747573,945.804854368932,559.729126213592,546.809708737864,2019.79611650485,1908.54368932039,0
1657.2416,2.73679877201516e-08,-3.91112185972137e-08,-1.17432308773543e-08,3.13540118504568e-07,-3.0306802588294e-08,-3.03068025887092e-08,-1.85654708539847e-07,-2.00972980860754e-07,-3.86627689400571e-07,-2.5938025245986e-07,-1.19528050983973e-08,-2.59380252460114e-07,-7.78515499660703e-08,3.33376479078407e-08,-4.45139020581643e-08,-4.72030238347387e-08,,-2.81316835890015e-08,-5.18874944800909e-08,-1.19620583154975e-07,-5.18874944799463e-08,-8.24751372757666e-08,-6.68353722057187e-08,-1.49310509481535e-07,2.12386379963843e-07,5.56092231360199e-08,,9.03880528325585e-08,-9.03880528326918e-08,-8.93727047782991e-09,-1.12119829503034e-08,-1.93749106174327e-10,-1.14057320569695e-08,4.31858187884723e-08,3.12031160201904e-08,7.43889348087718e-08,-5.67458067066564e-08,6.33277274891497e-09,6.33277274896201e-09,-5.51238405862348e-07,6.97725896634259e-07,1.46487490771979e-07,8.73500492567014e-08,-8.27088287366713e-08,4.64122052001102e-09,6.70012801651424e-08,-1.09786014363052e-07,-1.09786014363171e-07,-2.97449749937857e-07,2.97449749937613e-07,3.79940050942908e-07,0,0,0,0.819200000000137,102,945.53431372549,548.467647058824,1980.54411764706,954.306862745098,936.761764705882,552.517647058824,544.417647058824,2040.32352941176,1920.76470588235,0
1657.344,3.66941691771394e-08,-3.39308165264957e-08,2.76335265035702e-09,3.26796624522661e-07,-2.79947097293373e-08,-2.79947097297473e-08,-1.7810408621271e-07,-2.0445356088935e-07,-3.8255764710203e-07,-2.81787972085111e-07,-6.2979876026336e-09,-2.81787972085359e-07,-7.31462952512728e-08,3.1132879104782e-08,-4.20134161464287e-08,-3.20666758439816e-08,,-2.82091384602894e-08,-5.91558445580577e-08,-1.31030004531778e-07,-5.91558445579159e-08,-5.35794457787156e-08,-7.63529069374295e-08,-1.29932352716197e-07,2.30550556371047e-07,5.13218527799895e-08,,8.50821855713863e-08,-8.5082185571517e-08,-4.59908601420165e-09,-6.27047315324722e-08,4.26205790126409e-09,-5.84426736316927e-08,5.57723017258308e-08,3.34686724120815e-08,8.92409741380173e-08,-5.3106983873682e-08,7.59579093162131e-09,7.59579093166916e-09,-5.10023367613573e-07,6.82908745408197e-07,1.72885377794688e-07,5.73390689104685e-08,-7.61356127206768e-08,-1.87965438102241e-08,7.39687942108397e-08,-1.1492668315226e-07,-1.14926683152377e-07,-2.6935611783286e-07,2.69356117832615e-07,3.55391636244733e-07,0,0,0,0.921600000000126,103,941.992233009709,549.425242718447,1995.56796116505,951.020388349515,932.964077669903,561.91359223301,536.936893203884,2054.32038834951,1936.81553398058,0
1657.4464,4.45655660091903e-08,-2.90038805488577e-08,1.55616854600495e-08,3.42049181475076e-07,-2.53878017223835e-08,-2.53878017227893e-08,-1.68427799648355e-07,-2.08604841599013e-07,-3.77032641247339e-07,-2.98775917285558e-07,-7.79646930048485e-10,-2.98775917285802e-07,-6.78390786884779e-08,2.9505899439887e-08,-3.83331792485302e-08,-2.12744085065707e-08,,-2.78293680304585e-08,-6.74931614523456e-08,-1.40715735285361e-07,-6.74931614522054e-08,-3.0547913912543e-08,-8.36123028003674e-08,-1.14160216712965e-07,2.45834991464007e-07,4.7679917585052e-08,,7.90995295461556e-08,-7.90995295462843e-08,2.56171069929056e-11,-1.08557250058202e-07,8.75281698697497e-09,-9.98044330717085e-08,6.61603107561303e-08,3.47628049026495e-08,1.00923115658881e-07,-5.02274292688106e-08,8.34170244335703e-09,8.34170244340558e-09,-4.66305240694089e-07,6.65980708308206e-07,1.99675467614178e-07,2.8822271342392e-08,-7.15137547369423e-08,-4.26914833945638e-08,7.70896887593217e-08,-1.18863052826243e-07,-1.1886305282636e-07,-2.42391417936893e-07,2.42391417936647e-07,3.39010134590678e-07,0,0,0,1.02400000000011,102,938.650490196078,544.763725490196,2018.86274509804,947.900980392157,929.4,550.73137254902,538.796078431373,2076.48039215686,1961.24509803922,0
1657.5488,5.0741708858199e-08,-2.44302614168389e-08,2.63114474410785e-08,3.58399769226987e-07,-2.24970407103632e-08,-2.24970407107655e-08,-1.56682917069722e-07,-2.13135009665643e-07,-3.69817926735337e-07,-3.10478002811871e-07,4.4950687028783e-09,-3.10478002812113e-07,-6.20136414121468e-08,2.84460908735269e-08,-3.35675505385586e-08,-1.61671938954413e-08,,-2.7189418308657e-08,-7.68072745203346e-08,-1.4770379576927e-07,-7.68072745201953e-08,-1.4173730677374e-08,-8.80718085055237e-08,-1.02245539182954e-07,2.57143730986831e-07,4.4794452513443e-08,,7.31919329315164e-08,-7.31919329316441e-08,5.47143482246031e-09,-1.48127404324873e-07,1.36006892849538e-08,-1.34526715040402e-07,7.41320938798352e-08,3.5079871483013e-08,1.09211965362948e-07,-4.83050034410618e-08,8.71410845325784e-09,8.71410845330668e-09,-4.20085518780178e-07,6.46372035845559e-07,2.26286517065441e-07,3.85140859529348e-09,-6.95189546900139e-08,-6.56675460947335e-08,7.55971435610514e-08,-1.21520352720606e-07,-1.21520352720722e-07,-2.17385139711204e-07,2.17385139710956e-07,3.31688624659667e-07,0,0,0,1.1264000000001,102,942.587745098039,545.967156862745,2046.10784313725,950.640196078431,934.535294117647,554.806862745098,537.127450980392,2102.99019607843,1989.22549019608,0
1657.6512,5.49500472073877e-08,-2.02447681940047e-08,3.47052790131007e-08,3.74889485240024e-07,-1.93293994558262e-08,-1.9329399456226e-08,-1.42981764000245e-07,-2.17831210593107e-07,-3.60812974593325e-07,-3.17318726132067e-07,9.47561974268755e-09,-3.1731872613231e-07,-5.58321072048204e-08,2.78513079280916e-08,-2.79807992766644e-08,-1.73798693063892e-08,,-2.64227077877221e-08,-8.68986132069989e-08,-1.51300790497257e-07,-8.68986132068591e-08,-4.29168759495648e-09,-8.97142174740434e-08,-9.4005905069058e-08,2.63771174558379e-07,4.26852934540994e-08,,6.804954345427e-08,-6.80495434543978e-08,1.24168518339425e-08,-1.81390253354666e-07,1.90634382299989e-08,-1.62326815125156e-07,7.97262103011331e-08,3.45629958402892e-08,1.1428920614152e-07,-4.73500365725197e-08,8.92679838496617e-09,8.92679838501483e-09,-3.71091536404283e-07,6.23326385559765e-07,2.52234849155542e-07,-1.60808682058411e-08,-7.04153599161643e-08,-8.64962281220195e-08,6.93539802678693e-08,-1.22897942922781e-07,-1.22897942922896e-07,-1.95266050606662e-07,1.95266050606411e-07,3.333482655503e-07,1,0,0,1.22880000000009,103,945.921359223301,543.053883495146,2073.64563106796,954.984466019418,936.858252427184,552.517475728155,533.590291262136,2130.17475728155,2017.11650485437,0
1657.7536,5.69301923895106e-08,-1.6449195582754e-08,4.04809968064718e-08,3.9064206170211e-07,-1.59046962918009e-08,-1.5904696292199e-08,-1.2751595652619e-07,-2.22603114539075e-07,-3.50119071065239e-07,-3.19815297048264e-07,1.4180245280424e-08,-3.19815297048509e-07,-4.94900062625674e-08,2.75522511806068e-08,-2.19377550818908e-08,-2.47666898386653e-08,,-2.55992463996615e-08,-9.75108615266087e-08,-1.51199321731478e-07,-9.75108615264672e-08,6.88776534599678e-11,-8.90178175425492e-08,-8.89489398891485e-08,2.65517535418433e-07,4.12790111078649e-08,,6.42263958673171e-08,-6.42263958674456e-08,2.15466660358164e-08,-2.08793208030258e-07,2.52721275021602e-08,-1.83521080528597e-07,8.31855666720885e-08,3.34506131059309e-08,1.16636179778117e-07,-4.71960174873552e-08,9.21366441119931e-09,9.21366441124715e-09,-3.19001477115575e-07,5.96142025889407e-07,2.77140548773894e-07,-3.00844714479544e-08,-7.40633648324087e-08,-1.0414783628038e-07,5.88111965560386e-08,-1.23003216950882e-07,-1.23003216950997e-07,-1.76974152199591e-07,1.76974152199335e-07,3.42981387292354e-07,1,0,0,1.33120000000008,102,945.992647058824,539.310784313726,2102.63725490196,954.525490196079,937.459803921569,551.730392156863,526.891176470588,2158.13725490196,2047.13725490196,0
1657.856,5.65279539125178e-08,-1.30424137006157e-08,4.34855402116133e-08,4.05002076633523e-07,-1.22765721845175e-08,-1.22765721849146e-08,-1.10603235753802e-07,-2.27457189839769e-07,-3.38060425593546e-07,-3.18417920681845e-07,1.86763434441551e-08,-3.18417920682096e-07,-4.31787170132876e-08,2.73497616135728e-08,-1.58289553996371e-08,-3.74961493738083e-08,,-2.47702067800395e-08,-1.08390626436594e-07,-1.47525833116279e-07,-1.08390626436449e-07,3.63438660951841e-10,-8.67980174516691e-08,-8.64345787907774e-08,2.62753742132872e-07,4.04220382311436e-08,,6.20885776751626e-08,-6.20885776752926e-08,3.34274522705905e-08,-2.31084090902942e-07,3.21932952311398e-08,-1.98890795672315e-07,8.48833375782573e-08,3.20045352214391e-08,1.16887872799794e-07,-4.75559399507577e-08,9.77185527355372e-09,9.77185527360042e-09,-2.63765853500158e-07,5.64493763606157e-07,3.00727910106062e-07,-3.78262669667033e-08,-8.00102441047076e-08,-1.17836511071433e-07,4.4849720793643e-08,-1.21793995143901e-07,-1.21793995144015e-07,-1.63295602417869e-07,1.63295602417608e-07,3.58820619464632e-07,1,0,0,1.43360000000007,103,946.283009708738,540.289805825243,2123.66504854369,956.711650485437,935.854368932039,550.71359223301,529.866019417476,2181.78640776699,2065.54368932039,0
1657.9584,5.37968739211202e-08,-1.00421877954701e-08,4.37546861253568e-08,4.17622450729166e-07,-8.55120575564588e-09,-8.55120575604248e-09,-9.27303257206716e-08,-2.32420054588489e-07,-3.25150380309137e-07,-3.13434158400378e-07,2.30355374363272e-08,-3.13434158400634e-07,-3.70680495330171e-08,2.70573921847989e-08,-1.00106573481307e-08,-5.42754441125128e-08,,-2.40347529291263e-08,-1.19353232543084e-07,-1.40822287253983e-07,-1.19353232542936e-07,-1.86163411502557e-09,-8.39725506673485e-08,-8.58341847824346e-08,2.56406995648038e-07,3.9907169259207e-08,,6.18009088453734e-08,-6.18009088455055e-08,4.84025046638879e-08,-2.49125379164765e-07,3.96200114190842e-08,-2.09505367746208e-07,8.52425211828082e-08,3.04373014581166e-08,1.15679822641023e-07,-4.81142995727395e-08,1.07101416189685e-08,1.07101416190134e-08,-2.05928406495379e-07,5.28730320228978e-07,3.22801913733664e-07,-3.94461656445061e-08,-8.76195238361368e-08,-1.27065689480671e-07,2.85592277742359e-08,-1.19150669805893e-07,-1.19150669806007e-07,-1.54661485955133e-07,1.54661485954865e-07,3.78619228869557e-07,0,0,0,1.53600000000006,102,947.133333333333,544.708333333333,2133.26470588235,959.239215686275,935.027450980392,554.911764705882,534.504901960784,2200.20588235294,2066.32352941176,0
1658.0608,4.90600433564334e-08,-7.49384550397413e-09,4.15661978521607e-08,4.28478753137273e-07,-4.89263367080622e-09,-4.89263367120252e-09,-7.45692550970484e-08,-2.37443666155439e-07,-3.12012921252466e-07,-3.05052834104393e-07,2.72783334263623e-08,-3.05052834104656e-07,-3.131202037678e-08,2.65418531555662e-08,-4.7701672211151e-09,-7.36207194420417e-08,,-2.35966514769752e-08,-1.30338920374378e-07,-1.31968840657127e-07,-1.30338920374225e-07,-5.32009538286413e-09,-8.13301170117925e-08,-8.66502123947175e-08,2.47847539952802e-07,3.95120192539177e-08,,6.33538266349654e-08,-6.33538266350998e-08,6.65061086588252e-08,-2.63721814455274e-07,4.72002293146315e-08,-2.16521585141187e-07,8.46649567287284e-08,2.88608939078951e-08,1.13525850636723e-07,-4.86295445887931e-08,1.2019279835681e-08,1.20192798357241e-08,-1.46837097351971e-07,4.90041897889765e-07,3.43204800537862e-07,-3.54739812434842e-08,-9.61942912512034e-08,-1.31668272494723e-07,1.10219777772741e-08,-1.148993839437e-07,-1.14899383943814e-07,-1.5096956744926e-07,1.50969567448984e-07,3.99997261341607e-07,0,0,0,1.63840000000005,102,950.099509803922,552.314705882353,2140.37254901961,962.924509803922,937.274509803922,559.985294117647,544.644117647059,2213.87254901961,2066.87254901961,0
1658.1632,4.29021579493854e-08,-5.46339599166412e-09,3.74387619574178e-08,4.37814933026258e-07,-1.50697444166696e-09,-1.50697444206295e-09,-5.69499992443706e-08,-2.42336586838006e-07,-2.99286586082357e-07,-2.93440091172884e-07,3.13282610262273e-08,-2.93440091173153e-07,-2.60606599122969e-08,2.57521755643698e-08,-3.084843478162e-10,-9.40975051657643e-08,,-2.37749954606339e-08,-1.41424531181758e-07,-1.22059604009718e-07,-1.41424531181599e-07,-9.20774880497908e-09,-7.93680215598484e-08,-8.85757703648889e-08,2.38676058885111e-07,3.90417584848795e-08,,6.66118328531372e-08,-6.6611832853274e-08,8.74033469062397e-08,-2.75502088116769e-07,5.45042421193261e-08,-2.20997845998002e-07,8.34809672678496e-08,2.72746033369294e-08,1.10755570604879e-07,-4.90128231268867e-08,1.35781157904375e-08,1.35781157904786e-08,-8.86540578480959e-08,4.50421548819714e-07,3.61767490971689e-07,-2.67325545073345e-08,-1.05082682992367e-07,-1.31815237499745e-07,-6.85413211991037e-09,-1.08891157775818e-07,-1.08891157775932e-07,-1.51504333580574e-07,1.51504333580289e-07,4.2078528395831e-07,0,0,0,1.74080000000004,103,952.385436893204,547.89854368932,2142.55825242718,965.247572815534,939.523300970874,553.006796116505,542.790291262136,2219.84466019417,2065.27184466019,0
1658.2656,3.60830509057439e-08,-4.0187610684288e-09,3.20642898370074e-08,4.46032447756426e-07,1.39269707645385e-09,1.39269707605904e-09,-4.077441367304e-08,-2.46761832987627e-07,-2.8753624666065e-07,-2.78852770260914e-07,3.49959423495978e-08,-2.78852770261189e-07,-2.14509438603498e-08,2.47277416847713e-08,3.27679782454463e-09,-1.14486623584651e-07,,-2.4941372528533e-08,-1.5276350933151e-07,-1.12243246864931e-07,-1.52763509331346e-07,-1.32635910134828e-08,-7.82255466161324e-08,-9.14891376296772e-08,2.30432723184577e-07,3.83634568502779e-08,,7.13616493774148e-08,-7.1361649377554e-08,1.10369627544024e-07,-2.84882087085219e-07,6.11150204569078e-08,-2.23767066628884e-07,8.19256372914068e-08,2.55966875662161e-08,1.07522324857724e-07,-4.93536743448698e-08,1.51983310346772e-08,1.51983310347159e-08,-3.40867193827509e-08,4.12360859520615e-07,3.78274140137937e-07,-1.41868718738737e-08,-1.13779523902789e-07,-1.27966395776714e-07,-2.44400413920619e-08,-1.0111092313448e-07,-1.01110923134594e-07,-1.550196779599e-07,1.55019677959605e-07,4.393121101841e-07,0,0,0,1.84320000000002,102,952.569117647059,547.834803921569,2137.75,961.169607843137,943.968627450981,550.680392156863,544.989215686275,2218.6862745098,2056.8137254902,0
1658.368,2.93818736707378e-08,-3.20787444531384e-09,2.61739992251132e-08,4.53536559556505e-07,3.63131878283049e-09,3.63131878243774e-09,-2.68767925911824e-08,-2.50309284762062e-07,-2.77186077353228e-07,-2.61728452714274e-07,3.80040655595637e-08,-2.61728452714553e-07,-1.75718361991082e-08,2.35811820115173e-08,6.0093458125438e-09,-1.33848422826553e-07,,-2.73847547546936e-08,-1.6446542350416e-07,-1.0355949318453e-07,-1.64465423503993e-07,-1.76757020563142e-08,-7.770806108503e-08,-9.53837631414069e-08,2.24282834202445e-07,3.74238634368988e-08,,7.73499549027313e-08,-7.73499549028728e-08,1.34320981227735e-07,-2.92112933188825e-07,6.67104578214642e-08,-2.25402475367944e-07,8.01469987191905e-08,2.37311017318727e-08,1.03878100451165e-07,-4.98800797613211e-08,1.66983604768846e-08,1.66983604769213e-08,1.4149279367846e-08,3.78302334574329e-07,3.9245161394225e-07,1.24941571009751e-09,-1.22022531449526e-07,-1.20773115739488e-07,-4.14159488912125e-08,-9.17716117455313e-08,-9.1771611745645e-08,-1.59994822986382e-07,1.59994822986077e-07,4.54592838071601e-07,0,0,0,1.94560000000001,103,951.977184466019,548.02427184466,2122.77669902913,960.3,943.654368932039,550.327184466019,545.721359223301,2204.60194174757,2040.95145631068,0
1658.4704,2.34045269188786e-08,-3.04308087891321e-09,2.03614460396525e-08,4.60575366289198e-07,5.11292790318152e-09,5.11292790279233e-09,-1.5874451051323e-08,-2.52608704153514e-07,-2.68483155204823e-07,-2.42735345664281e-07,4.00464975364923e-08,-2.42735345664561e-07,-1.44301058565748e-08,2.24629498052779e-08,8.03284394884765e-09,-1.51482981653982e-07,,-3.11531515702327e-08,-1.76468826053833e-07,-9.68212122968764e-08,-1.76468826053664e-07,-2.28653408944049e-08,-7.73827161627513e-08,-1.0024805705722e-07,2.20772414042979e-07,3.62497651596002e-08,,8.43044272047667e-08,-8.43044272049103e-08,1.57898043030504e-07,-2.97387882865154e-07,7.11088725246582e-08,-2.26279010341086e-07,7.82443045147471e-08,2.16474699991576e-08,9.98917745140061e-08,-5.086523938422e-08,1.7982690868151e-08,1.79826908681856e-08,5.39590616223627e-08,3.50032648369153e-07,4.03991709991592e-07,1.886121086042e-08,-1.29835233491726e-07,-1.10974022631373e-07,-5.77118827917693e-08,-8.1354580796979e-08,-8.13545807970926e-08,-1.64998387656233e-07,1.64998387655919e-07,4.66362334404934e-07,0,0,0,2.048,102,953.740196078431,548.295588235294,2118.42647058824,963.183333333333,944.297058823529,552.399019607843,544.192156862745,2197.49019607843,2039.36274509804,0
1658.5728,1.8414752933364e-08,-3.49856185269936e-09,1.49161910803505e-08,4.67129589835318e-07,5.84266732022342e-09,5.84266731983841e-09,-8.06844648007671e-09,-2.53430389725458e-07,-2.6149883620552e-07,-2.22758973845678e-07,4.08600321972307e-08,-2.22758973845957e-07,-1.19465466655871e-08,2.15206624421893e-08,9.57411577675489e-09,-1.66835591137526e-07,,-3.59530826665555e-08,-1.88471382745171e-07,-9.25653849417321e-08,-1.88471382745001e-07,-2.92260108557135e-08,-7.67178557144321e-08,-1.0594386657021e-07,2.19746265581936e-07,3.49316375580138e-08,,9.19349259582195e-08,-9.19349259583648e-08,1.79608036342967e-07,-3.00951516080985e-07,7.42701023632326e-08,-2.26681413718347e-07,7.631608249456e-08,1.9441060843383e-08,9.57571433380442e-08,-5.25181289077493e-08,1.90934303418238e-08,1.90934303418564e-08,8.43359887517962e-08,3.28275880315583e-07,4.12611869067457e-07,3.81571479775113e-08,-1.37468264925119e-07,-9.93111169476814e-08,-7.33771522586998e-08,-7.05763502769876e-08,-7.05763502771013e-08,-1.69035145520593e-07,1.6903514552027e-07,4.74930088129987e-07,0,0,0,2.15039999999999,102,955.824509803922,544.749509803922,2117.22549019608,963.991176470588,947.657843137255,547.160784313726,542.338235294118,2191.1568627451,2043.29411764706,0
1658.6752,1.42557904596653e-08,-4.52193973957845e-09,9.73385071977288e-09,4.72896200415445e-07,5.9196931808025e-09,5.9196931804224e-09,-3.42901693213825e-09,-2.52735222779333e-07,-2.56164239711456e-07,-2.02803685320776e-07,4.02840122398213e-08,-2.02803685321052e-07,-9.98680020276554e-09,2.08636186342196e-08,1.08768184316124e-08,-1.79429639256004e-07,,-4.11671270244971e-08,-1.99949046773085e-07,-9.10473113520673e-08,-1.99949046772916e-07,-3.69225635253768e-08,-7.52249529397018e-08,-1.12147516465144e-07,2.20460371287783e-07,3.35914948829694e-08,,9.99285349637179e-08,-9.99285349638648e-08,1.98022808916783e-07,-3.03156829261786e-07,7.62675528576634e-08,-2.26889276404718e-07,7.44888229948803e-08,1.73423338439362e-08,9.18311568389171e-08,-5.49020425971986e-08,2.02099012531881e-08,2.02099012532189e-08,1.05504165612383e-07,3.12639470064761e-07,4.18143635677222e-07,5.8799202999899e-08,-1.45267650341106e-07,-8.64684473412876e-08,-8.84406854449159e-08,-6.02845843400895e-08,-6.0284584340203e-08,-1.71744672461471e-07,1.71744672461141e-07,4.80915968551834e-07,0,0,0,2.25279999999998,103,954.279611650485,548.398058252427,2130.13106796117,962.990291262136,945.568932038835,546.08640776699,550.709708737864,2197.31067961165,2062.95145631068,0
1658.7776,1.03990846518066e-08,-6.05361858777633e-09,4.34546606371729e-09,4.77367039483268e-07,5.50374437427635e-09,5.5037443739018e-09,-1.657743080894e-09,-2.50668711644664e-07,-2.52326454725543e-07,-1.83836501037626e-07,3.82917590004009e-08,-1.83836501037898e-07,-8.40842441346993e-09,2.05382633104884e-08,1.212983889718e-08,-1.88876558258643e-07,,-4.59867337195863e-08,-2.10254715102411e-07,-9.22405913166043e-08,-2.10254715102242e-07,-4.58194922478204e-08,-7.25605989259278e-08,-1.18380091173815e-07,2.21841330627397e-07,3.23419899209387e-08,,1.07961626121956e-07,-1.07961626122105e-07,2.11997365003843e-07,-3.04459298650156e-07,7.72539479470105e-08,-2.27205350703741e-07,7.29138883983781e-08,1.56678726617878e-08,8.85817610602657e-08,-5.79079390134402e-08,2.15963765663618e-08,2.15963765663909e-08,1.1871559912849e-07,3.01898396099408e-07,4.20613995227976e-07,8.05141742766787e-08,-1.53554598489846e-07,-7.30404242132518e-08,-1.02818607970387e-07,-5.13123413760131e-08,-5.13123413761266e-08,-1.73382849667281e-07,1.73382849666946e-07,4.8498055650218e-07,0,0,0,2.35519999999997,102,957.376470588235,556.624019607843,2151.74019607843,965.604901960784,949.148039215686,559.664705882353,553.583333333333,2218.02941176471,2085.45098039216,0
1658.88,6.1051814028551e-09,-8.04332473125218e-09,-1.93814332870822e-09,4.79972190818653e-07,4.7703557481441e-09,4.77035574777532e-09,-2.29362771872969e-09,-2.47516768049608e-07,-2.49810395768322e-07,-1.66644404334926e-07,3.49911501566756e-08,-1.66644404335193e-07,-7.10234436119183e-09,2.05203095279255e-08,1.34179651668966e-08,-1.94946434444259e-07,,-4.96010040252488e-08,-2.18763708895603e-07,-9.58339755953773e-08,-2.18763708895437e-07,-5.55333240710503e-08,-6.85694322795549e-08,-1.24102756350673e-07,2.22798961341347e-07,3.12515303545048e-08,,1.15734795710386e-07,-1.15734795710536e-07,2.20839419540275e-07,-3.05370852626576e-07,7.74374513086253e-08,-2.27933401318546e-07,7.17436215111144e-08,1.47318888980953e-08,8.64755104093085e-08,-6.12833376229505e-08,2.35210158924122e-08,2.35210158924403e-08,1.25788796622529e-07,2.94493627100187e-07,4.20282423722792e-07,1.03024730235598e-07,-1.62565547471187e-07,-5.95408172356779e-08,-1.16290804127696e-07,-4.43376134748602e-08,-4.43376134749736e-08,-1.74607605414614e-07,1.74607605414277e-07,4.87641299897781e-07,0,0,0,2.45760000000018,103,959.280582524272,554.395631067961,2171.38349514563,970.302912621359,948.258252427185,560.703883495146,548.087378640777,2234.54368932039,2108.22330097087,0
1658.9824,6.39681349214259e-10,-1.0457151362769e-08,-9.81747001386336e-09,4.80243501353054e-07,3.87181357013031e-09,3.87181356976741e-09,-4.82642521071461e-09,-2.43643986042311e-07,-2.48470411253009e-07,-1.51755996765144e-07,3.05992375561728e-08,-1.51755996765405e-07,-6.0135701113975e-09,2.0727807345673e-08,1.47142372344379e-08,-1.97644453860461e-07,,-5.13690426840883e-08,-2.25021571642773e-07,-1.01241807864028e-07,-2.25021571642608e-07,-6.55585797119206e-08,-6.32743482505251e-08,-1.28832927962515e-07,2.22495703390573e-07,3.03283765877709e-08,,1.23013175091682e-07,-1.23013175091834e-07,2.24366982645762e-07,-3.06393842073083e-07,7.70733057671888e-08,-2.29320536306488e-07,7.1103621302639e-08,1.47521461196814e-08,8.5855767422418e-08,-6.4700847715345e-08,2.61770256477995e-08,2.61770256478266e-08,1.28553314400663e-07,2.8906952595823e-07,4.17622840358967e-07,1.26002244713688e-07,-1.72438741191806e-07,-4.64364964782093e-08,-1.28546011445813e-07,-3.97892527621397e-08,-3.97892527622528e-08,-1.7615959354879e-07,1.76159593548453e-07,4.89204735999327e-07,0,1,0,2.56000000000017,102,961.221078431373,545.092647058824,2183.47058823529,970.674509803922,951.767647058823,552.679411764706,537.505882352941,2245.26470588235,2121.67647058824,0
1659.0848,-6.52407512928941e-09,-1.32749489058728e-08,-1.97990240354676e-08,4.7794895433306e-07,2.91412711120236e-09,2.91412711084501e-09,-8.78697478251681e-09,-2.39430960604741e-07,-2.4821793538724e-07,-1.39433145106783e-07,2.53973013755615e-08,-1.3943314510704e-07,-5.1351828723425e-09,2.10510447526623e-08,1.59158618804806e-08,-1.97243401250894e-07,,-5.09268422016097e-08,-2.28847748464521e-07,-1.07646385305105e-07,-2.28847748464357e-07,-7.54142094758385e-08,-5.68280010048652e-08,-1.32242210480774e-07,2.20504909260559e-07,2.95263118943105e-08,,1.29652752637143e-07,-1.29652752637297e-07,2.22838866888713e-07,-3.07949512748704e-07,7.64644933204461e-08,-2.31485019428852e-07,7.10709365843771e-08,1.57828902713665e-08,8.68538268558402e-08,-6.78437430080408e-08,2.96307582848431e-08,2.963075828487e-08,1.28387689324833e-07,2.84876099719837e-07,4.13263789044743e-07,1.49044532314001e-07,-1.83215743793021e-07,-3.4171211479115e-08,-1.39277740191857e-07,-3.7816916295403e-08,-3.78169162955154e-08,-1.78554812136303e-07,1.78554812135968e-07,4.89795719064968e-07,0,1,0,2.66240000000016,102,957.028921568627,543.890196078431,2190.38725490196,967.691176470588,946.366666666667,551.285294117647,536.495098039216,2252.27450980392,2128.5,0
1659.1872,-1.55693788495831e-08,-1.64802167339592e-08,-3.2049595583844e-08,4.73157186922037e-07,1.95309334617533e-09,1.95309334582252e-09,-1.38008474857143e-08,-2.35221308858411e-07,-2.49022156344107e-07,-1.29716960181679e-07,1.96767633553399e-08,-1.29716960181931e-07,-4.48174836850294e-09,2.13872684569756e-08,1.69055200886307e-08,-1.94251970848827e-07,,-4.82102805442438e-08,-2.30368151384603e-07,-1.14080183533443e-07,-2.30368151384439e-07,-8.47698668791741e-08,-4.94408855104879e-08,-1.34210752389734e-07,2.1683311512832e-07,2.87661859291834e-08,,1.35608189826488e-07,-1.35608189826642e-07,2.16799838420621e-07,-3.10325392782541e-07,7.59591603696103e-08,-2.34366232413525e-07,7.16625940223968e-08,1.76969854379872e-08,8.93595794604798e-08,-7.04833720625474e-08,3.38110199743267e-08,3.38110199743534e-08,1.25984775232463e-07,2.81921940691566e-07,4.079067159241e-07,1.71682509787004e-07,-1.94844438764251e-07,-2.31619289773442e-08,-1.48294495311803e-07,-3.83221143368406e-08,-3.83221143369524e-08,-1.81888496230612e-07,1.81888496230282e-07,4.89441031860368e-07,0,1,0,2.76480000000015,103,957.818446601942,543.953398058252,2196.65533980583,967.866990291262,947.769902912621,551.715533980583,536.191262135922,2260.87378640777,2132.43689320388,0
1659.2896,-2.63017331480838e-08,-2.00452561211699e-08,-4.63469892695518e-08,4.66211541271721e-07,1.00710435769002e-09,1.0071043573414e-09,-1.96091652438551e-08,-2.31277694858461e-07,-2.50886860102297e-07,-1.22503517428579e-07,1.36926164421763e-08,-1.22503517428827e-07,-4.05799975116485e-09,2.1667200082874e-08,1.76092003318642e-08,-1.89329618892858e-07,,-4.34021194516853e-08,-2.29975789961691e-07,-1.19542769250808e-07,-2.29975789961526e-07,-9.35156116287947e-08,-4.13131373977004e-08,-1.34828749026569e-07,2.11820807551215e-07,2.79631611718682e-08,,1.40925818041269e-07,-1.40925818041424e-07,2.06914386680864e-07,-3.13666045508239e-07,7.59310942390239e-08,-2.37734951269811e-07,7.28371535833896e-08,2.02238265016165e-08,9.3060980085101e-08,-7.25251108213279e-08,3.85423666421175e-08,3.85423666421444e-08,1.21395463908589e-07,2.8085027394266e-07,4.02245737851317e-07,1.93410497406244e-07,-2.07185749260347e-07,-1.37752518542021e-08,-1.55599286346136e-07,-4.10316542382251e-08,-4.10316542383362e-08,-1.85804264403342e-07,1.85804264403019e-07,4.88160387954378e-07,0,0,0,2.86720000000014,102,960.424509803921,542.641176470588,2200.39705882353,969.16862745098,951.680392156863,542.978431372549,542.303921568627,2262.02941176471,2138.76470588235,0
1659.392,-3.82253284193879e-08,-2.39167032867488e-08,-6.21420317064317e-08,4.57621315836058e-07,7.89041840552097e-11,7.89041837101497e-11,-2.60655063012092e-08,-2.27741770118234e-07,-2.53807276419423e-07,-1.17620521395612e-07,7.64102004206908e-09,-1.17620521395857e-07,-3.83887079499592e-09,2.18642078384519e-08,1.80253370436084e-08,-1.8317217443891e-07,,-3.68335624471268e-08,-2.2823264537141e-07,-1.23134238028857e-07,-2.28232645371243e-07,-1.01737400360809e-07,-3.26089900581063e-08,-1.3434639041899e-07,2.05966382695433e-07,2.70476114203958e-08,,1.45721663921449e-07,-1.45721663921605e-07,1.93854678705211e-07,-3.18014207754684e-07,7.67321627346857e-08,-2.41282045020596e-07,7.45098046180307e-08,2.30310977219087e-08,9.75409023400337e-08,-7.40074063047702e-08,4.36098932492224e-08,4.360989324925e-08,1.14311138362333e-07,2.82600288288718e-07,3.96911426651119e-07,2.1372051763932e-07,-2.20022892406195e-07,-6.30237476697581e-09,-1.61398320799137e-07,-4.55836289061879e-08,-4.55836289062983e-08,-1.89632418633659e-07,1.89632418633344e-07,4.86024737906875e-07,0,0,0,2.96960000000013,103,960.581067961165,546.384466019418,2200.29611650485,971.668932038835,949.493203883495,549.179611650486,543.58932038835,2261.7572815534,2138.83495145631,0
1659.4944,-5.07001944492319e-08,-2.80076415042669e-08,-7.87078359537915e-08,4.47914993490335e-07,-8.25206382395276e-10,-8.25206382737517e-10,-3.31100682793303e-08,-2.24612179371814e-07,-2.57722247651123e-07,-1.14884722538988e-07,1.66746368593286e-09,-1.14884722539231e-07,-3.76961693406357e-09,2.1984932773943e-08,1.82153158400292e-08,-1.76390872324988e-07,,-2.88838253840659e-08,-2.2574114864846e-07,-1.24181109550592e-07,-2.2574114864829e-07,-1.0959052083094e-07,-2.3492777837207e-08,-1.33083298668223e-07,1.99743012020981e-07,2.59727436269688e-08,,1.50142817638383e-07,-1.50142817638539e-07,1.78268945464558e-07,-3.23385077316389e-07,7.86209358858341e-08,-2.44764141431156e-07,7.65772763268515e-08,2.58220491704157e-08,1.02399325497361e-07,-7.50547062446808e-08,4.88290219275265e-08,4.8829021927555e-08,1.0444859672846e-07,2.87999011507165e-07,3.92447608235692e-07,2.32118521297931e-07,-2.33065755040948e-07,-9.47233743118204e-10,-1.66025431211152e-07,-5.15993553041189e-08,-5.15993553042287e-08,-1.9264627810429e-07,1.92646278103984e-07,4.83157235215284e-07,0,0,0,3.07200000000012,102,962.047058823529,544.91568627451,2198.39215686275,971.635294117647,952.458823529412,549.98137254902,539.85,2261.49019607843,2135.29411764706,0
1659.5968,-6.31127788594274e-08,-3.22006670630123e-08,-9.53134459227309e-08,4.37524162184205e-07,-1.689311835934e-09,-1.68931183627441e-09,-4.07148037423048e-08,-2.21771268603869e-07,-2.62486072346152e-07,-1.14122124584013e-07,-4.10434300056127e-09,-1.14122124584255e-07,-3.78321998796348e-09,2.20491194047957e-08,1.826589941698e-08,-1.69412977362309e-07,,-1.99178758791535e-08,-2.23030945138339e-07,-1.22330103485287e-07,-2.23030945138166e-07,-1.17129410507307e-07,-1.41962593251873e-08,-1.31325669832571e-07,1.93479507343491e-07,2.47106528797374e-08,,1.54318946357903e-07,-1.54318946358059e-07,1.60812308491194e-07,-3.29827009377012e-07,8.1694437997132e-08,-2.48132571380485e-07,7.89414546127979e-08,2.84122779058711e-08,1.07353732518763e-07,-7.58083621977133e-08,5.40910661656696e-08,5.40910661656991e-08,9.18591784088852e-08,2.97452941415588e-07,3.8931211982454e-07,2.4812530239509e-07,-2.45948944796309e-07,2.17635759867832e-09,-1.69817768199294e-07,-5.87258659296286e-08,-5.87258659297385e-08,-1.94329603406138e-07,1.94329603405841e-07,4.79682487086692e-07,0,0,0,3.17440000000011,102,963.470588235294,541.810294117647,2182.65196078431,973.810784313726,953.130392156863,539.332352941177,544.288235294118,2246.83333333333,2118.47058823529,0
1659.6992,-7.49928008492929e-08,-3.63625323637114e-08,-1.11355333213295e-07,4.26745066233506e-07,-2.49776009535762e-09,-2.49776009569694e-09,-4.88090474918809e-08,-2.19061576000799e-07,-2.67870623492658e-07,-1.15133261625376e-07,-9.54322183967437e-09,-1.15133261625618e-07,-3.82256141461743e-09,2.2069231465573e-08,1.82466700511018e-08,-1.62440934361419e-07,,-1.02807235121554e-08,-2.20498087275366e-07,-1.17585796493049e-07,-2.2049808727519e-07,-1.2418902236411e-07,-5.05985076291015e-09,-1.29248873127098e-07,1.87337568673629e-07,2.32419921212199e-08,,1.58320392476608e-07,-1.58320392476764e-07,1.4219786246375e-07,-3.37419717633408e-07,8.58557093279015e-08,-2.51564008306115e-07,8.15173406457877e-08,3.07586218248258e-08,1.12275962470708e-07,-7.63701787447659e-08,5.93676865959454e-08,5.9367686595976e-08,7.70467649273246e-08,3.10837145512965e-07,3.87883910440355e-07,2.61285497062554e-07,-2.58230756308182e-07,3.05474075426749e-09,-1.73008893127661e-07,-6.66423747686301e-08,-6.664237476874e-08,-1.94543570135002e-07,1.94543570134716e-07,4.75657602741141e-07,0,0,0,3.27680000000009,103,965.021844660194,538.78640776699,2141.84951456311,974.335922330097,955.707766990291,540.731067961165,536.841747572816,2206.01941747573,2077.67961165049,0
1659.8016,-8.60475872212976e-08,-4.03653981747415e-08,-1.2641298539633e-07,4.15771831755623e-07,-3.25256619992021e-09,-3.2525662002591e-09,-5.7224287897507e-08,-2.16366424127692e-07,-2.73590712025175e-07,-1.17618554438308e-07,-1.44979991169889e-08,-1.1761855443855e-07,-3.85595468872151e-09,2.20376461727801e-08,1.8181691484204e-08,-1.55489472014035e-07,,-3.3299248526154e-10,-2.18401733165162e-07,-1.10282031842887e-07,-2.18401733164983e-07,-1.30379371406375e-07,3.4876090401441e-09,-1.26891762366309e-07,1.81368523246004e-07,2.15450905799599e-08,,1.62137808533867e-07,-1.62137808534024e-07,1.23228038040324e-07,-3.46210142758305e-07,9.08304814920422e-08,-2.55379661266877e-07,8.42210518780427e-08,3.2936434431404e-08,1.17157486309542e-07,-7.67780244808628e-08,6.46781094161055e-08,6.4678109416137e-08,6.08956330141901e-08,3.27573783369167e-07,3.88469416383423e-07,2.71193678044268e-07,-2.69403104371318e-07,1.79057367284429e-09,-1.75683024767571e-07,-7.5035380480749e-08,-7.50353804808593e-08,-1.93549484341011e-07,1.93549484340735e-07,4.71011914990046e-07,0,0,0,3.37920000000008,102,965.494117647059,537.470588235294,2121.99019607843,979.036274509804,951.951960784314,542.745098039216,532.196078431373,2181.59803921569,2062.38235294118,0
1659.904,-9.61281587890281e-08,-4.41058484250277e-08,-1.40234007214348e-07,4.04761650257796e-07,-3.98533537652073e-09,-3.98533537685951e-09,-6.56929681684938e-08,-2.1364854480608e-07,-2.79341512974549e-07,-1.2111787230898e-07,-1.88082545262115e-08,-1.21117872309223e-07,-3.88307337946442e-09,2.19262532016141e-08,1.80431798222946e-08,-1.48481897085839e-07,,9.510208600575e-09,-2.16900101250745e-07,-1.01008537296243e-07,-2.16900101250562e-07,-1.35189479445808e-07,1.10032369409274e-08,-1.24186242504959e-07,1.75606377365656e-07,1.95924395559089e-08,,1.65688728114041e-07,-1.65688728114198e-07,1.04777912078155e-07,-3.56129152039588e-07,9.62247087566751e-08,-2.59904443283534e-07,8.69483638206429e-08,3.50834226103845e-08,1.22031786431124e-07,-7.70128213651814e-08,7.00397169057328e-08,7.00397169057653e-08,4.44849859119402e-08,3.46823729067193e-07,3.91308714979197e-07,2.77529062718385e-07,-2.78922564045331e-07,-1.39350132705248e-09,-1.77789116243201e-07,-8.35610505754747e-08,-8.35610505755853e-08,-1.91910162600859e-07,1.91910162600591e-07,4.6551066758019e-07,0,0,0,3.48160000000007,103,967.449029126214,540.380582524272,2130.9854368932,977.949514563107,956.94854368932,543.845631067961,536.915533980583,2186.01941747573,2075.95145631068,0
1660.0064,-1.05162125233453e-07,-4.75149426974509e-08,-1.52677067931197e-07,3.93892282591912e-07,-4.75554420560493e-09,-4.75554420594381e-09,-7.38975358423344e-08,-2.10937761834356e-07,-2.84835297676663e-07,-1.25011292378293e-07,-2.23361347163938e-08,-1.25011292378537e-07,-3.93284976906067e-09,2.16991588523345e-08,1.77663090834188e-08,-1.4136111980425e-07,,1.87705139327544e-08,-2.16103885300931e-07,-9.05312007674644e-08,-2.16103885300744e-07,-1.38146775985537e-07,1.71226454338285e-08,-1.21024130551788e-07,1.70150519652287e-07,1.73600769078164e-08,,1.68850283010023e-07,-1.6885028301018e-07,8.77186755421665e-08,-3.6692622601162e-07,1.01606627923317e-07,-2.65319598088929e-07,8.95590841696945e-08,3.73341401709513e-08,1.26893224340743e-07,-7.70309341363289e-08,7.5426887021839e-08,7.54268870218724e-08,2.88742617654297e-08,3.67686326165533e-07,3.96560587931027e-07,2.80105098786011e-07,-2.86275249802575e-07,-6.17015101667226e-09,-1.79197633017619e-07,-9.18205521728413e-08,-9.18205521729526e-08,-1.90308366064662e-07,1.90308366064402e-07,4.58777445688161e-07,0,0,0,3.58400000000006,102,965.679411764706,537.497058823529,2152.02450980392,978.189215686275,953.169607843137,544.249019607843,530.745098039216,2202.49019607843,2101.55882352941,0
1660.1088,-1.13086755223013e-07,-5.05580870940992e-08,-1.63644842317406e-07,3.83385080596901e-07,-5.63457581504454e-09,-5.63457581538357e-09,-8.15402762512377e-08,-2.08283767864004e-07,-2.89824044115214e-07,-1.28587770993757e-07,-2.501021918681e-08,-1.28587770994003e-07,-4.05402830174846e-09,2.13325749856694e-08,1.7278546684066e-08,-1.34167161168131e-07,,2.69408154235408e-08,-2.16127323150934e-07,-7.97231370138816e-08,-2.16127323150743e-07,-1.3896611481536e-07,2.16338142164798e-08,-1.1733230059896e-07,1.65202075405906e-07,1.48461957185029e-08,,1.71510668339363e-07,-1.7151066833952e-07,7.2800809127705e-08,-3.78141691538711e-07,1.06593151468097e-07,-2.71548540071244e-07,9.18768448576696e-08,3.97647756504284e-08,1.31641620508196e-07,-7.6814411017476e-08,8.07555917749709e-08,8.07555917750054e-08,1.49208697148349e-08,3.89316336617547e-07,4.04237206332444e-07,2.78954367687194e-07,-2.9108516624804e-07,-1.21307985609545e-08,-1.79793982061839e-07,-9.9369180633324e-08,-9.93691806334357e-08,-1.89328644173011e-07,1.8932864417276e-07,4.50407017574772e-07,0,0,0,3.68640000000005,102,965.078921568628,536.804411764706,2178.85294117647,975.274509803921,954.883333333333,544.170588235294,529.438235294118,2226.58823529412,2131.11764705882,0
1660.2112,-1.19806834352757e-07,-5.32275261072866e-08,-1.73034360460338e-07,3.73481734971136e-07,-6.68101222854308e-09,-6.6810122288823e-09,-8.84083978235837e-08,-2.05693256521811e-07,-2.94101654345365e-07,-1.31153143348927e-07,-2.68662631548583e-08,-1.31153143349173e-07,-4.2949876699839e-09,2.08316962145405e-08,1.65367085447017e-08,-1.27046510107813e-07,,3.35575553107594e-08,-2.17112439107458e-07,-6.94948512553209e-08,-2.17112439107265e-07,-1.37646455168471e-07,2.45158060034918e-08,-1.1313064916506e-07,1.6103192761063e-07,1.20881865129493e-08,,1.73619612117861e-07,-1.73619612118018e-07,6.05424456979094e-08,-3.89131788986148e-07,1.10915748613418e-07,-2.78216040373364e-07,9.37048917758329e-08,4.23648052402798e-08,1.36069697016211e-07,-7.64211920156505e-08,8.58990388063447e-08,8.58990388063803e-08,3.18231915052869e-09,4.10924369094585e-07,4.14106688245175e-07,2.74442769791021e-07,-2.93248567342257e-07,-1.88057975513456e-08,-1.79594978846211e-07,-1.05764547821918e-07,-1.05764547822031e-07,-1.89281479834878e-07,1.89281479834634e-07,4.40141863393004e-07,0,1,0,3.78880000000004,103,964.927184466019,540.5,2197.52912621359,973.64854368932,956.205825242719,547.197087378641,533.802912621359,2245.15533980583,2149.90291262136,0
1660.3136,-1.25197300259089e-07,-5.55318549048504e-08,-1.80729155164232e-07,3.64378876115145e-07,-7.91654816205712e-09,-7.91654816239591e-09,-9.44151827504821e-08,-2.03073618561567e-07,-2.97488801312018e-07,-1.32134744212805e-07,-2.80649992820576e-08,-1.3213474421305e-07,-4.66821175443086e-09,2.02358143778954e-08,1.55676026236096e-08,-1.20189777688554e-07,,3.82917899220087e-08,-2.19201994729262e-07,-6.07094589241514e-08,-2.19201994729067e-07,-1.34497074925678e-07,2.59413915605138e-08,-1.08555683365245e-07,1.5787253948927e-07,9.16792800354704e-09,,1.75213885451071e-07,-1.75213885451227e-07,5.11633643502904e-08,-3.99153255729503e-07,1.1444389625019e-07,-2.8470935947995e-07,9.48520654546613e-08,4.50468568442401e-08,1.39898922299e-07,-7.60084347181821e-08,9.07272288310425e-08,9.0727228831079e-08,-6.05632120772923e-09,4.31681401263588e-07,4.25625080055918e-07,2.67367389583276e-07,-2.930424175894e-07,-2.56750280062337e-08,-1.78840479156636e-07,-1.10638918350745e-07,-1.10638918350858e-07,-1.90156622964101e-07,1.90156622963863e-07,4.28043496885079e-07,0,1,0,3.89120000000003,102,964.941666666667,539.361274509804,2212.73529411765,972.499019607843,957.38431372549,549.590196078431,529.132352941176,2261.37254901961,2164.09803921569,0
1660.416,-1.29160045989192e-07,-5.74868393998021e-08,-1.86646885389286e-07,3.5613930684966e-07,-9.31215099849355e-09,-9.31215099883145e-09,-9.95958300050771e-08,-2.00213513200472e-07,-2.99809343205517e-07,-1.3115522601006e-07,-2.88695374929214e-08,-1.31155226010304e-07,-5.10856740829483e-09,1.96078854757339e-08,1.44993180675835e-08,-1.13732262146637e-07,,4.10310118277695e-08,-2.22463502892555e-07,-5.40836541765499e-08,-2.22463502892359e-07,-1.30085423026648e-07,2.62440917072748e-08,-1.03841331319455e-07,1.55762111231612e-07,6.20009680755916e-09,,1.76408942262394e-07,-1.7640894226255e-07,4.45865682241244e-08,-4.07496002037989e-07,1.17158779874773e-07,-2.90337222163854e-07,9.51631771706936e-08,4.76891358058698e-08,1.42852312976662e-07,-7.58105543417256e-08,9.51518078932578e-08,9.51518078932947e-08,-1.26483556953206e-08,4.50585850122714e-07,4.37937494427451e-07,2.58972067927404e-07,-2.91148163325755e-07,-3.21760953984611e-08,-1.77999171314831e-07,-1.13767140147545e-07,-1.13767140147659e-07,-1.917262026092e-07,1.91726202608968e-07,4.14601778858411e-07,0,1,0,3.99360000000002,103,962.608252427184,540.558737864078,2227.05339805825,969.140776699029,956.07572815534,546.347572815534,534.769902912621,2274.73786407767,2179.36893203883,0
1660.5184,-1.31713160585059e-07,-5.91110782549668e-08,-1.90824238840316e-07,3.48614267955188e-07,-1.07917162044854e-08,-1.07917162048212e-08,-1.04047357280418e-07,-1.96821015528077e-07,-3.00868372808463e-07,-1.28069883871443e-07,-2.95824923020469e-08,-1.28069883871684e-07,-5.45100219848747e-09,1.90102717379173e-08,1.35592695395729e-08,-1.07673280197578e-07,,4.19188740662599e-08,-2.26806342202459e-07,-5.00885816604273e-08,-2.26806342202262e-07,-1.25121066210978e-07,2.58537809569793e-08,-9.92672852540821e-08,1.54420546687141e-07,3.30364884758128e-09,,1.77369186969403e-07,-1.77369186969557e-07,4.05179767653433e-08,-4.13632340372675e-07,1.19089075011083e-07,-2.94543265362229e-07,9.45495570254842e-08,5.01845632081231e-08,1.44734120233705e-07,-7.60783470169899e-08,9.9152357928112e-08,9.91523579281497e-08,-1.64375724461296e-08,4.6638230302694e-07,4.49944730580867e-07,2.50817518450568e-07,-2.88553077729542e-07,-3.77355592790844e-08,-1.77663607721325e-07,-1.15097847188264e-07,-1.15097847188378e-07,-1.93725376566989e-07,1.93725376566763e-07,4.00747447119244e-07,0,0,0,4.096,102,963.53137254902,536.042156862745,2237.78431372549,969.033333333333,958.029411764706,542.564705882353,529.519607843137,2287.16666666667,2188.40196078431,0
1660.6208,-1.33061890034416e-07,-6.04286762549222e-08,-1.93490566289625e-07,3.41418812743971e-07,-1.22552753299661e-08,-1.22552753302991e-08,-1.07834532284425e-07,-1.92603886709336e-07,-3.00438418993726e-07,-1.22955244995523e-07,-3.04664736993697e-08,-1.2295524499576e-07,-5.44483167805877e-09,1.84744775939037e-08,1.30296459159858e-08,-1.0186066941789e-07,,4.13247989222736e-08,-2.31941810986531e-07,-4.88741312444764e-08,-2.31941810986335e-07,-1.20318340737897e-07,2.52128820277088e-08,-9.51054587102728e-08,1.53238275004137e-07,5.62887624442195e-10,,1.7827414939984e-07,-1.78274149399995e-07,3.85930824097131e-08,-4.17331314101579e-07,1.20234221984597e-07,-2.97097092117618e-07,9.30104412550203e-08,5.24684473591487e-08,1.45478888614266e-07,-7.70078485558052e-08,1.02769627682954e-07,1.02769627682993e-07,-1.72010550788505e-08,4.77607974349548e-07,4.60406919270752e-07,2.44499160532254e-07,-2.86336337414147e-07,-4.18371768820027e-08,-1.78368911716088e-07,-1.14724146924774e-07,-1.14724146924888e-07,-1.96007126028691e-07,1.96007126028469e-07,3.87757628692729e-07,0,0,0,4.19839999999999,102,963.475,533.736764705882,2244.66666666667,970.795098039216,956.154901960784,538.625490196078,528.848039215686,2295.09803921569,2194.23529411765,0
1660.7232,-1.336092955973e-07,-6.14766668611782e-08,-1.95085962458761e-07,3.33984620768318e-07,-1.36135515817988e-08,-1.36135515821282e-08,-1.10914430729033e-07,-1.87345873804024e-07,-2.98260304533022e-07,-1.16033224278878e-07,-3.16779866148882e-08,-1.16033224279109e-07,-4.79827142593173e-09,1.79785805854617e-08,1.3180309159668e-08,-9.60547501879732e-08,,3.97404003743689e-08,-2.37406432553747e-07,-5.02453738897117e-08,-2.37406432553552e-07,-1.1628285155987e-07,2.46918163934224e-08,-9.15910351665347e-08,1.51394375311769e-07,-2.00713112041634e-09,,1.79284855133733e-07,-1.79284855133888e-07,3.85421100703014e-08,-4.18690743111662e-07,1.20505946859851e-07,-2.98184796252444e-07,9.06333212182363e-08,5.45152155558828e-08,1.45148536774214e-07,-7.86882955305266e-08,1.0607173821963e-07,1.0607173821967e-07,-1.47319232780445e-08,4.82779194349006e-07,4.68047271071014e-07,2.41306337133177e-07,-2.85410013720588e-07,-4.41036765875214e-08,-1.80412056229695e-07,-1.1279997112833e-07,-1.12799971128444e-07,-1.98608743275771e-07,1.98608743275553e-07,3.77083330290874e-07,0,0,0,4.30079999999998,103,966.056310679612,540.472815533981,2243.63106796117,974.359223300971,957.753398058252,545.58932038835,535.356310679612,2293.43689320388,2193.82524271845,0
1660.8256,-1.33898768481294e-07,-6.23095787060946e-08,-1.96208347187667e-07,3.25678931292622e-07,-1.4816930264375e-08,-1.48169302647008e-08,-1.13128511005514e-07,-1.80939913084968e-07,-2.94068424090445e-07,-1.07557643905441e-07,-3.32330674765365e-08,-1.07557643905667e-07,-3.23663433529824e-09,1.74451060514686e-08,1.42084717163051e-08,-9.00457695827815e-08,,3.76372845760075e-08,-2.42640605615531e-07,-5.3713840806535e-08,-2.42640605615338e-07,-1.13447795252112e-07,2.45302661097116e-08,-8.8917529142489e-08,1.48057532484002e-07,-4.47256195022467e-09,,1.80510204290338e-07,-1.80510204290493e-07,4.03084981572945e-08,-4.18087262640627e-07,1.19715081084523e-07,-2.98372181556734e-07,8.7574200924719e-08,5.63141730766492e-08,1.43888374001461e-07,-8.10801850809352e-08,1.09113611753211e-07,1.09113611753251e-07,-9.01966785312354e-09,4.80661640052912e-07,4.71641972199841e-07,2.41960336684822e-07,-2.86316160338108e-07,-4.43558236533964e-08,-1.83745516739256e-07,-1.09443147265438e-07,-1.09443147265552e-07,-2.01724021250554e-07,2.01724021250338e-07,3.701481610248e-07,0,0,0,4.40319999999997,102,966.266176470588,538.461764705882,2214.11274509804,977.36568627451,955.166666666667,543.353921568628,533.569607843137,2270.03921568627,2158.1862745098,0
1660.928,-1.34505674862535e-07,-6.29949292255346e-08,-1.97500604088343e-07,3.15951602014441e-07,-1.58655708932919e-08,-1.58655708936141e-08,-1.14266849363783e-07,-1.73374595503441e-07,-2.87641444867186e-07,-9.77307201462938e-08,-3.501043399696e-08,-9.77307201465139e-08,-5.5940306621302e-10,1.67611078451216e-08,1.62017047790402e-08,-8.37702833729692e-08,,3.53419097997967e-08,-2.47102254152328e-07,-5.86172388068163e-08,-2.47102254152136e-07,-1.12066313784863e-07,2.48280391577703e-08,-8.72382746271836e-08,1.42603949610231e-07,-6.96215774040086e-09,,1.81984822613639e-07,-1.81984822613796e-07,4.40781418126252e-08,-4.16087472353507e-07,1.17612557959291e-07,-2.98474914394844e-07,8.40318339741106e-08,5.78393069693857e-08,1.41871140943587e-07,-8.40207043717483e-08,1.11906751586746e-07,1.11906751586785e-07,-4.14137521086914e-10,4.7052740826238e-07,4.70113270741346e-07,2.4650807393902e-07,-2.89142714244512e-07,-4.26346403056031e-08,-1.87975990247087e-07,-1.04672070401076e-07,-1.0467207040119e-07,-2.05603884157049e-07,2.05603884156836e-07,3.68162101792376e-07,0,0,0,4.50560000000019,103,966.540776699029,536.268446601942,2180.59223300971,980.646601941748,952.434951456311,540.987378640777,531.549514563107,2239.10679611651,2122.07766990291,0
1661.0304,-1.35906449082157e-07,-6.36014186687149e-08,-1.9950786775114e-07,3.04467537978671e-07,-1.68006931098554e-08,-1.68006931101748e-08,-1.14161515463307e-07,-1.64699740652551e-07,-2.78861256115819e-07,-8.66941130909158e-08,-3.67890305947627e-08,-8.66941130911305e-08,3.31962481915409e-09,1.58105480771985e-08,1.91301728964816e-08,-7.73735060985738e-08,,3.29718724045879e-08,-2.50384323517737e-07,-6.42595677568378e-08,-2.50384323517546e-07,-1.12251291855491e-07,2.55852301222887e-08,-8.66660617332951e-08,1.34788672068371e-07,-9.62780499562632e-09,,1.83670498151017e-07,-1.83670498151174e-07,5.02127385825771e-08,-4.13353432922075e-07,1.13966624536599e-07,-2.99386808386103e-07,8.02255076078092e-08,5.90243334621886e-08,1.39249841070087e-07,-8.72547328541628e-08,1.14404887059762e-07,1.14404887059801e-07,1.03235478584352e-08,4.52314842427453e-07,4.62638390285941e-07,2.54362726207115e-07,-2.93555719273209e-07,-3.91929930662057e-08,-1.92459554228881e-07,-9.84010989461126e-08,-9.84010989462266e-08,-2.10418470462242e-07,2.10418470462033e-07,3.71983932964374e-07,0,0,0,4.60800000000018,102,968.252450980392,540.155392156863,2167.38235294118,983.030392156863,953.474509803922,549.248039215686,531.062745098039,2223.42156862745,2111.3431372549,0
1661.1328,-1.38359078598589e-07,-6.4186699587951e-08,-2.02545778186803e-07,2.91193716187708e-07,-1.76866950064507e-08,-1.76866950067679e-08,-1.12754832702617e-07,-1.55001701316739e-07,-2.67756534019315e-07,-7.45771717985332e-08,-3.83089811796059e-08,-7.45771717987434e-08,8.3650342040037e-09,1.45063743046807e-08,2.28714085088118e-08,-7.11910363680818e-08,,3.04485471112521e-08,-2.5229902649123e-07,-7.00141871035179e-08,-2.52299026491038e-07,-1.1404050900643e-07,2.67633176275693e-08,-8.72771913789545e-08,1.24818050503423e-07,-1.26021577961302e-08,,1.85476659489577e-07,-1.85476659489735e-07,5.91093150908142e-08,-4.10547465660247e-07,1.08643898214102e-07,-3.01903567446772e-07,7.63749039874205e-08,5.97519647331466e-08,1.36126868720654e-07,-9.0489230630717e-08,1.16505364994603e-07,1.16505364994643e-07,2.2098891625639e-08,4.26669067760986e-07,4.4876795938668e-07,2.64449129673185e-07,-2.9891171064663e-07,-3.44625809735581e-08,-1.96469877755258e-07,-9.04936722463293e-08,-9.0493672246443e-08,-2.16130486281049e-07,2.16130486280844e-07,3.82043738927601e-07,0,0,0,4.71040000000016,102,968.860294117647,545.859803921569,2175.61764705882,985.58431372549,952.136274509804,566.776470588235,524.943137254902,2228.73529411765,2122.5,0
1661.2352,-1.41828827296804e-07,-6.47889921485713e-08,-2.06617819445632e-07,2.76425383113694e-07,-1.85931594481004e-08,-1.8593159448416e-08,-1.10113644201362e-07,-1.44402359418865e-07,-2.54516003620186e-07,-6.15466368184922e-08,-3.93406430052138e-08,-6.1546636818699e-08,1.44485690353013e-08,1.28133592252192e-08,2.72619282606476e-08,-6.56584563909686e-08,,2.75730412776322e-08,-2.52902237467607e-07,-7.53716402890731e-08,-2.52902237467415e-07,-1.17450334889247e-07,2.83283106006299e-08,-8.91220242887122e-08,1.13300458225135e-07,-1.59665879535806e-08,,1.87286605105358e-07,-1.87286605105516e-07,7.10347416887754e-08,-4.08239452925421e-07,1.01667734147799e-07,-3.06571718778248e-07,7.26786774602142e-08,5.98666009659771e-08,1.32545278426277e-07,-9.34579600827373e-08,1.18068411970841e-07,1.18068411970881e-07,3.36481756451752e-08,3.94886729459658e-07,4.2853490510489e-07,2.7542302239437e-07,-3.04416310783569e-07,-2.8993288389314e-08,-1.99401967264017e-07,-8.08503126179839e-08,-8.08503126180974e-08,-2.22440167690642e-07,2.2244016769044e-07,3.98311778330507e-07,0,0,0,4.81280000000015,103,968.268932038835,536.346601941748,2188.6067961165,985.795145631068,950.742718446602,548.499029126214,524.194174757282,2241.42718446602,2135.78640776699,0
1661.3376,-1.45985876712942e-07,-6.54220243144733e-08,-2.11407901027667e-07,2.60743522680653e-07,-1.9580297299356e-08,-1.95802972996709e-08,-1.06399207398972e-07,-1.33071756484724e-07,-2.39470963883655e-07,-4.78178108574418e-08,-3.97433993437891e-08,-4.78178108576464e-08,2.13966724668848e-08,1.07560965008631e-08,3.21527689678759e-08,-6.11881589638252e-08,,2.41348535309425e-08,-2.52451830583841e-07,-7.99491738817488e-08,-2.52451830583648e-07,-1.22480535388257e-07,3.025140541664e-08,-9.22291299717142e-08,1.01093370841189e-07,-1.9735893110587e-08,,1.88980127725255e-07,-1.88980127725414e-07,8.59980385993305e-08,-4.06835696225726e-07,9.32387054058786e-08,-3.13596990820474e-07,6.9294632116858e-08,5.92149686874323e-08,1.28509600804375e-07,-9.59736499577961e-08,1.18956540039037e-07,1.18956540039076e-07,4.37357915152793e-08,3.58786620192502e-07,4.0252241170784e-07,2.85943223606908e-07,-3.09309016080762e-07,-2.33657924739698e-08,-2.00950470792239e-07,-6.94984879012766e-08,-6.949848790139e-08,-2.28839452722079e-07,2.28839452721881e-07,4.20296136271045e-07,0,1,0,4.91520000000014,102,971.389705882353,531.657843137255,2205.69117647059,985.130392156863,957.649019607843,542.016666666667,521.299019607843,2258.43137254902,2152.95098039216,0
1661.44,-1.50286727223733e-07,-6.60726150686503e-08,-2.1635934229263e-07,2.44902509008463e-07,-2.06884943966884e-08,-2.06884943970035e-08,-1.01822695808607e-07,-1.21238251173671e-07,-2.23060946982237e-07,-3.3640152087435e-08,-3.94931197095285e-08,-3.36401520876387e-08,2.90237890481179e-08,8.41007465915785e-09,3.74338637074062e-08,-5.80665579094138e-08,,2.00149149153977e-08,-2.51316673233971e-07,-8.34757983973814e-08,-2.51316673233777e-07,-1.2906499445802e-07,3.24763534390879e-08,-9.65886410190299e-08,8.91028724296762e-08,-2.38620144318691e-08,,1.90446088767908e-07,-1.90446088768068e-07,1.03698288161939e-07,-4.06548093841373e-07,8.37102143349301e-08,-3.2283787950707e-07,6.63302121276729e-08,5.77049945125347e-08,1.24035206640291e-07,-9.79486523924363e-08,1.1908607815793e-07,1.19086078157968e-07,5.133076963837e-08,3.20536329083553e-07,3.71867098721985e-07,2.94944873728066e-07,-3.13046148504906e-07,-1.81012747769577e-08,-2.01192483140599e-07,-5.66569200324921e-08,-5.66569200326052e-08,-2.34752497763383e-07,2.34752497763189e-07,4.47057752555867e-07,0,1,0,5.01760000000013,103,968.207766990291,538.079611650485,2220.9854368932,983.050485436893,953.365048543689,551.75145631068,524.407766990291,2274.16504854369,2167.80582524272,0
1661.5424,-1.54124479706519e-07,-6.67033121477249e-08,-2.20827791854486e-07,2.29669497428803e-07,-2.19331031845363e-08,-2.19331031848522e-08,-9.66072190952246e-08,-1.09191649896244e-07,-2.05798868991429e-07,-1.92956309111754e-08,-3.86659415735324e-08,-1.92956309113788e-08,3.71209180110894e-08,5.8801587419352e-09,4.30010767531588e-08,-5.64138942129674e-08,,1.52442534569855e-08,-2.49874856184822e-07,-8.57638896851084e-08,-2.49874856184625e-07,-1.37005599469246e-07,3.48878866930735e-08,-1.02117712776272e-07,7.81123985499665e-08,-2.82528073299676e-08,,1.91581989899258e-07,-1.91581989899419e-07,1.23539992762337e-07,-4.07394822248968e-07,7.3524552615309e-08,-3.33870269634287e-07,6.38481457801489e-08,5.53577227917121e-08,1.19205868571943e-07,-9.93815859048464e-08,1.18468526108105e-07,1.18468526108142e-07,5.57032276565771e-08,2.82493074734248e-07,3.38196302390891e-07,3.01815899133689e-07,-3.15422920217083e-07,-1.3607021083513e-08,-2.00534148789824e-07,-4.2755133667672e-08,-4.27551336677848e-08,-2.39679185811683e-07,2.39679185811493e-07,4.7723773816483e-07,0,1,0,5.12000000000012,102,965.627941176471,525.419607843137,2227.44607843137,979.270588235294,951.985294117647,536.533333333333,514.305882352941,2278.37254901961,2176.51960784314,0
1661.6448,-1.56999433218107e-07,-6.72624951489068e-08,-2.24261928367251e-07,2.15664475554066e-07,-2.33058424324079e-08,-2.33058424327247e-08,-9.09693138077096e-08,-9.72723921444089e-08,-1.8824170595208e-07,-5.10867953265217e-09,-3.73875311266549e-08,-5.10867953285626e-09,4.54032679972199e-08,3.27593967213462e-09,4.86792076694937e-08,-5.6208722284e-08,,9.99763127045738e-09,-2.48443434685859e-07,-8.66871116702968e-08,-2.4844343468566e-07,-1.45937217411515e-07,3.73083131304292e-08,-1.08628904281185e-07,6.86971222195524e-08,-3.27961201391924e-08,,1.92285873927673e-07,-1.92285873927834e-07,1.4469238729641e-07,-4.09206972325899e-07,6.31320105557053e-08,-3.46074961770824e-07,6.18794925363827e-08,5.23252246263352e-08,1.14204717162799e-07,-1.00322024780501e-07,1.17218918550836e-07,1.17218918550872e-07,5.64152090898541e-08,2.47083869987813e-07,3.03499079077737e-07,3.06407789358652e-07,-3.16585324430829e-07,-1.01775350722979e-08,-1.99545758002084e-07,-2.83979587972956e-08,-2.83979587974082e-08,-2.43269041743821e-07,2.43269041743634e-07,5.09108327340388e-07,0,0,0,5.22240000000011,102,964.183823529412,539.552941176471,2229.87745098039,979.730392156863,948.637254901961,556.320588235294,522.785294117647,2275.42156862745,2184.33333333333,0
1661.7472,-1.58645841172244e-07,-6.76997654573075e-08,-2.26345606629785e-07,2.03249006867775e-07,-2.47819039737252e-08,-2.4781903974043e-08,-8.51332747357709e-08,-8.58346716246768e-08,-1.70967946360411e-07,8.56920410042068e-09,-3.57727301177032e-08,8.56920410021582e-09,5.34621749184611e-08,6.92526687762638e-10,5.41547016063686e-08,-5.73318397373515e-08,,4.54054058573847e-09,-2.47260092539754e-07,-8.61699458991143e-08,-2.47260092539552e-07,-1.55346481354405e-07,3.95252559003787e-08,-1.15821225454127e-07,6.12226111849979e-08,-3.73796410015388e-08,,1.92452295663158e-07,-1.9245229566332e-07,1.66183089170299e-07,-4.11640669755705e-07,5.29247377290296e-08,-3.58715932027307e-07,6.04317826480655e-08,4.88632036099095e-08,1.09294986258056e-07,-1.00827821223154e-07,1.15526363482268e-07,1.15526363482303e-07,5.32571041441663e-08,2.16669050988311e-07,2.69926155132551e-07,3.08907539573194e-07,-3.16940613337189e-07,-8.03307376411769e-09,-1.98767149050304e-07,-1.42868627757637e-08,-1.42868627758764e-08,-2.45331449474812e-07,2.45331449474629e-07,5.40669213672557e-07,0,0,0,5.3248000000001,103,964.923300970874,539.444174757282,2231.78640776699,982.620388349515,947.226213592233,555.17572815534,523.712621359223,2277.16504854369,2186.40776699029,0
1661.8496,-1.59072158487249e-07,-6.79803679260563e-08,-2.27052526413536e-07,1.92483392325535e-07,-2.63283137316601e-08,-2.63283137319788e-08,-7.93699298355589e-08,-7.519668178628e-08,-1.54566611621803e-07,2.14056890038297e-08,-3.3879782857825e-08,2.14056890036242e-08,6.07664460215085e-08,-1.79867098454452e-09,5.89677750371151e-08,-5.95796599015546e-08,,-8.27766092215707e-10,-2.46510058960734e-07,-8.41744887450517e-08,-2.46510058960529e-07,-1.64634760313951e-07,4.13360761551597e-08,-1.23298684158893e-07,5.58829387099584e-08,-4.1900340483544e-08,,1.9198162886645e-07,-1.91981628866613e-07,1.87011218984687e-07,-4.14216440304496e-07,4.3206942863643e-08,-3.71009497441486e-07,5.9489361527068e-08,4.52686159663452e-08,1.04757977493494e-07,-1.00927351999171e-07,1.13601089472785e-07,1.13601089472819e-07,4.62161494030282e-08,1.93325933392949e-07,2.39542082796054e-07,3.09651048770499e-07,-3.17011069024619e-07,-7.36002025424591e-09,-1.98565439555178e-07,-1.13051135867611e-09,-1.13051135878885e-09,-2.45833641481161e-07,2.45833641480981e-07,5.69794763486988e-07,0,0,0,5.42720000000008,102,965.319607843137,543.645588235294,2229.13235294118,985.560784313726,945.078431372549,557.416666666667,529.874509803922,2273.42156862745,2184.8431372549,0
1661.952,-1.58514881739732e-07,-6.80935005062521e-08,-2.26608382246214e-07,1.83148699488415e-07,-2.79085021889478e-08,-2.79085021892675e-08,-7.40243376054964e-08,-6.56154092485003e-08,-1.39639746853961e-07,3.31305848191113e-08,-3.16939992922171e-08,3.31305848189055e-08,6.67212798179076e-08,-4.14794872325323e-09,6.25733310948118e-08,-6.2637990736901e-08,,-5.80763458342837e-09,-2.46376068928699e-07,-8.06826550196978e-08,-2.46376068928492e-07,-1.73201854277087e-07,4.25886919095825e-08,-1.30613162367607e-07,5.27373852229063e-08,-4.62611944490315e-08,,1.90799628973851e-07,-1.90799628974013e-07,2.06243107634578e-07,-4.16382652217843e-07,3.42009063820996e-08,-3.82181745836377e-07,5.90095691649564e-08,4.18063048286388e-08,1.00815873993676e-07,-1.00599573276531e-07,1.11618539411562e-07,1.11618539411595e-07,3.55132276293567e-08,1.78573713769449e-07,2.14086941398885e-07,3.08955477304585e-07,-3.17284694459344e-07,-8.32921715488777e-09,-1.99084387066194e-07,1.04279402201917e-08,1.04279402200788e-08,-2.44911369671455e-07,2.44911369671276e-07,5.94411774219906e-07,0,0,0,5.52960000000007,103,966.684951456311,542.333495145631,2226.47572815534,986.895145631068,946.474757281553,556.052427184466,528.614563106796,2271.11650485437,2181.83495145631,0
1662.0544,-1.57339272051862e-07,-6.80542182838281e-08,-2.25393490335918e-07,1.74818334055243e-07,-2.94816695321885e-08,-2.94816695325086e-08,-6.95095414104683e-08,-5.72980987958071e-08,-1.2680764020624e-07,4.3557438552598e-08,-2.91456990656325e-08,4.35574385523923e-08,7.07614819593533e-08,-6.31687358190991e-09,6.44446083776067e-08,-6.60434342249798e-08,,-1.01094468738056e-08,-2.47084348758126e-07,-7.56910710059106e-08,-2.47084348757917e-07,-1.80532390710858e-07,4.32035943243898e-08,-1.37328796386572e-07,5.17318320427529e-08,-5.03589302846869e-08,,1.88874978902018e-07,-1.88874978902181e-07,2.23064368597417e-07,-4.17572058022974e-07,2.60729613211319e-08,-3.91499096702476e-07,5.89151100491268e-08,3.86499218920673e-08,9.75650319412745e-08,-9.97803778820163e-08,1.09677995573731e-07,1.09677995573763e-07,2.1675253600372e-08,1.73122317562517e-07,1.94797571162971e-07,3.07037951355267e-07,-3.18122063762798e-07,-1.10841124076623e-08,-2.00285518080513e-07,1.98579415286217e-08,1.98579415285083e-08,-2.42881585311308e-07,2.4288158531113e-07,6.12681739540339e-07,0,0,0,5.63200000000006,102,969.425,532.582352941177,2219.81862745098,986.525490196078,952.324509803922,540.983333333333,524.18137254902,2264.92156862745,2174.71568627451,0
1662.1568,-1.55932160861112e-07,-6.79019250283051e-08,-2.23834085889645e-07,1.66951505549415e-07,-3.09985618157435e-08,-3.09985618160638e-08,-6.62751752397059e-08,-5.04207842082316e-08,-1.16695959447902e-07,5.25972779983928e-08,-2.61558079892421e-08,5.25972779981879e-08,7.24463760260232e-08,-8.26694903020673e-09,6.41794269959851e-08,-6.9163886298372e-08,,-1.34546618922384e-08,-2.48922635916367e-07,-6.92281830977126e-08,-2.48922635916156e-07,-1.86269037599538e-07,4.31706472172492e-08,-1.43098390382393e-07,5.27058575864618e-08,-5.40722044236329e-08,,1.86229745010401e-07,-1.86229745010564e-07,2.36801980405639e-07,-4.17233234792217e-07,1.89621864807742e-08,-3.98271048312077e-07,5.90825294681734e-08,3.58540523491679e-08,9.49365818174219e-08,-9.83905868874927e-08,1.07787305641902e-07,1.07787305641933e-07,5.59102879138046e-09,1.76708608607024e-07,1.82299637398487e-07,3.04048137940725e-07,-3.197491967227e-07,-1.57010587821094e-08,-2.02051356068837e-07,2.67657122105826e-08,2.67657122104684e-08,-2.4024287342808e-07,2.40242873427904e-07,6.23177172351942e-07,0,0,0,5.73440000000005,102,970.223039215686,532.959803921569,2218.29901960784,985.187254901961,955.258823529412,540.800980392157,525.11862745098,2263.96078431373,2172.63725490196,0
1662.2592,-1.54626474001593e-07,-6.76976307227724e-08,-2.22324104724592e-07,1.58976481594383e-07,-3.23961406667415e-08,-3.23961406670612e-08,-6.47593836181631e-08,-4.51313701052725e-08,-1.098907537234e-07,6.02735840975753e-08,-2.26888086249889e-08,6.02735840973721e-08,7.15285176474186e-08,-9.95622942900637e-09,6.15722882185855e-08,-7.12153621079886e-08,,-1.55805434744006e-08,-2.52216664670637e-07,-6.13773926189219e-08,-2.52216664670424e-07,-1.90247870431185e-07,4.25203436188547e-08,-1.47727526812436e-07,5.53861348870148e-08,-5.72601553856602e-08,,1.82948194278315e-07,-1.82948194278478e-07,2.46945179062336e-07,-4.14840686222882e-07,1.29994665198743e-08,-4.01841219703643e-07,5.93322993980264e-08,3.33620625510141e-08,9.26943619491216e-08,-9.63715734986864e-08,1.05875874645127e-07,1.05875874645158e-07,-1.14805960835226e-08,1.8804655295525e-07,1.7656595687181e-07,3.00168099537769e-07,-3.22306371312198e-07,-2.2138271774565e-08,-2.04288696391141e-07,3.09035094168126e-08,3.09035094166976e-08,-2.37657870591458e-07,2.37657870591283e-07,6.25043113110121e-07,0,0,0,5.83680000000004,103,968.281553398058,533.15145631068,2222.76699029126,982.340776699029,954.222330097087,543.831067961165,522.471844660194,2269.78640776699,2175.74757281553,0
1662.3616,-1.53675700540362e-07,-6.75202067906474e-08,-2.21195907331235e-07,1.50343842406755e-07,-3.35964053730131e-08,-3.35964053733319e-08,-6.53198087497834e-08,-4.15468750063793e-08,-1.06866683756126e-07,6.67248063257814e-08,-1.87866437015272e-08,6.67248063255808e-08,6.79800306961686e-08,-1.13488600334079e-08,5.66311706629374e-08,-7.13206224197508e-08,,-1.62576813609322e-08,-2.57268737351232e-07,-5.22731786259528e-08,-2.57268737351018e-07,-1.92480760667586e-07,4.12804550875845e-08,-1.51200305580108e-07,5.93726442897625e-08,-5.97780060113369e-08,,1.79185960070918e-07,-1.79185960071082e-07,2.53177100738584e-07,-4.09901489688355e-07,8.30870465434831e-09,-4.01592785034644e-07,5.94295740764047e-08,3.10415686674073e-08,9.04711427438937e-08,-9.37144604316583e-08,1.03826042746044e-07,1.03826042746075e-07,-2.79579268280302e-08,2.0491134728306e-07,1.76953420455111e-07,2.95698176046849e-07,-3.25900147089869e-07,-3.02019710431579e-08,-2.0696033268623e-07,3.21757566291963e-08,3.21757566290804e-08,-2.35909533168189e-07,2.35909533168016e-07,6.18109085669074e-07,0,0,0,5.93920000000003,102,970.383823529412,532.415196078431,2236.4362745098,980.725490196079,960.042156862745,543.721568627451,521.108823529412,2285.91176470588,2186.96078431373,0
1662.464,-1.53268332333708e-07,-6.7462345821809e-08,-2.20730678155743e-07,1.4055007919574e-07,-3.45163217189399e-08,-3.45163217192573e-08,-6.81601127115591e-08,-3.97487119742207e-08,-1.07908824685742e-07,7.21813572550284e-08,-1.45689867631179e-08,7.21813572548309e-08,6.19749335425672e-08,-1.24344816764073e-08,4.95404518663392e-08,-6.86080014396102e-08,,-1.53241480043002e-08,-2.64283046470318e-07,-4.20547458311464e-08,-2.64283046470103e-07,-1.93108070135487e-07,3.94436043269301e-08,-1.53664465808665e-07,6.41433882950246e-08,-6.1510443617571e-08,,1.75171246579927e-07,-1.7517124658009e-07,2.55413992148009e-07,-4.01991209582094e-07,4.98676799228582e-09,-3.97004441590446e-07,5.91019537767338e-08,2.8729492609846e-08,8.7831446386662e-08,-9.04710603128009e-08,1.01506715477543e-07,1.01506715477574e-07,-4.20360013404296e-08,2.24365473878584e-07,1.82329472538233e-07,2.91083709338353e-07,-3.30636456531883e-07,-3.95527471936695e-08,-2.10021882910046e-07,3.06495452686327e-08,3.06495452685157e-08,-2.35818030784203e-07,2.35818030784032e-07,6.02906272935254e-07,0,0,0,6.04160000000002,103,969.016019417476,534.116990291262,2248.95145631068,979.833980582524,958.198058252427,542.670873786408,525.563106796117,2301.68932038835,2196.21359223301,0
1662.5664,-1.53555940953919e-07,-6.76277516785746e-08,-2.21183692632718e-07,1.29150775315137e-07,-3.50888665154183e-08,-3.50888665157341e-08,-7.32907568154461e-08,-3.97609918875513e-08,-1.13051748702958e-07,7.69318566061533e-08,-1.02054835537381e-08,7.693185660596e-08,5.38415379063303e-08,-1.32456785022713e-08,4.05958594042399e-08,-6.23354658073466e-08,,-1.27320035404853e-08,-2.73313377263785e-07,-3.08064185272475e-08,-2.73313377263568e-07,-1.92366682986713e-07,3.69687534707935e-08,-1.5539792951603e-07,6.9104634716639e-08,-6.24129820769205e-08,,1.71187593722623e-07,-1.71187593722786e-07,2.53838709101433e-07,-3.90834848781595e-07,3.0691905883326e-09,-3.87765658193901e-07,5.80704921042547e-08,2.62686747384802e-08,8.43391668428175e-08,-8.67403024433558e-08,9.87990141658889e-08,9.8799014165921e-08,-5.18270356458197e-08,2.43089623980102e-07,1.91262588334359e-07,2.86889466698631e-07,-3.3663556881729e-07,-4.97461021188008e-08,-2.13314345215669e-07,2.65636455569177e-08,2.65636455567994e-08,-2.3812079864693e-07,2.38120798646763e-07,5.80580033934525e-07,0,1,0,6.14400000000001,102,969.196568627451,524.469607843137,2261.10294117647,979.862745098039,958.530392156863,529.596078431373,519.343137254902,2313.96078431373,2208.24509803922,0
1662.6688,-1.54669539989933e-07,-6.81280196324712e-08,-2.22797559622628e-07,1.1578960736436e-07,-3.52843750300196e-08,-3.52843750303337e-08,-8.05403916287133e-08,-4.15121282332118e-08,-1.22052519861884e-07,8.1307705488037e-08,-5.87544701936178e-09,8.1307705487848e-08,4.40103195275027e-08,-1.38602782582386e-08,3.01500412694458e-08,-5.20109944089142e-08,,-8.59263026309024e-09,-2.84253709475331e-07,-1.85388548980122e-08,-2.84253709475113e-07,-1.9059183826291e-07,3.38175749377928e-08,-1.56774263325229e-07,7.36784879179268e-08,-6.25420322599471e-08,,1.67538266263357e-07,-1.67538266263521e-07,2.48904091349933e-07,-3.76399627689683e-07,2.49947677323785e-09,-3.73900150917086e-07,5.60815121336436e-08,2.352960045423e-08,7.96111125879568e-08,-8.26356534701062e-08,9.56147210163031e-08,9.56147210163365e-08,-5.55182510118274e-08,2.57738013941028e-07,2.02219762929274e-07,2.83745178776315e-07,-3.44017620352242e-07,-6.02724415760693e-08,-2.16482725662627e-07,2.03232364462113e-08,2.03232364460914e-08,-2.43349758910588e-07,2.43349758910426e-07,5.52739615669425e-07,0,1,0,6.24639999999999,102,970.632843137255,536.072549019608,2267.33333333333,981.83137254902,959.43431372549,547.176470588235,524.968627450981,2321.91176470588,2212.75490196078,0
1662.7712,-1.56709970963524e-07,-6.90737987421685e-08,-2.25783769705916e-07,1.00253648616991e-07,-3.51193013344148e-08,-3.51193013347277e-08,-8.96006004491502e-08,-4.48030599304993e-08,-1.34403660379606e-07,8.56868424805507e-08,-1.72891420495964e-09,8.56868424803664e-08,3.29762676038807e-08,-1.4383960181367e-08,1.85923074226957e-08,-3.74791760694939e-08,,-3.20334311867726e-09,-2.96863315775423e-07,-5.24178975062788e-09,-2.96863315775203e-07,-1.88230669907661e-07,3.00058827799191e-08,-1.58224787127856e-07,7.73866731787915e-08,-6.20560717208676e-08,,1.64506897159808e-07,-1.64506897159971e-07,2.41284341727402e-07,-3.58948376232998e-07,3.11985110844605e-09,-3.55828525125195e-07,5.29322951049355e-08,2.04210850865596e-08,7.33533801915787e-08,-7.82487118422756e-08,9.19120839961175e-08,9.19120839961529e-08,-5.1530222922106e-08,2.65249352580264e-07,2.13719129658227e-07,2.82273737334943e-07,-3.52844340137243e-07,-7.05706028024429e-08,-2.18951340646938e-07,1.24737990827796e-08,1.24737990826579e-08,-2.51749726540519e-07,2.51749726540363e-07,5.21301089119652e-07,0,1,0,6.34879999999998,103,970.989805825243,540.641747572816,2268.3786407767,983.071844660194,958.907766990291,555.794174757282,525.48932038835,2318.50485436893,2218.25242718447,0
1662.8736,-1.59713554833349e-07,-7.0557307619286e-08,-2.30270862452858e-07,8.25381274580354e-08,-3.46487177846459e-08,-3.46487177849579e-08,-1.00081066641291e-07,-4.93013287750448e-08,-1.49382395416291e-07,9.04837659070812e-08,2.13993659829857e-09,9.04837659069012e-08,2.1274912560351e-08,-1.49201416788543e-08,6.3547708816789e-09,-1.89511706736154e-08,,2.9588572442054e-09,-3.1080376301285e-07,9.01492149248336e-09,-3.10803763012628e-07,-1.85833889171042e-07,2.56425816054186e-08,-1.60191307565739e-07,7.98976718352819e-08,-6.11850127278029e-08,,1.62331585129195e-07,-1.62331585129358e-07,2.31774534572811e-07,-3.39030791638164e-07,4.68950349865111e-09,-3.34341288140157e-07,4.8493888106561e-08,1.6893850427195e-08,6.538773853384e-08,-7.3624836736647e-08,8.77086073970388e-08,8.77086073970762e-08,-3.86770478226621e-08,2.63103866963036e-07,2.24426819140438e-07,2.83004722704235e-07,-3.63030882292604e-07,-8.00261595885129e-08,-2.19958888411259e-07,3.65646651473553e-09,3.65646651461195e-09,-2.63258002709642e-07,2.63258002709493e-07,4.88341806486449e-07,0,0,0,6.45119999999997,102,973.45931372549,538.821078431373,2270.60294117647,984.230392156863,962.688235294118,551.346078431373,526.296078431373,2319.27450980392,2221.93137254902,0
1662.976,-1.63609570185179e-07,-7.26292043446723e-08,-2.36238774530073e-07,6.28868928324655e-08,-3.3948840869336e-08,-3.39488408696479e-08,-1.11557152725044e-07,-5.45638177866142e-08,-1.66120970511612e-07,9.60981649266578e-08,5.70011659939364e-09,9.60981649264812e-08,9.45841736468953e-09,-1.5541279447087e-08,-6.08286208221535e-09,3.03677161431892e-09,,9.28465311764491e-09,-3.25670781599005e-07,2.39933293376984e-08,-3.25670781598781e-07,-1.840023093125e-07,2.09324134397981e-08,-1.63069895872819e-07,8.10345159701253e-08,-6.01807308589996e-08,,1.61196763659307e-07,-1.61196763659469e-07,2.21167736258933e-07,-3.17422834018326e-07,6.92115368349339e-09,-3.10501680335478e-07,4.27323973695838e-08,1.29404464358701e-08,5.56728438055383e-08,-6.87582796067361e-08,8.30865434502521e-08,8.30865434502918e-08,-1.6317237456839e-08,2.4954557565516e-07,2.3322833819838e-07,2.86275924705539e-07,-3.74264997441153e-07,-8.79890727357583e-08,-2.18659968722008e-07,-5.4476095582445e-09,-5.44760955836982e-09,-2.77539081834491e-07,2.77539081834349e-07,4.55941040035852e-07,0,0,0,6.55360000000019,103,972.703398058252,534.205339805825,2270.02427184466,985.526213592233,959.880582524272,538.894174757282,529.516504854369,2320.19417475728,2219.85436893204,0
1663.0784,-1.6819555545555e-07,-7.52742920187037e-08,-2.43469847474473e-07,4.17804363098369e-08,-3.30969420932487e-08,-3.30969420935616e-08,-1.23596017847816e-07,-6.00830959643095e-08,-1.83679113812078e-07,1.02822365150501e-07,8.97347530476363e-09,1.02822365150326e-07,-1.94369538346222e-09,-1.62747330190665e-08,-1.82184284023463e-08,2.77295411182277e-08,,1.51217569337465e-08,-3.41014106053317e-07,3.92602156320312e-08,-3.41014106053089e-07,-1.83277148394092e-07,1.61328683043013e-08,-1.67144280089909e-07,8.07573000646349e-08,-5.92658227422557e-08,,1.6123188118014e-07,-1.61231881180301e-07,2.10157002128091e-07,-2.95038185704482e-07,9.51874460286364e-09,-2.85519441102266e-07,3.57235607245965e-08,8.59977396412961e-09,4.43233346888106e-08,-6.36023057605427e-08,7.81900740437821e-08,7.81900740438241e-08,1.55349960570878e-08,2.2376893182123e-07,2.39303927878372e-07,2.92130091318908e-07,-3.85968623138951e-07,-9.38385318201869e-08,-2.14290343960796e-07,-1.41772047480356e-08,-1.41772047481626e-08,-2.94059236531306e-07,2.94059236531173e-07,4.25981461447062e-07,0,0,0,6.65600000000018,102,973.650980392157,535.267156862745,2267.16666666667,984.785294117647,962.516666666667,540.770588235294,529.763725490196,2315.11764705882,2219.21568627451,0
1663.1808,-1.73152723826873e-07,-7.83916885415621e-08,-2.51544412368653e-07,1.9870945528102e-08,-3.2152938611732e-08,-3.21529386120467e-08,-1.35763266154701e-07,-6.53459994124331e-08,-2.01109265567086e-07,1.10733208770678e-07,1.20134731871968e-08,1.10733208770504e-07,-1.24853422028502e-08,-1.71089608556589e-08,-2.95943030583262e-08,5.42737335836257e-08,,1.98893424993543e-08,-3.56342769940478e-07,5.42265922865087e-08,-3.56342769940247e-07,-1.83993601440044e-07,1.14782262006837e-08,-1.72515375239479e-07,7.91365417213566e-08,-5.85969398544563e-08,,1.62503178427899e-07,-1.62503178428058e-07,1.99300059256078e-07,-2.72834598252586e-07,1.22005690504756e-08,-2.60634029202759e-07,2.76566239232351e-08,3.97112605398067e-09,3.16277499773004e-08,-5.80877604759658e-08,7.32171987807797e-08,7.32171987808239e-08,5.61437311820327e-08,1.86061899137012e-07,2.42205630319094e-07,3.00226704167539e-07,-3.97322486956128e-07,-9.70957827887309e-08,-2.06357741337838e-07,-2.19511852184827e-08,-2.19511852186111e-08,-3.12171607997143e-07,3.12171607997021e-07,3.99933020964188e-07,0,0,0,6.75840000000017,102,974.596568627451,535.819607843137,2269.92647058824,983.126470588235,966.066666666667,542.551960784314,529.087254901961,2315.94117647059,2223.91176470588,0
1663.2832,-1.78105647370255e-07,-8.17908796625476e-08,-2.59896527033018e-07,-2.11006803105238e-09,-3.11477809724204e-08,-3.11477809727379e-08,-1.47631096049618e-07,-6.98819983699648e-08,-2.17513094419535e-07,1.19614916887504e-07,1.48777661929122e-08,1.19614916887329e-07,-2.18692897623593e-08,-1.80175917318626e-08,-3.98868814940377e-08,8.17835036926617e-08,,2.31799663217802e-08,-3.7111740099335e-07,6.8236235229648e-08,-3.71117400993113e-07,-1.86160986673614e-07,7.10239793258075e-09,-1.79058588741154e-07,7.63311515563028e-08,-5.82597479235921e-08,,1.64998564250096e-07,-1.64998564250253e-07,1.89049633314303e-07,-2.51731590187587e-07,1.4698981221287e-08,-2.3703260896695e-07,1.88265070763778e-08,-7.72701114226539e-10,1.80538059622356e-08,-5.21509064025982e-08,6.84075630971574e-08,6.8407563097204e-08,1.04009761512728e-07,1.37898015798801e-07,2.41907777311576e-07,3.09797105180888e-07,-4.0734980178655e-07,-9.75526966058034e-08,-1.94791173092369e-07,-2.83190667053536e-08,-2.83190667054831e-08,-3.31169184900733e-07,3.31169184900621e-07,3.78689788652111e-07,0,0,0,6.86080000000015,103,976.265048543689,530.922815533981,2266.38834951456,982.998058252427,969.532038834951,537.846601941748,523.999029126214,2314.56310679612,2218.21359223301,0
1663.3856,-1.82710501261888e-07,-8.52150779360937e-08,-2.67925579198195e-07,-2.34461349178306e-08,-3.00837160408503e-08,-3.00837160411716e-08,-1.58807190115945e-07,-7.32819008596125e-08,-2.32089090975511e-07,1.28958656639799e-07,1.75997530822053e-08,1.28958656639621e-07,-2.99859872638061e-08,-1.89920321868322e-08,-4.89780194504525e-08,1.0934188616054e-07,,2.48147611381985e-08,-3.84745185023121e-07,8.06817252370504e-08,-3.84745185022879e-07,-1.89434857182412e-07,2.99082675181651e-09,-1.86444030430717e-07,7.25754052417355e-08,-5.8300357375406e-08,,1.68618867614124e-07,-1.68618867614278e-07,1.79814756872759e-07,-2.32546583674582e-07,1.67426679528617e-08,-2.15803915722371e-07,9.61144764022876e-09,-5.39090393589126e-09,4.22054370442152e-09,-4.57668570835164e-08,6.40241388541963e-08,6.40241388542451e-08,1.56866060291792e-07,8.19273657433503e-08,2.38793426035187e-07,3.19667165123412e-07,-4.15030532052072e-07,-9.53633669287992e-08,-1.79987220789517e-07,-3.29879513424753e-08,-3.29879513426058e-08,-3.50294802928755e-07,3.50294802928655e-07,3.62525330088938e-07,0,0,0,6.96320000000014,102,959.328431372549,528.541176470588,2264.12254901961,968.16568627451,950.491176470588,537.383333333333,519.699019607843,2310.28431372549,2217.96078431373,0
1663.488,-1.86746784678688e-07,-8.83897627398917e-08,-2.7513654741879e-07,-4.35200034010486e-08,-2.89454647768291e-08,-2.89454647771546e-08,-1.68977366067002e-07,-7.51946243137122e-08,-2.44171990380669e-07,1.38049281340543e-07,2.01696867067174e-08,1.38049281340361e-07,-3.69096502440394e-08,-2.00697325130512e-08,-5.69793827569023e-08,1.3600369725869e-07,,2.4842919111259e-08,-3.96605332866534e-07,9.11219507932212e-08,-3.96605332866286e-07,-1.93195919064527e-07,-1.0247365264406e-09,-1.94220655591089e-07,6.81679770128861e-08,-5.87747683760695e-08,,1.73183409038743e-07,-1.73183409038894e-07,1.72008074955325e-07,-2.15950085919642e-07,1.80427491531095e-08,-1.97907336767184e-07,4.34729538224486e-10,-9.60416122095648e-09,-9.16943168264877e-09,-3.89694629483745e-08,6.03281383008074e-08,6.03281383008588e-08,2.11775081636973e-07,2.17806477946215e-08,2.33555729431639e-07,3.28362342459844e-07,-4.19416870980681e-07,-9.10545285209725e-08,-1.6272805474005e-07,-3.58213283227255e-08,-3.58213283228566e-08,-3.68746898338144e-07,3.68746898338055e-07,3.5117428486379e-07,0,0,0,7.06560000000013,103,956.890776699029,529.633009708738,2267.78155339806,965.43786407767,948.343689320388,541.269902912621,517.996116504854,2309.70873786408,2225.85436893204,0
1663.5904,-1.90185037368059e-07,-9.1078289646044e-08,-2.8126332701431e-07,-6.18767614444297e-08,-2.77155470654496e-08,-2.77155470657795e-08,-1.77933113500608e-07,-7.53298620189218e-08,-2.53262975519488e-07,1.46108484733545e-07,2.25343919308112e-08,1.46108484733358e-07,-4.28585861634981e-08,-2.13475309997389e-08,-6.42061171630459e-08,1.60849555440847e-07,,2.34938672232975e-08,-4.06117493462596e-07,9.93681622900246e-08,-4.06117493462342e-07,-1.96699831657647e-07,-5.22765785784705e-09,-2.01927489515617e-07,6.34562252509664e-08,-5.97887205423939e-08,,1.78443669992278e-07,-1.78443669992426e-07,1.66055510374627e-07,-2.0244537280105e-07,1.82997941928742e-08,-1.84145578608827e-07,-8.28032021261325e-09,-1.31363082767365e-08,-2.14166284892677e-08,-3.18400186721018e-08,5.75529321895096e-08,5.75529321895632e-08,2.65377347183401e-07,-3.8338808103926e-08,2.27038539079519e-07,3.3428835915018e-07,-4.19734344367007e-07,-8.54459852169609e-08,-1.43997171700676e-07,-3.68161031780297e-08,-3.68161031781611e-08,-3.85710097006881e-07,3.85710097006805e-07,3.43992209232951e-07,0,0,0,7.16800000000012,102,958.252450980392,534.800490196078,2268.85784313726,967.436274509804,949.068627450981,547.719607843137,521.88137254902,2309.08823529412,2228.62745098039,0
1663.6928,-1.93201584662091e-07,-9.3123234189008e-08,-2.86324818851302e-07,-7.82506028243419e-08,-2.63877646986329e-08,-2.63877646989672e-08,-1.85567178987035e-07,-7.34803909071675e-08,-2.59047569894164e-07,1.52448848743595e-07,2.46139376820746e-08,1.52448848743401e-07,-4.8131336824651e-08,-2.29753544912978e-08,-7.11066913157541e-08,1.83061730431635e-07,,2.10964248723649e-08,-4.12831016397386e-07,1.05511173382613e-07,-4.12831016397125e-07,-1.99240814872492e-07,-9.94552156685527e-09,-2.0918633643947e-07,5.8816497148605e-08,-6.15111302576257e-08,,1.84096548587076e-07,-1.84096548587219e-07,1.62368600403866e-07,-1.92382117111071e-07,1.72301574518859e-08,-1.75151959659837e-07,-1.6144862865708e-08,-1.57523814993958e-08,-3.18972443650231e-08,-2.44702035282331e-08,5.5886532583729e-08,5.58865325837847e-08,3.14265216287812e-07,-9.41883326240649e-08,2.20076883663792e-07,3.35944921944402e-07,-4.15455757271514e-07,-7.9510835327243e-08,-1.24764532350721e-07,-3.60663059540453e-08,-3.60663059541765e-08,-4.00396737354212e-07,4.00396737354147e-07,3.40126229729886e-07,0,0,0,7.27040000000011,102,959.941666666667,537.785784313726,2274.12745098039,967.892156862745,951.991176470588,548.762745098039,526.808823529412,2316.25490196078,2232,0
1663.7952,-1.96120711372402e-07,-9.44630072159524e-08,-2.90583718588552e-07,-9.25497483176659e-08,-2.49781153896238e-08,-2.49781153899619e-08,-1.91850561208089e-07,-6.95544080751432e-08,-2.61404969283198e-07,1.56598908050958e-07,2.63255592690801e-08,1.56598908050758e-07,-5.30247582410486e-08,-2.51316621253691e-08,-7.8156420366219e-08,2.01975689295212e-07,,1.79887128931849e-08,-4.16499106391598e-07,1.09888388679622e-07,-4.16499106391331e-07,-2.0027627466229e-07,-1.5477875199609e-08,-2.15754149862023e-07,5.46329777862789e-08,-6.41590806799124e-08,,1.89799284303189e-07,-1.8979928430333e-07,1.61287968089178e-07,-1.8600292253908e-07,1.4600420091508e-08,-1.71402502448223e-07,-2.28199060501984e-08,-1.72866401762135e-08,-4.01065462263329e-08,-1.6922431523008e-08,5.5465416674889e-08,5.54654166749464e-08,3.55411398402652e-07,-1.42024393079339e-07,2.13387005323357e-07,3.32112990557428e-07,-4.06334198900153e-07,-7.42212083428552e-08,-1.05818069627588e-07,-3.37232567011396e-08,-3.37232567012704e-08,-4.12092142281303e-07,4.12092142281248e-07,3.38641669018673e-07,0,1,0,7.3728000000001,103,960.768446601942,531.84854368932,2282.7572815534,969.823300970874,951.71359223301,541.98640776699,521.710679611651,2327.66019417476,2237.85436893204,0
1663.8976,-1.99296464457768e-07,-9.51257762432612e-08,-2.94422240701222e-07,-1.04814615097098e-07,-2.35342197706042e-08,-2.35342197709456e-08,-1.96814047790481e-07,-6.36048807921317e-08,-2.60418928582583e-07,1.58366965638132e-07,2.76054153633794e-08,1.58366965637926e-07,-5.77480280622753e-08,-2.79868438652108e-08,-8.57348719272825e-08,2.17115303414077e-07,,1.44500890967235e-08,-4.17119616117672e-07,1.13008445419178e-07,-4.17119616117398e-07,-1.99487806360616e-07,-2.20543358860152e-08,-2.21542142246756e-07,5.12748694727653e-08,-6.79606544485595e-08,,1.95196127008274e-07,-1.95196127008411e-07,1.63008224956945e-07,-1.83502844079285e-07,1.02609805743249e-08,-1.73241863505609e-07,-2.80203693312092e-08,-1.76615314941349e-08,-4.56819008252671e-08,-9.20679718388698e-09,5.63729521634962e-08,5.63729521635553e-08,3.86581629361883e-07,-1.7906733198752e-07,2.07514297374409e-07,3.2198047522423e-07,-3.92395784651278e-07,-7.04153094271771e-08,-8.76771164902378e-08,-2.99651854570879e-08,-2.99651854572182e-08,-4.20227044873683e-07,4.20227044873637e-07,3.38586505695594e-07,0,1,0,7.47520000000009,102,962.208823529412,535.679901960784,2281.0931372549,967.532352941176,956.885294117647,546.51568627451,524.844117647059,2326.30392156863,2235.88235294118,0
1664,-2.02983226745848e-07,-9.52073291809167e-08,-2.98190555926952e-07,-1.15176059546231e-07,-2.21391779954505e-08,-2.21391779957944e-08,-2.00541444839382e-07,-5.58491451637291e-08,-2.56390590003086e-07,1.57826313623741e-07,2.84224891012723e-08,1.57826313623528e-07,-6.23659409045375e-08,-3.16634271514699e-08,-9.40293680557979e-08,2.28245227999787e-07,,1.06771237429501e-08,-4.14945105351357e-07,1.15441638107963e-07,-4.14945105351077e-07,-1.96791023676663e-07,-2.98217936264202e-08,-2.26612817303209e-07,4.90717200141094e-08,-7.31036951747156e-08,,1.99961286741372e-07,-1.99961286741505e-07,1.67499532164607e-07,-1.85062148137318e-07,4.17244938998188e-09,-1.80889698747983e-07,-3.15221578437379e-08,-1.68956557575991e-08,-4.84178136012618e-08,-1.28187036902642e-09,5.86366450251242e-08,5.86366450251848e-08,4.06635928207148e-07,-2.03820645168167e-07,2.0281528303903e-07,3.0520805201753e-07,-3.73911943975145e-07,-6.87038919577453e-08,-7.05847435943143e-08,-2.49863495742977e-08,-2.49863495744274e-08,-4.24482877092618e-07,4.24482877092579e-07,3.3902045699271e-07,0,1,0,7.57760000000008,103,958.899029126214,536.474757281553,2267.01941747573,962.276699029126,955.521359223301,546.735922330097,526.21359223301,2311.71844660194,2222.32038834951,0
1664.1024,-2.07254345750121e-07,-9.48402350013137e-08,-3.02094580751617e-07,-1.23832809532046e-07,-2.09027046598085e-08,-2.09027046601544e-08,-2.03163911663477e-07,-4.66731808860721e-08,-2.49837092549528e-07,1.55234090964346e-07,2.87817535589919e-08,1.55234090964128e-07,-6.68050660038443e-08,-3.62035369981833e-08,-1.03008603001811e-07,2.35437162812272e-07,,6.80330726777577e-09,-4.104699523794e-07,1.17681989289287e-07,-4.10469952379115e-07,-1.92318030573532e-07,-3.88352919562839e-08,-2.31153322529942e-07,4.82883431531155e-08,-7.96800779092861e-08,,2.03848318094006e-07,-2.03848318094135e-07,1.74451944417472e-07,-1.90812135298895e-07,-3.58149626358275e-09,-1.94393631563123e-07,-3.31806474939436e-08,-1.50959824077256e-08,-4.82766299015961e-08,6.91957295277533e-09,6.22247023832031e-08,6.22247023832648e-08,4.15609556209339e-07,-2.16162879248055e-07,1.99446676961335e-07,2.81955682957126e-07,-3.51375942395103e-07,-6.94202594381087e-08,-5.45675578857573e-08,-1.90047959061021e-08,-1.90047959062313e-08,-4.24892170458181e-07,4.24892170458148e-07,3.39053965715041e-07,0,0,0,7.68000000000006,102,952.401960784314,524.695588235294,2257.1568627451,954.579411764706,950.224509803922,528.575490196079,520.81568627451,2299.27450980392,2215.03921568627,0
1664.2048,-2.12005258338599e-07,-9.41634444394434e-08,-3.06168702778218e-07,-1.31045353871041e-07,-1.99392141267381e-08,-1.99392141270855e-08,-2.04840385708499e-07,-3.66131075969852e-08,-2.41453493305468e-07,1.50924133363853e-07,2.87154050451548e-08,1.50924133363628e-07,-7.09197356990354e-08,-4.15547321592071e-08,-1.12474467858019e-07,2.39103709915958e-07,,2.94025896153805e-09,-4.04392776903505e-07,1.20015413872433e-07,-4.04392776903213e-07,-1.86375782857829e-07,-4.90458676490384e-08,-2.35421650506994e-07,4.91015050481084e-08,-8.7641438006411e-08,,2.06727010816886e-07,-2.06727010817011e-07,1.83279972365232e-07,-2.0074021824911e-07,-1.28013931813138e-08,-2.13541611431064e-07,-3.29566139840832e-08,-1.24344038921267e-08,-4.53910178761388e-08,1.54486802735217e-08,6.70449349529944e-08,6.70449349530569e-08,4.14556446794758e-07,-2.17195904391451e-07,1.97360542403361e-07,2.52892813736523e-07,-3.25499071241739e-07,-7.26062575053502e-08,-3.95393894897547e-08,-1.2274736776819e-08,-1.22747367769476e-08,-4.21878566839938e-07,4.2187856683991e-07,3.37923599248682e-07,0,0,0,7.78240000000005,102,948.81568627451,522.411274509804,2251.91176470588,951.617647058823,946.013725490196,521.648039215686,523.174509803922,2291.55882352941,2212.26470588235,0
1664.3072,-2.17031936884952e-07,-9.33012803850731e-08,-3.10333217270196e-07,-1.37127130597713e-07,-1.93424701680899e-08,-1.93424701684382e-08,-2.05719011671557e-07,-2.63072514557492e-08,-2.32026263127296e-07,1.45225282108182e-07,2.82630511540466e-08,1.45225282107952e-07,-7.45717132755371e-08,-4.75803016838141e-08,-1.22152014959119e-07,2.39951648223454e-07,,-7.91626981451495e-10,-3.97540204085963e-07,1.22450222758828e-07,-3.97540204085665e-07,-1.79373387817665e-07,-6.03036357300021e-08,-2.39677023547794e-07,5.15814622841042e-08,-9.67849958129742e-08,,2.08594170948133e-07,-2.08594170948256e-07,1.93208427656479e-07,-2.14594698405231e-07,-2.32010423746817e-08,-2.37795740780549e-07,-3.09354785037034e-08,-9.115655664349e-09,-4.00511341679833e-08,2.43014754257207e-08,7.29491499933257e-08,7.29491499933887e-08,4.05251789378915e-07,-2.08923886181584e-07,1.96327903197385e-07,2.19199685528794e-07,-2.9722370294905e-07,-7.8024017420393e-08,-2.54040780901338e-08,-5.08506643106153e-09,-5.08506643118952e-09,-4.16197824740085e-07,4.16197824740061e-07,3.35098770564204e-07,0,0,0,7.88480000000004,103,949.216504854369,521.285436893204,2249.92718446602,952.233009708738,946.2,519.108737864078,523.46213592233,2289.14563106796,2210.70873786408,0
1664.4096,-2.22125206860945e-07,-9.23557262076409e-08,-3.14480933068751e-07,-1.42418561839335e-07,-1.9169344455547e-08,-1.91693444558959e-08,-2.05894483351864e-07,-1.64227390064702e-08,-2.22317222358328e-07,1.38444515095206e-07,2.74474264534968e-08,1.38444515094972e-07,-7.7675329400324e-08,-5.40874524027505e-08,-1.31762781802834e-07,2.3884630858782e-07,,-4.26327379493151e-09,-3.90751920181371e-07,1.24749804854055e-07,-3.90751920181068e-07,-1.71738758120929e-07,-7.23811829071036e-08,-2.4411994102816e-07,5.56822605947244e-08,-1.06775157601056e-07,,2.09558735208071e-07,-2.0955873520819e-07,2.03408617523132e-07,-2.31840086083619e-07,-3.44469490528986e-08,-2.66287035137148e-07,-2.73300207505912e-08,-5.34798842981609e-09,-3.26780091803402e-08,3.33923357984187e-08,7.97426982481787e-08,7.97426982482417e-08,3.89851854216801e-07,-1.93851618060997e-07,1.9600023615586e-07,1.82539449253464e-07,-2.67732607261118e-07,-8.51931580077948e-08,-1.21248426038781e-08,2.2611529163925e-09,2.26115291626498e-09,-4.08792118867581e-07,4.08792118867561e-07,3.3038011092635e-07,0,0,0,7.98720000000003,102,954.161764705882,518.090196078431,2244.04901960784,956.5,951.823529411765,520.445098039216,515.735294117647,2279.83333333333,2208.26470588235,0
1664.512,-2.27113500946465e-07,-9.14083763946531e-08,-3.18521877341277e-07,-1.47247434570894e-07,-1.94384476863068e-08,-1.94384476866555e-08,-2.05386398938407e-07,-7.5760903475594e-09,-2.12962489285965e-07,1.30908435992785e-07,2.62583394501842e-08,1.30908435992547e-07,-8.01968176431818e-08,-6.08572372261046e-08,-1.41054054869037e-07,2.36626825405903e-07,,-7.36555459290867e-09,-3.84763006137093e-07,1.26558483492583e-07,-3.84763006136785e-07,-1.63868850456983e-07,-8.49934744581666e-08,-2.48862324915277e-07,6.12429511722448e-08,-1.17188192784362e-07,,2.09811857330502e-07,-2.09811857330618e-07,2.13119689307361e-07,-2.51668643223705e-07,-4.61899950238538e-08,-2.97858638248183e-07,-2.24661231613516e-08,-1.32668303510083e-09,-2.37928061963874e-08,4.2537996331014e-08,8.7194164730967e-08,8.71941647310299e-08,3.70571033027326e-07,-1.74577958639348e-07,1.95993074388033e-07,1.44964830789781e-07,-2.38420410954342e-07,-9.34555801647052e-08,2.41955692910917e-10,9.4758015122858e-09,9.47580151215867e-09,-4.00616229793256e-07,4.00616229793241e-07,3.23927311543826e-07,0,0,0,8.08960000000002,103,957.540291262136,528.593689320388,2221.36893203884,958.353398058252,956.727184466019,533.053398058252,524.133980582524,2264.72815533981,2178.00970873786,0
1664.6144,-2.31840463685317e-07,-9.05245525709307e-08,-3.22365016256401e-07,-1.51891295027818e-07,-2.0138325263292e-08,-2.013832526364e-08,-2.04146536061089e-07,-2.68143147131673e-10,-2.04414679208224e-07,1.23001353069054e-07,2.46542686687496e-08,1.23001353068813e-07,-8.2125979856054e-08,-6.7664502707704e-08,-1.49790482563501e-07,2.33933041902653e-07,,-1.00537078637323e-08,-3.80123900439912e-07,1.27561054563461e-07,-3.80123900439599e-07,-1.56133802497118e-07,-9.77924500511867e-08,-2.53926252548434e-07,6.79956655393124e-08,-1.27562826903441e-07,,2.09594898927879e-07,-2.09594898927992e-07,2.21713157218899e-07,-2.73062048701482e-07,-5.80813776992029e-08,-3.31143426401302e-07,-1.67493068789808e-08,2.76753612891671e-09,-1.39817707500013e-08,5.14604696768392e-08,9.50426739599362e-08,9.50426739599991e-08,3.49452925258827e-07,-1.53478350999141e-07,1.95974574259739e-07,1.0873383896635e-07,-2.10788864958635e-07,-1.02055025992432e-07,1.15539134767003e-08,1.63135891906383e-08,1.63135891905116e-08,-3.9248889306342e-07,3.92488893063409e-07,3.16182366345676e-07,0,0,0,8.19200000000001,102,958.918137254902,532.961274509804,2198.37254901961,958.699019607843,959.137254901961,539.551960784314,526.370588235294,2251.6568627451,2145.08823529412,0
1664.7168,-2.36120248915751e-07,-8.97558045195136e-08,-3.25876053435411e-07,-1.56556865477967e-07,-2.12344110119978e-08,-2.12344110123443e-08,-2.0207940480601e-07,5.16030288967371e-09,-1.96919101916344e-07,1.15137665748542e-07,2.25810241763163e-08,1.15137665748299e-07,-8.34442429884693e-08,-7.42877669085166e-08,-1.57732009896722e-07,2.31098363456095e-07,,-1.23917243959449e-08,-3.77165319906474e-07,1.2760864548109e-07,-3.77165319906157e-07,-1.48914085599221e-07,-1.10339575985064e-07,-2.59253661584413e-07,7.55701363814686e-08,-1.37445943711989e-07,,2.09175179341521e-07,-2.09175179341631e-07,2.28705906180662e-07,-2.94891674872709e-07,-6.97771748171934e-08,-3.64668849690512e-07,-1.0611435170263e-08,6.76008197108082e-09,-3.85135319912153e-09,5.98242382012658e-08,1.03004443434434e-07,1.03004443434497e-07,3.28291746531881e-07,-1.32548206073583e-07,1.95743540458351e-07,7.60521043494613e-08,-1.86263069006933e-07,-1.10210964657623e-07,2.16456640484478e-08,2.25930574785232e-08,2.25930574783968e-08,-3.84998823431955e-07,3.84998823431949e-07,3.07716272299937e-07,0,0,0,8.2944,102,958.85637254902,532.93137254902,2194.63235294118,958.456862745098,959.255882352941,540.089215686275,525.773529411765,2248.25490196078,2141.00980392157,0
1664.8192,-2.39720170154407e-07,-8.91424189152827e-08,-3.2886258906983e-07,-1.61382823757569e-07,-2.26681523506509e-08,-2.26681523509953e-08,-1.99060847997586e-07,8.55389443638015e-09,-1.90506953561217e-07,1.07666760315121e-07,2.00011655400043e-08,1.07666760314877e-07,-8.41135783967858e-08,-8.05152402556715e-08,-1.64628818652188e-07,2.28137617680312e-07,,-1.4575870699071e-08,-3.75995149534989e-07,1.26780254478486e-07,-3.75995149534668e-07,-1.42639529330272e-07,-1.22073881713898e-07,-2.64713411044299e-07,8.34888289101683e-08,-1.46428710314422e-07,,2.08832062738834e-07,-2.08832062738941e-07,2.33755497770876e-07,-3.16020194345075e-07,-8.09398197144448e-08,-3.96960014060121e-07,-4.45142052598403e-09,1.04705822424924e-08,6.01916171656696e-09,6.73041519105161e-08,1.10778673680016e-07,1.10778673680079e-07,3.08660644199049e-07,-1.13391899942906e-07,1.95268744256196e-07,4.8807338237816e-08,-1.65985743525767e-07,-1.17178405288106e-07,3.04370921455905e-08,2.82017426179667e-08,2.82017426178409e-08,-3.7848472726842e-07,3.7848472726842e-07,2.99057468322071e-07,0,0,0,8.39679999999999,103,958.882524271845,529.633980582524,2207.53398058252,960.92427184466,956.840776699029,533.502912621359,525.765048543689,2263.64077669903,2151.42718446602,0
1664.9216,-2.42394566267505e-07,-8.87179796683847e-08,-3.31112545936024e-07,-1.6645904100186e-07,-2.43518297548796e-08,-2.43518297552215e-08,-1.94953736088464e-07,9.94654350928722e-09,-1.85007192579191e-07,1.00758697628517e-07,1.69241162810132e-08,1.00758697628272e-07,-8.40998184525745e-08,-8.61543221098493e-08,-1.70254140562151e-07,2.2481370324169e-07,,-1.69244798058793e-08,-3.76514457723326e-07,1.25384901408209e-07,-3.76514457723002e-07,-1.37811187122349e-07,-1.32297590143557e-07,-2.70108777266036e-07,9.11637380356355e-08,-1.54176363981277e-07,,2.08849803643385e-07,-2.0884980364349e-07,2.36670911679032e-07,-3.35374372454302e-07,-9.12467587567551e-08,-4.26621131211651e-07,1.41240833853575e-09,1.37043048372793e-08,1.51167131758717e-08,7.36605407180514e-08,1.18052849011627e-07,1.1805284901169e-07,2.91955165916861e-07,-9.72854607971639e-08,1.94669705119749e-07,2.83582097533546e-08,-1.50655987562474e-07,-1.22297777809276e-07,3.80484222150629e-08,3.30792275280867e-08,3.30792275279609e-08,-3.7308393761738e-07,3.73083937617387e-07,2.90545577637818e-07,0,0,0,8.49919999999997,102,961.243137254902,533.893137254902,2224.31862745098,963.295098039216,959.191176470588,544.324509803922,523.461764705882,2282.35294117647,2166.28431372549,0
1665.024,-2.43965543438805e-07,-8.85167764129472e-08,-3.32482319851881e-07,-1.71842648104382e-07,-2.61708521863625e-08,-2.61708521867015e-08,-1.89622800922908e-07,9.53384070992035e-09,-1.80088960213004e-07,9.43226602940068e-08,1.34229211218659e-08,9.43226602937628e-08,-8.34136155495434e-08,-9.10503450768681e-08,-1.74463960626136e-07,2.20735236122289e-07,,-1.98407870350518e-08,-3.78439008039415e-07,1.23919940920111e-07,-3.78439008039089e-07,-1.34992686184524e-07,-1.40207077089649e-07,-2.75199763274304e-07,9.79159609137611e-08,-1.60459179169626e-07,,2.09512366716906e-07,-2.09512366717009e-07,2.37443471661348e-07,-3.5199653269852e-07,-1.00412851298584e-07,-4.5240938399769e-07,6.7730793569748e-09,1.62524592306706e-08,2.30255385877003e-08,7.87982176482594e-08,1.2451236685783e-07,1.24512366857894e-07,2.79415167348244e-07,-8.5257909472812e-08,1.94157257875483e-07,1.53976362822279e-08,-1.40437075868229e-07,-1.2503943958616e-07,4.48881289729841e-08,3.71853059295045e-08,3.71853059293789e-08,-3.68815062509075e-07,3.68815062509089e-07,2.8223158631272e-07,0,1,0,8.60159999999996,103,960.439320388349,535.386893203884,2243.28155339806,963.364077669903,957.514563106796,540.290291262136,530.483495145631,2303.16504854369,2183.39805825243,0
1665.1264,-2.44423769643472e-07,-8.85841189810717e-08,-3.33007888624666e-07,-1.77551060650977e-07,-2.80017645426083e-08,-2.80017645429445e-08,-1.8294668627288e-07,7.60762284863825e-09,-1.7533906342426e-07,8.79965479699094e-08,9.63002920708777e-09,8.79965479696657e-08,-8.21354066165227e-08,-9.51121139748578e-08,-1.77247520591103e-07,2.15453905395509e-07,,-2.37588680619117e-08,-3.81316988829025e-07,1.2299711849606e-07,-3.81316988828698e-07,-1.34756600166207e-07,-1.44989969007727e-07,-2.79746569174066e-07,1.03026979994777e-07,-1.65180413018174e-07,,2.11091917151877e-07,-2.11091917151978e-07,2.36270121169282e-07,-3.65083685294657e-07,-1.08219172267792e-07,-4.73302857563029e-07,1.15496424902471e-08,1.79033716120448e-08,2.9453014102345e-08,8.27973218761058e-08,1.29861146712599e-07,1.29861146712663e-07,2.72143646408759e-07,-7.81689101491346e-08,1.93974736259676e-07,9.89552523514497e-09,-1.34933809695778e-07,-1.25038284460794e-07,5.16878570210258e-08,4.04711066194478e-08,4.04711066193222e-08,-3.65663467655591e-07,3.65663467655612e-07,2.73834114336622e-07,0,1,0,8.70400000000018,102,962.528921568627,529.008333333333,2255.35784313725,964.769607843137,960.288235294118,532.738235294118,525.278431372549,2320.59803921569,2190.11764705882,0
1665.2288,-2.44008631936539e-07,-8.89858075066741e-08,-3.32994439443331e-07,-1.83527289376076e-07,-2.97401752086219e-08,-2.9740175208956e-08,-1.74828507923884e-07,4.46492042889224e-09,-1.70363587495012e-07,8.12252531836777e-08,5.71957441316612e-09,8.12252531834338e-08,-8.04091270545622e-08,-9.83310687530896e-08,-1.78740195807373e-07,2.08557594702829e-07,,-2.90729181950993e-08,-3.84548840604771e-07,1.23244669377737e-07,-3.84548840604442e-07,-1.37583774085113e-07,-1.45978545944749e-07,-2.83562320029993e-07,1.05810283872982e-07,-1.68382808741587e-07,,2.1381929050004e-07,-2.13819290500139e-07,2.33539080513712e-07,-3.74001680320537e-07,-1.14532197202955e-07,-4.88533877524066e-07,1.57824924523655e-08,1.846329627601e-08,3.42457887284271e-08,8.59123256440549e-08,1.33853476993256e-07,1.33853476993321e-07,2.7113377768434e-07,-7.67659930483567e-08,1.94367784636034e-07,1.11343742925202e-08,-1.33239844749412e-07,-1.22105470457054e-07,5.94594391483933e-08,4.28684935371996e-08,4.28684935370737e-08,-3.63656220478565e-07,3.63656220478593e-07,2.64757613302942e-07,0,1,0,8.80640000000017,102,963.194117647059,530.356862745098,2260.37745098039,965.399019607843,960.989215686275,536.755882352941,523.957843137255,2325.54901960784,2195.20588235294,0
1665.3312,-2.43226155066592e-07,-8.98087523856789e-08,-3.33034907452383e-07,-1.89591917528363e-07,-3.13248152836796e-08,-3.13248152840124e-08,-1.65209025277391e-07,3.19725487789425e-10,-1.64889299789623e-07,7.34048316221935e-08,1.88878442526834e-09,7.34048316219475e-08,-7.84139541346089e-08,-1.00780518425364e-07,-1.79194472559693e-07,1.99755209783667e-07,,-3.60531262844364e-08,-3.87426055156221e-07,1.25202113014255e-07,-3.8742605515589e-07,-1.4374557875793e-07,-1.42811188564263e-07,-2.86556767322325e-07,1.05685077474285e-07,-1.70222107115454e-07,,2.17833688376846e-07,-2.17833688376943e-07,2.2977296379491e-07,-3.78271232022498e-07,-1.19304919756789e-07,-4.97576151779856e-07,1.96069756124305e-08,1.77808551931716e-08,3.73878308056521e-08,8.85364696873044e-08,1.36327011177292e-07,1.36327011177358e-07,2.77280127449109e-07,-8.16954118505565e-08,1.95584715598603e-07,1.78333641427425e-08,-1.34045814409104e-07,-1.16212450266523e-07,6.93716085691058e-08,4.43012961668614e-08,4.43012961667352e-08,-3.62913500595487e-07,3.62913500595523e-07,2.5417557457948e-07,0,0,0,8.90880000000016,103,960.18640776699,526.228155339806,2263.72330097087,963.056310679612,957.316504854369,524.365048543689,528.091262135922,2329.66019417476,2197.78640776699,0
1665.4336,-2.42777900226756e-07,-9.11462213342776e-08,-3.3392412156114e-07,-1.95406533764733e-07,-3.27489331932247e-08,-3.27489331935571e-08,-1.54082368706596e-07,-4.75527678547422e-09,-1.58837645492093e-07,6.40378643640254e-08,-1.65830455424611e-09,6.40378643637752e-08,-7.63281978268164e-08,-1.02592966433488e-07,-1.78921164260024e-07,1.88944426405375e-07,,-4.47619664209645e-08,-3.89199816205603e-07,1.29238621782907e-07,-3.8919981620527e-07,-1.53220575249745e-07,-1.35539528219699e-07,-2.88760103469576e-07,1.02239840510023e-07,-1.70917393129099e-07,,2.23121440712954e-07,-2.23121440713047e-07,2.2554734551035e-07,-3.7755006879949e-07,-1.2256447311709e-07,-5.00114541917144e-07,2.32097236526916e-08,1.57651444727463e-08,3.89748681254858e-08,9.11301525590854e-08,1.37221966025241e-07,1.37221966025308e-07,2.9132453987781e-07,-9.34361734746062e-08,1.97888366403256e-07,2.83269634617044e-08,-1.35791050885195e-07,-1.07464087423653e-07,8.25756790073242e-08,4.47113243544487e-08,4.47113243543222e-08,-3.63654107049916e-07,3.63654107049959e-07,2.41171302401725e-07,0,0,0,9.01120000000014,102,958.669117647059,525.635784313726,2266.24509803922,963.536274509804,953.801960784314,529.864705882353,521.406862745098,2327.44117647059,2205.04901960784,0
1665.536,-2.43404303084766e-07,-9.30683414770996e-08,-3.36472644561968e-07,-2.00469672326894e-07,-3.40580942658192e-08,-3.40580942661528e-08,-1.415128134858e-07,-1.08388652841973e-08,-1.52351678770023e-07,5.28551560149383e-08,-4.73076734512105e-09,5.2855156014681e-08,-7.42942368235098e-08,-1.03925406071172e-07,-1.782196428944e-07,1.7626057181997e-07,,-5.49886558498872e-08,-3.89171629351729e-07,1.35521179082214e-07,-3.89171629351393e-07,-1.65679645155783e-07,-1.2464468244982e-07,-2.90324327605734e-07,9.52809501271637e-08,-1.70699802145076e-07,,2.29458369090127e-07,-2.29458369090216e-07,2.21408342287795e-07,-3.71641193320805e-07,-1.24395729458169e-07,-4.96036922779535e-07,2.67784423585009e-08,1.2392953875156e-08,3.91713962337023e-08,9.41227987369365e-08,1.36578973433571e-07,1.36578973433639e-07,3.13701418553981e-07,-1.12145364422802e-07,2.01556054131234e-07,4.07660677222698e-08,-1.36848287661418e-07,-9.608221993931e-08,1.00011580110535e-07,4.40886836673205e-08,4.40886836671941e-08,-3.6613782181985e-07,3.661378218199e-07,2.2490818482632e-07,0,0,0,9.11360000000013,103,957.370388349515,528.066990291262,2267.69902912621,963.311650485437,951.429126213592,531.867961165049,524.266019417476,2326.42718446602,2208.97087378641,0
1665.6384,-2.45683269602316e-07,-9.55865141218713e-08,-3.41269783724285e-07,-2.04154748957816e-07,-3.53372142882685e-08,-3.53372142886046e-08,-1.2765159432004e-07,-1.81183153707854e-08,-1.45769909690855e-07,3.9888808089754e-08,-7.17805379226726e-09,3.98888080894866e-08,-7.23923798203379e-08,-1.04925857475895e-07,-1.77318237295949e-07,1.62107554524243e-07,,-6.62203268811747e-08,-3.86785378620397e-07,1.44026537424638e-07,-3.86785378620056e-07,-1.80531494980507e-07,-1.10969736575572e-07,-2.9150123155621e-07,8.48652973022458e-08,-1.69775743857503e-07,,2.3637366096298e-07,-2.36373660963065e-07,2.17805242062359e-07,-3.60534930647079e-07,-1.24927786091264e-07,-4.85462716738901e-07,3.04593623654035e-08,7.71206560010566e-09,3.81714279655514e-08,9.78112143708643e-08,1.34522341624445e-07,1.34522341624513e-07,3.44309853251964e-07,-1.37453044414046e-07,2.06856808837978e-07,5.33303985493719e-08,-1.35730476873329e-07,-8.24000783241177e-08,1.22214262426135e-07,4.24989354105327e-08,4.24989354104062e-08,-3.70555012413609e-07,3.70555012413663e-07,2.04785809384259e-07,0,0,0,9.21600000000012,102,959.711274509804,527.362254901961,2258.26960784314,966.748039215686,952.674509803922,532.529411764706,522.195098039216,2314.89215686275,2201.64705882353,0
1665.7408,-2.49849540899909e-07,-9.86244063459343e-08,-3.48473947245937e-07,-2.05790809183036e-07,-3.6690635619639e-08,-3.66906356199782e-08,-1.12752230778689e-07,-2.68082425568703e-08,-1.39560473335593e-07,2.54960051302647e-08,-8.91992076197146e-09,2.54960051299841e-08,-7.06344387686633e-08,-1.05710885616614e-07,-1.7634532438499e-07,1.47165259302666e-07,,-7.76638385018326e-08,-3.817048297551e-07,1.54564738411359e-07,-3.81704829754755e-07,-1.96989083999276e-07,-9.56039036486562e-08,-2.92592987648062e-07,7.13161308074786e-08,-1.68310429940549e-07,,2.43152991930587e-07,-2.43152991930667e-07,2.15049973775595e-07,-3.44466020429329e-07,-1.24328123145482e-07,-4.68794143575367e-07,3.43325419058865e-08,1.85006063015579e-09,3.61826025360806e-08,1.02279418633151e-07,1.31240826091889e-07,1.31240826091959e-07,3.82296485020148e-07,-1.68290722294344e-07,2.14005762725867e-07,6.44410416767392e-08,-1.31296575591842e-07,-6.68555339152623e-08,1.49145569729113e-07,4.01023833922358e-08,4.01023833921092e-08,-3.76903312827809e-07,3.76903312827868e-07,1.80549407625135e-07,0,0,0,9.31840000000011,102,984.744607843137,527.723529411765,2229.79411764706,987.742156862745,981.747058823529,525.208823529412,530.238235294118,2292.59803921569,2166.99019607843,0
1665.8432,-2.55697046885798e-07,-1.02006695262899e-07,-3.57703742148788e-07,-2.04779360481202e-07,-3.82183521803323e-08,-3.82183521806753e-08,-9.71876527486492e-08,-3.70575039671028e-08,-1.34245156715791e-07,1.03347498705296e-08,-9.96907228365548e-09,1.0334749870233e-08,-6.89849278767076e-08,-1.06358228551969e-07,-1.75343156428385e-07,1.32362421020513e-07,,-8.83183919179102e-08,-3.73870310290961e-07,1.66791635137361e-07,-3.73870310290609e-07,-2.14122577611378e-07,-7.97548513650847e-08,-2.93877428976593e-07,5.5219077537482e-08,-1.66431839128762e-07,,2.48889474718797e-07,-2.4888947471887e-07,2.13316020220592e-07,-3.23961799750573e-07,-1.22806762659691e-07,-4.46768562410819e-07,3.84040657952109e-08,-4.97211318996003e-09,3.34319526052845e-08,1.07358634221741e-07,1.26971055985215e-07,1.26971055985287e-07,4.2594074400048e-07,-2.0284112510723e-07,2.23099618893318e-07,7.29448615791087e-08,-1.22925988818935e-07,-4.99811272399851e-08,1.80088053239903e-07,3.71581691507489e-08,3.71581691506222e-08,-3.84899415802271e-07,3.84899415802334e-07,1.52348757618311e-07,0,0,0,9.4208000000001,103,1004.32475728155,529.141747572816,2201.49514563107,1006.92524271845,1001.72427184466,534.165048543689,524.118446601942,2266.64077669903,2136.34951456311,0
1665.9456,-2.62600020482915e-07,-1.05471438982762e-07,-3.68071459465763e-07,-2.00726109534167e-07,-3.9990579567843e-08,-3.99905795681901e-08,-8.14686437312967e-08,-4.88663326982735e-08,-1.30334976429614e-07,-4.69963687936615e-09,-1.04368387853224e-08,-4.69963687968069e-09,-6.74020583196236e-08,-1.06912955448926e-07,-1.74315013768255e-07,1.18801122931162e-07,,-9.70894288571575e-08,-3.63524104605474e-07,1.80215540121278e-07,-3.63524104605116e-07,-2.3090137724222e-07,-6.46289531621969e-08,-2.95530330404546e-07,3.73890871797436e-08,-1.64250734885946e-07,,2.52583956323604e-07,-2.52583956323671e-07,2.12677914873432e-07,-2.99866268983846e-07,-1.20626072901388e-07,-4.20492341885788e-07,4.26083401156543e-08,-1.24325224450084e-08,3.01758176706743e-08,1.12640257709768e-07,1.2198437782188e-07,1.21984377821953e-07,4.72713021780734e-07,-2.38666393587463e-07,2.34046628193345e-07,7.82344329287881e-08,-1.106272454564e-07,-3.23928125277693e-08,2.13642383449366e-07,3.40039726920019e-08,3.40039726918749e-08,-3.93961210848542e-07,3.93961210848607e-07,1.20754729927475e-07,0,0,0,9.52320000000009,102,988.386274509804,528.406862745098,2190.95588235294,989.819607843137,986.952941176471,539.537254901961,517.276470588235,2258.85294117647,2123.05882352941,0
1666.048,-2.69646912864496e-07,-1.08704102558436e-07,-3.78351015423015e-07,-1.93548945687035e-07,-4.20244284998687e-08,-4.20244285002203e-08,-6.62443762072321e-08,-6.20298483889936e-08,-1.28274224596276e-07,-1.85585924965112e-08,-1.0517505422325e-08,-1.85585924968447e-08,-6.58713710148424e-08,-1.07400211941953e-07,-1.73271582956496e-07,1.07623137963141e-07,,-1.02930821139743e-07,-3.51183477939209e-07,1.94216996962368e-07,-3.51183477938846e-07,-2.46256155640177e-07,-5.13218645065925e-08,-2.97578020146897e-07,1.87949753437743e-08,-1.61885141132062e-07,,2.53288372633898e-07,-2.53288372633959e-07,2.13169215215236e-07,-2.73326901760334e-07,-1.18105726799861e-07,-3.91432628560748e-07,4.6818216042655e-08,-2.01183997814355e-08,2.66998162612422e-08,1.1754320740617e-07,1.16579006501208e-07,1.16579006501283e-07,5.19531587916343e-07,-2.7301666172182e-07,2.46514926194603e-07,8.02736754407539e-08,-9.50398720904857e-08,-1.47661966498883e-08,2.47863996411857e-07,3.10095426903876e-08,3.10095426902605e-08,-4.03270327963856e-07,4.03270327963922e-07,8.67309464562147e-08,0,0,0,9.62560000000008,103,969.449514563107,532.189805825243,2196.68932038835,972.390291262136,966.508737864078,540.415533980583,523.964077669903,2261.85436893204,2131.52427184466,0
1666.1504,-2.75834186357881e-07,-1.11383364815374e-07,-3.87217551173336e-07,-1.83520644185049e-07,-4.426907866585e-08,-4.42690786662057e-08,-5.22664321431596e-08,-7.6123366727494e-08,-1.28389798870708e-07,-3.01315914644185e-08,-1.04539555000713e-08,-3.01315914647706e-08,-6.44046672008613e-08,-1.07834428005977e-07,-1.72239095206535e-07,9.9840405436014e-08,,-1.04987038852281e-07,-3.37554671012582e-07,2.08090670739236e-07,-3.37554671012215e-07,-2.59176636280063e-07,-4.07184277812366e-08,-2.99895064061427e-07,4.42388715198333e-10,-1.59472856461588e-07,,2.50263043351174e-07,-2.50263043351228e-07,2.14821242692226e-07,-2.45732117608389e-07,-1.15610544113782e-07,-3.61342661722724e-07,5.0865004877717e-08,-2.75595746670497e-08,2.33054302106842e-08,1.21419193693037e-07,1.11075545106697e-07,1.11075545106774e-07,5.63166653353358e-07,-3.03245496922515e-07,2.59921156430928e-07,7.95209689340332e-08,-7.73024071474333e-08,2.21856178644441e-09,2.80539504977415e-07,2.85164379952392e-08,2.85164379951126e-08,-4.1189754967367e-07,4.11897549673735e-07,5.15456237568249e-08,0,0,0,9.72800000000007,102,970.625980392157,534.647549019608,2215.25980392157,974.420588235294,966.83137254902,543.762745098039,525.532352941177,2273.96078431373,2156.55882352941,0
