time,S1-D1,S1-D8,S1-D9,S1-D15,S2-D1,S2-D2,S2-D3,S2-D9,S3-D1,S3-D2,S3-D16,S4-D2,S4-D3,S4-D5,S5-D3,S5-D4,S5-D5,S6-D2,S6-D5,S6-D17,S7-D6,S7-D7,S8-D6,S8-D7,S8-D18,S9-D3,S9-D4,S9-D9,S9-D11,S9-D19,S10-D8,S10-D9,S10-D10,S10-D11,S11-D8,S11-D10,S11-D20,S12-D10,S12-D11,S12-D12,S13-D4,S13-D11,S13-D12,S14-D10,S14-D12,S14-D21,S15-D13,S15-D14,S16-D13,S16-D14,S16-D22,SART_Target,SART_NonTarget,SART_Probe,t_rel_s,eye_n,xp,yp,ps,xpl_i,xpr_i,ypl_i,ypr_i,psl_i,psr_i,blink_prop
2172.3136,-3.27375118232342e-07,8.11485863988009e-08,-2.46226531833723e-07,2.58782395789419e-07,-6.09918546532071e-08,-6.09918546531189e-08,,3.57709473932325e-07,-8.78572349691314e-08,-4.95878728616465e-07,-8.86102054391727e-07,-4.95878728618343e-07,6.30049147455427e-07,2.64401548592211e-07,8.94450696047992e-07,2.57282382196899e-07,,1.23346338464335e-07,7.17558191663048e-07,-1.15236265226985e-06,7.1755819166356e-07,-2.6305414000454e-07,2.55961962449059e-07,-7.09217755535194e-09,4.49098698389746e-07,-2.65794520571767e-08,,-6.94693358607878e-08,6.94693358605823e-08,-2.5098966333654e-07,-7.85320955629042e-07,-2.10743914820604e-07,-9.96064870449875e-07,6.71142935346546e-08,-6.38508391597326e-08,3.26345437486875e-09,-3.09278079699557e-07,-2.29806131769433e-07,-2.29806131769392e-07,-1.1269259811337e-06,,,7.93637410878395e-07,2.87049517102226e-07,1.08068692798014e-06,2.49194675861783e-07,2.40386764878995e-07,2.4038676487921e-07,-8.50610233419023e-08,8.50610233424316e-08,7.84198036935675e-08,0,1,0,0,103,963.633495145631,515.244174757282,1759.98058252427,919.956310679612,1007.31067961165,473.784466019418,556.703883495146,1853.87378640777,1666.08737864078,0
2172.416,-3.14957409590076e-07,8.78139709205578e-08,-2.27143438669706e-07,2.48919808975296e-07,-6.05909480175907e-08,-6.05909480175036e-08,,3.72668211708816e-07,-6.80371540873394e-08,-4.32020376867215e-07,-8.76067306574242e-07,-4.32020376869097e-07,6.27860090627578e-07,2.66033059010806e-07,8.93893149638742e-07,2.25945915509686e-07,,1.19383949522326e-07,7.48782738195121e-07,-1.17453350198622e-06,7.48782738195634e-07,-2.86544671395e-07,2.76574978495774e-07,-9.96969289909551e-09,4.41996499009099e-07,-2.3850827843952e-08,,-6.57957498023569e-08,6.57957498021598e-08,-2.37387951313849e-07,-7.69717244996632e-07,-2.16510313189744e-07,-9.86227558186623e-07,5.95977775786435e-08,-5.86076047062816e-08,9.90172872305954e-10,-2.95681432200958e-07,-2.38052652960946e-07,-2.38052652960905e-07,-1.12169753420845e-06,,,7.77181053262041e-07,2.8344201696759e-07,1.06062307022914e-06,2.34967440244585e-07,2.34755145778073e-07,2.34755145778281e-07,-1.22312002343586e-07,1.22312002344132e-07,7.62685051594888e-08,0,1,0,0.102400000000216,102,964.869607843137,521.720098039216,1771.49509803922,921.219607843137,1008.51960784314,479.677450980392,563.762745098039,1870.3137254902,1672.67647058824,0
2172.5184,-3.02810855790335e-07,9.32993864670156e-08,-2.09511469323512e-07,2.36761606335731e-07,-6.01769908120701e-08,-6.01769908119841e-08,,3.85950852200218e-07,-5.17234457856073e-08,-3.73971563709569e-07,-8.65387870478568e-07,-3.73971563711453e-07,6.28533983016171e-07,2.6763203515426e-07,8.96166018170795e-07,1.93423876275076e-07,,1.14363913124947e-07,7.67498611148452e-07,-1.1806204159235e-06,7.67498611148969e-07,-3.05649254911984e-07,2.97299384176186e-07,-8.3498707356642e-09,4.3206179387088e-07,-2.19868916825728e-08,,-6.16145218180332e-08,6.16145218178431e-08,-2.27290921321797e-07,-7.5659820160839e-07,-2.22241444365319e-07,-9.78839645973974e-07,5.37123631116678e-08,-5.31008209161529e-08,6.11542195456995e-10,-2.84983820922812e-07,-2.42585643479563e-07,-2.42585643479522e-07,-1.12264087282685e-06,,,7.55769450510277e-07,2.88727253300002e-07,1.04449670380979e-06,2.21735340854676e-07,2.31964697735647e-07,2.31964697735849e-07,-1.53350366118059e-07,1.53350366118616e-07,7.59997732005119e-08,0,1,0,0.204799999999977,103,965.673300970874,520.347087378641,1774.36893203884,921.073786407767,1010.27281553398,478.750485436893,561.943689320388,1876.96116504854,1671.77669902913,0
2172.6208,-2.90745909743519e-07,9.77987308731605e-08,-1.92947178870556e-07,2.22347739278347e-07,-5.96540943852799e-08,-5.96540943851946e-08,,3.97520949345649e-07,-3.88937084812145e-08,-3.23826924207566e-07,-8.55047046121929e-07,-3.23826924209455e-07,6.32347941968862e-07,2.69281007639671e-07,9.01628949608901e-07,1.61240106201905e-07,,1.0904728134036e-07,7.75274653530333e-07,-1.17082286591802e-06,7.75274653530851e-07,-3.20108053407653e-07,3.18177504460392e-07,-1.93054894712486e-09,4.19305393142915e-07,-2.07285338988034e-08,,-5.73523173238535e-08,5.73523173236691e-08,-2.20742655105052e-07,-7.46622038277451e-07,-2.27125558167742e-07,-9.73747596445473e-07,4.94197797987999e-08,-4.72630124665265e-08,2.15676733221522e-09,-2.77338463784373e-07,-2.43451562408528e-07,-2.43451562408486e-07,-1.12805976147377e-06,,,7.28710301690307e-07,3.03534382852024e-07,1.03224468454184e-06,2.09548784436926e-07,2.31903928384201e-07,2.31903928384398e-07,-1.75719573541307e-07,1.75719573541872e-07,7.60648644476764e-08,0,0,0,0.307200000000194,102,966.428431372549,513.128431372549,1775.0931372549,920.009803921569,1012.84705882353,475.354901960784,550.901960784314,1881.08823529412,1669.09803921569,0
2172.7232,-2.78448944832634e-07,1.01503680757669e-07,-1.76945264075166e-07,2.05967013859876e-07,-5.89734574916751e-08,-5.89734574915896e-08,,4.0747743447369e-07,-2.90320654447816e-08,-2.82599560649204e-07,-8.45880824834599e-07,-2.82599560651102e-07,6.39384859580435e-07,2.71075448153083e-07,9.10460307733888e-07,1.30395769408866e-07,,1.0398297108624e-07,7.746289802941e-07,-1.14660743888123e-06,7.74628980294625e-07,-3.30187554752952e-07,3.39215268564742e-07,9.02771381192935e-09,4.03919161730291e-07,-1.9794928598021e-08,,-5.33359251794264e-08,5.33359251792462e-08,-2.17530532187122e-07,-7.39973316447385e-07,-2.30418231131826e-07,-9.70391547579504e-07,4.64986908599099e-08,-4.10999791936379e-08,5.39871166621505e-09,-2.72665297678434e-07,-2.40988337266875e-07,-2.40988337266831e-07,-1.13577302436792e-06,,,6.96275777873901e-07,3.27170295419285e-07,1.0234460732927e-06,1.98473907975856e-07,2.34288041488824e-07,2.34288041489016e-07,-1.88687779997006e-07,1.88687779997573e-07,7.46593996817973e-08,0,0,0,0.409599999999955,103,965.834951456311,517.045631067961,1763.8786407767,919.781553398058,1011.88834951456,475.442718446602,558.64854368932,1872.32038834951,1655.43689320388,0
2172.8256,-2.65509097329895e-07,1.04604471820006e-07,-1.60904625510094e-07,1.88088601495047e-07,-5.81438894667534e-08,-5.81438894666672e-08,,4.16020887886866e-07,-2.1296725360769e-08,-2.50020923953993e-07,-8.38316617172231e-07,-2.50020923955899e-07,6.49367484730596e-07,2.73078007736214e-07,9.22445492467179e-07,1.0117018075645e-07,,9.94128118408859e-08,7.68264447759116e-07,-1.11026776564689e-06,7.68264447759644e-07,-3.36717814681767e-07,3.60363782652377e-07,2.36459679707495e-08,3.86160363519717e-07,-1.88918479656458e-08,,-4.97634153483107e-08,4.97634153481336e-08,-2.17225895847285e-07,-7.3642057615372e-07,-2.31550452337405e-07,-9.6797102849143e-07,4.45778101312876e-08,-3.46858750606756e-08,9.89193507055791e-09,-2.70715759669925e-07,-2.35747409745462e-07,-2.35747409745417e-07,-1.1434613588317e-06,,,6.59623732846785e-07,3.57769404775909e-07,1.01739313762221e-06,1.88400140613617e-07,2.38651781914213e-07,2.386517819144e-07,-1.93411130504246e-07,1.93411130504811e-07,7.00772779568952e-08,0,0,0,0.512000000000171,102,965.532843137255,516.032843137255,1747.83333333333,920.130392156863,1010.93529411765,480.567647058824,551.498039215686,1857.86274509804,1637.80392156863,0
2172.928,-2.51487884288931e-07,1.07293741407237e-07,-1.44194142881901e-07,1.69213670797053e-07,-5.72324689446253e-08,-5.72324689445386e-08,,4.23402734285753e-07,-1.47388466445984e-08,-2.24516509843884e-07,-8.32170381812414e-07,-2.24516509845802e-07,6.61499033593243e-07,2.75271910432025e-07,9.36770944025636e-07,7.30963061620346e-08,,9.52119084412767e-08,7.58479632077071e-07,-1.06435783033966e-06,7.58479632077609e-07,-3.41067840239155e-07,3.81523486222805e-07,4.04556459837903e-08,3.66213441910841e-07,-1.77223097408632e-08,,-4.66992154667264e-08,4.66992154665502e-08,-2.19250503322033e-07,-7.35441213397996e-07,-2.30224147856537e-07,-9.65665361254847e-07,4.31826399556602e-08,-2.81456219578751e-08,1.50370179977355e-08,-2.71147492588146e-07,-2.28411571316307e-07,-2.28411571316261e-07,-1.14896906569325e-06,,,6.20536738768786e-07,3.92640779054401e-07,1.01317751782271e-06,1.78909265177296e-07,2.44324217992804e-07,2.44324217992986e-07,-1.92810513702069e-07,1.92810513702629e-07,6.10664120785752e-08,0,0,0,0.614399999999932,102,965.224509803922,522.267647058824,1718.15196078431,919.962745098039,1010.4862745098,486.769607843137,557.76568627451,1830.41176470588,1605.89215686275,0
2173.0304,-2.36023185553151e-07,1.09767303122343e-07,-1.26255882431018e-07,1.49664332549742e-07,-5.63470910208667e-08,-5.63470910207793e-08,,4.29889556486352e-07,-8.52226420319053e-09,-2.0344603196755e-07,-8.26587420859954e-07,-2.0344603196948e-07,6.74400568189595e-07,2.77538407524332e-07,9.51938975714291e-07,4.51009782701814e-08,,9.09096700812554e-08,7.46897405616043e-07,-1.01125869267187e-06,7.46897405616586e-07,-3.45041712587809e-07,4.0258367572197e-07,5.75419631343004e-08,3.44056105082928e-07,-1.59992046403672e-08,,-4.4100498531759e-08,4.41004985315824e-08,-2.22978992037487e-07,-7.36347990155171e-07,-2.26459053735201e-07,-9.62807043890693e-07,4.18041503655371e-08,-2.16296756130204e-08,2.01744747524727e-08,-2.73603271218471e-07,-2.19716614582826e-07,-2.19716614582778e-07,-1.15047133735509e-06,,,5.81055864487186e-07,4.28733826884808e-07,1.00978969137153e-06,1.69236492273111e-07,2.50436659838665e-07,2.50436659838841e-07,-1.91088005666331e-07,1.91088005666885e-07,4.71243800116184e-08,0,0,0,0.716800000000148,103,964.864563106796,530.872330097087,1678.82524271845,922.357281553398,1007.37184466019,499.594174757282,562.150485436893,1799.23300970874,1558.41747572816,0
2173.1328,-2.18950076447855e-07,1.12218329759658e-07,-1.0673174668841e-07,1.29390820798282e-07,-5.5599686651809e-08,-5.55996866517206e-08,,4.35765535360153e-07,-2.07379714751299e-09,-1.83615937978099e-07,-8.20170722996115e-07,-1.83615937980042e-07,6.86210164624393e-07,2.79674684377251e-07,9.65884849002003e-07,1.57262765720039e-08,,8.57755488552123e-08,7.34510353318521e-07,-9.52998645983807e-07,7.34510353319076e-07,-3.50703941200481e-07,4.23496184256525e-07,7.27922430561837e-08,3.19382174396178e-07,-1.34646890177743e-08,,-4.18652094639052e-08,4.18652094637276e-08,-2.27863955519743e-07,-7.38376559807434e-07,-2.20574434283343e-07,-9.58950994091103e-07,3.99828557117698e-08,-1.5290303969811e-08,2.46925517419221e-08,-2.77766988767966e-07,-2.10386790252049e-07,-2.10386790252001e-07,-1.14651043486317e-06,,,5.43086017757816e-07,4.63109551463236e-07,1.0061955692206e-06,1.58339416629986e-07,2.56008485444632e-07,2.56008485444803e-07,-1.92788319256041e-07,1.92788319256588e-07,2.87023442527385e-08,0,0,0,0.81919999999991,102,963.323529411765,529.620098039216,1656.00490196078,920.63137254902,1006.01568627451,500.326470588235,558.913725490196,1779.12745098039,1532.88235294118,0
2173.2352,-2.00391753618311e-07,1.14822214449423e-07,-8.55695391691037e-08,1.07902643811753e-07,-5.50644087714365e-08,-5.50644087713467e-08,,4.41358611186804e-07,4.90318159640558e-09,-1.61913509488266e-07,-8.11254857930404e-07,-1.61913509490227e-07,6.9485060934117e-07,2.81447324722776e-07,9.762979340643e-07,-1.66305524394379e-08,,7.89417505691482e-08,7.21920710733273e-07,-8.91218882166483e-07,7.21920710733842e-07,-3.6015031282294e-07,4.44354207915233e-07,8.42038950924314e-08,2.91623782285727e-07,-9.92529869749473e-09,,-3.98797295869879e-08,3.98797295868082e-08,-2.33555280170839e-07,-7.40737225171691e-07,-2.13123607873626e-07,-9.53860833045645e-07,3.73784937928202e-08,-9.26504158899033e-09,2.8113452203801e-08,-2.83369459424147e-07,-2.01091375110694e-07,-2.01091375110645e-07,-1.13602936137885e-06,,,5.08090693028058e-07,4.9329802607841e-07,1.00138871910602e-06,1.45078458552786e-07,2.6010531778205e-07,2.60105317782216e-07,-2.01580033065414e-07,2.01580033065953e-07,7.28671622908552e-09,0,0,0,0.921600000000126,102,963.927941176471,529.000980392157,1653.30882352941,922.95,1004.90588235294,496.426470588235,561.575490196079,1774.89215686275,1531.72549019608,0
2173.3376,-1.80768968792539e-07,1.17714208927743e-07,-6.30547598650147e-08,8.43702010869764e-08,-5.47501777235302e-08,-5.47501777234389e-08,,4.47052025765991e-07,1.25518525297543e-08,-1.35831728203955e-07,-7.98224138072396e-07,-1.35831728205935e-07,6.98397474411376e-07,2.82656989958255e-07,9.8105446436998e-07,-5.34703469112786e-08,,6.95597179299178e-08,7.0961820782005e-07,-8.27134663945136e-07,7.09618207820638e-07,-3.75232429797215e-07,4.65413563116761e-07,9.01811333196863e-08,2.6006968288953e-07,-5.29947769084146e-09,,-3.80510039127119e-08,3.805100391253e-08,-2.39980855083761e-07,-7.42655753795189e-07,-2.04812716280521e-07,-9.47468470076042e-07,3.37973006932825e-08,-3.66471529497088e-09,3.01325853982911e-08,-2.90149238787167e-07,-1.92415814711764e-07,-1.92415814711716e-07,-1.1185105300821e-06,,,4.77004737782627e-07,5.17457112777854e-07,9.94461850560049e-07,1.28477072022347e-07,2.62010678560184e-07,2.62010678560344e-07,-2.19220650074902e-07,2.19220650075433e-07,-1.46772924759099e-08,0,0,0,1.02399999999989,103,965.485922330097,533.705825242719,1663.77184466019,927.331067961165,1003.64077669903,495.22427184466,572.187378640777,1782.20388349515,1545.33980582524,0
2173.44,-1.60724162166168e-07,1.20969020120012e-07,-3.9755142046378e-08,5.78436720085137e-08,-5.45949911424144e-08,-5.45949911423215e-08,,4.53260688692096e-07,2.10267380272602e-08,-1.03752033729701e-07,-7.79789470171082e-07,-1.03752033731701e-07,6.95432808572424e-07,2.83187610416212e-07,9.78620418988978e-07,-9.59551975519188e-08,,5.69823769859334e-08,6.9817942566615e-07,-7.61517715672847e-07,6.98179425666757e-07,-3.97253543648416e-07,4.87002789288499e-07,8.97492456402252e-08,2.24037254342807e-07,3.45354115189183e-10,,-3.63219775558514e-08,3.63219775556677e-08,-2.47359517880773e-07,-7.43416433309135e-07,-1.96418411989293e-07,-9.39834845298763e-07,2.91813110484309e-08,1.4380578966933e-09,3.0619368945112e-08,-2.9780748079927e-07,-1.84830373452783e-07,-1.84830373452734e-07,-1.09416441766949e-06,,,4.50348765659982e-07,5.34362094185792e-07,9.84710859845356e-07,1.07989173687061e-07,2.61340954438678e-07,2.61340954438832e-07,-2.45111429126974e-07,2.45111429127496e-07,-3.40450228731311e-08,0,0,0,1.1264000000001,102,969.055882352941,533.769607843137,1684.70588235294,927.609803921569,1010.50196078431,502.243137254902,565.296078431373,1796.29411764706,1573.11764705882,0
2173.5424,-1.41003184079175e-07,1.24590391911401e-07,-1.64127921680005e-08,2.75012819196133e-08,-5.44797195533418e-08,-5.44797195532461e-08,,4.60377482543466e-07,3.05810472107392e-08,-6.49997352876793e-08,-7.55185810686296e-07,-6.49997352897022e-08,6.85284961160391e-07,2.83024733963916e-07,9.68309695124647e-07,-1.44716427267538e-07,,4.09337997315416e-08,6.88327924236864e-07,-6.94814955943573e-07,6.88327924237494e-07,-4.26710254590303e-07,5.09358136989367e-07,8.26478823992101e-08,1.83057916059897e-07,6.79017748601918e-09,,-3.46729931813161e-08,3.4672993181131e-08,-2.56127792010334e-07,-7.42408417425856e-07,-1.88701340319127e-07,-9.3110975774532e-07,2.35865795394561e-08,6.01741045763297e-09,2.96039899970853e-08,-3.05993713253276e-07,-1.7864916498512e-07,-1.78649164985072e-07,-1.0640126801216e-06,,,4.28386957865255e-07,5.43342701893063e-07,9.71729659757913e-07,8.36894688318151e-08,2.58066337565628e-07,2.58066337565776e-07,-2.76547786388955e-07,2.76547786389472e-07,-4.74361361676696e-08,0,0,0,1.22879999999986,103,969.012621359223,534.783009708738,1712.1359223301,926.346601941748,1011.6786407767,501.809708737864,567.756310679612,1818.31067961165,1605.96116504854,0
2173.6448,-1.22340484759839e-07,1.28511061664625e-07,6.17057690455329e-09,-7.13213827691054e-09,-5.425955761282e-08,-5.42595576127214e-08,,4.68698761936782e-07,4.15238985727424e-08,-1.97535357180431e-08,-7.2427666725855e-07,-1.9753535720091e-08,6.68107202539698e-07,2.82240526604825e-07,9.5034772914486e-07,-1.99720592238917e-07,,2.16237619035918e-08,6.8084637992777e-07,-6.273819049318e-07,6.80846379928416e-07,-4.63191513037358e-07,5.32499133817649e-07,6.93076207804447e-08,1.37049265114403e-07,1.37006310331498e-08,,-3.31116409328453e-08,3.31116409326592e-08,-2.66787953703669e-07,-7.3917921272935e-07,-1.82316581722667e-07,-9.21495794452357e-07,1.71682013870838e-08,1.00943512878384e-08,2.72625526749259e-08,-3.14328410125658e-07,-1.73993505239696e-07,-1.73993505239649e-07,-1.02976848040978e-06,,,4.11209098895247e-07,5.44250086492965e-07,9.55459185387821e-07,5.6320678667665e-08,2.52445540592572e-07,2.52445540592714e-07,-3.09531040260884e-07,3.09531040261397e-07,-5.18810824396095e-08,1,0,0,1.33120000000008,102,967.783823529412,534.666176470588,1741.88235294118,925.13431372549,1010.43333333333,495.547058823529,573.785294117647,1846.82352941176,1636.94117647059,0
2173.7472,-1.05374811406124e-07,1.3260165780928e-07,2.72268464029169e-08,-4.60350696900903e-08,-5.3805707506318e-08,-5.38057075062157e-08,,4.78341533616788e-07,5.40837666698618e-08,3.11045510178418e-08,-6.875608999351e-07,3.11045510157674e-08,6.4480034566404e-07,2.80955335613012e-07,9.2575568127739e-07,-2.60202729132146e-07,,-2.13178235119737e-10,6.76384681130634e-07,-5.59681812868587e-07,6.76384681131296e-07,-5.05466746588854e-07,5.56210467889303e-07,5.07437213006107e-08,8.64408993031607e-08,2.06875879362447e-08,,-3.165944385243e-08,3.16594438522438e-08,-2.79725684239465e-07,-7.33494767683476e-07,-1.77738001541068e-07,-9.11232769224889e-07,1.01694774068681e-08,1.37290752741063e-08,2.38985526809845e-08,-3.22441912446781e-07,-1.70782738306245e-07,-1.70782738306199e-07,-9.93546726954018e-07,,,3.98725589781057e-07,5.3746520664786e-07,9.36190796428539e-07,2.71697886927542e-08,2.4491693446462e-07,2.44916934464753e-07,-3.39864418802658e-07,3.39864418803171e-07,-4.54990949001031e-08,1,0,0,1.43359999999984,103,964.68932038835,534.316990291262,1765.83980582524,925.293203883495,1004.0854368932,496.346601941748,572.287378640777,1865.36893203884,1666.31067961165,0
2173.8496,-9.06042119199508e-08,1.36690480304068e-07,4.60862683838704e-08,-8.86378342858635e-08,-5.30377446437888e-08,-5.30377446436827e-08,,4.8918365137736e-07,6.82647637373075e-08,8.61324768103955e-08,-6.46095410421787e-07,8.61324768082939e-08,6.16828259768122e-07,2.79296989888117e-07,8.96125249656579e-07,-3.24703212676213e-07,,-2.33610072038022e-08,6.75250582641423e-07,-4.92358752491398e-07,6.75250582642099e-07,-5.5167943930284e-07,5.80091067035885e-07,2.84116277332159e-08,3.22158750381622e-08,2.73720358709271e-08,,-3.0347642119919e-08,3.03476421197323e-08,-2.95070690233033e-07,-7.25389894411852e-07,-1.75216414362742e-07,-9.00606308774943e-07,2.90346769554231e-09,1.70105332318125e-08,1.99140009273697e-08,-3.30007136316291e-07,-1.68764327786668e-07,-1.68764327786624e-07,-9.57524073773266e-07,,,3.90603086779782e-07,5.23923884520664e-07,9.14526971300082e-07,-2.19491843432149e-09,2.36000630458252e-07,2.36000630458375e-07,-3.64171798547543e-07,3.64171798548056e-07,-2.79534454447413e-08,1,0,0,1.53600000000006,102,967.600490196078,528.8,1788.34803921569,924.937254901961,1010.2637254902,488.724509803922,568.875490196079,1883.05882352941,1693.63725490196,0
2173.952,-7.8372648700322e-08,1.40592421857234e-07,6.22197731566571e-08,-1.33882438471364e-07,-5.19307905904451e-08,-5.19307905903341e-08,,5.0086660417716e-07,8.37716955696047e-08,1.4343590835821e-07,-6.01368685916687e-07,1.43435908356083e-07,5.85996382261182e-07,2.77378602575869e-07,8.63374984837394e-07,-3.91219293008147e-07,,-4.6252896039937e-08,6.77268194801909e-07,-4.26213821089842e-07,6.77268194802599e-07,-5.99560509968327e-07,6.03612046385878e-07,4.05153641773203e-09,-2.41558580764283e-08,3.34387224025957e-08,,-2.92266101533407e-08,2.92266101531546e-08,-3.12655485474411e-07,-7.15184277236665e-07,-1.74774599493263e-07,-8.89958876730282e-07,-4.27766632278556e-09,2.00432697292792e-08,1.57656034065123e-08,-3.36760597869643e-07,-1.67574517776416e-07,-1.67574517776375e-07,-9.23667851026052e-07,,,3.8615919538843e-07,5.05124195526593e-07,8.91283390914671e-07,-3.02380386483904e-08,2.26240324246942e-07,2.26240324247053e-07,-3.80548402209844e-07,3.80548402210359e-07,-5.00347156860496e-10,0,0,0,1.63840000000027,102,966.302941176471,525.126470588235,1800.55882352941,923.983333333333,1008.62254901961,482.478431372549,567.774509803922,1888.67647058824,1712.44117647059,0
2174.0544,-6.88680729221786e-08,1.44135616028475e-07,7.52675431060327e-08,-1.80381519229843e-07,-5.05027944879689e-08,-5.05027944878533e-08,,5.12875653756731e-07,1.00032588888518e-07,2.00750500376793e-07,-5.551648276523e-07,2.00750500374639e-07,5.54253263770601e-07,2.7530112449583e-07,8.29554388266779e-07,-4.57426785592461e-07,,-6.71809769303038e-08,6.81727933162882e-07,-3.62146118142659e-07,6.81727933163584e-07,-6.46642742704308e-07,6.26164148869039e-07,-2.04785938350769e-08,-8.08889401608134e-08,3.86697405262667e-08,,-2.83808110561652e-08,2.83808110559791e-08,-3.32077838362046e-07,-7.03447402638362e-07,-1.76224283733479e-07,-8.79671686372198e-07,-1.10198367376662e-08,2.29264069945299e-08,1.19065702568851e-08,-3.42518991408613e-07,-1.66810066589835e-07,-1.66810066589796e-07,-8.93601967626621e-07,,,3.84230250473656e-07,4.83094483527337e-07,8.67324734000653e-07,-5.57268401669414e-08,2.16174386684178e-07,2.16174386684278e-07,-3.88759900941364e-07,3.88759900941881e-07,3.43578958173098e-08,0,0,0,1.74080000000004,103,966.204368932039,528.789805825243,1803.97087378641,923.060194174757,1009.34854368932,495.02427184466,562.555339805825,1890.47572815534,1717.46601941748,0
2174.1568,-6.21107375538316e-08,1.47173676988244e-07,8.50629394341391e-08,-2.26633661288094e-07,-4.8799930623871e-08,-4.87999306237503e-08,,5.24672598354113e-07,1.16303276760219e-07,2.55536887418359e-07,-5.09443240178386e-07,2.55536887416182e-07,5.23550000051152e-07,2.73171432527492e-07,7.96721432578997e-07,-5.20922669696221e-07,,-8.45410330192901e-08,6.87390831625452e-07,-3.01095092217199e-07,6.87390831626161e-07,-6.9046944480135e-07,6.47091184359595e-07,-4.33782604415517e-08,-1.3612282611293e-07,4.29553250140968e-08,,-2.79380028638322e-08,2.79380028636479e-08,-3.52827528075708e-07,-6.90916444833713e-07,-1.7919142693102e-07,-8.70107871765097e-07,-1.70022283495047e-08,2.57253488086004e-08,8.72312045911809e-09,-3.47194745761507e-07,-1.66094560899672e-07,-1.66094560899634e-07,-8.68621904509308e-07,,,3.83047903007015e-07,4.60317183418182e-07,8.43365086424869e-07,-7.79009354135998e-08,2.06320755650114e-07,2.06320755650202e-07,-3.90075193510205e-07,3.90075193510727e-07,7.34615412349882e-08,0,0,0,1.84320000000025,102,968.012745098039,520.939215686275,1791.89705882353,927.173529411765,1008.85196078431,474.600980392157,567.277450980392,1879.14705882353,1704.64705882353,0
2174.2592,-5.79278730480342e-08,1.49582217569752e-07,9.16543445214359e-08,-2.71235143165876e-07,-4.6890933527693e-08,-4.68909335275674e-08,,5.3582951837291e-07,1.31809160290909e-07,3.05133429802826e-07,-4.66235741858162e-07,3.05133429800627e-07,4.95760166698079e-07,2.71119589356817e-07,7.66879756055255e-07,-5.79442596440425e-07,,-9.7038461456807e-08,6.92524255544346e-07,-2.44011114429962e-07,6.92524255545064e-07,-7.28768733799836e-07,6.65704699319056e-07,-6.30640344805646e-08,-1.88168656564974e-07,4.62836752367975e-08,,-2.80673905162148e-08,2.80673905160326e-08,-3.74421495200744e-07,-6.78390218339402e-07,-1.83150901089983e-07,-8.61541119429754e-07,-2.19636116965943e-08,2.84477981144796e-08,6.48418641790849e-09,-3.50803498379104e-07,-1.6513055773153e-07,-1.65130557731493e-07,-8.49818921991539e-07,,,3.80199148850509e-07,4.39596001162441e-07,8.19795150012631e-07,-9.65244432209494e-08,1.97170757463659e-07,1.97170757463736e-07,-3.86892306167562e-07,3.8689230616809e-07,1.13631675455543e-07,0,0,0,1.94560000000001,103,955.590291262136,522.352912621359,1749.80097087379,914.666019417476,996.514563106796,484.093203883495,560.612621359223,1842.52427184466,1657.07766990291,0
2174.3616,-5.59339027560577e-08,1.51248297530308e-07,9.53143947739621e-08,-3.13040370725454e-07,-4.48688622144108e-08,-4.48688622142804e-08,,5.4610973003865e-07,1.45873939111231e-07,3.46986993338126e-07,-4.27538551109022e-07,3.46986993335907e-07,4.72625138166037e-07,2.69300640336145e-07,7.41925778502547e-07,-6.30998905227777e-07,,-1.03803025338704e-07,6.95008716178134e-07,-1.91852942236233e-07,6.95008716178858e-07,-7.59584436192678e-07,6.81285480609612e-07,-7.82989555828381e-08,-2.35702823896896e-07,4.87146106095207e-08,,-2.89647921232992e-08,2.89647921231182e-08,-3.96497952459475e-07,-6.66630308576866e-07,-1.87479424132096e-07,-8.54109732709335e-07,-2.57183476811873e-08,3.10387538812723e-08,5.32040620010808e-09,-3.53448796454504e-07,-1.63737863447282e-07,-1.63737863447246e-07,-8.38233473729073e-07,,,3.72764261717525e-07,4.2383381881223e-07,7.96598080529445e-07,-1.11821097465715e-07,1.89166816547355e-07,1.89166816547421e-07,-3.82319654026565e-07,3.82319654027099e-07,1.52191344626337e-07,0,0,0,2.04800000000023,102,945.899019607843,521.098529411765,1684.53921568627,910.4,981.398039215686,474.825490196078,567.371568627451,1769.6568627451,1599.42156862745,0
2174.464,-5.55399766315146e-08,1.52064072741189e-07,9.65240961093799e-08,-3.51251238334701e-07,-4.28530554710537e-08,-4.28530554709189e-08,,5.55467071743892e-07,1.58008571135835e-07,3.78944314728346e-07,-3.95164134558232e-07,3.78944314726107e-07,4.55671058660302e-07,2.67876045310933e-07,7.23547103971606e-07,-6.73932409621082e-07,,-1.04413124878233e-07,6.92581409960906e-07,-1.45558294485177e-07,6.9258140996163e-07,-7.81397059253396e-07,6.93100225651498e-07,-8.82968336016603e-08,-2.77878446585361e-07,5.03460793154222e-08,,-3.08229912403478e-08,3.08229912401686e-08,-4.18838708108064e-07,-6.56295017448368e-07,-1.91531173643435e-07,-8.47826191092178e-07,-2.81687891807011e-08,3.34005009406437e-08,5.23171175996547e-09,-3.55274819557903e-07,-1.61883181622239e-07,-1.61883181622204e-07,-8.34959773770962e-07,,,3.57684998163114e-07,4.15699156103001e-07,7.73384154265813e-07,-1.2431961821665e-07,1.82629591381801e-07,1.82629591381857e-07,-3.7978403455315e-07,3.7978403455369e-07,1.87285541429832e-07,0,0,0,2.15039999999999,102,946.320098039216,525.462745098039,1650.27941176471,915.219607843137,977.420588235294,483.617647058824,567.307843137255,1727.33333333333,1573.22549019608,0
2174.5664,-5.60054969076239e-08,1.51933430041039e-07,9.59279331331147e-08,-3.85442302509052e-07,-4.09832521937615e-08,-4.09832521936229e-08,,5.63973549850838e-07,1.67956122793855e-07,3.9955856950699e-07,-3.70535954295672e-07,3.99558569504735e-07,4.46064983749176e-07,2.66981612203747e-07,7.13046595953298e-07,-7.06932532377409e-07,,-9.88617973283591e-08,6.83227744669212e-07,-1.05935629854114e-07,6.83227744669938e-07,-7.93264829277663e-07,7.00469326376411e-07,-9.27955029010041e-08,-3.14360387904504e-07,5.12860657748238e-08,,-3.37880447950369e-08,3.37880447948591e-08,-4.41319504094491e-07,-6.47909633786525e-07,-1.94732030735196e-07,-8.42641664522097e-07,-2.93198925184107e-08,3.54307565891607e-08,6.11086407077236e-09,-3.56402182063642e-07,-1.59697414385961e-07,-1.59697414385926e-07,-8.41173665602299e-07,,,3.32311460022396e-07,4.17215270064746e-07,7.49526730086846e-07,-1.34676092597131e-07,1.77652909638583e-07,1.77652909638631e-07,-3.82622490604684e-07,3.82622490605228e-07,2.18012260662313e-07,0,0,0,2.25280000000021,103,948.493689320388,525.82427184466,1646.62621359223,915.489320388349,981.498058252427,493.609708737864,558.038834951456,1718.27184466019,1574.98058252427,0
2174.6688,-5.65343609489784e-08,1.50794692790462e-07,9.4260331841178e-08,-4.15538877156525e-07,-3.9400492267283e-08,-3.94004922671411e-08,,5.71715455156386e-07,1.75687810701524e-07,4.08344521333367e-07,-3.54456324715552e-07,4.08344521331098e-07,4.44422629014101e-07,2.66693849066484e-07,7.11116478080966e-07,-7.29073209595488e-07,,-8.74986778179901e-08,6.65626342702112e-07,-7.34834563728554e-08,6.65626342702836e-07,-7.94957178323995e-07,7.02883431886352e-07,-9.20737464373856e-08,-3.4529822998104e-07,5.16395674360619e-08,,-3.7906627928114e-08,3.79066279279366e-08,-4.63815261452761e-07,-6.41858059234086e-07,-1.96677805547171e-07,-8.38535864781631e-07,-2.92899951555322e-08,3.70631487663864e-08,7.77315361087545e-09,-3.56881337882126e-07,-1.57464389020503e-07,-1.57464389020468e-07,-8.58074692698793e-07,,,2.94973058853035e-07,4.29380395783275e-07,7.24353454636019e-07,-1.43552512934359e-07,1.74040590452645e-07,1.74040590452687e-07,-3.93606281030214e-07,3.93606281030762e-07,2.44392315088197e-07,0,0,0,2.35519999999997,102,948.969607843137,527.742156862745,1665.91666666667,913.300980392157,984.638235294118,499.912745098039,555.571568627451,1738.92156862745,1592.91176470588,0
2174.7712,-5.64098642017611e-08,1.48654646366849e-07,9.22447821647792e-08,-4.41760546921461e-07,-3.82158166687377e-08,-3.82158166685925e-08,,5.78704099810162e-07,1.81339748935659e-07,4.05897842943708e-07,-3.46924440321524e-07,4.05897842941428e-07,4.50619750333957e-07,2.67004842834468e-07,7.17624593168811e-07,-7.39875027925788e-07,,-7.09738985449243e-08,6.39484076918478e-07,-4.81987884001379e-08,6.39484076919199e-07,-7.87022008276177e-07,7.00116677452944e-07,-8.69053308229678e-08,-3.71242597477762e-07,5.15123211310908e-08,,-4.30768885322747e-08,4.30768885320979e-08,-4.86094920631331e-07,-6.38383974210265e-07,-1.97209286988096e-07,-8.35593261198732e-07,-2.83043795798159e-08,3.82932322682268e-08,9.98885268843107e-09,-3.56687043208361e-07,-1.55570607223883e-07,-1.55570607223848e-07,-8.86698708927908e-07,,,2.45378070385747e-07,4.51970961312701e-07,6.9734903169816e-07,-1.51588860417202e-07,1.71342324334381e-07,1.71342324334419e-07,-4.14423818914814e-07,4.14423818915364e-07,2.67166950255459e-07,0,0,0,2.45760000000018,102,953.288235294118,526.612745098039,1682.76470588235,914.28431372549,992.292156862745,500.542156862745,552.683333333333,1756.6568627451,1608.87254901961,0
2174.8736,-5.51469440936948e-08,1.45621170304447e-07,9.04742262104386e-08,-4.64546573961494e-07,-3.74746497843042e-08,-3.74746497841561e-08,,5.84831436064822e-07,1.85098091385697e-07,3.93800981575629e-07,-3.47093510068858e-07,3.93800981573341e-07,4.63684181185013e-07,2.67814685977482e-07,7.31498867162885e-07,-7.39387085764611e-07,,-5.01973370502449e-08,6.05638814370154e-07,-2.94770633629341e-08,6.05638814370874e-07,-7.70764176600725e-07,6.9229024737303e-07,-7.84739292274241e-08,-3.93015903949653e-07,5.10253071207833e-08,,-4.90255684509129e-08,4.90255684507364e-08,-5.07743688368241e-07,-6.37588415128112e-07,-1.96430793510276e-07,-8.34019208638757e-07,-2.6665063036825e-08,3.91808930392517e-08,1.25158300024455e-08,-3.55749400336585e-07,-1.54427501479431e-07,-1.54427501479396e-07,-9.27591448353519e-07,,,1.84704187689637e-07,4.83630855408642e-07,6.68335043097995e-07,-1.59423041016884e-07,1.6897851157347e-07,1.68978511573504e-07,-4.45232059696433e-07,4.45232059696984e-07,2.87437446775321e-07,0,1,0,2.55999999999995,103,954.227669902913,524.03786407767,1699.8932038835,914.602912621359,993.852427184466,498.556310679612,549.519417475728,1775.74757281553,1624.03883495146,0
2174.976,-5.2618549611523e-08,1.41917193260079e-07,8.92986436482382e-08,-4.84477227655497e-07,-3.71295461233324e-08,-3.71295461231817e-08,,5.89880827923434e-07,1.87086067901101e-07,3.74303920011744e-07,-3.53410451792825e-07,3.74303920009451e-07,4.81850007013701e-07,2.68950357958071e-07,7.50800364972166e-07,-7.28275677540396e-07,,-2.63127035383408e-08,5.6591983100928e-07,-1.61963958728868e-08,5.65919831009995e-07,-7.48139985659261e-07,6.79886083278316e-07,-6.82539023806692e-08,-4.11559871722099e-07,5.03290018736557e-08,,-5.53324115458015e-08,5.53324115456262e-08,-5.28150353666177e-07,-6.39402129039213e-07,-1.94650262130151e-07,-8.34052391169731e-07,-2.47039911849818e-08,3.98303756358998e-08,1.51263844509353e-08,-3.54000290373784e-07,-1.54392173555889e-07,-1.54392173555853e-07,-9.80447194176588e-07,,,1.15390537932249e-07,5.2220589763977e-07,6.37596435571738e-07,-1.67659961321177e-07,1.66395197461401e-07,1.66395197461434e-07,-4.84442374324305e-07,4.84442374324856e-07,3.06240276114202e-07,0,1,0,2.66240000000016,102,958.222058823529,519.509803921569,1725.61764705882,914.364705882353,1002.07941176471,490.489215686275,548.530392156863,1806.5,1644.73529411765,0
2175.0784,-4.91035349045554e-08,1.37861403024153e-07,8.87578681192758e-08,-5.02179739716605e-07,-3.70360077754097e-08,-3.70360077752564e-08,,5.93587858661285e-07,1.87328951559955e-07,3.49883533363076e-07,-3.63892918134231e-07,3.49883533360779e-07,5.02810662675013e-07,2.70209870892544e-07,7.73020533567957e-07,-7.07895748206701e-07,,-6.75192277863288e-10,5.22830926308556e-07,-6.97103776742892e-09,5.22830926309268e-07,-7.21556375708703e-07,6.6372567502659e-07,-5.78307006818335e-08,-4.27776921048412e-07,4.96050346213651e-08,,-6.14993006576452e-08,6.14993006574715e-08,-5.46573370836413e-07,-6.43533077830505e-07,-1.92252900815154e-07,-8.35785978646025e-07,-2.27351828910017e-08,4.03563812744958e-08,1.76211983835092e-08,-3.51413409335022e-07,-1.55708112114104e-07,-1.55708112114068e-07,-1.04387615774432e-06,,,4.07482872783251e-08,5.65167940373439e-07,6.05916227651485e-07,-1.76743599681589e-07,1.63191660206507e-07,1.63191660206538e-07,-5.28888062987061e-07,5.28888062987614e-07,3.24186835417931e-07,0,1,0,2.76479999999992,103,959.004368932039,516.687378640777,1747.81553398058,913.229126213592,1004.77961165049,484.649514563107,548.725242718447,1832.73786407767,1662.8932038835,0
2175.1808,-4.52326517851353e-08,1.3381318377899e-07,8.85805319935303e-08,-5.18210790980943e-07,-3.69802716859234e-08,-3.69802716857674e-08,,5.95728640795436e-07,1.85820611683815e-07,3.22852675731587e-07,-3.76434167564246e-07,3.2285267572929e-07,5.24109509997971e-07,2.71411801869285e-07,7.95521311867659e-07,-6.80295497367327e-07,,2.51845451102039e-08,4.79138375321281e-07,-4.46693083815024e-10,4.79138375321985e-07,-6.93578636934409e-07,6.44906518360085e-07,-4.86721185740408e-08,-4.4238545885447e-07,4.90485225726977e-08,,-6.70358728567011e-08,6.70358728565288e-08,-5.62263593001517e-07,-6.49421759126414e-07,-1.89559117439822e-07,-8.38980876566603e-07,-2.10187835044455e-08,4.08492934550806e-08,1.98305099506487e-08,-3.48022234351784e-07,-1.58474122129858e-07,-1.58474122129822e-07,-1.11541904896072e-06,,,-3.55335172510298e-08,6.10008350905566e-07,5.7447483365426e-07,-1.8679405753352e-07,1.59193786831508e-07,1.59193786831536e-07,-5.74405028869748e-07,5.74405028870305e-07,3.41274766625598e-07,0,0,0,2.86720000000014,102,959.635784313726,518.951960784314,1768.0637254902,915.522549019608,1003.74901960784,486.059803921569,551.844117647059,1854.59803921569,1681.52941176471,0
2175.2832,-4.18600456002365e-08,1.30098000979595e-07,8.82379553790316e-08,-5.32947109506717e-07,-3.6731894058826e-08,-3.67318940586672e-08,,5.9620080436733e-07,1.82632910723432e-07,2.95128076495224e-07,-3.89045438839548e-07,2.95128076492928e-07,5.43529936123261e-07,2.72425432306919e-07,8.15955368430586e-07,-6.48094097980984e-07,,4.96276302663564e-08,4.37469974974163e-07,4.47938189004446e-09,4.37469974974862e-07,-6.66618584376135e-07,6.24692463399512e-07,-4.19261209763389e-08,-4.55822928438833e-07,4.88369238956949e-08,,-7.15316984638493e-08,7.15316984636794e-08,-5.74599646062688e-07,-6.56230077252522e-07,-1.86723331079445e-07,-8.42953408332337e-07,-1.97419478118555e-08,4.13532033013055e-08,2.16112554894621e-08,-3.43909360568032e-07,-1.62638901137945e-07,-1.62638901137908e-07,-1.19179997396429e-06,,,-1.09958605354296e-07,6.54578407580972e-07,5.44619802226402e-07,-1.97513950209269e-07,1.54474634151465e-07,1.54474634151491e-07,-6.16703595603963e-07,6.16703595604523e-07,3.56916600610419e-07,0,0,0,2.9695999999999,103,958.563106796116,517.419902912621,1788.19417475728,917.622330097087,999.503883495146,484.079611650486,550.760194174757,1880.18446601942,1696.20388349515,0
2175.3856,-3.99103493978762e-08,1.26942522282323e-07,8.70321728841168e-08,-5.46520844348649e-07,-3.60996771064116e-08,-3.60996771062511e-08,,5.95069549250563e-07,1.77989839033658e-07,2.68146455099871e-07,-4.00014962322879e-07,2.68146455097577e-07,5.59365970311447e-07,2.731735950271e-07,8.32539565338955e-07,-6.14224864670247e-07,,7.10156856049292e-08,4.00044349988969e-07,8.5548350311071e-09,4.00044349989665e-07,-6.42711113355381e-07,6.04395361300918e-07,-3.83157520541778e-08,-4.68216489896316e-07,4.91006395726915e-08,,-7.47020097064403e-08,7.47020097062733e-08,-5.83187484689252e-07,-6.62869105241783e-07,-1.83697746182333e-07,-8.46566851424493e-07,-1.90164729311185e-08,4.18636476527601e-08,2.28471747216527e-08,-3.39173969816652e-07,-1.68012841093577e-07,-1.6801284109354e-07,-1.26928200696379e-06,,,-1.79754677915623e-07,6.97350282662631e-07,5.17595604746736e-07,-2.08226767739138e-07,1.49338146462387e-07,1.4933814646241e-07,-6.52272168755861e-07,6.52272168756428e-07,3.70133242915361e-07,0,0,0,3.07200000000012,102,959.332352941177,518.88137254902,1799.55882352941,918.988235294118,999.676470588235,487.019607843137,550.743137254902,1898.67647058824,1700.44117647059,0
2175.488,-4.02371164802456e-08,1.24443468604561e-07,8.42063521239825e-08,-5.58807534656463e-07,-3.49694055474109e-08,-3.49694055472502e-08,,5.92572208638058e-07,1.72277300718646e-07,2.42871494213106e-07,-4.08003665625983e-07,2.42871494210812e-07,5.70536846651767e-07,2.73618892761974e-07,8.4415573941415e-07,-5.81614978981332e-07,,8.78589433676888e-08,3.68572655270531e-07,1.21831743298329e-08,3.68572655271222e-07,-6.23426056531433e-07,5.85288041614513e-07,-3.81380149166345e-08,-4.79413534795836e-07,4.99071481315808e-08,,-7.64060016780361e-08,7.64060016778727e-08,-5.87894102461654e-07,-6.68077120659779e-07,-1.80255201373457e-07,-8.4833232203362e-07,-1.88909275061524e-08,4.23431741596702e-08,2.3452246653528e-08,-3.33896386780345e-07,-1.74290234006737e-07,-1.74290234006699e-07,-1.34401833451564e-06,,,-2.43175487805556e-07,7.37522777410438e-07,4.94347289604614e-07,-2.18038531446629e-07,1.44277317592436e-07,1.44277317592457e-07,-6.78998483272406e-07,6.78998483272978e-07,3.79808414228765e-07,0,0,0,3.17439999999988,102,960.662254901961,521.389705882353,1777.9362745098,920.517647058823,1000.8068627451,499.985294117647,542.794117647059,1875.95098039216,1679.92156862745,0
2175.5904,-4.35096801946539e-08,1.22576153445283e-07,7.90664732502928e-08,-5.69468028254087e-07,-3.33120380730198e-08,-3.33120380728606e-08,,5.89091406537008e-07,1.66001344755664e-07,2.198607920434e-07,-4.12094855114626e-07,2.19860792041107e-07,5.76573854561386e-07,2.7374821495165e-07,8.50322069513446e-07,-5.52899925860024e-07,,9.8990494570407e-08,3.44267945529108e-07,1.55195688901248e-08,3.44267945529797e-07,-6.09860361702839e-07,5.68534493183551e-07,-4.1325868519005e-08,-4.89061695719241e-07,5.12599743531537e-08,,-7.66397260561416e-08,7.66397260559827e-08,-5.88823479806843e-07,-6.70560649821879e-07,-1.76059959364516e-07,-8.46620609186786e-07,-1.93727970775224e-08,4.27487769863713e-08,2.33759799088587e-08,-3.28119437980331e-07,-1.81080562922231e-07,-1.81080562922193e-07,-1.41244193357835e-06,,,-2.99489753422224e-07,7.74946290286651e-07,4.75456536864159e-07,-2.26044097929965e-07,1.399009412841e-07,1.39900941284118e-07,-6.96290744727104e-07,6.96290744727683e-07,3.84952383131294e-07,0,0,0,3.27680000000009,103,961.188834951456,526.168446601942,1743.46116504854,922.857281553398,999.520388349515,505.568932038835,546.767961165049,1835.43689320388,1651.4854368932,0
2175.6928,-5.01386194729196e-08,1.21233284541034e-07,7.10946650677755e-08,-5.78049405727091e-07,-3.11634093470115e-08,-3.11634093468537e-08,,5.85108147824665e-07,1.59707365247971e-07,1.99378396307954e-07,-4.11804167283681e-07,1.99378396305662e-07,5.7752382102938e-07,2.73563157479893e-07,8.51086978509683e-07,-5.30234751071261e-07,,1.03736645086231e-07,3.27883417452063e-07,1.8600553693357e-08,3.27883417452751e-07,-6.02633669584925e-07,5.55099013087082e-07,-4.75346564975599e-08,-4.96732125892713e-07,5.31078443062354e-08,,-7.55100794925399e-08,7.55100794923852e-08,-5.86266953554139e-07,-6.69178375478856e-07,-1.70772823703124e-07,-8.39951199182379e-07,-2.04548490135617e-08,4.30627807206276e-08,2.26079317070755e-08,-3.21855444133494e-07,-1.87948176317398e-07,-1.87948176317359e-07,-1.47174913374226e-06,,,-3.48741757167785e-07,8.09934646131998e-07,4.61192888963947e-07,-2.31483406185883e-07,1.36819154098154e-07,1.36819154098167e-07,-7.04692317643078e-07,7.04692317643668e-07,3.84953200127504e-07,0,0,0,3.37919999999986,102,963.83431372549,527.707352941177,1731.40196078431,926.056862745098,1001.61176470588,508.740196078431,546.674509803922,1816.47058823529,1646.33333333333,0
2175.7952,-6.02488822947039e-08,1.20276857018131e-07,6.00279747230835e-08,-5.8413454983138e-07,-2.85875534946622e-08,-2.85875534945064e-08,,5.81142295417772e-07,1.53869393388031e-07,1.81523406725019e-07,-4.07050497940014e-07,1.81523406722727e-07,5.73802185490328e-07,2.73075088740877e-07,8.46877274231614e-07,-5.15203122367702e-07,,1.0202684342028e-07,3.19738834285163e-07,2.14554932439067e-08,3.19738834285851e-07,-6.01875317529884e-07,5.45633773202246e-07,-5.62415443273553e-08,-5.02066821668988e-07,5.53588670514668e-08,,-7.32032995930272e-08,7.32032995928769e-08,-5.80655821967383e-07,-6.63109851596678e-07,-1.64163837385645e-07,-8.2727368898273e-07,-2.21379626828314e-08,4.33146267882816e-08,2.11766641054593e-08,-3.15115708550152e-07,-1.9445751836572e-07,-1.9445751836568e-07,-1.52035534895195e-06,,,-3.91426406678911e-07,8.43039713125905e-07,4.5161330644673e-07,-2.33827494547088e-07,1.35498948414106e-07,1.35498948414113e-07,-7.0519824639233e-07,7.05198246392933e-07,3.79729102976947e-07,0,0,0,3.48160000000007,102,963.899019607843,529.050980392157,1743.54901960784,925.100980392157,1002.69705882353,506.210784313725,551.891176470588,1825.60784313726,1661.49019607843,0
2175.8976,-7.37083402616526e-08,1.19584056300777e-07,4.58757160387777e-08,-5.87506685309877e-07,-2.56405935609657e-08,-2.5640593560812e-08,,5.77692975484815e-07,1.48777109273444e-07,1.66329337154236e-07,-3.98088090950778e-07,1.66329337151944e-07,5.66023715717412e-07,2.72301181864955e-07,8.38324897582775e-07,-5.08789121792818e-07,,9.43842749939361e-08,3.19704256417273e-07,2.41429176812057e-08,3.1970425641796e-07,-6.07237016688606e-07,5.40382592328108e-07,-6.68544243602154e-08,-5.04912515641953e-07,5.78953165490977e-08,,-6.99613325541905e-08,6.99613325540445e-08,-5.72530081031281e-07,-6.51939096690266e-07,-1.56194027782069e-07,-8.0813312447275e-07,-2.44399984102585e-08,4.35806623653067e-08,1.91406639550572e-08,-3.07950419459323e-07,-2.00219275100349e-07,-2.00219275100309e-07,-1.55809584749306e-06,,,-4.28174803360553e-07,8.74816426413202e-07,4.46641623052387e-07,-2.3284428216986e-07,1.36133738054629e-07,1.36133738054631e-07,-6.98626786371699e-07,6.98626786372316e-07,3.69683217483522e-07,0,0,0,3.58399999999983,103,961.956796116505,523.346601941748,1770.75242718447,925.022330097087,998.891262135922,499.402912621359,547.290291262136,1851.67961165049,1689.82524271845,0
2176,-9.02066882080208e-08,1.19073018176814e-07,2.88663299684424e-08,-5.88264943317026e-07,-2.23488746306677e-08,-2.23488746305174e-08,,5.75193025335264e-07,1.44465330876889e-07,1.53796134375588e-07,-3.85410370187412e-07,1.53796134373296e-07,5.54851221332553e-07,2.71261179299469e-07,8.26112400632428e-07,-5.11390512342141e-07,,8.17839550138186e-08,3.27141490918286e-07,2.66722733558945e-08,3.27141490918968e-07,-6.17963439487161e-07,5.39147438064098e-07,-7.88160014227808e-08,-5.05385899765039e-07,6.05873613307971e-08,,-6.60687735443232e-08,6.60687735441814e-08,-5.62514519803637e-07,-6.3561064044831e-07,-1.47029063064566e-07,-7.82639703513298e-07,-2.73838826777633e-08,4.39582181778765e-08,1.65743355001222e-08,-3.0047728982615e-07,-2.04927013722611e-07,-2.0492701372257e-07,-1.5860360639937e-06,,,-4.59498883649642e-07,9.05593947267701e-07,4.46095063617798e-07,-2.28661264569728e-07,1.38592010021507e-07,1.38592010021506e-07,-6.85413420316286e-07,6.85413420316916e-07,3.55477848100586e-07,0,0,0,3.68640000000005,102,961.279411764706,525.345588235294,1795.77941176471,923.856862745098,998.701960784314,500.610784313726,550.080392156863,1878.86274509804,1712.69607843137,0
2176.1024,-1.09350043510827e-07,1.18705127287279e-07,9.35508377609773e-09,-5.86811950004265e-07,-1.87074517308275e-08,-1.87074517306818e-08,,5.73978499538537e-07,1.40729251653589e-07,1.4385538646547e-07,-3.69647540582506e-07,1.43855386463179e-07,5.40907874387646e-07,2.69977201340856e-07,8.10885075728905e-07,-5.22864966342637e-07,,6.54210164034952e-08,3.40869173009443e-07,2.88614258469356e-08,3.40869173010125e-07,-6.33028250718385e-07,5.41343764372217e-07,-9.16844863458862e-08,-5.03819520440474e-07,6.33071107137832e-08,,-6.1840433450951e-08,6.18404334508131e-08,-5.51270352225078e-07,-6.14284520356694e-07,-1.36973192188881e-07,-7.51257712546004e-07,-3.09702985604928e-08,4.45246030519086e-08,1.35543044914253e-08,-2.92874940313123e-07,-2.08372099702826e-07,-2.08372099702785e-07,-1.60592031454211e-06,,,-4.85645351751271e-07,9.35301792291936e-07,4.49656440540405e-07,-2.21781517488772e-07,1.42487388771929e-07,1.42487388771923e-07,-6.6596848704994e-07,6.65968487050582e-07,3.37765848964139e-07,0,1,0,3.78880000000027,103,963.341262135922,525.410679611651,1821.20388349515,923.119417475728,1003.56310679612,496.878640776699,553.942718446602,1905.41747572816,1736.99029126214,0
2176.2048,-1.30719863422296e-07,1.18470889797417e-07,-1.2248973625237e-08,-5.83694826062e-07,-1.46968929386724e-08,-1.46968929385316e-08,,5.7426550659098e-07,1.37239584945125e-07,1.36316654181277e-07,-3.51477279750178e-07,1.36316654178985e-07,5.24769238483838e-07,2.6847674076748e-07,7.93245979251717e-07,-5.42581967225035e-07,,4.64595809020689e-08,3.59224550495115e-07,3.02639735179353e-08,3.59224550495795e-07,-6.51295143889179e-07,5.4611985275929e-07,-1.05175291129608e-07,-5.00602986289361e-07,6.59418574159442e-08,,-5.75971820829333e-08,5.75971820827984e-08,-5.39408504205341e-07,-5.881761835641e-07,-1.26357082235111e-07,-7.14533265799648e-07,-3.51524089336989e-08,4.5298759417222e-08,1.01463504835333e-08,-2.85333697220308e-07,-2.1043999300652e-07,-2.10439993006478e-07,-1.61944819269326e-06,,,-5.06604617005565e-07,9.63409975334217e-07,4.56805358328394e-07,-2.13026523858514e-07,1.47340968957195e-07,1.47340968957185e-07,-6.41331064119631e-07,6.41331064120283e-07,3.17030328797833e-07,0,1,0,3.89120000000003,102,963.415196078431,527.907352941177,1839.65196078431,923.567647058824,1003.26274509804,498.255882352941,557.558823529412,1926.49019607843,1752.8137254902,0
2176.3072,-1.5387077907841e-07,1.18371367340362e-07,-3.54994117384095e-08,-5.79381856262929e-07,-1.0309226487029e-08,-1.03092264868932e-08,,5.761338161632e-07,1.33717856453313e-07,1.30852066481192e-07,-3.31558620771756e-07,1.30852066478899e-07,5.07005191416638e-07,2.66795615183998e-07,7.73800806601033e-07,-5.69462580823617e-07,,2.58371702052399e-08,3.80228829734843e-07,3.0249274417654e-08,3.80228829735519e-07,-6.71641529153751e-07,5.52486517963177e-07,-1.19155011190291e-07,-4.96010757355345e-07,6.84017597726485e-08,,-5.36298525693952e-08,5.36298525692625e-08,-5.27396185308401e-07,-5.57461831411354e-07,-1.15440342042551e-07,-6.72902173454347e-07,-3.98297850332452e-08,4.62189395156193e-08,6.38915448238486e-09,-2.77979568119077e-07,-2.11108884562334e-07,-2.1110888456229e-07,-1.6276606153165e-06,,,-5.22240556811039e-07,9.88984969007317e-07,4.66744412196021e-07,-2.03429081545225e-07,1.52747865136854e-07,1.52747865136839e-07,-6.13637551284571e-07,6.13637551285231e-07,2.93602029902366e-07,0,1,0,3.99360000000024,103,968.072330097087,524.816019417476,1851.14563106796,924.794174757282,1011.35048543689,491.443689320388,558.188349514563,1937.97087378641,1764.32038834951,0
2176.4096,-1.78286290684506e-07,1.18406733675752e-07,-5.98795570091177e-08,-5.7408745211308e-07,-5.56861513703983e-09,-5.56861513690834e-09,,5.79524656975462e-07,1.30100523481075e-07,1.27040932939507e-07,-3.10495307344361e-07,1.27040932937212e-07,4.8822850462209e-07,2.64979301138566e-07,7.53207805761053e-07,-6.02031049798817e-07,,4.17893907254799e-09,4.01799470500783e-07,2.81727049834021e-08,4.01799470501457e-07,-6.93019183743276e-07,5.5943126275571e-07,-1.33587920987282e-07,-4.90106226263987e-07,7.06200800235569e-08,,-5.01649704624565e-08,5.0164970462327e-08,-5.15499356174758e-07,-5.22284859763326e-07,-1.04374385813579e-07,-6.26659245577351e-07,-4.48635165347189e-08,4.71425572543236e-08,2.27904071961582e-09,-2.70798194610193e-07,-2.10464816322135e-07,-2.1046481632209e-07,-1.63064139157064e-06,,,-5.32414677987205e-07,1.0107957082988e-06,4.78381030311334e-07,-1.94102375854054e-07,1.58472586618403e-07,1.58472586618384e-07,-5.86128338304396e-07,5.86128338305065e-07,2.67826417113792e-07,0,0,0,4.096,102,970.775490196078,523.25931372549,1858.1568627451,926.350980392157,1015.2,486.7,559.81862745098,1942.75490196078,1773.55882352941,0
2176.512,-2.03329815839817e-07,1.18578642301351e-07,-8.47511735388332e-08,-5.67710962543683e-07,-5.32760544786986e-10,-5.32760544661321e-10,,5.84256110954331e-07,1.26634082077373e-07,1.24455979605446e-07,-2.88834455495195e-07,1.24455979603149e-07,4.69127749739596e-07,2.63084997279138e-07,7.32212747019129e-07,-6.38510489464866e-07,,-1.81759510597165e-08,4.21936495936527e-07,2.35115655781142e-08,4.21936495937199e-07,-7.14459627851304e-07,5.66014276488834e-07,-1.48445351362185e-07,-4.82753213446419e-07,7.25483924239875e-08,,-4.73463456419051e-08,4.73463456417789e-08,-5.03780039331254e-07,-4.82858754680534e-07,-9.32363788306191e-08,-5.76095133511604e-07,-5.00991402795006e-08,4.78699017271145e-08,-2.22923855237525e-09,-2.63586114220226e-07,-2.08722457183448e-07,-2.08722457183401e-07,-1.62756986218675e-06,,,-5.36997548648119e-07,1.0274041375813e-06,4.90406588932928e-07,-1.86092747962447e-07,1.64451504442341e-07,1.64451504442317e-07,-5.62755648954943e-07,5.62755648955622e-07,2.40301753542644e-07,0,0,0,4.19840000000022,102,954.294117647059,522.388235294118,1870.80882352941,909.862745098039,998.725490196079,486.655882352941,558.120588235294,1955.28431372549,1786.33333333333,0
2176.6144,-2.28219323548401e-07,1.18904624744776e-07,-1.09314698803992e-07,-5.59901747475677e-07,4.72784809308996e-09,4.7278480932102e-09,,5.90046809462607e-07,1.23864274080648e-07,1.22744808329961e-07,-2.6710339568562e-07,1.22744808327661e-07,4.50475544116637e-07,2.6118372782917e-07,7.11659271946202e-07,-6.7697135358587e-07,,-4.10744357180655e-08,4.38844688226235e-07,1.59326021070688e-08,4.38844688226904e-07,-7.35036092426694e-07,5.71432243935889e-07,-1.63603848490516e-07,-4.73722238823066e-07,7.41493022892727e-08,,-4.5237299614044e-08,4.52372996139228e-08,-4.92146013719145e-07,-4.39632433709724e-07,-8.21164741818838e-08,-5.21748907892065e-07,-5.5382578412739e-08,4.81878577378662e-08,-7.19472067486233e-09,-2.55949119259191e-07,-2.06229976758965e-07,-2.06229976758916e-07,-1.61703462832376e-06,,,-5.35780863444253e-07,1.03723278043237e-06,5.0145191698786e-07,-1.80237292666329e-07,1.70717421844615e-07,1.70717421844586e-07,-5.47586719878395e-07,5.47586719879084e-07,2.12097694641105e-07,0,0,0,4.30079999999998,103,947.817475728155,525.505339805825,1873.28155339806,903.069902912621,992.565048543689,494.630097087379,556.380582524272,1955.54368932039,1791.01941747573,0
2176.7168,-2.52039973474087e-07,1.19434529609791e-07,-1.32605443864665e-07,-5.50227826506968e-07,1.01593418745264e-08,1.01593418746415e-08,,5.96531820594731e-07,1.22504334794416e-07,1.21642839137055e-07,-2.45876327590483e-07,1.21642839134753e-07,4.33102075887068e-07,2.59354772645815e-07,6.9245684853328e-07,-7.15513747829681e-07,,-6.44076335554651e-08,4.51013723578618e-07,5.37718527495909e-09,4.5101372357928e-07,-7.53799271855374e-07,5.75035103719402e-07,-1.78764168135682e-07,-4.6285941364572e-07,7.53897677409634e-08,,-4.38393993516723e-08,4.38393993515551e-08,-4.80436783969511e-07,-3.93469800868479e-07,-7.1220537776321e-08,-4.64690338645262e-07,-6.05620515654134e-08,4.79216059156793e-08,-1.26404456497255e-08,-2.47353842923455e-07,-2.03448560421775e-07,-2.03448560421724e-07,-1.59745856515296e-06,,,-5.28406971183657e-07,1.03866391992164e-06,5.10256948737727e-07,-1.77080449671881e-07,1.7727910051969e-07,1.77279100519656e-07,-5.44136989080521e-07,5.44136989081221e-07,1.84876273516728e-07,0,0,0,4.4032000000002,102,945.75637254902,527.000490196078,1836.83823529412,905.176470588235,986.336274509804,494.84705882353,559.153921568627,1919.72549019608,1753.95098039216,0
2176.8192,-2.73801187444441e-07,1.20257277622379e-07,-1.53543909822431e-07,-5.38395360804657e-07,1.57427802297134e-08,1.57427802298227e-08,,6.03264883951537e-07,1.23212200986314e-07,1.20876898404416e-07,-2.25845682304056e-07,1.20876898402115e-07,4.17830486025199e-07,2.57666632223587e-07,6.75497118249183e-07,-7.52443983784285e-07,,-8.79504652630203e-08,4.57303540872251e-07,-7.75430678041026e-09,4.57303540872906e-07,-7.69716197065405e-07,5.76304045295497e-07,-1.93412151769617e-07,-4.50268392508967e-07,7.62401059335564e-08,,-4.3116245306723e-08,4.31162453066107e-08,-4.68519561062566e-07,-3.45785426367516e-07,-6.09381796080677e-08,-4.06723605976053e-07,-6.54782161869162e-08,4.69775931218091e-08,-1.85006230651012e-08,-2.37225849327605e-07,-2.00909867013317e-07,-2.00909867013264e-07,-1.56749624048844e-06,,,-5.14436477476187e-07,1.03024440700374e-06,5.15807929527295e-07,-1.76890339644964e-07,1.83997206895504e-07,1.83997206895464e-07,-5.54707122122622e-07,5.54707122123332e-07,1.60859572860769e-07,0,0,0,4.50559999999996,103,949.317961165049,530.240776699029,1796.01941747573,915.450485436893,983.185436893204,494.628155339806,565.853398058253,1875.92233009709,1716.11650485437,0
2176.9216,-2.92537298262977e-07,1.21492865881747e-07,-1.710444323816e-07,-5.2443890371732e-07,2.14921074907997e-08,2.14921074909034e-08,,6.09722654184667e-07,1.26355975908895e-07,1.19993312307344e-07,-2.07864980149011e-07,1.19993312305047e-07,4.05386753653646e-07,2.56151874918983e-07,6.61538628573027e-07,-7.86420881482869e-07,,-1.11241435473688e-07,4.57050529368774e-07,-2.23905078427753e-08,4.57050529369419e-07,-7.81652212778533e-07,5.74818097325511e-07,-2.0683411545273e-07,-4.3643744281993e-07,7.66821635919793e-08,,-4.3010079713651e-08,4.30100797135446e-08,-4.56366810911516e-07,-2.98550537865053e-07,-5.18296606303708e-08,-3.503801984959e-07,-6.99543825785839e-08,4.53645231515974e-08,-2.4589859426984e-08,-2.25070837174113e-07,-1.99154422762686e-07,-1.99154422762633e-07,-1.52632148962456e-06,,,-4.93579626260691e-07,1.01100924840075e-06,5.17429622139792e-07,-1.7973231492001e-07,1.90489331367802e-07,1.90489331367759e-07,-5.79826598627078e-07,5.79826598627798e-07,1.4260448922503e-07,0,0,0,4.60800000000018,102,955.010784313725,536.224019607843,1783.86764705882,923.56568627451,986.455882352941,506.103921568628,566.344117647059,1864.75490196078,1702.98039215686,0
2177.024,-3.07428963133171e-07,1.23272634247627e-07,-1.84156328885914e-07,-5.08801378091819e-07,2.74380922483505e-08,2.74380922484472e-08,,6.15341353771743e-07,1.31873884739756e-07,1.18207398887517e-07,-1.92933955239204e-07,1.18207398885228e-07,3.96316575232074e-07,2.54794467367055e-07,6.51111042599528e-07,-8.16573727713691e-07,,-1.33572000751168e-07,4.50170205464681e-07,-3.67553373088859e-08,4.50170205465313e-07,-7.88423847583948e-07,5.70238566173091e-07,-2.18185281410563e-07,-4.22252451997423e-07,7.67249375385791e-08,,-4.34486656506694e-08,4.34486656505698e-08,-4.4409961448365e-07,-2.54084841948992e-07,-4.45164591565906e-08,-2.98601301106069e-07,-7.38023513604046e-08,4.31880399703617e-08,-3.06143113900446e-08,-2.10581759851177e-07,-1.98650185968635e-07,-1.98650185968582e-07,-1.47376386807145e-06,,,-4.6600625257689e-07,9.80831634544053e-07,5.14825381966893e-07,-1.85507313295746e-07,1.96092444357953e-07,1.96092444357905e-07,-6.17966745362154e-07,6.17966745362885e-07,1.32611913835472e-07,0,0,0,4.71039999999994,102,961.33431372549,531.958823529412,1793.54411764706,931.295098039216,991.373529411765,501.461764705882,562.455882352941,1873.24509803922,1713.8431372549,0
2177.1264,-3.17894584597207e-07,1.2571288763406e-07,-1.92181696963518e-07,-4.92274338858946e-07,3.3609153545744e-08,3.36091535458323e-08,,6.19601526051319e-07,1.39319449417847e-07,1.14363248938723e-07,-1.82107246656998e-07,1.14363248936447e-07,3.90948315887447e-07,2.53541665219074e-07,6.44489981106919e-07,-8.42574028820169e-07,,-1.54090026930616e-07,4.37210676450887e-07,-4.86233783154949e-08,4.37210676451504e-07,-7.88909277291054e-07,5.6232612096006e-07,-2.26583156330701e-07,-4.08891329813131e-07,7.64199999060459e-08,,-4.43487519024185e-08,4.43487519023264e-08,-4.32000775784253e-07,-2.14653937537059e-07,-3.95141732888908e-08,-2.54168110826448e-07,-7.68503769582617e-08,4.06250489184952e-08,-3.62253280397728e-08,-1.93705308222596e-07,-1.99696646541813e-07,-1.9969664654176e-07,-1.41031880023515e-06,,,-4.32611271611269e-07,9.40666132307204e-07,5.0805486069566e-07,-1.93929420024153e-07,1.99918698998262e-07,1.9991869899821e-07,-6.65643083359381e-07,6.65643083360123e-07,1.32906991921981e-07,0,0,0,4.81280000000015,103,960.640291262136,533.677669902913,1819.54854368932,931.441747572816,989.838834951456,504.307766990291,563.047572815534,1897.39805825243,1741.69902912621,0
2177.2288,-3.23612804140979e-07,1.2888600573555e-07,-1.947267984058e-07,-4.75846921255224e-07,4.00135979940226e-08,4.00135979941028e-08,,6.22134567715281e-07,1.48094751516255e-07,1.07032309783596e-07,-1.76331927394035e-07,1.07032309781338e-07,3.89406459060002e-07,2.52331187943275e-07,6.41737647003673e-07,-8.6461615890067e-07,,-1.71962402349491e-07,4.19304303028906e-07,-5.57463958934601e-08,4.19304303029509e-07,-7.82183139715154e-07,5.50982342683207e-07,-2.31200797031654e-07,-3.97652766019e-07,7.58671280426211e-08,,-4.56211526214143e-08,4.56211526213292e-08,-4.20504393923798e-07,-1.82026688809132e-07,-3.70801327955745e-08,-2.19106821605219e-07,-7.89835069047534e-08,3.7890456291893e-08,-4.10930506128705e-08,-1.74667187614824e-07,-2.02334619285368e-07,-2.02334619285316e-07,-1.33716489169189e-06,,,-3.9514356126944e-07,8.92612560780324e-07,4.97468999510604e-07,-2.04498376330084e-07,2.0101099828893e-07,2.01010998288874e-07,-7.17864769725913e-07,7.17864769726667e-07,1.4472231300193e-07,0,0,0,4.91519999999991,102,962.201470588235,534.582843137255,1849.00980392157,928.375490196079,996.027450980392,501.986274509804,567.179411764706,1922.77450980392,1775.24509803922,0
2177.3312,-3.24486572019069e-07,1.32794490690314e-07,-1.91692081329128e-07,-4.60546563177797e-07,4.66231064618987e-08,4.66231064619689e-08,,6.22800893003761e-07,1.57756077061446e-07,9.47112905653974e-08,-1.7625549135926e-07,9.47112905631617e-08,3.91635916119287e-07,2.51112522694103e-07,6.42748438813784e-07,-8.83283730077693e-07,,-1.86540446609841e-07,3.98013281652402e-07,-5.62579715813436e-08,3.98013281652993e-07,-7.67661023565072e-07,5.36299431088174e-07,-2.31361592476607e-07,-3.89782155000983e-07,7.5208062953463e-08,,-4.71790009756558e-08,4.71790009755788e-08,-4.101594311733e-07,-1.57156151256151e-07,-3.71243838295012e-08,-1.94280535086182e-07,-8.01772493216566e-08,3.52074054358635e-08,-4.49698438858073e-08,-1.53970616163893e-07,-2.06288139108017e-07,-2.06288139107967e-07,-1.25631494787846e-06,,,-3.56161715270839e-07,8.39814693393737e-07,4.83652978122612e-07,-2.16515935638808e-07,1.98553575784633e-07,1.98553575784572e-07,-7.68771073481384e-07,7.68771073482148e-07,1.68299664113209e-07,0,1,0,5.01760000000013,102,964.952450980392,534.613725490196,1867.79901960784,926.53137254902,1003.37352941176,504.805882352941,564.421568627451,1938.41176470588,1797.1862745098,0
2177.4336,-3.20583116211478e-07,1.37354560915653e-07,-1.83228555296201e-07,-4.47324634960669e-07,5.3358707172015e-08,5.33587071720746e-08,,6.21709842418463e-07,1.68239936202288e-07,7.60422387302189e-08,-1.82063279936233e-07,7.60422387280098e-08,3.97404555637662e-07,2.49850089191403e-07,6.47254644829455e-07,-8.99319807609227e-07,,-1.97479758341153e-07,3.75160828264554e-07,-4.89414791016062e-08,3.75160828265131e-07,-7.45245600883186e-07,5.1861277733749e-07,-2.26632823545406e-07,-3.86333998539992e-07,7.46154676566658e-08,,-4.89499811409995e-08,4.89499811409302e-08,-4.01570427653523e-07,-1.40049996827203e-07,-3.91882937561765e-08,-1.79238290583927e-07,-8.05133493925183e-08,3.2786643905526e-08,-4.77267054870094e-08,-1.32380603414268e-07,-2.10955110098297e-07,-2.1095511009825e-07,-1.17085628156931e-06,,,-3.18847165467293e-07,7.8625237699499e-07,4.67405211527406e-07,-2.29149743062352e-07,1.92085633722385e-07,1.92085633722323e-07,-8.12289815986386e-07,8.12289815987159e-07,2.02787607901945e-07,0,1,0,5.11999999999989,103,964.956796116505,538.230582524272,1881.64563106796,925.703883495146,1004.20970873786,505.830097087379,570.631067961165,1949.42718446602,1813.8640776699,0
2177.536,-3.12071861784217e-07,1.42394613506466e-07,-1.69677248278127e-07,-4.36999992534055e-07,6.00836975467023e-08,6.00836975467506e-08,,6.19185124691047e-07,1.79929839344484e-07,4.99959893576001e-08,-1.93382467067811e-07,4.99959893554202e-08,4.06288220639304e-07,2.48510986482313e-07,6.54799207122002e-07,-9.13358365891638e-07,,-2.04781251968956e-07,3.52755213537151e-07,-3.33112692245831e-08,3.5275521353771e-07,-7.15441846032978e-07,4.98546928414452e-07,-2.16894917618237e-07,-3.88090301621541e-07,7.4282420547314e-08,,-5.08890014630288e-08,5.08890014629664e-08,-3.95331185586212e-07,-1.29829873587723e-07,-4.24834701028566e-08,-1.72313343691147e-07,-8.0183080454219e-08,3.0819305941603e-08,-4.93637745126355e-08,-1.10895702737429e-07,-2.15451609731018e-07,-2.15451609730973e-07,-1.08512214152479e-06,,,-2.86734294271444e-07,7.36466480012612e-07,4.49732185740875e-07,-2.41521572610432e-07,1.81676571098871e-07,1.81676571098809e-07,-8.42661850330437e-07,8.42661850331218e-07,2.46265540113948e-07,0,1,0,5.22240000000011,102,968.711764705882,537.920098039216,1889.74019607843,925.239215686275,1012.18431372549,505.953921568627,569.886274509804,1951.6862745098,1827.79411764706,0
2177.6384,-2.99176000636895e-07,1.4767125310612e-07,-1.51504747531155e-07,-4.30259207094037e-07,6.66096988930924e-08,6.66096988931297e-08,,6.15695563380457e-07,1.93576723278347e-07,1.59984033199481e-08,-2.09258067240675e-07,1.59984033177991e-08,4.17656806125422e-07,2.47047653178835e-07,6.64704459304636e-07,-9.2570830703012e-07,,-2.087607433157e-07,3.32996671557287e-07,-9.51376500071011e-09,3.32996671557834e-07,-6.79388285520929e-07,4.77018820593818e-07,-2.02369464926824e-07,-3.95540116528963e-07,7.44102597081746e-08,,-5.29826647176177e-08,5.29826647175607e-08,-3.9196574941154e-07,-1.24959123196231e-07,-4.5989599780256e-08,-1.70948722977074e-07,-7.9487873681775e-08,2.94845452075538e-08,-5.00033284742413e-08,-9.06988087155159e-08,-2.18708021138745e-07,-2.18708021138704e-07,-1.00469803709332e-06,,,-2.63366072114678e-07,6.95194664720537e-07,4.31828592605564e-07,-2.52794111930303e-07,1.68012272516204e-07,1.68012272516143e-07,-8.54724951146305e-07,8.54724951147088e-07,2.959273327372e-07,0,0,0,5.32479999999987,103,971.573300970874,537.555339805825,1890.17961165049,929.470873786408,1013.67572815534,504.176699029126,570.933980582524,1947.87378640777,1832.4854368932,0
2177.7408,-2.82155057334684e-07,1.529006791792e-07,-1.29254378155867e-07,-4.27694824596316e-07,7.27190179673947e-08,7.27190179674217e-08,,6.11768793085447e-07,2.10128340824669e-07,-2.60153296842769e-08,-2.28203040079692e-07,-2.6015329686395e-08,4.30679710610825e-07,2.45385864633479e-07,6.76065575244677e-07,-9.36261409936961e-07,,-2.09974020577525e-07,3.18249524555971e-07,2.18685419376967e-08,3.18249524556504e-07,-6.38766091247742e-07,4.55161075415544e-07,-1.83605015831914e-07,-4.08904586724387e-07,7.5191307860266e-08,,-5.52419457360648e-08,5.52419457360124e-08,-3.91881060878062e-07,-1.23579972266485e-07,-4.85974774091781e-08,-1.72177449676268e-07,-7.88355640900847e-08,2.89631300816678e-08,-4.98724340084363e-08,-7.30732307153006e-08,-2.19607669662546e-07,-2.19607669662508e-07,-9.36242368435538e-07,,,-2.51859457672746e-07,6.66884753045742e-07,4.15025295372702e-07,-2.62247808970073e-07,1.52348685339665e-07,1.52348685339604e-07,-8.44022494609986e-07,8.44022494610771e-07,3.48398354112297e-07,0,0,0,5.42720000000008,102,988.969607843137,527.888725490196,1888.50980392157,948.517647058824,1029.42156862745,491.566666666667,564.210784313726,1943.66666666667,1833.35294117647,0
2177.8432,-2.61322723058069e-07,1.57796830068247e-07,-1.03525892990209e-07,-4.2982842382988e-07,7.81983547121773e-08,7.81983547121943e-08,,6.0789809798194e-07,2.30520346395563e-07,-7.56358321746822e-08,-2.48341608615552e-07,-7.56358321767716e-08,4.44373663531543e-07,2.43424497307523e-07,6.87798160839431e-07,-9.44518090044548e-07,,-2.09113189763797e-07,3.10889887717361e-07,5.99937771207579e-08,3.10889887717889e-07,-5.95590017345406e-07,4.34171055944337e-07,-1.61418961400787e-07,-4.28171276259484e-07,7.67883200136765e-08,,-5.76914627847336e-08,5.76914627846841e-08,-3.953252008742e-07,-1.23859081759812e-07,-4.9260780247126e-08,-1.7311986200756e-07,-7.87202198732174e-08,2.94400637410554e-08,-4.92801561321796e-08,-5.92697971182088e-08,-2.17151134503193e-07,-2.17151134503159e-07,-8.87059896881834e-07,,,-2.54454229358738e-07,6.55134216758415e-07,4.00679987399386e-07,-2.69345254043217e-07,1.36329748263302e-07,1.36329748263242e-07,-8.06951618211859e-07,8.0695161821264e-07,4.00129183544024e-07,0,0,0,5.52959999999985,103,993.570873786408,529.655825242719,1879.81553398058,953.755339805825,1033.38640776699,490.715533980583,568.596116504854,1931.57281553398,1828.05825242718,0
2177.9456,-2.37084758567191e-07,1.62103667913425e-07,-7.49810906541583e-08,-4.37060467870686e-07,8.28712223469536e-08,8.28712223469634e-08,,6.044533892903e-07,2.55463242234382e-07,-1.32087969976632e-07,-2.67661304291754e-07,-1.32087969978697e-07,4.57705464804088e-07,2.41045860498511e-07,6.98751325302956e-07,-9.49674738401884e-07,,-2.06891518566573e-07,3.13038914445534e-07,1.038315900665e-07,3.13038914446058e-07,-5.51931146434463e-07,4.15131317518645e-07,-1.36799828915536e-07,-4.5310084566779e-07,7.93151881161621e-08,,-6.03652477535777e-08,6.03652477535293e-08,-4.02337006198787e-07,-1.24249568876342e-07,-4.7117004315747e-08,-1.71366573192725e-07,-7.96764769309298e-08,3.10840504803915e-08,-4.85924264505527e-08,-5.03229175550711e-08,-2.10625416647636e-07,-2.10625416647606e-07,-8.64325338313246e-07,,,-2.72168148759483e-07,6.62167487857167e-07,3.89999339097399e-07,-2.7376211966852e-07,1.21720439694526e-07,1.21720439694467e-07,-7.41107167605054e-07,7.41107167605829e-07,4.47813255382241e-07,0,0,0,5.63200000000006,102,980.187254901961,532.913235294118,1849.00490196078,939.194117647059,1021.18039215686,494.300980392157,571.525490196078,1901.95098039216,1796.05882352941,0
2178.048,-2.09977990426394e-07,1.65611254640803e-07,-4.43667357859869e-08,-4.49546688670593e-07,8.66165122257047e-08,8.66165122257077e-08,,6.01616166385452e-07,2.85245317779238e-07,-1.94347868692127e-07,-2.84341122239292e-07,-1.94347868694171e-07,4.69725331095906e-07,2.38127524521889e-07,7.07852855618141e-07,-9.50736529536036e-07,,-2.03946530750175e-07,3.2624833379111e-07,1.52113749000453e-07,3.26248333791633e-07,-5.09659869445324e-07,3.98855694728967e-07,-1.10804174716076e-07,-4.83197693696297e-07,8.28188395499208e-08,,-6.33057314335907e-08,6.33057314335421e-08,-4.12682844344539e-07,-1.2363035301941e-07,-4.1563543493343e-08,-1.65193896513401e-07,-8.22119589177414e-08,3.40056203327298e-08,-4.82063385850212e-08,-4.68448692773572e-08,-1.9975292354751e-07,-1.99752923547485e-07,-8.73993855957023e-07,,,-3.04588194409598e-07,6.8842936566478e-07,3.83841171254904e-07,-2.75360572930306e-07,1.10142227443179e-07,1.10142227443119e-07,-6.45778524217293e-07,6.45778524218059e-07,4.88764985841423e-07,0,0,0,5.73439999999982,102,958.174509803922,537.987745098039,1816.25980392157,917.925490196078,998.423529411765,499.873529411765,576.101960784314,1868.10784313725,1764.41176470588,0
2178.1504,-1.80699936652919e-07,1.68156075448756e-07,-1.25438612045634e-08,-4.6706545633652e-07,8.93707227850327e-08,8.93707227850306e-08,,5.993575940904e-07,3.19577914927448e-07,-2.61203109810284e-07,-2.97061451811367e-07,-2.61203109812315e-07,4.79680749425942e-07,2.3454877701941e-07,7.14229526445688e-07,-9.4666207721379e-07,,-2.00788376119236e-07,3.5121261515072e-07,2.03235386396673e-07,3.51212615151249e-07,-4.70291741879918e-07,3.85804494280818e-07,-8.44872475988169e-08,-5.17669466150549e-07,8.72605840576253e-08,,-6.65543024831285e-08,6.65543024830763e-08,-4.25801504175433e-07,-1.21331243253955e-07,-3.23005004163655e-08,-1.53631743670975e-07,-8.67325252253326e-08,3.82082671806352e-08,-4.85242580447015e-08,-4.88595236534394e-08,-1.84788110033097e-07,-1.84788110033076e-07,-9.19676304799946e-07,,,-3.49772949289301e-07,7.32336228507761e-07,3.82563279218192e-07,-2.74120552695e-07,1.02885726239332e-07,1.02885726239268e-07,-5.22419896877e-07,5.22419896877758e-07,5.21187253210819e-07,0,0,0,5.83680000000004,103,956.864077669903,538.482038834952,1806.03883495146,918.369902912621,995.358252427184,498.036893203884,578.92718446602,1858.15533980583,1753.92233009709,0
2178.2528,-1.5012068863848e-07,1.69617395244492e-07,1.94967066056063e-08,-4.88943461743165e-07,9.11232903463615e-08,9.11232903463554e-08,,5.97462328976876e-07,3.57526317251867e-07,-3.31256111317951e-07,-3.05193190673543e-07,-3.31256111319973e-07,4.87080015406921e-07,2.30196203553031e-07,7.17276218960277e-07,-9.36554495047543e-07,,-1.97797679818866e-07,3.87575418750334e-07,2.55212626497678e-07,3.87575418750866e-07,-4.34945664852284e-07,3.7608292382481e-07,-5.88627410271885e-08,-5.55407024118175e-07,9.25023451535266e-08,,-7.0131066310539e-08,7.01310663104831e-08,-4.40787924921324e-07,-1.17080653036061e-07,-1.93520676949238e-08,-1.36432720731645e-07,-9.34767008957894e-08,4.35515319314824e-08,-4.99251689643051e-08,-5.57362318420015e-08,-1.66529925720868e-07,-1.66529925720851e-07,-1.00182231981838e-06,,,-4.04320590257714e-07,7.90263884090173e-07,3.85943293832205e-07,-2.70087159201337e-07,1.00821309851156e-07,1.00821309851088e-07,-3.74908214888398e-07,3.74908214889147e-07,5.44295268026379e-07,0,0,0,5.93920000000026,102,954.442156862745,539.46568627451,1811.18137254902,916.583333333333,992.300980392157,499.878431372549,579.052941176471,1865.00980392157,1757.35294117647,0
2178.3552,-1.19263558369213e-07,1.6992073942953e-07,5.06571810599051e-08,-5.14072306407712e-07,9.19175642424156e-08,9.19175642424056e-08,,5.95588785812283e-07,3.97567952634194e-07,-4.02937949108533e-07,-3.08822973193951e-07,-4.02937949110552e-07,4.91715562856111e-07,2.24977712978898e-07,7.16693275835323e-07,-9.1987790211804e-07,,-1.95248525305291e-07,4.33872358837034e-07,3.05762948457215e-07,4.33872358837572e-07,-4.04355168536799e-07,3.69505559619382e-07,-3.48496089171282e-08,-5.95008794620824e-07,9.83055153927202e-08,,-7.40142301484024e-08,7.40142301483421e-08,-4.5644016309683e-07,-1.10928521963708e-07,-3.06956775578167e-09,-1.13998089720152e-07,-1.02471272004514e-07,4.97421660359796e-08,-5.27291059685259e-08,-6.62540202591555e-08,-1.46233815212146e-07,-1.46233815212133e-07,-1.1174089798285e-06,,,-4.63707264990459e-07,8.56891081422311e-07,3.93183816431612e-07,-2.63382665284071e-07,1.04387994872691e-07,1.04387994872615e-07,-2.0943075921442e-07,2.09430759215161e-07,5.58307939515117e-07,0,0,0,6.04160000000002,103,956.422815533981,537.187378640777,1821.01941747573,917.2,995.645631067961,496.547572815534,577.827184466019,1880.17475728155,1761.8640776699,0
2178.4576,-8.92422892277242e-08,1.69050145090833e-07,7.98078558626906e-08,-5.41024735155095e-07,9.18634089697093e-08,9.18634089696958e-08,,5.93358676365919e-07,4.37792121344167e-07,-4.74597849573526e-07,-3.08635018630351e-07,-4.74597849575547e-07,4.93673387414501e-07,2.1884813093226e-07,7.12521518347065e-07,-8.96638178934519e-07,,-1.93324102268452e-07,4.87615843797252e-07,3.52519384090097e-07,4.87615843797797e-07,-3.78878251999268e-07,3.65707384265687e-07,-1.31708677332875e-08,-6.34869724051941e-07,1.04343895436447e-07,,-7.81312261339517e-08,7.81312261338869e-08,-4.71387370059627e-07,-1.03183818729021e-07,1.58855862567718e-08,-8.72982324729133e-08,-1.13517388095081e-07,5.63618046105118e-08,-5.71555834845548e-08,-7.87939590207934e-08,-1.25429667430794e-07,-1.25429667430783e-07,-1.26018794187795e-06,,,-5.22911980784579e-07,9.25944885890384e-07,4.03032905105579e-07,-2.54285079885625e-07,1.13643465176882e-07,1.13643465176799e-07,-3.3878398539053e-08,3.38783985397889e-08,5.64311451044203e-07,0,0,0,6.14400000000023,102,956.241176470588,540.192647058824,1833.63725490196,912.478431372549,1000.00392156863,495.775490196078,584.609803921569,1897.01960784314,1770.25490196078,0
2178.56,-6.11547959000861e-08,1.67064618220347e-07,1.05909822319836e-07,-5.68251727856057e-07,9.11562790835903e-08,9.11562790835733e-08,,5.90463810406179e-07,4.76208506480912e-07,-5.44676375079059e-07,-3.05700911958687e-07,-5.44676375081082e-07,4.93335577322942e-07,2.11841170384534e-07,7.0517674770777e-07,-8.67456195119898e-07,,-1.92105800100456e-07,5.45515619800566e-07,3.9333811454128e-07,5.45515619801114e-07,-3.58490807875309e-07,3.64284610285974e-07,5.79380241096231e-09,-6.73336585900412e-07,1.1023325820893e-07,,-8.23682685728616e-08,8.23682685727934e-08,-4.84287939265491e-07,-9.43626035583082e-08,3.65945872023185e-08,-5.77680163566546e-08,-1.26213884258072e-07,6.2927870589564e-08,-6.32860136684868e-08,-9.16202635611047e-08,-1.05680437879241e-07,-1.05680437879233e-07,-1.42145216045327e-06,,,-5.77180230603006e-07,9.91179898519071e-07,4.13999667915852e-07,-2.43338593632268e-07,1.28364739645681e-07,1.28364739645589e-07,1.43233733686458e-07,-1.43233733685728e-07,5.63995361888616e-07,0,1,0,6.24639999999999,102,960.585784313726,540.374509803922,1845.44117647059,915.742156862745,1005.42941176471,496.274509803922,584.474509803922,1908.96078431373,1781.92156862745,0
2178.6624,-3.59472287581877e-08,1.64113066920036e-07,1.28165838161416e-07,-5.94299695904875e-07,9.00886937471564e-08,9.00886937471367e-08,,5.86761614833162e-07,5.11081713574457e-07,-6.1192348659626e-07,-3.01248207104819e-07,-6.11923486598286e-07,4.91361153430209e-07,2.04097645782608e-07,6.95458799213103e-07,-8.33486117171702e-07,,-1.91531927431246e-07,6.03827160502638e-07,4.26608432188295e-07,6.03827160503191e-07,-3.42763670583858e-07,3.64925972534512e-07,2.21623019509555e-08,-7.08895546607363e-07,1.15586003217659e-07,,-8.65989458582136e-08,8.65989458581418e-08,-4.94039460365082e-07,-8.51138761659386e-08,5.79952145872747e-08,-2.711866157933e-08,-1.40017407236882e-07,6.89729858160438e-08,-7.1044421420812e-08,-1.03168992227382e-07,-8.83441840118603e-08,-8.83441840118549e-08,-1.59117103725787e-06,,,-6.22682861362497e-07,1.04724512512312e-06,4.24562263760424e-07,-2.3143708828685e-07,1.48165072367304e-07,1.48165072367203e-07,3.14047694647719e-07,-3.14047694646993e-07,5.59313910179843e-07,0,1,0,6.34880000000021,103,961.294660194175,542.282524271845,1857.10194174757,913.043689320388,1009.54563106796,495.606796116505,588.958252427184,1921.35922330097,1792.84466019417,0
2178.7648,-1.42714308118093e-08,1.60441622843895e-07,1.46170192031646e-07,-6.17972589302022e-07,8.904093173492e-08,8.90409317348982e-08,,5.82328240115971e-07,5.41196991745126e-07,-6.75606729145901e-07,-2.96480875032165e-07,-6.75606729147932e-07,4.88635855315994e-07,1.95879088025402e-07,6.84514943341674e-07,-7.96196926533573e-07,,-1.91345264354138e-07,6.58790761911507e-07,4.51480740605081e-07,6.58790761912062e-07,-3.3082795129915e-07,3.67486479238898e-07,3.6658527940054e-08,-7.40339048790892e-07,1.2008824469345e-07,,-9.07250845540042e-08,9.07250845539309e-08,-4.99933911421354e-07,-7.61124711703672e-08,7.90546693298611e-08,2.94219815882458e-09,-1.54327590590295e-07,7.4122999226632e-08,-8.02045913636316e-08,-1.12260861984753e-07,-7.43994760050644e-08,-7.4399476005061e-08,-1.75924488465875e-06,,,-6.56907793717584e-07,1.09018892071139e-06,4.33281126993616e-07,-2.1981533072915e-07,1.72575046483644e-07,1.72575046483534e-07,4.72447656363155e-07,-4.72447656362433e-07,5.5216838000332e-07,0,1,0,6.45119999999997,102,962.762254901961,541.702941176471,1867.99509803922,912.963725490196,1012.56078431373,494.306862745098,589.099019607843,1935.38235294118,1800.60784313725,0
2178.8672,3.63069653472536e-09,1.56386191473918e-07,1.60016888008197e-07,-6.38402388149622e-07,8.84469257890754e-08,8.84469257890507e-08,,5.77454502941629e-07,5.65999327072092e-07,-7.35641014965801e-07,-2.9248683543053e-07,-7.35641014967832e-07,4.86197591120672e-07,1.87557805431172e-07,6.73755396552114e-07,-7.57113182265685e-07,,-1.9107707408624e-07,7.0708363734212e-07,4.67989009224144e-07,7.07083637342674e-07,-3.21368126092292e-07,3.71995151768226e-07,5.06270256762437e-08,-7.66871230370421e-07,1.23571328817916e-07,,-9.47151247506169e-08,9.47151247505437e-08,-5.01728346841074e-07,-6.79525948229606e-08,9.89455996295555e-08,3.09930048059201e-08,-1.68572780473522e-07,7.81544561690449e-08,-9.04183243044429e-08,-1.1820118463951e-07,-6.43590526468566e-08,-6.43590526468548e-08,-1.916606302367e-06,,,-6.78784664764856e-07,1.11762341534052e-06,4.38838750575485e-07,-2.09913801900934e-07,2.01063738425508e-07,2.0106373842539e-07,6.14676752740785e-07,-6.14676752740066e-07,5.44186313968707e-07,0,0,0,6.55360000000019,102,961.728431372549,547.113725490196,1868.18137254902,913.820588235294,1009.6362745098,504.729411764706,589.498039215686,1933.44117647059,1802.92156862745,0
2178.9696,1.79777391306313e-08,1.52343598809555e-07,1.70321337939736e-07,-6.55041788079457e-07,8.87396414120595e-08,8.87396414120303e-08,,5.72586151191957e-07,5.85595037740808e-07,-7.92563545308591e-07,-2.90215875745718e-07,-7.92563545310623e-07,4.85144134125527e-07,1.79578240981203e-07,6.64722375106994e-07,-7.17623607702904e-07,,-1.90110628502564e-07,7.46186982681505e-07,4.77077445585549e-07,7.46186982682054e-07,-3.12713331699236e-07,3.78629066637865e-07,6.59157349389409e-08,-7.88134610659709e-07,1.26041389668101e-07,,-9.86216222261566e-08,9.86216222260858e-08,-4.99628878443551e-07,-6.10844451838984e-08,1.17151608056841e-07,5.60671628722607e-08,-1.8226869607422e-07,8.10163476215064e-08,-1.01252348452676e-07,-1.20775197114658e-07,-5.82659824582239e-08,-5.82659824582235e-08,-2.05596574373853e-06,,,-6.88602889818133e-07,1.12868961111397e-06,4.40086721295662e-07,-2.03138268022038e-07,2.33012399546937e-07,2.33012399546811e-07,7.39439061797919e-07,-7.39439061797199e-07,5.36625502245958e-07,0,0,0,6.65599999999995,103,963.773786407767,546.599029126214,1858.70873786408,917.707766990291,1009.83980582524,504.231067961165,588.966990291262,1924.68932038835,1792.72815533981,0
2179.072,2.94141395694168e-08,1.48721217077677e-07,1.78135356646639e-07,-6.67609115075941e-07,9.02856142458539e-08,9.028561424582e-08,,5.68221267519936e-07,6.00634334334788e-07,-8.47323724638667e-07,-2.90482542122978e-07,-8.47323724640694e-07,4.86523199685961e-07,1.7239278746014e-07,6.5891598714636e-07,-6.78896059030263e-07,,-1.87818910407099e-07,7.74574835869391e-07,4.805210646975e-07,7.74574835869932e-07,-3.03051962166642e-07,3.87670274613968e-07,8.46183124476402e-08,-8.04162140629098e-07,1.27654181464432e-07,,-1.02566844546093e-07,1.02566844546024e-07,-4.94195850044057e-07,-5.58055901498185e-08,1.33472565591512e-07,7.76669754410028e-08,-1.95038480474181e-07,8.28098981003095e-08,-1.12228582373832e-07,-1.20163546190445e-07,-5.57539029115424e-08,-5.57539029115431e-08,-2.17214768427515e-06,,,-6.87758435354095e-07,1.12389862474843e-06,4.36140189394173e-07,-2.00581843479775e-07,2.6765846133904e-07,2.67658461338906e-07,8.47557982027851e-07,-8.47557982027127e-07,5.30384075207274e-07,0,0,0,6.75840000000017,102,964.938725490196,545.995588235294,1836.29411764706,922.219607843137,1007.65784313725,498.235294117647,593.755882352941,1907.69607843137,1764.89215686275,0
2179.1744,3.88979245378755e-08,1.45876448103298e-07,1.84774372640713e-07,-6.76013888292193e-07,9.33236633878942e-08,9.33236633878552e-08,,5.64787196050758e-07,6.1210584032405e-07,-9.00955575892013e-07,-2.93949619203953e-07,-9.00955575894033e-07,4.91206796941014e-07,1.66385517145999e-07,6.57592314087266e-07,-6.41871395903017e-07,,-1.83726673408339e-07,7.91680042652448e-07,4.80695514001685e-07,7.91680042652979e-07,-2.90711401425504e-07,3.99424374506839e-07,1.0871297308165e-07,-8.15278854384817e-07,1.28656125763413e-07,,-1.0670327721764e-07,1.06703277217576e-07,-4.86198376145865e-07,-5.22918034362285e-08,1.47963371421896e-07,9.56715679849673e-08,-2.06605465044931e-07,8.37346782128653e-08,-1.22870786832026e-07,-1.16807920779839e-07,-5.61491471521423e-08,-5.61491471521441e-08,-2.26209333411191e-06,,,-6.78368009651255e-07,1.10486960039773e-06,4.26501590746313e-07,-2.02790705066773e-07,3.04031181812647e-07,3.04031181812506e-07,9.41292533103545e-07,-9.41292533102818e-07,5.26060142428709e-07,0,0,0,6.86079999999993,103,972.093203883495,538.610194174757,1797.60194174757,929.296116504854,1014.89029126214,488.9,588.320388349515,1877.26213592233,1717.94174757282,0
2179.2768,4.753514579516e-08,1.44065231649082e-07,1.91600377443778e-07,-6.80299088868047e-07,9.79251753383759e-08,9.79251753383312e-08,,5.62525289201012e-07,6.21080701810349e-07,-9.54258562609942e-07,-3.01065448075104e-07,-9.54258562611951e-07,4.99754152776168e-07,1.61802650613146e-07,6.61556803389564e-07,-6.07301708520481e-07,,-1.77638864058156e-07,7.97684999681932e-07,4.80174402729853e-07,7.97684999682451e-07,-2.74428097363438e-07,4.14090848798932e-07,1.3966275143581e-07,-8.21990203565655e-07,1.29326169217012e-07,,-1.11169562406607e-07,1.11169562406547e-07,-4.76470966246725e-07,-5.06420649420982e-08,1.60862403755439e-07,1.10220338812629e-07,-2.16778298703069e-07,8.40241040963671e-08,-1.32754194606661e-07,-1.11266020838233e-07,-5.85930977659866e-08,-5.85930977659896e-08,-2.32464259844552e-06,,,-6.62825339912675e-07,1.07400134042325e-06,4.11176000510416e-07,-2.09633963823992e-07,3.40916396641624e-07,3.40916396641478e-07,1.02346571638539e-06,-1.02346571638466e-06,5.23996338899871e-07,0,0,0,6.96320000000014,102,977.9,526.742156862745,1781.64215686275,939.157843137255,1016.64215686275,473.605882352941,579.878431372549,1865.13725490196,1698.14705882353,0
2179.3792,5.63992149425242e-08,1.43416587964238e-07,1.99815802906296e-07,-6.806371720556e-07,1.03988859360645e-07,1.03988859360595e-07,,5.61415178042782e-07,6.28457958062472e-07,-1.00757696315854e-06,-3.11955427089936e-07,-1.00757696316053e-06,5.12275194606436e-07,1.58708482695697e-07,6.70983677302378e-07,-5.75802899812626e-07,,-1.69683272651565e-07,7.9324635387661e-07,4.8123721819673e-07,7.93246353877113e-07,-2.53571335116509e-07,4.31625646011235e-07,1.78054310895043e-07,-8.24892965500122e-07,1.29940965754935e-07,,-1.16058384629329e-07,1.16058384629275e-07,-4.65828600862407e-07,-5.09091277630899e-08,1.72536071636507e-07,1.21626943872692e-07,-2.25436260191489e-07,8.38963003267958e-08,-1.41539959864651e-07,-1.04100772690939e-07,-6.21621603290988e-08,-6.21621603291029e-08,-2.36020559214249e-06,,,-6.43404378392633e-07,1.03415660197783e-06,3.90752223585043e-07,-2.20313151659156e-07,3.76880233920453e-07,3.76880233920305e-07,1.09661683922881e-06,-1.09661683922808e-06,5.24283791168503e-07,0,0,0,7.0655999999999,103,976.222330097087,532.419902912621,1787.38834951456,937.122330097087,1015.32233009709,478.279611650485,586.560194174757,1870.83495145631,1703.94174757282,0
2179.4816,6.63831424028688e-08,1.43940313192536e-07,2.10323455594937e-07,-6.77392244116606e-07,1.11273923912761e-07,1.11273923912704e-07,,5.61167720093313e-07,6.34772986449075e-07,-1.0607189736997e-06,-3.26318602627386e-07,-1.06071897370167e-06,5.28335459399917e-07,1.56981855184084e-07,6.8531731458424e-07,-5.47875095178675e-07,,-1.60224929192024e-07,7.79228490921265e-07,4.8545028055897e-07,7.79228490921752e-07,-2.28293643540586e-07,4.51670103662666e-07,2.23376460122394e-07,-8.2463555787403e-07,1.30764665527271e-07,,-1.21399542459178e-07,1.21399542459129e-07,-4.55070316292547e-07,-5.3100468528865e-08,1.83429944221738e-07,1.30329475692134e-07,-2.32504737115274e-07,8.35304672655049e-08,-1.48974269849726e-07,-9.58360533857013e-08,-6.59619531982841e-08,-6.59619531982898e-08,-2.3704235049212e-06,,,-6.22007961489326e-07,9.88448455128181e-07,3.664404936387e-07,-2.33528908883196e-07,4.10357767355113e-07,4.10357767354964e-07,1.16238593429384e-06,-1.16238593429311e-06,5.2676447199086e-07,0,0,0,7.16800000000012,102,974.55,533.196568627451,1804.6862745098,933.910784313725,1015.18921568627,481.227450980392,585.16568627451,1884.6568627451,1724.71568627451,0
2179.584,7.81228049535729e-08,1.45563244430201e-07,2.23686049383306e-07,-6.71219003997053e-07,1.19465703405021e-07,1.19465703404958e-07,,5.61298522325194e-07,6.40115339360125e-07,-1.11306881747542e-06,-3.43426822634702e-07,-1.11306881747738e-06,5.46970823133199e-07,1.56358139085866e-07,7.03328962219298e-07,-5.23838693913514e-07,,-1.49646879766568e-07,7.56450804609961e-07,4.93442615706546e-07,7.56450804610431e-07,-1.99547653637854e-07,4.73604964836739e-07,2.74057311199196e-07,-8.21938168055625e-07,1.32052184711149e-07,,-1.27159844093731e-07,1.27159844093687e-07,-4.45057511906834e-07,-5.71620247415867e-08,1.94019783294458e-07,1.3685775855212e-07,-2.37911557287397e-07,8.30606418818712e-08,-1.54850915405481e-07,-8.69796679271644e-08,-6.91823073916278e-08,-6.91823073916351e-08,-2.35786676294112e-06,,,-6.00094402359223e-07,9.40136771212185e-07,3.40042368852807e-07,-2.47789154459337e-07,4.39807815910819e-07,4.39807815910671e-07,1.22128286766559e-06,-1.22128286766485e-06,5.31092837011336e-07,0,0,0,7.27039999999988,102,975.858823529412,532.988235294118,1821.36274509804,934.227450980392,1017.49019607843,481.422549019608,584.553921568627,1901.52941176471,1741.19607843137,0
2179.6864,9.20050746229353e-08,1.48179952323344e-07,2.4018502694581e-07,-6.63133188216196e-07,1.28256881619065e-07,1.28256881618995e-07,,5.61260755209469e-07,6.44172281530746e-07,-1.16392263737216e-06,-3.62284404423165e-07,-1.16392263737409e-06,5.66857729398655e-07,1.56505081384608e-07,7.23362810783488e-07,-5.03676826266558e-07,,-1.38061515727269e-07,7.25459337935011e-07,5.04899196852113e-07,7.25459337935465e-07,-1.68893401461283e-07,4.96716315746892e-07,3.27822914285916e-07,-8.17651289140467e-07,1.34055198205813e-07,,-1.3326908926437e-07,1.33269089264331e-07,-4.36815355974717e-07,-6.29695768957726e-08,2.04780834723022e-07,1.41811257826486e-07,-2.41540081556845e-07,8.25782293380907e-08,-1.58961852218709e-07,-7.80837605972836e-08,-7.11177724722571e-08,-7.11177724722661e-08,-2.32575148158711e-06,,,-5.78736367081909e-07,8.92535153480844e-07,3.1379878639878e-07,-2.61782602501124e-07,4.63923377944124e-07,4.63923377943978e-07,1.27289705607531e-06,-1.27289705607458e-06,5.36861051327352e-07,0,1,0,7.3728000000001,103,977.150485436893,533.294174757282,1826.26213592233,935.803883495146,1018.49708737864,482.426213592233,584.16213592233,1905.8932038835,1746.63106796117,0
2179.7888,1.08244418228568e-07,1.51697269768816e-07,2.59941687996914e-07,-6.54488837394383e-07,1.37417490016306e-07,1.3741749001623e-07,,5.60580996659791e-07,6.46381160594186e-07,-1.21293090104064e-06,-3.8189348039076e-07,-1.21293090104255e-06,5.86604160451227e-07,1.57105875972621e-07,7.43710036424066e-07,-4.86868814330641e-07,,-1.25088617901245e-07,6.86402568754436e-07,5.18725466319694e-07,6.86402568754877e-07,-1.38100022218336e-07,5.20378260493541e-07,3.82278238275508e-07,-8.1279958828167e-07,1.37022041017788e-07,,-1.3967118113949e-07,1.39671181139455e-07,-4.31590727581403e-07,-7.03332083871653e-08,2.1619053004684e-07,1.45857321658901e-07,-2.43215028721855e-07,8.21429740934518e-08,-1.61072054628357e-07,-6.97989350102244e-08,-7.11711958644467e-08,-7.11711958644573e-08,-2.27763332872837e-06,,,-5.58738852179117e-07,8.48839354777545e-07,2.90100502598274e-07,-2.74678270292961e-07,4.81838380284018e-07,4.81838380283877e-07,1.31643637696068e-06,-1.31643637695995e-06,5.43716358089373e-07,0,1,0,7.47519999999986,102,976.292156862745,536.14068627451,1828.06862745098,932.11862745098,1020.46568627451,486.763725490196,585.517647058824,1903.51960784314,1752.61764705882,0
2179.8912,1.26978424150599e-07,1.5605234044769e-07,2.8303076459782e-07,-6.46843774584115e-07,1.46826807563824e-07,1.46826807563742e-07,,5.58935694416869e-07,6.4613204909105e-07,-1.26040013783927e-06,-4.01504059031529e-07,-1.26040013784116e-06,6.05047047496183e-07,1.57919169799615e-07,7.62966217296012e-07,-4.7235421451297e-07,,-1.09845659578617e-07,6.39106225504253e-07,5.33305123288965e-07,6.39106225504679e-07,-1.08692052279124e-07,5.44148037965834e-07,4.3545598568701e-07,-8.08561225015755e-07,1.41181591203266e-07,,-1.46373840209065e-07,1.46373840209034e-07,-4.30814409525549e-07,-7.89888052017073e-08,2.28746110481469e-07,1.4975730527898e-07,-2.42743462449622e-07,8.18010249054328e-08,-1.60942437544143e-07,-6.28800772933969e-08,-6.88596750228303e-08,-6.88596750228424e-08,-2.21707947178971e-06,,,-5.40758934483791e-07,8.11895084724989e-07,2.71136150241045e-07,-2.86211561349746e-07,4.9323966169839e-07,4.93239661698253e-07,1.35132713935316e-06,-1.35132713935244e-06,5.51394704050109e-07,0,1,0,7.57760000000008,102,976.48137254902,532.117156862745,1839.63235294118,932.793137254902,1020.16960784314,484.61568627451,579.61862745098,1910.83333333333,1768.43137254902,0
2179.9936,1.48323389602582e-07,1.61196161284602e-07,3.09519550886715e-07,-6.41746795063615e-07,1.56456907664076e-07,1.5645690766399e-07,,5.56145138770107e-07,6.42944883890908e-07,-1.30727906925159e-06,-4.20748423797316e-07,-1.30727906925346e-06,6.21437914933273e-07,1.58797574230414e-07,7.80235489163896e-07,-4.58685539640529e-07,,-9.1187897054527e-08,5.83352459807299e-07,5.46774572183075e-07,5.83352459807713e-07,-8.16408149690093e-08,5.67745555485964e-07,4.86104740517254e-07,-8.06171942902555e-07,1.46707547299144e-07,,-1.53465991869024e-07,1.53465991868996e-07,-4.3595452046959e-07,-8.85551445080168e-08,2.42961728226434e-07,1.54406583717632e-07,-2.39997560258204e-07,8.16027560931501e-08,-1.58394804165008e-07,-5.81222373696691e-08,-6.38326992814948e-08,-6.38326992815082e-08,-2.14738815518507e-06,,,-5.25390250548902e-07,7.83978186498603e-07,2.58587935949549e-07,-2.9652915285012e-07,4.98342977257411e-07,4.98342977257278e-07,1.37763476782908e-06,-1.37763476782836e-06,5.596679798137e-07,0,0,0,7.67999999999984,103,975.980582524272,528.29854368932,1857.74757281553,930.822330097087,1021.13883495146,477.679611650485,578.917475728155,1922.94174757282,1792.55339805825,0
2180.096,1.72362406268574e-07,1.67052402857634e-07,3.39414809125738e-07,-6.40498968841902e-07,1.66319703703532e-07,1.66319703703444e-07,,5.52116893142387e-07,6.36583321462567e-07,-1.35484600832736e-06,-4.39610278294165e-07,-1.35484600832921e-06,6.35470091895866e-07,1.59665623677976e-07,7.95135715574049e-07,-4.4430080397811e-07,,-6.80828505282712e-08,5.19252352895197e-07,5.57282873656695e-07,5.19252352895597e-07,-5.72946278349995e-08,5.90963926389023e-07,5.33669298554323e-07,-8.06778658014957e-07,1.53671927792927e-07,,-1.6109280181191e-07,1.61092801811883e-07,-4.48290470922941e-07,-9.84749960010759e-08,2.59323919103015e-07,1.60848923101154e-07,-2.3500292645833e-07,8.16132519870403e-08,-1.53389674471245e-07,-5.62389229655173e-08,-5.58989960828195e-08,-5.58989960828339e-08,-2.07143562913708e-06,,,-5.1318297414238e-07,7.66632930276327e-07,2.53449956133796e-07,-3.05909963703694e-07,4.97778815522913e-07,4.97778815522784e-07,1.39622671813336e-06,-1.39622671813264e-06,5.68261481078123e-07,0,0,0,7.78240000000005,102,979.40931372549,533.107352941177,1876.25,931.286274509804,1027.53235294118,490.427450980392,575.787254901961,1936.05882352941,1816.44117647059,0
2180.1984,1.99075852627785e-07,1.73471454171731e-07,3.72547306799044e-07,-6.4393712714779e-07,1.76400240915664e-07,1.76400240915575e-07,,5.46793427503183e-07,6.27109696541984e-07,-1.40422987565487e-06,-4.58239726412443e-07,-1.40422987565672e-06,6.47170652746431e-07,1.60471788456106e-07,8.07642441202746e-07,-4.27832953307374e-07,,-3.99597869968524e-08,4.47559034516898e-07,5.63239648660813e-07,4.47559034517288e-07,-3.55046473745386e-08,6.1356327793832e-07,5.78058630564083e-07,-8.11275972628121e-07,1.62002387091608e-07,,-1.69396806164972e-07,1.69396806164946e-07,-4.68655714332324e-07,-1.07971767945962e-07,2.7820570296218e-07,1.70233935015437e-07,-2.28001520526036e-07,8.19127673783235e-08,-1.4608875314767e-07,-5.77154561959368e-08,-4.50555332675528e-08,-4.5055533267568e-08,-1.99165858792789e-06,,,-5.04584638142081e-07,7.60573011631623e-07,2.55988373489393e-07,-3.1452423148683e-07,4.92464392851121e-07,4.92464392850997e-07,1.40868406436728e-06,-1.40868406436656e-06,5.76793499921976e-07,0,0,0,7.88480000000027,103,976.003883495146,528.888834951456,1885.79126213592,928.403883495146,1023.60388349515,482.412621359223,575.365048543689,1942,1829.58252427184,0
2180.3008,2.28239649274535e-07,1.80201348064413e-07,4.08440997338473e-07,-6.5228103024787e-07,1.86601040628552e-07,1.86601040628466e-07,,5.4013841119267e-07,6.1488852162248e-07,-1.4559210742345e-06,-4.76703088920509e-07,-1.45592107423635e-06,6.56711638591693e-07,1.61136336391878e-07,8.17847974983781e-07,-4.08418455118857e-07,,-6.946969195531e-09,3.69809733789417e-07,5.63523888574277e-07,3.69809733789799e-07,-1.58413370244906e-08,6.35176975093946e-07,6.19335638069762e-07,-8.20155431155857e-07,1.71458794250704e-07,,-1.78444797809888e-07,1.78444797809861e-07,-4.97189854732519e-07,-1.16042288054822e-07,2.99759285524221e-07,1.83716997468627e-07,-2.19473944330887e-07,8.25880683635611e-08,-1.36885875967287e-07,-6.26731024656088e-08,-3.15141109235381e-08,-3.15141109235536e-08,-1.9101185455902e-06,,,-4.99828911401372e-07,7.65626931915785e-07,2.65798020514266e-07,-3.22326636226512e-07,4.83504336196265e-07,4.83504336196144e-07,1.41700240491279e-06,-1.41700240491207e-06,5.84775103842863e-07,0,0,0,7.98720000000003,102,956.527941176471,529.719607843137,1884.51470588235,907.349019607843,1005.7068627451,484.026470588235,575.412745098039,1937.45098039216,1831.57843137255,0
2180.4032,2.59327914506618e-07,1.8689389242194e-07,4.46221806928081e-07,-6.65076784070959e-07,1.96721507477049e-07,1.96721507476968e-07,,5.32163066982414e-07,6.00550912857858e-07,-1.5094290011247e-06,-4.94803140855317e-07,-1.50942900112655e-06,6.64213287675702e-07,1.61521923228899e-07,8.25735210904815e-07,-3.85940175969777e-07,,3.00372547869155e-08,2.88247405283678e-07,5.57614207956395e-07,2.88247405284051e-07,2.19925858454751e-09,6.55261510766965e-07,6.57460769351825e-07,-8.33396113655207e-07,1.8164390069425e-07,,-1.88168949223141e-07,1.88168949223115e-07,-5.33131669296596e-07,-1.21511702665516e-07,3.23823017743157e-07,2.02311315076882e-07,-2.10113018323601e-07,8.37188116707358e-08,-1.2639420665283e-07,-7.07831413867283e-08,-1.57103519021653e-08,-1.57103519021809e-08,-1.82859278387783e-06,,,-4.98848762834312e-07,7.8072174688258e-07,2.81872984048123e-07,-3.29088111921378e-07,4.72117508181125e-07,4.72117508181006e-07,1.42320625052681e-06,-1.42320625052609e-06,5.91713347360386e-07,0,0,0,8.08960000000025,103,959.811165048544,536.598058252427,1862.60194174757,913.459223300971,1006.16310679612,491.746601941748,581.449514563107,1916.4854368932,1808.71844660194,0
2180.5056,2.91467903081919e-07,1.93150894170551e-07,4.84618797251989e-07,-6.81255080095822e-07,2.06483044922831e-07,2.06483044922755e-07,,5.22971713057965e-07,5.84946947988744e-07,-1.56321005393122e-06,-5.12062394045725e-07,-1.56321005393307e-06,6.69612927295293e-07,1.61446539681059e-07,8.31059466976572e-07,-3.61102726996263e-07,,6.93707890163124e-08,2.05531398389049e-07,5.45658428355908e-07,2.05531398389413e-07,1.9060754128952e-08,6.73122939310763e-07,6.92183693440036e-07,-8.50425669117027e-07,1.9205283455947e-07,,-1.98346418472137e-07,1.9834641847211e-07,-5.74703334441685e-07,-1.23158101754193e-07,3.49878056251288e-07,2.26719954496352e-07,-2.00742952368739e-07,8.53643222743615e-08,-1.15378630094347e-07,-8.12618299110141e-08,1.72922695608196e-09,1.72922695606655e-09,-1.74864527853421e-06,,,-5.01296558193332e-07,8.03939525578742e-07,3.02642967385269e-07,-3.34516931194472e-07,4.59565897309062e-07,4.59565897308942e-07,1.42902300947428e-06,-1.42902300947355e-06,5.97330684728082e-07,0,0,0,8.19200000000001,102,961.415196078431,536.826470588235,1843.92647058824,918.448039215686,1004.38235294118,491.190196078431,582.462745098039,1902.03921568627,1785.8137254902,0
2180.608,3.23481708317312e-07,1.98593483135799e-07,5.22075191452626e-07,-6.99299093785669e-07,2.15584656257588e-07,2.1558465625752e-07,,5.1279320521729e-07,5.6908608125343e-07,-1.6149085282585e-06,-5.2785612194988e-07,-1.61490852826036e-06,6.72636574744959e-07,1.60731644988804e-07,8.3336821973399e-07,-3.35291034541479e-07,,1.08993098800704e-07,1.2431460450846e-07,5.28513408610272e-07,1.24314604508813e-07,3.50679643940894e-08,6.88022733353613e-07,7.23090697748032e-07,-8.70176788754533e-07,2.02148496500372e-07,,-2.08624780599505e-07,2.08624780599478e-07,-6.19172392940134e-07,-1.19860177176979e-07,3.77077543213037e-07,2.57217366035333e-07,-1.92190420090963e-07,8.75523611762646e-08,-1.04638058914672e-07,-9.29508262801381e-08,2.00669079567202e-08,2.0066907956705e-08,-1.67162685707501e-06,,,-5.06687784724012e-07,8.32693498022223e-07,3.26005713298073e-07,-3.384161437113e-07,4.47068643073396e-07,4.47068643073274e-07,1.43567776092426e-06,-1.43567776092352e-06,6.0181958569929e-07,0,0,0,8.29440000000022,102,963.128431372549,539.90931372549,1841.40196078431,923.01568627451,1003.24117647059,493.088235294118,586.730392156863,1901.3137254902,1781.49019607843,0
2180.7104,3.54013328866783e-07,2.02923686241219e-07,5.56937015107513e-07,-7.1748158013044e-07,2.23757743761378e-07,2.23757743761317e-07,,5.01967963846749e-07,5.54027984826251e-07,-1.66184540392956e-06,-5.4159936588728e-07,-1.66184540393143e-06,6.72862235919381e-07,1.59254084776844e-07,8.32116320696457e-07,-3.10245211649467e-07,,1.46784716930186e-07,4.68220428862293e-08,5.07715587873995e-07,4.68220428865687e-08,5.04090840833943e-08,6.99330057291826e-07,7.4973914137556e-07,-8.91245678660599e-07,2.11439029884606e-07,,-2.18583166586975e-07,2.18583166586947e-07,-6.63164048589249e-07,-1.10710437663922e-07,4.04354944453938e-07,2.93644506789308e-07,-1.85137339997197e-07,9.02667800400447e-08,-9.48705599571304e-08,-1.04466499739538e-07,3.85538166105606e-08,3.85538166105453e-08,-1.59858224297972e-06,,,-5.14601225147735e-07,8.64038764209569e-07,3.49437539061703e-07,-3.40835928476963e-07,4.35699609710904e-07,4.35699609710776e-07,1.44381510482924e-06,-1.4438151048285e-06,6.05981169010194e-07,0,0,0,8.39679999999999,103,967.452912621359,538.364563106796,1847.85436893204,927.945631067961,1006.96019417476,490.166990291262,586.56213592233,1909.50485436893,1786.20388349515,0
2180.8128,3.81707057977348e-07,2.05954400644552e-07,5.87661458621407e-07,-7.34104542061691e-07,2.30796364335091e-07,2.30796364335036e-07,,4.90889471311552e-07,5.40718451599002e-07,-1.70159162635313e-06,-5.52892985694422e-07,-1.701591626355e-06,6.69836755868005e-07,1.56974212963646e-07,8.26810968831889e-07,-2.87643393215723e-07,,1.80942025226845e-07,-2.54324629897385e-08,4.85326595312584e-07,-2.54324629894127e-08,6.51341252367199e-08,7.06664287924896e-07,7.71798413161965e-07,-9.12122379475736e-07,2.19535709935781e-07,,-2.27804199091813e-07,2.27804199091785e-07,-7.03179896955368e-07,-9.50806974312573e-08,4.30591922430926e-07,3.35511224998975e-07,-1.80001974968172e-07,9.34319586264035e-08,-8.65700163417517e-08,-1.14383944054077e-07,5.65171173902183e-08,5.6517117390203e-08,-1.53012024171164e-06,,,-5.24847526913487e-07,8.95079886301843e-07,3.70232359388228e-07,-3.42168251577458e-07,4.26274713204264e-07,4.26274713204132e-07,1.45356295376662e-06,-1.45356295376588e-06,6.11164073046564e-07,0,0,0,8.4992000000002,102,968.188725490196,534.173529411765,1855.03431372549,928.048039215686,1008.32941176471,489.311764705882,579.035294117647,1916.50980392157,1793.55882352941,0
2180.9152,4.05388915714907e-07,2.07605925586345e-07,6.12994841300755e-07,-7.47678643444811e-07,2.36559879497324e-07,2.36559879497272e-07,,4.79932168045241e-07,5.29836864037666e-07,-1.73243245770841e-06,-5.61593568756098e-07,-1.73243245771028e-06,6.63199136448544e-07,1.53935740066409e-07,8.17134876515193e-07,-2.68727744237904e-07,,2.10221785300886e-07,-9.17219619532758e-08,4.63675098019094e-07,-9.17219619529647e-08,7.91912962678356e-08,7.0996060348711e-07,7.89151899755303e-07,-9.31426764796805e-07,2.26181995641089e-07,,-2.35928097854594e-07,2.35928097854565e-07,-7.3614220441735e-07,-7.26539657594514e-08,4.54799356701109e-07,3.82145390940973e-07,-1.76888909866525e-07,9.68984773346496e-08,-7.99904325318615e-08,-1.21401524789621e-07,7.34165667441108e-08,7.34165667440947e-08,-1.46635572477164e-06,,,-5.37549567384609e-07,9.23377565189244e-07,3.8582799780451e-07,-3.43131739517537e-07,4.19249682341994e-07,4.19249682341857e-07,1.46472431110322e-06,-1.46472431110247e-06,6.19064278859495e-07,0,1,0,8.60159999999996,103,969.542718446602,540.025242718447,1847.21359223301,930.493203883495,1008.59223300971,492.861165048544,587.18932038835,1907.83495145631,1786.59223300971,0
2181.0176,4.24210318540291e-07,2.07884318173682e-07,6.32094636713473e-07,-7.57010570503251e-07,2.40959992861876e-07,2.40959992861825e-07,,4.69396933173921e-07,5.21728679822274e-07,-1.75359439337571e-06,-5.6781231410381e-07,-1.75359439337759e-06,6.52769074361623e-07,1.50247982237157e-07,8.03017056599022e-07,-2.54086684007992e-07,,2.339928201241e-07,-1.52004590858478e-07,4.45064676120046e-07,-1.52004590858184e-07,9.25252555761613e-08,7.09417705269768e-07,8.01942960846293e-07,-9.48081369799805e-07,2.31258126280921e-07,,-2.42675348406622e-07,2.42675348406593e-07,-7.59779670127816e-07,-4.34331556173287e-08,4.76262961524736e-07,4.32829805906726e-07,-1.75621972493364e-07,1.00438698445862e-07,-7.51832740474907e-08,-1.24443428633115e-07,8.88658828327972e-08,8.88658828327795e-08,-1.40698033059021e-06,,,-5.53098128670253e-07,9.4722544010614e-07,3.94127311435764e-07,-3.4465183002668e-07,4.14673494649741e-07,4.146734946496e-07,1.47700889487105e-06,-1.47700889487029e-06,6.3148318176627e-07,0,1,0,8.70400000000018,102,968.471078431373,539.46862745098,1837.71568627451,931.210784313726,1005.73137254902,491.859803921569,587.077450980392,1899.3431372549,1776.08823529412,0
2181.12,4.37732267063256e-07,2.06856174948122e-07,6.44588442010874e-07,-7.61212421835465e-07,2.43945360043944e-07,2.43945360043888e-07,,4.59481314444479e-07,5.16429400879476e-07,-1.76521256265204e-06,-5.71852512097923e-07,-1.76521256265391e-06,6.3858665586093e-07,1.46059526463596e-07,7.84646182324768e-07,-2.43612572454369e-07,,2.52133055987226e-07,-2.06740805570963e-07,4.3148926889024e-07,-2.06740805570687e-07,1.05192211754083e-07,7.05353007317418e-07,8.1054521907187e-07,-9.61390665430311e-07,2.34767247938122e-07,,-2.478417023812e-07,2.47841702381173e-07,-7.72799131464329e-07,-7.74564031998248e-09,4.94618628430314e-07,4.86872988109647e-07,-1.75840099009219e-07,1.03756876917769e-07,-7.20832220914416e-08,-1.22704418169845e-07,1.02618819457245e-07,1.02618819457225e-07,-1.35142428558917e-06,,,-5.71957791546829e-07,9.65708757777345e-07,3.93750966230396e-07,-3.47698474568357e-07,4.1223956260297e-07,4.12239562602826e-07,1.49019872788378e-06,-1.49019872788302e-06,6.50066925354738e-07,0,1,0,8.80639999999994,102,969.690196078431,537.247058823529,1829.98039215686,929.937254901961,1009.4431372549,491.066666666667,583.427450980392,1887.45098039216,1772.50980392157,0
2181.2224,4.45944661000401e-07,2.04626190507668e-07,6.50570851507562e-07,-7.59687628324139e-07,2.45491835343541e-07,2.45491835343478e-07,,4.50272667362483e-07,5.13735433183639e-07,-1.76811371962482e-06,-5.74105411273319e-07,-1.76811371962667e-06,6.20917976588065e-07,1.41526183750845e-07,7.62444160339149e-07,-2.36593525226913e-07,,2.6486776213401e-07,-2.56700582969416e-07,4.24367488080999e-07,-2.56700582969161e-07,1.17397829753911e-07,6.98047817050934e-07,8.15445646805218e-07,-9.71044187500102e-07,2.36803351939132e-07,,-2.51275716914733e-07,2.51275716914709e-07,-7.74894314208397e-07,3.37153953507136e-08,5.09835699491581e-07,5.43551094841598e-07,-1.77113482166694e-07,1.06512676617188e-07,-7.06008055495001e-08,-1.15670369938848e-07,1.14523661697259e-07,1.14523661697236e-07,-1.29905750593848e-06,,,-5.94347894527605e-07,9.78550221450596e-07,3.84202326922871e-07,-3.53128143725555e-07,4.11423654417708e-07,4.1142365441756e-07,1.50419875030057e-06,-1.50419875029981e-06,6.76021335096508e-07,0,0,0,8.90880000000016,103,971.903883495146,538.86359223301,1831.83980582524,931.001941747573,1012.80582524272,493.767961165049,583.959223300971,1887.77669902913,1775.90291262136,0
2181.3248,4.49227911895235e-07,2.01322482094409e-07,6.50550393989134e-07,-7.52150944755762e-07,2.45603898778269e-07,2.45603898778195e-07,,4.41764081560761e-07,5.1328166262581e-07,-1.76355059893504e-06,-5.74938155612689e-07,-1.76355059893686e-06,6.00242398731787e-07,1.36777824808768e-07,7.3702022354079e-07,-2.3189936909884e-07,,2.72627850395875e-07,-3.0275482973404e-07,4.24325196360611e-07,-3.0275482973381e-07,1.29415305776665e-07,6.8766849753382e-07,8.17083803310858e-07,-9.77080832137247e-07,2.37507350394152e-07,,-2.52854545030233e-07,2.52854545030214e-07,-7.66658699038439e-07,7.97922251511193e-08,5.22114832894555e-07,6.01907058044958e-07,-1.7904005997097e-07,1.08357307208589e-07,-7.06827527623762e-08,-1.03142130429346e-07,1.24462198853838e-07,1.24462198853811e-07,-1.24941793716062e-06,,,-6.19907718090992e-07,9.85839194403567e-07,3.65931476312456e-07,-3.61536276419153e-07,4.11643969640681e-07,4.11643969640529e-07,1.51897609223494e-06,-1.51897609223417e-06,7.09831513925453e-07,0,0,0,9.01119999999992,102,971.486764705882,533.079901960784,1845.74019607843,929.986274509804,1012.98725490196,486.426470588235,579.733333333333,1900.47058823529,1791.00980392157,0
2181.4272,4.48273464502004e-07,1.97095036407126e-07,6.45368500908619e-07,-7.38695323406841e-07,2.4433010996426e-07,2.44330109964171e-07,,4.3388419304268e-07,5.14604562280502e-07,-1.75300229539143e-06,-5.74611286627073e-07,-1.75300229539322e-06,5.77223712460613e-07,1.31896189569306e-07,7.09119902030147e-07,-2.28216015032462e-07,,2.75957049065954e-07,-3.45634648946096e-07,4.31080383464082e-07,-3.45634648945892e-07,1.41441093823075e-07,6.74297252312835e-07,8.15738346136283e-07,-9.79837838797576e-07,2.37030295587838e-07,,-2.52480471941638e-07,2.52480471941627e-07,-7.49443671529057e-07,1.28761271032373e-07,5.3174961929035e-07,6.6051089032198e-07,-1.81302289333184e-07,1.08981877545429e-07,-7.2320411787751e-08,-8.52730068897112e-08,1.32305018772563e-07,1.32305018772531e-07,-1.20242830712714e-06,,,-6.47510075109574e-07,9.87786147330263e-07,3.40276072220569e-07,-3.73126516766977e-07,4.12377654231384e-07,4.12377654231232e-07,1.53441961004056e-06,-1.53441961003979e-06,7.51034093847346e-07,0,0,0,9.11360000000013,102,974.320588235294,531.482843137255,1863.59803921569,932.105882352941,1016.53529411765,484.698039215686,578.267647058824,1914.47058823529,1812.72549019608,0
2181.5296,4.43981597234611e-07,1.92125128491771e-07,6.36106725725867e-07,-7.19866489162659e-07,2.41787729583575e-07,2.41787729583468e-07,,4.26524856898425e-07,5.17181907675575e-07,-1.73806958134956e-06,-5.73269857901654e-07,-1.73806958135132e-06,5.52669428636326e-07,1.26915655063908e-07,6.79585083700455e-07,-2.24271870439174e-07,,2.7546129422676e-07,-3.85704822100496e-07,4.43468864515591e-07,-3.85704822100316e-07,1.53486476598568e-07,6.58044081323292e-07,8.11530557922229e-07,-9.79888735217476e-07,2.35519372501664e-07,,-2.5011332077288e-07,2.50113320772874e-07,-7.25177115839113e-07,1.78333245731872e-07,5.39016891381794e-07,7.1735013711289e-07,-1.83683532675627e-07,1.08172258851899e-07,-7.55112738237249e-08,-6.26075044904074e-08,1.37911365865538e-07,1.37911365865501e-07,-1.15850384770383e-06,,,-6.75349046501565e-07,9.8461794524484e-07,3.09268898743153e-07,-3.8761285838751e-07,4.13200759766218e-07,4.13200759766064e-07,1.55018201810265e-06,-1.55018201810188e-06,7.98101244377144e-07,0,0,0,9.21599999999989,103,972.116990291262,525.62572815534,1879.73300970874,923.547572815534,1020.68640776699,481.971844660194,569.279611650485,1927.42718446602,1832.03883495146,0
2181.632,4.3735409410034e-07,1.86634436831765e-07,6.23988530931588e-07,-6.96691266103256e-07,2.38183468267305e-07,2.38183468267178e-07,,4.19559541767486e-07,5.20459219240771e-07,-1.72043380730486e-06,-5.71036382944071e-07,-1.72043380730658e-06,5.27489584961723e-07,1.21846720390667e-07,6.493363053526e-07,-2.19019633293002e-07,,2.71790837472708e-07,-4.22843275663977e-07,4.59621466553278e-07,-4.22843275663822e-07,1.6536543655999e-07,6.39179118761642e-07,8.04544555321998e-07,-9.77974744507417e-07,2.33124029267002e-07,,-2.45828408231828e-07,2.45828408231831e-07,-6.96151611788354e-07,2.25819556930654e-07,5.44130474675231e-07,7.69950031605073e-07,-1.86055183931598e-07,1.05857968229973e-07,-8.01972157016219e-08,-3.6086722444653e-08,1.41173413797796e-07,1.41173413797752e-07,-1.11849731100963e-06,,,-7.01299682859517e-07,9.76639297741609e-07,2.75339614881967e-07,-4.04177565859421e-07,4.13758245292573e-07,4.13758245292421e-07,1.56558395406076e-06,-1.56558395405999e-06,8.48516076890969e-07,0,0,0,9.31840000000011,102,976.346568627451,485.467647058824,1902.77941176471,921.248039215686,1031.44509803922,457.742156862745,513.193137254902,1939.94117647059,1865.61764705882,0
2181.7344,4.29399932353262e-07,1.80882204298729e-07,6.10282136651471e-07,-6.70619677702094e-07,2.33816239773193e-07,2.33816239773045e-07,,4.12858118625173e-07,5.23886023627032e-07,-1.70184067715424e-06,-5.68165692595053e-07,-1.70184067715591e-06,5.02655966728879e-07,1.16709436552039e-07,6.19365403281116e-07,-2.11757315933257e-07,,2.65652423218558e-07,-4.56512198044961e-07,4.77289767663154e-07,-4.56512198044836e-07,1.76781970559359e-07,6.18218337115609e-07,7.9500030767533e-07,-9.74937337770875e-07,2.30008353348943e-07,,-2.3986677283622e-07,2.39866772836232e-07,-6.64805225627151e-07,2.68445443459535e-07,5.47250962135058e-07,8.15696405593745e-07,-1.88349640214572e-07,1.021381073474e-07,-8.621153286717e-08,-6.98734567261834e-09,1.42079269079379e-07,1.4207926907933e-07,-1.08352590485002e-06,,,-7.23412766362498e-07,9.64384087548755e-07,2.4097132118613e-07,-4.21538237584524e-07,4.13715593257889e-07,4.13715593257738e-07,1.57963497144295e-06,-1.57963497144218e-06,8.99097795322312e-07,0,0,0,9.42079999999987,103,965.319417475728,509.979611650485,1868.21359223301,922.153398058252,1008.4854368932,460.969902912621,558.98932038835,1930.98058252427,1805.44660194175,0
2181.8368,4.21064231303179e-07,1.75147057931659e-07,5.96211289234316e-07,-6.43366730331897e-07,2.29054832659086e-07,2.29054832658918e-07,,4.06303224441966e-07,5.26963986011122e-07,-1.68408292575802e-06,-5.65162776267663e-07,-1.68408292575965e-06,4.79147285465742e-07,1.11559533991513e-07,5.90706819457442e-07,-2.02188451496793e-07,,2.57826698811764e-07,-4.86032509485797e-07,4.94276118745055e-07,-4.86032509485699e-07,1.87468203332289e-07,5.95923224946163e-07,7.8339142827881e-07,-9.71646450845776e-07,2.26359702891512e-07,,-2.32646886627103e-07,2.32646886627123e-07,-6.33522206493973e-07,3.0372560230598e-07,5.4852831389481e-07,8.52253916199906e-07,-1.90530947003824e-07,9.72714525220816e-08,-9.32594944817394e-08,2.32096961063045e-08,1.40768119388528e-07,1.40768119388473e-07,-1.05473432573096e-06,,,-7.40345786444282e-07,9.48729380692669e-07,2.08383594248257e-07,-4.38164057914727e-07,4.12757982655033e-07,4.12757982654883e-07,1.59116931118044e-06,-1.59116931117967e-06,9.46530316865218e-07,0,0,0,9.52320000000009,102,967.832843137255,523.076960784314,1867.72058823529,927.622549019608,1008.0431372549,477.558823529412,568.595098039216,1941.33333333333,1794.10784313725,0
2181.9392,4.13176224859699e-07,1.69698990138997e-07,5.82875214998173e-07,-6.16686920856866e-07,2.24293220176135e-07,2.24293220175948e-07,,3.99802193624579e-07,5.29277834699852e-07,-1.66897484114262e-06,-5.62794705525112e-07,-1.66897484114421e-06,4.57871424574774e-07,1.06492413587787e-07,5.64363838162734e-07,-1.90450212550563e-07,,2.49138922008763e-07,-5.10939279416239e-07,5.08843833539518e-07,-5.10939279416166e-07,1.97292182626885e-07,5.73227772816628e-07,7.70519955443866e-07,-9.68916069475235e-07,2.22391142825703e-07,,-2.24732611197302e-07,2.2473261119733e-07,-6.04466728594365e-07,3.29795589232791e-07,5.48158768815006e-07,8.77954358046879e-07,-1.92569515989436e-07,9.16335794900873e-08,-1.00935936499345e-07,5.29899452466968e-08,1.37563318886175e-07,1.37563318886114e-07,-1.03301232315152e-06,,,-7.51574422466804e-07,9.30880208015808e-07,1.79305785548871e-07,-4.5258031282938e-07,4.10658630829537e-07,4.10658630829389e-07,1.59903963898195e-06,-1.59903963898119e-06,9.87916586257268e-07,0,0,0,9.62559999999985,103,967.772815533981,520.253398058252,1882.2572815534,927.130097087379,1008.41553398058,468.771844660194,571.734951456311,1966.39805825243,1798.11650485437,0
2182.0416,4.06407499658707e-07,1.64768927837332e-07,5.71176427495514e-07,-5.92158258922299e-07,2.19892364128752e-07,2.19892364128546e-07,,3.93285346816388e-07,5.30490095040128e-07,-1.65831461331166e-06,-5.62009105409515e-07,-1.65831461331322e-06,4.3957629190376e-07,1.01619894352148e-07,5.41196186256069e-07,-1.77133537852904e-07,,2.40364477483853e-07,-5.31233372594948e-07,5.19953681450244e-07,-5.31233372594897e-07,2.0628283415482e-07,5.51124644159254e-07,7.57407478314424e-07,-9.67421099397415e-07,2.18337356132212e-07,,-2.16774159422715e-07,2.1677415942275e-07,-5.79447623787745e-07,3.45622345226622e-07,5.46439644072045e-07,8.92061989297718e-07,-1.94424745876763e-07,8.56567169348355e-08,-1.08768028941925e-07,8.09704109035679e-08,1.32973583616639e-07,1.32973583616573e-07,-1.01870961386128e-06,,,-7.57360929395138e-07,9.12226436314745e-07,1.54865506919472e-07,-4.63632010553016e-07,4.07379938353977e-07,4.07379938353832e-07,1.60229915823329e-06,-1.60229915823252e-06,1.02115855101297e-06,0,0,0,9.72800000000007,102,968.825490196079,525.182843137255,1887.24019607843,925.789215686275,1011.86176470588,481.04705882353,569.318627450981,1968.48039215686,1806,0
2182.144,4.01238356872667e-07,1.60520385936408e-07,5.6175874280855e-07,-5.7104159880573e-07,2.16119170973103e-07,2.16119170972881e-07,,3.86690963906897e-07,5.30318207999951e-07,-1.65380368168972e-06,-5.63802435135711e-07,-1.65380368169125e-06,4.24767635824776e-07,9.70288745158428e-08,5.21796510340768e-07,-1.63275912553446e-07,,2.32122500244028e-07,-5.47444852697862e-07,5.27265039437327e-07,-5.47444852697834e-07,2.14587721536936e-07,5.30523934565637e-07,7.45111656102919e-07,-9.67636390805748e-07,2.1444387153903e-07,,-2.09436588181352e-07,2.09436588181393e-07,-5.59805234770334e-07,3.51076098984831e-07,5.43803087048033e-07,8.94879186031891e-07,-1.96038056602471e-07,7.97677621926072e-08,-1.1627029440986e-07,1.06027856846021e-07,1.27651422767367e-07,1.27651422767298e-07,-1.01141932097328e-06,,,-7.58567798879629e-07,8.94129300487095e-07,1.3556150160733e-07,-4.7062229514642e-07,4.03144465210561e-07,4.03144465210416e-07,1.6003322430856e-06,-1.60033224308483e-06,1.0450842090948e-06,0,1,0,9.83039999999983,102,969.774509803922,526.10931372549,1891.64705882353,924.236274509804,1015.31274509804,481.982352941177,570.236274509804,1969.72549019608,1813.56862745098,0
2182.2464,3.97934529183578e-07,1.57027692745162e-07,5.54962221928215e-07,-5.54227496457797e-07,2.13095347340539e-07,2.13095347340304e-07,,3.79946758738263e-07,5.28523652084387e-07,-1.6568849013779e-06,-5.69053883792823e-07,-1.6568849013794e-06,4.13639248778815e-07,9.27394637082635e-08,5.06378712487216e-07,-1.50296936740258e-07,,2.24825039766515e-07,-5.60559090174519e-07,5.30989149446062e-07,-5.60559090174506e-07,2.2241038463098e-07,5.12098623932889e-07,7.34509008564211e-07,-9.69795150756319e-07,2.10950569910535e-07,,-2.03315653777503e-07,2.03315653777548e-07,-5.46315512953357e-07,3.46876455201883e-07,5.40808905708441e-07,8.87685360909331e-07,-1.97337143996875e-07,7.43370113062438e-08,-1.23000132690627e-07,1.27381863736492e-07,1.22307345502538e-07,1.22307345502465e-07,-1.00985348161257e-06,,,-7.5639501401532e-07,8.77673347036965e-07,1.21278333021509e-07,-4.73320119664985e-07,3.98419265209004e-07,3.9841926520886e-07,1.59292512549709e-06,-1.59292512549633e-06,1.05937604044925e-06,0,1,0,9.93280000000004,103,967.390291262136,526.767961165049,1894.8786407767,921.599029126214,1013.18155339806,484.161165048544,569.374757281553,1972.66990291262,1817.08737864078,0
2182.3488,3.96534291660224e-07,1.54267245232126e-07,5.50801536891824e-07,-5.42249385229451e-07,2.10771102458852e-07,2.10771102458605e-07,,3.72961405226259e-07,5.24921427696165e-07,-1.66851558668038e-06,-5.78332776219527e-07,-1.66851558668185e-06,4.06014641422374e-07,8.86781240056947e-08,4.94692765428195e-07,-1.39874027215026e-07,,2.18694638309954e-07,-5.7188502135105e-07,5.31747574202808e-07,-5.7188502135105e-07,2.29954340342594e-07,4.9615443577674e-07,7.26108776119673e-07,-9.73853163962794e-07,2.08070393752793e-07,,-1.98842854738241e-07,1.98842854738288e-07,-5.39122553809355e-07,3.34425065392687e-07,5.38083454531842e-07,8.72508519923522e-07,-1.98248168937092e-07,6.96483561993026e-08,-1.28599812737784e-07,1.44633157576691e-07,1.17597620467801e-07,1.17597620467725e-07,-1.01177345122751e-06,,,-7.52072505395049e-07,8.63411588736699e-07,1.11339083341516e-07,-4.71877192571258e-07,3.9380069186115e-07,3.93800691861006e-07,1.58028897090129e-06,-1.58028897090054e-06,1.06440586313625e-06,0,1,0,10.0352000000003,102,966.044607843137,527.847549019608,1898.61274509804,919.343137254902,1012.74607843137,481.517647058824,574.177450980392,1974.10784313725,1823.11764705882,0
2182.4512,3.96842454068176e-07,1.52126302071352e-07,5.48968756139001e-07,-5.35344121199582e-07,2.0893560106216e-07,2.08935601061904e-07,,3.65636581244503e-07,5.1939711015046e-07,-1.68895352620363e-06,-5.91716864627206e-07,-1.68895352620508e-06,4.01312926982514e-07,8.46754109769001e-08,4.8598833795953e-07,-1.33777869646375e-07,,2.13816429917715e-07,-5.82910379887861e-07,5.30518839260931e-07,-5.82910379887872e-07,2.37370238408988e-07,4.82574062848069e-07,7.19944301257392e-07,-9.79465075289512e-07,2.05964408932497e-07,,-1.96199648237411e-07,1.9619964823746e-07,-5.37731729068225e-07,3.15557031484702e-07,5.36212805266329e-07,8.51769836750016e-07,-1.98707640411419e-07,6.58943587439767e-08,-1.32813281667436e-07,1.57752962317752e-07,1.14017453742833e-07,1.14017453742755e-07,-1.01397006172344e-06,,,-7.46560133932538e-07,8.51171510275969e-07,1.04611376343299e-07,-4.66713179688407e-07,3.89849580593256e-07,3.8984958059311e-07,1.56305863727166e-06,-1.5630586372709e-06,1.06106016896036e-06,0,0,0,10.1376,103,967.853398058253,525.407281553398,1902.74757281553,920.623300970874,1015.08349514563,478.493203883495,572.321359223301,1974.95145631068,1830.54368932039,0
2182.5536,3.98426993920705e-07,1.50428218090222e-07,5.48855212010399e-07,-5.33542893156165e-07,2.0726544987216e-07,2.07265449871898e-07,,3.57897556770054e-07,5.11912877985722e-07,-1.7176353766883e-06,-6.08673838582526e-07,-1.71763537668973e-06,3.98560353978892e-07,8.04916545950145e-08,4.79052008574013e-07,-1.33700926194682e-07,,2.10186873298262e-07,-5.95171410367918e-07,5.28639405757231e-07,-5.95171410367939e-07,2.44697718632319e-07,4.70862416460557e-07,7.15560135093208e-07,-9.8599515447448e-07,2.04717228606653e-07,,-1.95267180446383e-07,1.95267180446433e-07,-5.41102229302439e-07,2.922864241734e-07,5.35625583041007e-07,8.27912007213387e-07,-1.98670928527746e-07,6.31910906224711e-08,-1.35479837905266e-07,1.67020457154681e-07,1.11828650481406e-07,1.11828650481327e-07,-1.01238074219568e-06,,,-7.40322590158593e-07,8.39978865648894e-07,9.96562754901723e-08,-4.58422099987719e-07,3.86948263560093e-07,3.86948263559945e-07,1.54226221608769e-06,-1.54226221608695e-06,1.05056663930779e-06,0,0,0,10.2400000000002,102,968.351470588235,523.819607843137,1899.49509803922,923.014705882353,1013.68823529412,471.76568627451,575.873529411765,1967.71568627451,1831.27450980392,0
