time,S1-D1,S1-D8,S1-D9,S1-D15,S2-D1,S2-D2,S2-D3,S2-D9,S3-D1,S3-D2,S3-D16,S4-D2,S4-D3,S4-D5,S5-D3,S5-D4,S5-D5,S6-D2,S6-D5,S6-D17,S7-D6,S7-D7,S8-D6,S8-D7,S8-D18,S9-D3,S9-D4,S9-D9,S9-D11,S9-D19,S10-D8,S10-D9,S10-D10,S10-D11,S11-D8,S11-D10,S11-D20,S12-D10,S12-D11,S12-D12,S13-D4,S13-D11,S13-D12,S14-D10,S14-D12,S14-D21,S15-D13,S15-D14,S16-D13,S16-D14,S16-D22,SART_Target,SART_NonTarget,SART_Probe,t_rel_s,eye_n,xp,yp,ps,xpl_i,xpr_i,ypl_i,ypr_i,psl_i,psr_i,blink_prop
1865.3184,1.26499092161932e-07,1.4688813144803e-07,2.73387223609858e-07,1.3170024506353e-08,1.94879433837686e-07,1.94879433837649e-07,7.38171696989821e-08,2.19711065739439e-07,2.93528235438724e-07,-1.40411816896022e-07,-2.56321022861056e-08,-1.40411816896044e-07,1.32993096254032e-08,-6.95732548558027e-09,6.34198413978303e-09,1.24467546309183e-07,1.00830620764755e-07,2.25298167073991e-07,-1.87504947612446e-07,8.69116214081827e-08,-1.87504947612488e-07,-4.95717839233791e-08,-7.67299134268622e-08,-1.26301697350542e-07,-6.68834901376749e-08,-7.33534318291745e-08,-7.33534318291988e-08,3.6629832160765e-08,-3.6629832160511e-08,-6.33089695677399e-08,3.14234360680163e-07,-8.58708989084473e-08,2.28363461771458e-07,1.52097981979373e-07,-1.1308958324671e-07,3.90083987324891e-08,-6.43938559425682e-07,2.12978137808143e-08,2.1297813781102e-08,-8.45582293798807e-08,,-4.28530037500558e-08,5.62172755469216e-08,-1.42548454242351e-07,-8.63311786953241e-08,-3.7772877271775e-07,8.78281403144583e-08,8.78281403147903e-08,1.88989881874764e-07,-1.88989881874676e-07,-1.03539117707056e-07,0,1,0,0,103,898.781553398058,532.188834951456,1546.15048543689,906.902912621359,890.660194174757,519.147572815534,545.230097087379,1854.55339805825,1237.74757281553,0
1865.4208,1.43635308594206e-07,1.49679740171031e-07,2.93315048765139e-07,1.57607708160555e-08,2.01842558505939e-07,2.01842558505905e-07,8.41550202026285e-08,2.11035552823031e-07,2.95190573025966e-07,-1.06159405398722e-07,-1.65411451417613e-08,-1.06159405398741e-07,1.85532326557695e-08,-3.44115898515969e-09,1.5112073670572e-08,1.2681119203631e-07,9.00019776514223e-08,2.16813169687781e-07,-1.93142005683236e-07,8.45101773601801e-08,-1.93142005683275e-07,-6.53360882019293e-08,-7.27745809028533e-08,-1.38110669105091e-07,-7.01879113987137e-08,-7.76430788451649e-08,-7.76430788451872e-08,3.48179412436218e-08,-3.48179412433727e-08,-5.55722116432229e-08,3.06997804896321e-07,-8.69940567895417e-08,2.20003748106518e-07,1.52100058834663e-07,-1.13718899296287e-07,3.83811595381999e-08,-6.21829542356304e-07,3.05001541675353e-08,3.05001541678047e-08,-9.05166727021925e-08,,-6.02433739276591e-08,5.46190826702799e-08,-1.55311165181238e-07,-1.00692082510844e-07,-3.89729874144314e-07,8.43497131163011e-08,8.43497131166337e-08,1.938783190429e-07,-1.93878319042815e-07,-1.0256475962194e-07,0,1,0,0.102399999999989,102,934.999239794278,566.660191256831,1555.81353262617,914.928479588557,955.07,505.565284474446,627.755098039216,1864.8368691739,1246.79019607843,0.392156862745098
1865.5232,1.60362509756063e-07,1.51707349738239e-07,3.12069859494213e-07,2.04638054399142e-08,2.0781888162884e-07,2.07818881628809e-07,9.45592494003077e-08,2.01693848164359e-07,2.96253097564975e-07,-7.26672507418474e-08,-8.2362980615312e-09,-7.26672507418625e-08,2.52385482064842e-08,-2.24440151390348e-10,2.50141080550587e-08,1.31934693962294e-07,7.958479142819e-08,2.11519485390529e-07,-1.96418692113204e-07,8.21825191504819e-08,-1.96418692113239e-07,-7.2719093756545e-08,-6.61864207556498e-08,-1.38905514512514e-07,-7.37474892640743e-08,-8.10966188575211e-08,-8.10966188575424e-08,3.32887391844843e-08,-3.32887391842416e-08,-4.79066043790677e-08,2.98464210557096e-07,-8.73263775823877e-08,2.11137832974442e-07,1.5122111299804e-07,-1.13424148679214e-07,3.77969643186472e-08,-6.00835530182202e-07,3.64327446618508e-08,3.64327446620977e-08,-9.42099464067169e-08,,-7.4869768734237e-08,5.32287806226872e-08,-1.67119969019363e-07,-1.13891188396553e-07,-4.00216188716302e-07,8.03130529078576e-08,8.03130529081905e-08,1.98006197441015e-07,-1.98006197440931e-07,-1.01011294516219e-07,0,1,0,0.204799999999977,103,961.544684863919,535.548645551488,1556.93465701098,949.889272640458,973.200097087379,490.240203724336,580.857087378641,1864.38484800255,1249.48446601942,0.466019417475728
1865.6256,1.75901358029064e-07,1.52900197332018e-07,3.28801555361003e-07,2.71153704274358e-08,2.12592830932519e-07,2.12592830932492e-07,1.04601939889137e-07,1.91810193187428e-07,2.96412133076876e-07,-4.1095070769704e-08,-9.99509894065196e-10,-4.10950707697153e-08,3.29451600204954e-08,2.61721005471019e-09,3.55623700751735e-08,1.39543271247247e-07,7.00696639097778e-08,2.09612935157064e-07,-1.97687485401308e-07,8.00448823444618e-08,-1.97687485401339e-07,-7.26360896945952e-08,-5.76385110174363e-08,-1.30274600712364e-07,-7.74193858961566e-08,-8.35875342562774e-08,-8.35875342562987e-08,3.20248910573253e-08,-3.20248910570902e-08,-4.06287668174348e-08,2.89049852680626e-07,-8.68953521477649e-08,2.02154500532589e-07,1.49178559547453e-07,-1.12360248212887e-07,3.6818311334386e-08,-5.82604949385195e-07,3.99119332467384e-08,3.99119332469616e-08,-9.54676722237085e-08,,-8.60899072158113e-08,5.21148025290965e-08,-1.77624133131659e-07,-1.25509330602429e-07,-4.08950734694534e-07,7.5771058678985e-08,7.57710586793173e-08,2.01759099890991e-07,-2.01759099890909e-07,-9.89605577678019e-08,0,0,0,0.307199999999966,102,947.674019607843,528.149019607843,1559.78431372549,957.824509803922,937.523529411765,519.91862745098,536.379411764706,1887.53921568627,1232.02941176471,0
1865.728,1.89606775228142e-07,1.53147750508376e-07,3.42754525736451e-07,3.55085533280873e-08,2.16001866549368e-07,2.16001866549345e-07,1.13369152411963e-07,1.81249684075421e-07,2.94618836487697e-07,-1.23644943583433e-08,4.99457192452038e-09,-1.23644943583507e-08,4.1324494413972e-08,5.00029658370415e-09,4.63247909976477e-08,1.4902143478672e-07,6.17813725002021e-08,2.10802807286957e-07,-1.97342690115346e-07,7.81906367486356e-08,-1.97342690115373e-07,-6.65473078488277e-08,-4.78765325694587e-08,-1.14423840418636e-07,-8.11193590983976e-08,-8.50350179143727e-08,-8.50350179143949e-08,3.10026681949705e-08,-3.1002668194744e-08,-3.41006368502331e-08,2.79173520023271e-07,-8.57118384477844e-08,1.93461681575209e-07,1.45782855371824e-07,-1.10701414411386e-07,3.50814409602576e-08,-5.68953449216678e-07,4.20218479077331e-08,4.20218479079301e-08,-9.41498619850424e-08,,-9.34044643836963e-08,5.15188229821494e-08,-1.8655238540018e-07,-1.35033562417888e-07,-4.15544144298067e-07,7.08274543468434e-08,7.0827454347175e-08,2.05591417149677e-07,-2.05591417149596e-07,-9.64274538641731e-08,0,0,0,0.409599999999955,102,949.329901960784,530.325490196079,1555.63725490196,960.101960784314,938.557843137255,525.195098039216,535.455882352941,1891.46078431373,1219.8137254902,0
1865.8304,2.00976404535316e-07,1.52315444855115e-07,3.53291849390378e-07,4.54092056861019e-08,2.17952342696145e-07,2.17952342696124e-07,1.19638469412248e-07,1.69654353998278e-07,2.89292823410841e-07,1.27766780166302e-08,9.65327739996383e-09,1.2776678016627e-08,5.01281406735033e-08,6.84557013092632e-09,5.69737108044051e-08,1.5946906892924e-07,5.48823981503655e-08,2.14351467079636e-07,-1.95767461731934e-07,7.66955323088968e-08,-1.95767461731958e-07,-5.64640671117488e-08,-3.7752238978131e-08,-9.42163060902469e-08,-8.48293797013428e-08,-8.54038734707839e-08,-8.54038734708083e-08,3.01945634081328e-08,-3.01945634079159e-08,-2.86964187029098e-08,2.69230860663448e-07,-8.37659595015637e-08,1.854649011616e-07,1.40950893182502e-07,-1.08610082142446e-07,3.2340811039876e-08,-5.61599582018471e-07,4.4010034762282e-08,4.40100347624494e-08,-9.0223550931744e-08,,-9.65469672163036e-08,5.18268217860638e-08,-1.9369877687106e-07,-1.41871955084844e-07,-4.19519264744184e-07,6.56273813003719e-08,6.56273813007027e-08,2.09915835576646e-07,-2.09915835576565e-07,-9.33732129721993e-08,0,0,0,0.511999999999944,103,947.162621359223,526.749029126214,1561.42718446602,956.530097087379,937.795145631068,524.641747572816,528.856310679612,1896.03883495146,1226.81553398058,0
1865.9328,2.09610935272513e-07,1.50261865882243e-07,3.59872801154718e-07,5.6559518493454e-08,2.18416540295587e-07,2.18416540295569e-07,1.22105311021034e-07,1.56506522508833e-07,2.78611833530183e-07,3.36726294558295e-08,1.29329234157482e-08,3.36726294558308e-08,5.92383930651258e-08,8.09311152476005e-09,6.7331504589866e-08,1.69766571686682e-07,4.93925171227776e-08,2.19159088809485e-07,-1.93279243510315e-07,7.56222027982203e-08,-1.93279243510335e-07,-4.49160273154984e-08,-2.82538900744598e-08,-7.31699173903464e-08,-8.85951311253785e-08,-8.46968389627879e-08,-8.46968389628155e-08,2.95856339031287e-08,-2.95856339029226e-08,-2.47581316973359e-08,2.59588645321039e-07,-8.10362703342942e-08,1.78552374986454e-07,1.3470641309918e-07,-1.06207789663392e-07,2.84986234356072e-08,-5.61847881117238e-07,4.71578801806771e-08,4.7157880180813e-08,-8.38144058746333e-08,,-9.55180145221032e-08,5.35044826526246e-08,-1.98895979980907e-07,-1.4539149732812e-07,-4.2037097107148e-07,6.03372673420581e-08,6.03372673423876e-08,2.14987198245689e-07,-2.14987198245609e-07,-8.97327297321265e-08,0,0,0,0.614399999999932,102,950.133823529412,524.80931372549,1581.92647058824,961.68137254902,938.586274509804,521.122549019608,528.496078431373,1916.32352941176,1247.52941176471,0
1866.0352,2.1515693102196e-07,1.46850771609281e-07,3.62007702631219e-07,6.86730061028587e-08,2.17407652129711e-07,2.17407652129697e-07,1.19605498650509e-07,1.41213016268658e-07,2.60818514919483e-07,4.97104215826435e-08,1.48151481283394e-08,4.97104215826495e-08,6.86866663480982e-08,8.71309879534398e-09,7.73997651434274e-08,1.78676719798042e-07,4.52175713367887e-08,2.23894291134851e-07,-1.90078864997778e-07,7.50225116833159e-08,-1.90078864997794e-07,-3.48226965890451e-08,-2.04953906956411e-08,-5.53180872850985e-08,-9.25069396670098e-08,-8.29427268643122e-08,-8.29427268643442e-08,2.91966797641046e-08,-2.91966797639105e-08,-2.25521761285785e-08,2.50590625321118e-07,-7.7510546484238e-08,1.73080078836582e-07,1.27181668820728e-07,-1.03552582889047e-07,2.36290859315014e-08,-5.70308068115698e-07,5.26551053616525e-08,5.2655105361754e-08,-7.52137819194202e-08,,-9.05607038947473e-08,5.70205691503303e-08,-2.01989135429532e-07,-1.4496856627903e-07,-4.17629088608671e-07,5.51251538933322e-08,5.512515389366e-08,2.20826802101122e-07,-2.20826802101041e-07,-8.54544746685299e-08,0,0,0,0.716799999999921,103,950.964563106796,527.794174757282,1592.6213592233,964.065048543689,937.864077669903,523.882524271845,531.705825242718,1930.09708737864,1255.14563106796,0
1866.1376,2.17263892852535e-07,1.41956612966482e-07,3.59220505819014e-07,8.14260733155115e-08,2.14943291358604e-07,2.14943291358594e-07,1.11296090440195e-07,1.23200660268416e-07,2.34496750708927e-07,6.03282470472999e-08,1.53014539896781e-08,6.03282470473107e-08,7.86517487013587e-08,8.70576163686524e-09,8.73575103382147e-08,1.84984205557952e-07,4.2183276034433e-08,2.27167481592399e-07,-1.86217284124247e-07,7.49385386070415e-08,-1.86217284124259e-07,-2.92519773070952e-08,-1.56492261982057e-08,-4.49012035057399e-08,-9.66643646634435e-08,-8.01867491330666e-08,-8.01867491331046e-08,2.9100080661492e-08,-2.91000806613112e-08,-2.2233333416982e-08,2.42562502123418e-07,-7.32144018089445e-08,1.69348100314167e-07,1.1862752975056e-07,-1.00629623429458e-07,1.79979063209245e-08,-5.86710928624418e-07,6.14994535850315e-08,6.14994535850986e-08,-6.48631832108308e-08,,-8.21208555435422e-08,6.27718786331154e-08,-2.02820698286069e-07,-1.40048819652772e-07,-4.1093342295196e-07,5.01481398840811e-08,5.01481398844073e-08,2.27218888355057e-07,-2.27218888354975e-07,-8.05459943630535e-08,0,0,0,0.81919999999991,102,950.055882352941,526.80931372549,1593.87745098039,964.859803921569,935.251960784314,519.989215686275,533.629411764706,1935.69607843137,1252.05882352941,0
1866.24,2.15571176831551e-07,1.35467869747067e-07,3.51039046578636e-07,9.44540012458439e-08,2.1101260355283e-07,2.11012603552823e-07,9.67793593691781e-08,1.02012343069236e-07,1.98791702438728e-07,6.50732113814407e-08,1.44233688231685e-08,6.50732113814565e-08,8.94290053913208e-08,8.08963074522201e-09,9.75186361365395e-08,1.87654726906726e-07,4.00683835372049e-08,2.27723110443939e-07,-1.81594305352651e-07,7.54015547017137e-08,-1.8159430535266e-07,-3.11015890402206e-08,-1.483536332113e-08,-4.59369523618186e-08,-1.01132214479562e-07,-7.64881760309596e-08,-7.64881760310049e-08,2.94161218127015e-08,-2.94161218125357e-08,-2.38158842358782e-08,2.35804530966415e-07,-6.823930075818e-08,1.6756523020792e-07,1.09426313007778e-07,-9.73611859251977e-08,1.20651270824053e-08,-6.09844277723886e-07,7.44245460684479e-08,7.44245460684782e-08,-5.334525782896e-08,,-7.0830449076001e-08,7.10115398071459e-08,-2.01231040867997e-07,-1.30219501060659e-07,-4.00115822002666e-07,4.55439904321585e-08,4.5543990432483e-08,2.33775865908387e-07,-2.33775865908303e-07,-7.51172668456003e-08,0,0,0,0.921599999999899,102,936.725,542.503431372549,1584.79901960784,953.525490196078,919.924509803922,538.908823529412,546.098039215686,1924.47058823529,1245.12745098039,0
1866.3424,2.09725252669722e-07,1.27294701820594e-07,3.37019954490356e-07,1.0735492670876e-07,2.05558275586583e-07,2.05558275586581e-07,7.61714173662938e-08,7.73980621646984e-08,1.53569479531305e-07,6.36824125105213e-08,1.2259559582595e-08,6.36824125105421e-08,1.01365531958122e-07,6.88393417884022e-09,1.08249466136965e-07,1.85982527420915e-07,3.86310035115291e-08,2.24613530932445e-07,-1.75997159082144e-07,7.64266499952472e-08,-1.75997159082149e-07,-4.27606393890304e-08,-1.8991057178146e-08,-6.17516965676749e-08,-1.05897765816322e-07,-7.19257116579378e-08,-7.1925711657992e-08,3.02924527115053e-08,-3.02924527113559e-08,-2.71527039504013e-08,2.30570471938487e-07,-6.27623066163285e-08,1.67808165321835e-07,1.00095930284039e-07,-9.36355346980299e-08,6.46039558583748e-09,-6.37608801970529e-07,9.18464706336808e-08,9.18464706336743e-08,-4.138408578026e-08,,-5.75107151483867e-08,8.17825293118254e-08,-1.97075749100257e-07,-1.1529321978823e-07,-3.85270976463235e-07,4.14189649084918e-08,4.14189649088154e-08,2.40039361983653e-07,-2.40039361983568e-07,-6.9416435444769e-08,0,0,0,1.02399999999989,103,936.212621359223,546.68786407767,1561.17961165049,952.01359223301,920.411650485437,544.400970873786,548.974757281553,1895.4854368932,1226.87378640777,0
1866.4448,1.99423939997962e-07,1.17386570539654e-07,3.16810510537679e-07,1.19697084384908e-07,1.98480646326374e-07,1.98480646326376e-07,5.01247951287368e-08,4.9402297613872e-08,9.95270927429189e-08,5.61585657774126e-08,8.95191507893917e-09,5.61585657774383e-08,1.14765096904189e-07,5.09442922145667e-09,1.19859526125655e-07,1.79696823041645e-07,3.76265910140053e-08,2.17323414055644e-07,-1.69177483321419e-07,7.80027085951711e-08,-1.6917748332142e-07,-6.58010041559801e-08,-2.87455792701135e-08,-9.45465834266234e-08,-1.1083752445819e-07,-6.66070987783525e-08,-6.66070987784166e-08,3.18837929696361e-08,-3.18837929695044e-08,-3.1930481279039e-08,2.27043861686753e-07,-5.70577484169785e-08,1.69986113269442e-07,9.12757423168592e-08,-8.93453371496069e-08,1.93040516708437e-09,-6.67184362173119e-07,1.13817583133546e-07,1.13817583133502e-07,-2.98334606135043e-08,,-4.31618779746174e-08,9.4865686936186e-08,-1.90258804018224e-07,-9.53931170818266e-08,-3.66796861920456e-07,3.78307075986121e-08,3.78307075989351e-08,2.45577809630761e-07,-2.45577809630673e-07,-6.38505093546357e-08,0,0,0,1.12639999999988,102,936.150980392157,547.81862745098,1537.04901960784,949.811764705882,922.490196078431,544.98137254902,550.655882352941,1864.83333333333,1209.26470588235,0
1866.5472,1.84485608591999e-07,1.05762310328779e-07,2.90247918920866e-07,1.31024788989911e-07,1.8966826146374e-07,1.89668261463746e-07,1.98157032064542e-08,1.84456017627203e-08,3.82613049694814e-08,4.28151630009713e-08,4.71479851667902e-09,4.28151630010016e-08,1.29777308661589e-07,2.71145465794058e-09,1.32488763319544e-07,1.69006961642235e-07,3.68234590173111e-08,2.05830420659531e-07,-1.6095436279317e-07,8.00823152899092e-08,-1.60954362793166e-07,-1.00746376093787e-07,-4.43191455673096e-08,-1.45065521661657e-07,-1.15701145752032e-07,-6.06788912151978e-08,-6.06788912152729e-08,3.43428543855497e-08,-3.43428543854366e-08,-3.76913496755877e-08,2.25320588989406e-07,-5.15008700856954e-08,1.73819718903368e-07,8.36841042594558e-08,-8.44232237822162e-08,-7.39119522923174e-10,-6.95296880995636e-07,1.39988989246911e-07,1.39988989246831e-07,-1.96299264078831e-08,,-2.891005488556e-08,1.09754824164022e-07,-1.8077680169557e-07,-7.10219775313282e-08,-3.45400001545255e-07,3.47776359910439e-08,3.47776359913672e-08,2.50052724976555e-07,-2.50052724976465e-07,-5.8978587860923e-08,1,0,0,1.22879999999986,103,937.13786407767,538.043203883495,1527.21844660194,950.369902912621,923.905825242718,539.990291262136,536.096116504854,1848.8640776699,1205.57281553398,0
1866.6496,1.64938153384977e-07,9.25478246527709e-08,2.5748597803786e-07,1.40866500883679e-07,1.79052620610779e-07,1.79052620610789e-07,-1.31009708661916e-08,-1.46174444675316e-08,-2.7718415333421e-08,2.42723610435133e-08,-1.68072429570886e-10,2.42723610435476e-08,1.46293496403001e-07,-2.75162008901532e-10,1.46018334394119e-07,1.54577640406138e-07,3.60253610564017e-08,1.90603001462516e-07,-1.51323399735761e-07,8.25789826700856e-08,-1.51323399735753e-07,-1.46970778543101e-07,-6.54591886004385e-08,-2.12429967144133e-07,-1.20120385088448e-07,-5.43335751243998e-08,-5.43335751244867e-08,3.78109269790112e-08,-3.7810926978917e-08,-4.38835064849501e-08,2.25392805757852e-07,-4.6550749375712e-08,1.7884205638179e-07,7.80387099921965e-08,-7.88675722249503e-08,-8.28862232910518e-10,-7.18581624907354e-07,1.69608615696863e-07,1.6960861569675e-07,-1.17032997670909e-08,,-1.59066331715949e-08,1.25669954329483e-07,-1.68763218988707e-07,-4.30932646589956e-08,-3.22074440312058e-07,3.22074929642007e-08,3.22074929645255e-08,2.53247185767714e-07,-2.53247185767621e-07,-5.54657127573768e-08,1,0,0,1.33119999999985,102,938.890196078431,545.830392156863,1534.52941176471,951.470588235294,926.309803921569,553.740196078431,537.920588235294,1851.89215686275,1217.16666666667,0
1866.752,1.41109798747593e-07,7.80071537178166e-08,2.19116952465546e-07,1.48752172603656e-07,1.66674556833267e-07,1.6667455683328e-07,-4.65795610136933e-08,-4.84968503486732e-08,-9.50764113620699e-08,1.39749693600091e-09,-5.36420335865205e-09,1.39749693603827e-09,1.63874782994104e-07,-3.8479499151765e-09,1.60026833078951e-07,1.37437117486321e-07,3.51038048046106e-08,1.72540922290898e-07,-1.40550184723676e-07,8.53748136475691e-08,-1.40550184723665e-07,-2.02754753777318e-07,-9.14233332255772e-08,-2.94178087003516e-07,-1.23650628813147e-07,-4.78116687698616e-08,-4.78116687699605e-08,4.23879388682611e-08,-4.23879388681853e-08,-4.99327419188222e-08,2.27126088190308e-07,-4.26959097245293e-08,1.84430178465422e-07,7.49426994473478e-08,-7.27595207838402e-08,2.18317866335742e-09,-7.34028036649992e-07,2.01584480286935e-07,2.01584480286792e-07,-6.85814709601366e-09,,-5.19864432301199e-09,1.41616128537222e-07,-1.5451980222831e-07,-1.29036736908517e-08,-2.9805731256665e-07,3.00431559023504e-08,3.00431559026778e-08,2.55069312827765e-07,-2.5506931282767e-07,-5.39951023409233e-08,1,0,0,1.43359999999984,102,941.421568627451,543.823039215686,1552.00980392157,951.756862745098,931.086274509804,547.567647058824,540.078431372549,1866.48039215686,1237.53921568627,0
1866.8544,1.13690653978516e-07,6.25492552592688e-08,1.76239909237941e-07,1.54242644365174e-07,1.52742140008043e-07,1.52742140008057e-07,-7.8326046250402e-08,-8.15491355230344e-08,-1.59875181773147e-07,-2.47965019656151e-08,-1.05312500461671e-08,-2.47965019655758e-08,1.81735917375469e-07,-7.93336402010064e-09,1.73802553355394e-07,1.18841960664031e-07,3.40308039280568e-08,1.52872764592045e-07,-1.29223247032351e-07,8.83332246309828e-08,-1.29223247032336e-07,-2.65466536373007e-07,-1.21013534659885e-07,-3.86480071033534e-07,-1.25844689506527e-07,-4.13961562583793e-08,-4.13961562584899e-08,4.80822134532708e-08,-4.80822134532121e-08,-5.53215013255773e-08,2.30238738445505e-07,-4.03658811619971e-08,1.89872857283145e-07,7.47608956313507e-08,-6.62731543702342e-08,8.48774126097313e-09,-7.39438104806219e-07,2.34603623785818e-07,2.34603623785651e-07,-5.65297691955871e-09,,2.40455349881748e-09,1.56485607420744e-07,-1.38526703374942e-07,1.79589040460434e-08,-2.74745732321533e-07,2.82102677298528e-08,2.82102677301836e-08,2.55546197665279e-07,-2.55546197665183e-07,-5.51523319562008e-08,0,0,0,1.53599999999983,103,945.723300970874,538.666990291262,1570.34951456311,956.388349514563,935.058252427184,542.840776699029,534.493203883495,1880.20388349515,1260.49514563107,0
1866.9568,8.37369972952429e-08,4.67015878614762e-08,1.30438585156893e-07,1.56970056696683e-07,1.37660182250003e-07,1.37660182250018e-07,-1.0599219026599e-07,-1.11935679563745e-07,-2.17927869829453e-07,-5.326413209864e-08,-1.53656979813851e-08,-5.32641320986002e-08,1.98801100152163e-07,-1.23894690382998e-08,1.86411631113891e-07,1.00148703740145e-07,3.29017895708382e-08,1.33050493310931e-07,-1.18235088112956e-07,9.13105403788238e-08,-1.18235088112937e-07,-3.31789559274963e-07,-1.52655022055261e-07,-4.84444581330881e-07,-1.26339336217947e-07,-3.53978450006848e-08,-3.53978450008062e-08,5.4767421875947e-08,-5.47674218759032e-08,-5.96614319465713e-08,2.34307024052984e-07,-3.98373399414789e-08,1.94469684111137e-07,7.75283126852034e-08,-5.96740450563909e-08,1.78542676286757e-08,-7.33766299882083e-07,2.67266974905108e-07,2.67266974904926e-07,-8.31126090121894e-09,,6.44077652082904e-09,1.69183715146682e-07,-1.21426579378637e-07,4.775713576829e-08,-2.53558373900314e-07,2.6652398132987e-08,2.66523981333224e-08,2.54814050116157e-07,-2.54814050116059e-07,-5.93105822792344e-08,0,0,0,1.63839999999982,102,945.354901960784,544.469117647059,1570.47058823529,954.513725490196,936.196078431373,545.296078431373,543.642156862745,1883.67647058824,1257.26470588235,0
1867.0592,5.26084421087949e-08,3.10563489618588e-08,8.366479107084e-08,1.56692542834738e-07,1.22019229356303e-07,1.22019229356319e-07,-1.27416647845075e-07,-1.37824893750701e-07,-2.65241541595503e-07,-8.30142593923976e-08,-1.96421598250035e-08,-8.30142593923588e-08,2.13833657285147e-07,-1.70185371911765e-08,1.96815120093997e-07,8.27325078234539e-08,3.19424043553212e-08,1.14674912178715e-07,-1.08669064318109e-07,9.41684335135084e-08,-1.08669064318087e-07,-3.97943297475761e-07,-1.84509788835933e-07,-5.82453086312357e-07,-1.24922783945916e-07,-3.01313892252066e-08,-3.01313892253373e-08,6.21779361120184e-08,-6.21779361119862e-08,-6.27446282302972e-08,2.38809108379885e-07,-4.11695906908036e-08,1.97639517688713e-07,8.29255163667073e-08,-5.32969498585843e-08,2.96285665079921e-08,-7.17221538328506e-07,2.98224519297989e-07,2.98224519297799e-07,-1.46969371760342e-08,,6.84636010332548e-09,1.78750565417324e-07,-1.03977402048928e-07,7.47731633686429e-08,-2.35751551209139e-07,2.53320492006787e-08,2.53320492010192e-08,2.53103956968376e-07,-2.53103956968277e-07,-6.65494624260384e-08,0,0,0,1.74079999999981,103,941.797572815534,552.456310679612,1560.60679611651,952.010679611651,931.584466019418,551.864077669903,553.04854368932,1877.64077669903,1243.57281553398,0
1867.1616,2.18473716561225e-08,1.62023931449585e-08,3.80497648012736e-08,1.53364226102815e-07,1.06541689438064e-07,1.06541689438078e-07,-1.40911156944127e-07,-1.57617355060601e-07,-2.98528512004463e-07,-1.13140083319514e-07,-2.32236514410508e-08,-1.13140083319477e-07,2.25624200514698e-07,-2.15991177275928e-08,2.04025082787129e-07,6.79331363968803e-08,3.14827470144236e-08,9.94158834112363e-08,-1.0160293454474e-07,9.67894614459897e-08,-1.01602934544716e-07,-4.59915072043914e-07,-2.14621356820761e-07,-6.74536428865336e-07,-1.21564616760883e-07,-2.58815334888246e-08,-2.58815334889628e-08,6.99516985943581e-08,-6.99516985943337e-08,-6.4560525571394e-08,2.43194018741914e-07,-4.41908722484975e-08,1.99003146493047e-07,9.0323236073757e-08,-4.74987005321703e-08,4.28245355414609e-08,-6.91121155188322e-07,3.26324414681708e-07,3.26324414681522e-07,-2.43573965319963e-08,,3.92755234780347e-09,1.84465302510116e-07,-8.69750261407486e-08,9.7490276369613e-08,-2.222334122554e-07,2.42306485511636e-08,2.42306485515096e-08,2.50722391568573e-07,-2.50722391568475e-07,-7.66266609174467e-08,0,0,0,1.8431999999998,102,943.34362745098,553.054411764706,1571.07843137255,956.866666666667,929.820588235294,553.051960784314,553.056862745098,1896.1568627451,1246,0
1867.264,-6.97338645144977e-09,2.65404244299306e-09,-4.31934400826375e-09,1.47198763152876e-07,9.19914176877838e-08,9.19914176877948e-08,-1.45544686386955e-07,-1.70178838786046e-07,-3.15723525172744e-07,-1.42784762831676e-07,-2.60382050149847e-08,-1.42784762831644e-07,2.33204971549849e-07,-2.59235667645683e-08,2.07281404785301e-07,5.69751885402726e-08,3.18775604772809e-08,8.88527490174799e-08,-9.78765893295388e-08,9.9086850248758e-08,-9.78765893295132e-08,-5.13751287329537e-07,-2.41086627172515e-07,-7.54837914502701e-07,-1.16412432721531e-07,-2.28636367133852e-08,-2.28636367135288e-08,7.77015401790979e-08,-7.77015401790772e-08,-6.52751146584751e-08,2.46948508958334e-07,-4.85369914463214e-08,1.98411517511647e-07,9.88770940734183e-08,-4.25941782567716e-08,5.62829158165247e-08,-6.57595155583924e-07,3.50759719554265e-07,3.50759719554091e-07,-3.65964955292414e-08,,-1.73266115447175e-09,1.85934802684785e-07,-7.11638069988155e-08,1.14770995686211e-07,-2.13434962316771e-07,2.3364955865131e-08,2.33649558654826e-08,2.48027894655198e-07,-2.48027894655102e-07,-8.90043910490331e-08,0,0,0,1.94559999999979,103,937.871359223301,549.479611650486,1589.93203883495,951.965048543689,923.777669902913,550.288349514563,548.670873786408,1915.42718446602,1264.43689320388,0
1867.3664,-3.23975465243589e-08,-9.21153887644239e-09,-4.16090854006135e-08,1.38687789788088e-07,7.90651262434156e-08,7.90651262434227e-08,-1.4130835408786e-07,-1.75026070462283e-07,-3.16334424549894e-07,-1.7107327232713e-07,-2.80375489551264e-08,-1.71073272327103e-07,2.36041152198151e-07,-2.98299021710874e-08,2.06211250027078e-07,5.08521458595116e-08,3.33823514969498e-08,8.42344973563834e-08,-9.78916142803732e-08,1.00998453752992e-07,-9.78916142803465e-08,-5.55910777341614e-07,-2.62238468582127e-07,-8.1814924592437e-07,-1.09766503619228e-07,-2.11916110168013e-08,-2.11916110169483e-08,8.50804215951517e-08,-8.50804215951306e-08,-6.51819610304276e-08,2.49641040301997e-07,-5.37239558758442e-08,1.95917084425791e-07,1.07655681658764e-07,-3.87942672570672e-08,6.88614144015774e-08,-6.19258934547121e-07,3.71145263330991e-07,3.71145263330838e-07,-5.05430012252715e-08,,-9.39608229779675e-09,1.8315781332065e-07,-5.71635476238934e-08,1.25994265696993e-07,-2.09278523992297e-07,2.28196643244554e-08,2.28196643248119e-08,2.45407263249485e-07,-2.45407263249392e-07,-1.0292120935421e-07,0,0,0,2.048,102,928.870588235294,551.439215686275,1608.48039215686,942.978431372549,914.762745098039,555.002941176471,547.875490196079,1924.21568627451,1292.74509803922,0
1867.4688,-5.31989886162403e-08,-1.9193124631132e-08,-7.23921132471941e-08,1.28555579521551e-07,6.82959395657244e-08,6.82959395657262e-08,-1.29057456209859e-07,-1.72386010074256e-07,-3.01443466283872e-07,-1.9706484685842e-07,-2.91627414044945e-08,-1.97064846858399e-07,2.34146241173184e-07,-3.32229980266825e-08,2.0092324314651e-07,5.02165064499122e-08,3.60355442884922e-08,8.62520507383232e-08,-1.01504717583928e-07,1.02469644767809e-07,-1.015047175839e-07,-5.83618473740769e-07,-2.7681748465856e-07,-8.60435958399935e-07,-1.02038448734622e-07,-2.0866562014316e-08,-2.08665620144641e-08,9.18146331966468e-08,-9.18146331966222e-08,-6.46387340658764e-08,2.50937368288726e-07,-5.92246099564157e-08,1.91712758331955e-07,1.1578350683837e-07,-3.61674749665335e-08,7.96160318717177e-08,-5.78922084487381e-07,3.87466758428053e-07,3.87466758427926e-07,-6.5220947724567e-08,,-1.8293659142164e-08,1.76535270548217e-07,-4.54292502569837e-08,1.31106020291462e-07,-2.09237751566878e-07,2.27694351495682e-08,2.27694351499295e-08,2.43248740171598e-07,-2.43248740171507e-07,-1.17492010180863e-07,0,0,0,2.15039999999999,102,924.263235294118,553.199509803922,1621.06862745098,940.087254901961,908.439215686274,557.736274509804,548.662745098039,1923.45098039216,1318.6862745098,0
1867.5712,-6.84614126506464e-08,-2.72695018318863e-08,-9.57309144823666e-08,1.17668425619533e-07,5.99971985797333e-08,5.99971985797298e-08,-1.10246291128276e-07,-1.6310521126867e-07,-2.7335150239671e-07,-2.19761951557847e-07,-2.93326329361056e-08,-2.19761951557832e-07,2.28091710295882e-07,-3.60820258497509e-08,1.92009684446133e-07,5.53127951397582e-08,3.9595163267924e-08,9.49079584075988e-08,-1.08044770955393e-07,1.03438801161587e-07,-1.08044770955365e-07,-5.95137529931767e-07,-2.84107922594517e-07,-8.79245452526862e-07,-9.36984133007567e-08,-2.17867837739858e-08,-2.17867837741336e-08,9.77042278788793e-08,-9.77042278788489e-08,-6.39993716834927e-08,2.50596837876554e-07,-6.45263937399083e-08,1.86070444136297e-07,1.22566304829485e-07,-3.46382873399074e-08,8.79280174894588e-08,-5.39339164813489e-07,3.99917015876283e-07,3.99917015876186e-07,-7.96421890017317e-08,,-2.77365852487463e-08,1.66806976543913e-07,-3.62416725078238e-08,1.3056530403631e-07,-2.12443325985067e-07,2.34596618465197e-08,2.34596618468856e-08,2.41902921435262e-07,-2.41902921435174e-07,-1.31813870108702e-07,0,0,0,2.25279999999998,103,927.387378640777,557.674757281553,1644.70873786408,942.009708737864,912.765048543689,566.352427184466,548.997087378641,1936.95145631068,1352.46601941748,0
1867.6736,-7.76383201508581e-08,-3.35709318617833e-08,-1.11209252012489e-07,1.06935488206782e-07,5.42548013494405e-08,5.42548013494316e-08,-8.65853297623966e-08,-1.48467711952397e-07,-2.35053041714562e-07,-2.3817110679899e-07,-2.84535966266962e-08,-2.38171106798981e-07,2.18917339265604e-07,-3.84524264726181e-08,1.80464912792981e-07,6.5953895980954e-08,4.35441714857391e-08,1.09498067466608e-07,-1.164404069966e-07,1.03831423884054e-07,-1.16440406996572e-07,-5.89886390328225e-07,-2.83995461706402e-07,-8.73881852035178e-07,-8.52186612286627e-08,-2.37691382222942e-08,-2.37691382224407e-08,1.02609283176265e-07,-1.02609283176228e-07,-6.3551906789023e-08,2.4846537109266e-07,-6.91690063828546e-08,1.79296364709463e-07,1.27565258450174e-07,-3.40199324248723e-08,9.35453260251814e-08,-5.02974351970347e-07,4.08703053396539e-07,4.0870305339647e-07,-9.29101386069752e-08,,-3.71912611036283e-08,1.54932295717544e-07,-2.97209624870707e-08,1.25211333230687e-07,-2.17789167140349e-07,2.51421011655824e-08,2.51421011659524e-08,2.41632563270163e-07,-2.41632563270079e-07,-1.45056470509836e-07,0,0,0,2.35519999999997,102,929.832843137255,565.738725490196,1706.18137254902,944.151960784314,915.513725490196,582.760784313726,548.716666666667,2019.05882352941,1393.30392156863,0
1867.776,-8.05950570645226e-08,-3.83306472285284e-08,-1.1892570429291e-07,9.72297894627307e-08,5.09535970760861e-08,5.09535970760723e-08,-5.97606627316505e-08,-1.30001791551512e-07,-1.89762454282935e-07,-2.51390174044224e-07,-2.64391289859125e-08,-2.51390174044219e-07,2.07972602133457e-07,-4.0424570790491e-08,1.67548031342956e-07,8.15263724541549e-08,4.71522009730482e-08,1.28678573427117e-07,-1.25414194233517e-07,1.03559686780453e-07,-1.25414194233488e-07,-5.68359603561401e-07,-2.76908160688033e-07,-8.45267764249963e-07,-7.70224302103343e-08,-2.65721829633933e-08,-2.65721829635379e-08,1.06442155325324e-07,-1.06442155325281e-07,-6.34745028176109e-08,2.44476608474565e-07,-7.27745314210926e-08,1.71702077053136e-07,1.30606398210287e-07,-3.40651517155762e-08,9.65412464945886e-08,-4.71774080498365e-07,4.13920132664618e-07,4.13920132664574e-07,-1.04295372937228e-07,,-4.62942184226065e-08,1.41956071006656e-07,-2.58557310372045e-08,1.16100339969661e-07,-2.24025276785008e-07,2.79945202451481e-08,2.79945202455218e-08,2.42568334889167e-07,-2.42568334889087e-07,-1.56524839153825e-07,0,1,0,2.45759999999996,102,929.00637254902,579.432843137255,1755.55392156863,941.375490196078,916.637254901961,585.298039215686,573.567647058824,2056.37254901961,1454.73529411765,0
1867.8784,-7.76177267057372e-08,-4.18322556292276e-08,-1.19449982334833e-07,8.93326838914649e-08,4.98162363302661e-08,4.98162363302484e-08,-3.12783765867896e-08,-1.09315996121305e-07,-1.40594372707869e-07,-2.58702217713617e-07,-2.32302418174813e-08,-2.58702217713616e-07,1.96724891134335e-07,-4.21042597726233e-08,1.54620631361698e-07,1.01023246813063e-07,4.95735767314404e-08,1.50596823544416e-07,-1.33690691554387e-07,1.02524779685552e-07,-1.33690691554357e-07,-5.31901457015732e-07,-2.63658271115362e-07,-7.95559728131605e-07,-6.94433279842286e-08,-2.99171937014607e-08,-2.99171937016034e-08,1.09172159752134e-07,-1.09172159752086e-07,-6.38180574407103e-08,2.38659187501635e-07,-7.50750834215975e-08,1.63584104079705e-07,1.31733939124259e-07,-3.45137514719638e-08,9.72201876521699e-08,-4.46999206875329e-07,4.15540588266535e-07,4.15540588266508e-07,-1.13255759014856e-07,,-5.48072709825158e-08,1.28891225625421e-07,-2.45360363323867e-08,1.0435518929324e-07,-2.29850179729735e-07,3.20662977042203e-08,3.20662977045971e-08,2.44684402427261e-07,-2.44684402427184e-07,-1.65693333845204e-07,0,1,0,2.55999999999995,103,931.647572815534,579.738834951456,1791.57281553398,939.828155339806,923.466990291262,578.346601941748,581.131067961165,2078.73786407767,1504.40776699029,0
1867.9808,-6.93759677831101e-08,-4.43657347959199e-08,-1.13741702578903e-07,8.38825271951558e-08,5.04446088754593e-08,5.044460887544e-08,-2.41780555162559e-09,-8.79634544612496e-08,-9.03812600126516e-08,-2.59665579767163e-07,-1.88135036219006e-08,-2.59665579767163e-07,1.86568090922773e-07,-4.35823061305522e-08,1.42985784792205e-07,1.23118980518747e-07,4.99628961701454e-08,1.73081876688803e-07,-1.4017485907996e-07,1.00624407040055e-07,-1.40174859079928e-07,-4.82463679475209e-07,-2.45259478008839e-07,-7.27723157484546e-07,-6.26971069454009e-08,-3.35089091781938e-08,-3.3508909178335e-08,1.10830828999856e-07,-1.10830828999806e-07,-6.45136694896517e-08,2.311364542858e-07,-7.5929844940621e-08,1.55206609344847e-07,1.3113151565921e-07,-3.51250806969005e-08,9.60064349621809e-08,-4.2917332392987e-07,4.13495132004789e-07,4.1349513200477e-07,-1.1941544213904e-07,,-6.25519083573269e-08,1.16628289774083e-07,-2.55791957907744e-08,9.10490939835164e-08,-2.34017982572642e-07,3.72757698312165e-08,3.72757698315961e-08,2.47796201978591e-07,-2.47796201978518e-07,-1.72214871579642e-07,0,1,0,2.66239999999993,102,933.641666666667,580.837745098039,1794.33333333333,936.197058823529,931.086274509804,575.351960784314,586.323529411765,2068.50980392157,1520.1568627451,0
1868.0832,-5.68450610197834e-08,-4.61969883312809e-08,-1.03042049350937e-07,8.13138591230469e-08,5.2367035396233e-08,5.23670353962134e-08,2.57481192372776e-08,-6.73292730853655e-08,-4.1581153847865e-08,-2.54191265040775e-07,-1.32359732821262e-08,-2.54191265040774e-07,1.78660804219666e-07,-4.49121467295006e-08,1.3374865749015e-07,1.46295921299778e-07,4.75933722200217e-08,1.93889293519707e-07,-1.4407390187861e-07,9.77690463970297e-08,-1.44073901878575e-07,-4.22448889232213e-07,-2.22790939323947e-07,-6.45239828556654e-07,-5.68696049643528e-08,-3.70593106536733e-08,-3.70593106538138e-08,1.11502171596425e-07,-1.11502171596376e-07,-6.53945390230045e-08,2.22109432581246e-07,-7.53247348775834e-08,1.46784697703331e-07,1.29040689779382e-07,-3.56986722321959e-08,9.33420175470542e-08,-4.18141758542871e-07,4.07783795685067e-07,4.07783795685044e-07,-1.22547572210917e-07,,-6.93780246109603e-08,1.0586926856752e-07,-2.87447237196074e-08,7.7124544848125e-08,-2.35455071361446e-07,4.34512180619499e-08,4.34512180623317e-08,2.51580611544334e-07,-2.51580611544264e-07,-1.75910316342686e-07,0,0,0,2.76479999999992,103,930.08786407767,589.877669902913,1762.91747572816,930.264077669903,929.911650485437,581.23786407767,598.517475728155,2042.00970873786,1483.82524271845,0
1868.1856,-4.12095383307983e-08,-4.75497649599568e-08,-8.87593032906214e-08,8.180041731677e-08,5.50926579375088e-08,5.50926579374911e-08,5.22996499463054e-08,-4.85500267243365e-08,3.74962322219172e-09,-2.42597486278068e-07,-6.61672084544045e-09,-2.42597486278066e-07,1.73813016167277e-07,-4.61013105651807e-08,1.27711705602084e-07,1.69005037057784e-07,4.19643234587259e-08,2.10969360516413e-07,-1.44954129579481e-07,9.39060234973734e-08,-1.44954129579441e-07,-3.54638094442067e-07,-1.97333080444876e-07,-5.51971174887444e-07,-5.19271338919151e-08,-4.03130410375323e-08,-4.03130410376728e-08,1.1129918264026e-07,-1.11299182640215e-07,-6.62208831512124e-08,2.11831008521153e-07,-7.33591385326168e-08,1.384718699882e-07,1.25697595601599e-07,-3.60904628492562e-08,8.9607132752207e-08,-4.131985071006e-07,3.9855996030281e-07,3.98559960302771e-07,-1.22591911148691e-07,,-7.51904638592776e-08,9.70805150207073e-08,-3.37406311394044e-08,6.33398838815248e-08,-2.33360783171509e-07,5.03814436360763e-08,5.03814436364599e-08,2.55615938960974e-07,-2.55615938960907e-07,-1.76744540070423e-07,0,0,0,2.86719999999991,102,932.805392156863,594.955392156863,1724.54901960784,932.898039215686,932.712745098039,588.932352941176,600.978431372549,2017.52941176471,1431.56862745098,0
1868.288,-2.37697940456716e-08,-4.85980624223111e-08,-7.23678564678371e-08,8.52284420849635e-08,5.81641627165219e-08,5.81641627165074e-08,7.64122231404946e-08,-3.24738681501596e-08,4.39383549905589e-08,-2.25631731200493e-07,8.45218476688616e-10,-2.25631731200487e-07,1.72424943767911e-07,-4.71154920620869e-08,1.25309451705816e-07,1.8982538609001e-07,3.28824802597669e-08,2.22707866349674e-07,-1.42741160575267e-07,8.90437060036479e-08,-1.42741160575223e-07,-2.8213387639289e-07,-1.69956220153349e-07,-4.52090096546752e-07,-4.77481423913655e-08,-4.30690762397819e-08,-4.30690762399236e-08,1.10343527263882e-07,-1.10343527263844e-07,-6.67051896442135e-08,2.00585488661966e-07,-7.02276021601627e-08,1.3035788650146e-07,1.21294153441136e-07,-3.62251018805436e-08,8.5069051560453e-08,-4.13256069489464e-07,3.8616011472708e-07,3.86160114727014e-07,-1.19693468713896e-07,,-8.00033993773445e-08,9.04650949856105e-08,-4.02261801444926e-08,5.0238914841353e-08,-2.27264986548457e-07,5.78441681942325e-08,5.78441681946173e-08,2.59431094120779e-07,-2.59431094120715e-07,-1.74796539587964e-07,0,0,0,2.9695999999999,102,938.44362745098,598.574019607843,1711.86274509804,937.277450980392,939.609803921569,579.309803921569,617.838235294118,2012.78431372549,1410.94117647059,0
1868.3904,-5.85654600337705e-09,-4.94677006463615e-08,-5.53242466495765e-08,9.12137713233545e-08,6.11968192389012e-08,6.11968192388912e-08,9.73142938308827e-08,-1.96566117233204e-08,7.76576821077878e-08,-2.04448248118358e-07,8.8697650134542e-09,-2.04448248118346e-07,1.74471934349315e-07,-4.78903601487991e-08,1.26581574200515e-07,2.07591802271293e-07,2.05022382534465e-08,2.2809404052463e-07,-1.37680126336193e-07,8.32657360431108e-08,-1.37680126336143e-07,-2.08255843344437e-07,-1.41724429271567e-07,-3.49980272616537e-07,-4.41621673514531e-08,-4.51952923010858e-08,-4.51952923012295e-08,1.08760172268582e-07,-1.08760172268555e-07,-6.65447282127436e-08,1.88675320729952e-07,-6.6197438387904e-08,1.22477882341696e-07,1.15962716596558e-07,-3.61009609298517e-08,7.98617556665641e-08,-4.17051058966252e-07,3.71081415745972e-07,3.71081415745869e-07,-1.1421957094165e-07,,-8.39695221862685e-08,8.59641961391487e-08,-4.78179839814059e-08,3.81462121579944e-08,-2.17032146623818e-07,6.56074958081446e-08,6.56074958085301e-08,2.62555111868712e-07,-2.62555111868651e-07,-1.70230086078971e-07,0,0,0,3.07199999999989,103,948.426213592233,596.124757281553,1696.12621359223,945.002912621359,951.849514563107,571.300970873786,620.94854368932,1997.8932038835,1394.35922330097,0
1868.4928,1.12537008129555e-08,-5.0244557817902e-08,-3.89908570047646e-08,9.91562053129955e-08,6.38989782935141e-08,6.38989782935096e-08,1.14264952446782e-07,-1.03828020134456e-08,1.03882150433564e-07,-1.80526419177074e-07,1.71085902056216e-08,-1.80526419177057e-07,1.79528935062561e-07,-4.83474318966228e-08,1.31181503165944e-07,2.21476918321403e-07,5.31536941551561e-09,2.26792287736802e-07,-1.30271638622316e-07,7.6730308369889e-08,-1.30271638622259e-07,-1.36360975018782e-07,-1.13682619833513e-07,-2.50043594852853e-07,-4.09795854742522e-08,-4.66354089220268e-08,-4.66354089221731e-08,1.06682835930569e-07,-1.06682835930554e-07,-6.54677228042517e-08,1.76407027045505e-07,-6.15782868389451e-08,1.14828740206197e-07,1.09780156411194e-07,-3.5786146854915e-08,7.39940095561349e-08,-4.23372855336095e-07,3.53931763277396e-07,3.5393176327725e-07,-1.06724896390225e-07,,-8.73549944229384e-08,8.32978314977389e-08,-5.61052050455483e-08,2.71926264524607e-08,-2.02818767658679e-07,7.34243018251947e-08,7.34243018255802e-08,2.64568455568367e-07,-2.64568455568307e-07,-1.63268923688242e-07,0,0,0,3.17439999999988,102,946.907352941176,591.869117647059,1657.0637254902,945.76862745098,948.046078431373,564.758823529412,618.979411764706,1951.40196078431,1362.72549019608,0
1868.5952,2.6421084595787e-08,-5.0986549033607e-08,-2.45654644376166e-08,1.08313711838592e-07,6.60779972562435e-08,6.60779972562451e-08,1.26547575823374e-07,-4.70327363456908e-09,1.21844302189036e-07,-1.55529048025208e-07,2.51746496059545e-08,-1.55529048025183e-07,1.86833317531857e-07,-4.84117402059912e-08,1.3842157732588e-07,2.31028810167583e-07,-1.19087088370848e-08,2.19120101330375e-07,-1.21194174708204e-07,6.96574933310683e-08,-1.21194174708142e-07,-6.95942129400573e-08,-8.68131750748586e-08,-1.56407388015502e-07,-3.80070530672274e-08,-4.74074899619306e-08,-4.74074899620801e-08,1.04259630510159e-07,-1.04259630510158e-07,-6.32886837018766e-08,1.64074451274738e-07,-5.66846049729187e-08,1.07389846301445e-07,1.02784505118513e-07,-3.54044270154319e-08,6.73800781029347e-08,-4.312819937718e-07,3.35382969539708e-07,3.35382969539515e-07,-9.78704332628545e-08,,-9.04734206413041e-08,8.20417942158781e-08,-6.46733569144436e-08,1.73684373017236e-08,-1.84999207037525e-07,8.10366407596478e-08,8.10366407600325e-08,2.65159103102124e-07,-2.65159103102066e-07,-1.541773483888e-07,0,0,0,3.27679999999987,103,948.965048543689,591.977669902913,1636.57766990291,947.833009708738,950.097087378641,568.564077669903,615.391262135922,1936.59223300971,1336.56310679612,0
1868.6976,3.87089502745796e-08,-5.17373373001249e-08,-1.30283870253203e-08,1.17879680091422e-07,6.76387741081742e-08,6.76387741081821e-08,1.33486415140592e-07,-2.4833214360518e-09,1.31003093704776e-07,-1.31127370729282e-07,3.26815035324906e-08,-1.3112737072925e-07,1.95386221570081e-07,-4.80289653487928e-08,1.47357256221311e-07,2.36173313750227e-07,-3.02181416647114e-08,2.05955172085385e-07,-1.11218460639396e-07,6.23108840815904e-08,-1.11218460639328e-07,-1.06090002326723e-08,-6.19719848928169e-08,-7.25809851261033e-08,-3.50568877646644e-08,-4.75930251363518e-08,-4.75930251365046e-08,1.01653259086236e-07,-1.01653259086248e-07,-5.99560775118177e-08,1.51945773648381e-07,-5.18005443337006e-08,1.00145229314294e-07,9.49983949041105e-08,-3.51109189556415e-08,5.98874759483215e-08,-4.40260565162281e-07,3.16138199538747e-07,3.16138199538504e-07,-8.833293133576e-08,,-9.36188968771918e-08,8.17207221529733e-08,-7.31290700556049e-08,8.59165209767591e-09,-1.64083359124713e-07,8.81866412633924e-08,8.8186641263775e-08,2.64177933632484e-07,-2.64177933632427e-07,-1.4324570178952e-07,0,0,0,3.37919999999986,102,950.331862745098,590.908823529412,1631.19117647059,949.263725490196,951.4,569.436274509804,612.38137254902,1937,1325.38235294118,0
1868.8,4.74239239871865e-08,-5.25397070018521e-08,-5.11578301442073e-09,1.27055221578518e-07,6.85784064426606e-08,6.8578406442674e-08,1.34498188149704e-07,-3.45578888105121e-09,1.31042399268893e-07,-1.08834423387069e-07,3.92813241645526e-08,-1.0883442338703e-07,2.04083307607252e-07,-4.71795768290185e-08,1.56903730778265e-07,2.37189021055863e-07,-4.85877778322356e-08,1.88601243223491e-07,-1.01118988805088e-07,5.49766824050586e-08,-1.01118988805015e-07,3.86759710142654e-08,-3.98312526691755e-08,-1.15528165555163e-09,-3.19603905122105e-08,-4.73177480345122e-08,-4.73177480346682e-08,9.90364733996122e-08,-9.90364733996365e-08,-5.55728361007781e-08,1.40260101575455e-07,-4.71581885640627e-08,9.3101913010996e-08,8.64566641798869e-08,-3.50615759955219e-08,5.13950881842165e-08,-4.50241491369857e-07,2.96898443946928e-07,2.96898443946637e-07,-7.8742557618155e-08,,-9.70321511205514e-08,8.18921631501338e-08,-8.11186914443632e-08,7.73471706094623e-10,-1.40656398899845e-07,9.46225785780784e-08,9.46225785784583e-08,2.6167879055569e-07,-2.61678790555633e-07,-1.30780247204978e-07,0,0,0,3.48159999999984,102,951.426960784314,589.526470588235,1633.18137254902,950.910784313725,951.943137254902,570.838235294118,608.214705882353,1945.61764705882,1320.74509803922,0
1868.9024,5.21316389136178e-08,-5.34449099311599e-08,-1.31327101728001e-09,1.35117546343967e-07,6.89736223377897e-08,6.89736223378075e-08,1.29173154469573e-07,-7.27219487095614e-09,1.2190095959886e-07,-8.98773933695716e-08,4.46947587118549e-08,-8.9877393369526e-08,2.11852772152239e-07,-4.58876344441537e-08,1.65965137708125e-07,2.34657185623685e-07,-6.60232566396378e-08,1.68633928983906e-07,-9.15914179138517e-08,4.79399762989179e-08,-9.15914179137743e-08,7.7226557557301e-08,-2.08533662689132e-08,5.63731912877217e-08,-2.85852065614975e-08,-4.67277986835748e-08,-4.67277986837335e-08,9.65861455784887e-08,-9.65861455785231e-08,-5.03809475251332e-08,1.29233649682204e-07,-4.29324752360391e-08,8.63011744457587e-08,7.72330553096293e-08,-3.53836473424436e-08,4.18494079670365e-08,-4.6151465760976e-07,2.78310340288243e-07,2.78310340287911e-07,-6.96577499404807e-08,,-1.00901227640802e-07,8.22055220550844e-08,-8.83403661365802e-08,-6.13484408115777e-09,-1.15354589971651e-07,1.0010082982707e-07,1.00100829827446e-07,2.57924588928949e-07,-2.57924588928893e-07,-1.17095948805735e-07,0,0,0,3.58399999999983,103,952.020388349515,603.122330097087,1643.57281553398,953.226213592233,950.814563106796,579.953398058253,626.291262135922,1942.10679611651,1345.03883495146,0
1869.0048,5.26571571638316e-08,-5.45134047680177e-08,-1.85624760391085e-09,1.41485540829871e-07,6.89558627882979e-08,6.89558627883193e-08,1.17359087579971e-07,-1.35432323191535e-08,1.03815855261065e-07,-7.5118548457102e-08,4.87318010647539e-08,-7.51185484570512e-08,2.1777391441015e-07,-4.42218780291365e-08,1.73552036381059e-07,2.29385754173738e-07,-8.16494176968554e-08,1.47736336476739e-07,-8.31851029325664e-08,4.14594600076201e-08,-8.31851029324858e-08,1.04928056945006e-07,-5.30139070562041e-09,9.96266662386985e-08,-2.48482078111683e-08,-4.59660465783085e-08,-4.59660465784693e-08,9.44776370897805e-08,-9.44776370898223e-08,-4.47175661027307e-08,1.19068154255358e-07,-3.92461682930041e-08,7.98219859619405e-08,6.74574541584083e-08,-3.61534901199888e-08,3.13039640382697e-08,-4.74564873650793e-07,2.60899720470793e-07,2.60899720470426e-07,-6.155578105196e-08,,-1.05368944550929e-07,8.24315297385901e-08,-9.45520397350705e-08,-1.2120509996132e-08,-8.88623478674241e-08,1.04395696416799e-07,1.0439569641717e-07,2.53348613567908e-07,-2.53348613567851e-07,-1.02511256694091e-07,0,1,0,3.68639999999982,102,951.817647058824,596.301470588235,1644.46078431373,953.854901960784,949.780392156863,573.258823529412,619.344117647059,1937.73529411765,1351.1862745098,0
1869.1072,4.90799181242946e-08,-5.58056349594164e-08,-6.72571683483777e-09,1.45772457357598e-07,6.86775185843071e-08,6.86775185843307e-08,9.92203472625747e-08,-2.18605708369661e-08,7.73597764258607e-08,-6.50195073391771e-08,5.13057554549678e-08,-6.50195073391222e-08,2.21156934505838e-07,-4.22879686085489e-08,1.78868965897341e-07,2.22314012184923e-07,-9.47781231339432e-08,1.27535889050835e-07,-7.62568431603086e-08,3.57454301305219e-08,-7.62568431602259e-08,1.22519119512961e-07,6.72864584428615e-09,1.29247765356543e-07,-2.07152489923006e-08,-4.51536763203308e-08,-4.51536763204927e-08,9.28754964467873e-08,-9.28754964468334e-08,-3.8960002584263e-08,1.09949725586537e-07,-3.61748099995311e-08,7.37749155865862e-08,5.7320532904442e-08,-3.73854803028544e-08,1.99350526014374e-08,-4.89911133088142e-07,2.45016674541313e-07,2.4501667454092e-07,-5.48127253965039e-08,,-1.10519882032633e-07,8.24656226918881e-08,-9.95762613136256e-08,-1.71106386213827e-08,-6.19088674173972e-08,1.07324366366403e-07,1.07324366366768e-07,2.48480505496782e-07,-2.48480505496724e-07,-8.73470892101276e-08,0,1,0,3.78879999999981,103,949.884466019417,592.967475728155,1642.86893203884,953.558252427185,946.21067961165,578.542718446602,607.392233009709,1931.70873786408,1354.02912621359,0
1869.2096,4.17297877877067e-08,-5.73673070213217e-08,-1.56375192333269e-08,1.47805161793802e-07,6.82830685093341e-08,6.82830685093586e-08,7.52586889855193e-08,-3.1797488759992e-08,4.34612002257832e-08,-5.96384110432959e-08,5.24419491147969e-08,-5.96384110432379e-08,2.21580715765313e-07,-4.02144949937895e-08,1.81366220771578e-07,2.144165725999e-07,-1.04951702283034e-07,1.09464870316722e-07,-7.09499448099599e-08,3.09462806060228e-08,-7.09499448098763e-08,1.31456824926869e-07,1.52809486216636e-08,1.46737773547817e-07,-1.61858738582114e-08,-4.43814215967803e-08,-4.43814215969427e-08,9.19134351783485e-08,-9.19134351783959e-08,-3.34744200217365e-08,1.02032605884025e-07,-3.37472316704591e-08,6.8285374213143e-08,4.70722329282218e-08,-3.9033409282407e-08,8.03882364566398e-09,-5.07987202005816e-07,2.30819096949643e-07,2.30819096949233e-07,-4.96688398335056e-08,,-1.16348240953338e-07,8.23123688502827e-08,-1.03304374161339e-07,-2.09920053106987e-08,-3.52536875309071e-08,1.08779243223321e-07,1.0877924322368e-07,2.43863292417486e-07,-2.43863292417427e-07,-7.19319326567853e-08,0,1,0,3.8911999999998,102,951.780882352941,595.304411764706,1642.80882352941,957.961764705882,945.6,577.708823529412,612.9,1938.64705882353,1346.97058823529,0
1869.312,3.11802625561266e-08,-5.92149620671916e-08,-2.80346995107775e-08,1.47598846955739e-07,6.78957991947471e-08,6.78957991947715e-08,4.62957460361933e-08,-4.28951211465869e-08,3.40062488986606e-09,-5.8652822679393e-08,5.22801950486995e-08,-5.86528226793331e-08,2.18901401970484e-07,-3.81388410668357e-08,1.80762560903705e-07,2.06622415033862e-07,-1.11959824631955e-07,9.4662590401765e-08,-6.7200452717424e-08,2.71452269856151e-08,-6.72004527173407e-08,1.33735610694142e-07,2.05355224842321e-08,1.54271133177653e-07,-1.12718436484852e-08,-4.37122147520006e-08,-4.37122147521625e-08,9.16646633059392e-08,-9.16646633059848e-08,-2.85723573047794e-08,9.54164079233134e-08,-3.19458757116833e-08,6.3470532211206e-08,3.70207865336728e-08,-4.10040498320553e-08,-3.9832632985339e-09,-5.29063221237046e-07,2.18297405915509e-07,2.1829740591509e-07,-4.62018135849278e-08,,-1.22735947058387e-07,8.20566679402478e-08,-1.05704828135192e-07,-2.36481601945886e-08,-9.65059272439156e-09,1.08749920756425e-07,1.08749920756779e-07,2.39984745210052e-07,-2.39984745209991e-07,-5.66083763409354e-08,0,0,0,3.99359999999979,102,953.40637254902,591.412254901961,1637.24509803922,962.939215686275,943.873529411765,577.487254901961,605.337254901961,1940.59803921569,1333.89215686275,0
1869.4144,1.8224518613343e-08,-6.13233147569856e-08,-4.30987961433601e-08,1.45302567137039e-07,6.76160801773173e-08,6.76160801773411e-08,1.34232446709913e-08,-5.46486510109549e-08,-4.12254063397004e-08,-6.14096416069042e-08,5.10663194167313e-08,-6.14096416068436e-08,2.13247044273952e-07,-3.61975850060921e-08,1.77049459267918e-07,1.99745408567493e-07,-1.15831203041784e-07,8.39142055255724e-08,-6.47680953495877e-08,2.43648905552596e-08,-6.47680953495057e-08,1.31664897279231e-07,2.28143119374374e-08,1.54479209215946e-07,-5.98426179670524e-09,-4.31927658555779e-08,-4.31927658557385e-08,9.21188635831705e-08,-9.21188635832116e-08,-2.44732698630384e-08,9.01343231633159e-08,-3.07156172208052e-08,5.94187059420877e-08,2.75296526908307e-08,-4.31805163545465e-08,-1.56508636638683e-08,-5.53193119283766e-07,2.07312008109619e-07,2.07312008109201e-07,-4.43347154578791e-08,,-1.29470802822723e-07,8.18231646698547e-08,-1.06835422989095e-07,-2.50122583188889e-08,1.42229482869835e-08,1.07322050408714e-07,1.07322050409061e-07,2.37230365983668e-07,-2.37230365983606e-07,-4.17296681816737e-08,0,0,0,4.09599999999978,103,955.553883495146,597.415533980583,1625.95145631068,965.770873786408,945.336893203883,582.820388349515,612.010679611651,1932.10679611651,1319.79611650485,0
1869.5168,3.8227905031982e-09,-6.36137866465185e-08,-5.97909961430462e-08,1.41146001352451e-07,6.751930185846e-08,6.75193018584821e-08,-2.20707439538165e-08,-6.65081410721046e-08,-8.85788850256548e-08,-6.70088712903762e-08,4.9126130575111e-08,-6.70088712903158e-08,2.04999513649304e-07,-3.45203016787034e-08,1.70479211970659e-07,1.94414274308004e-07,-1.16803983683795e-07,7.7610290624077e-08,-6.32862169896341e-08,2.25753621704042e-08,-6.32862169895543e-08,1.27616222713572e-07,2.2573174311731e-08,1.50189397024586e-07,-3.36604782250664e-10,-4.28677065407272e-08,-4.28677065408857e-08,9.31858007867875e-08,-9.31858007868218e-08,-2.12767466852425e-08,8.61634033097818e-08,-2.99854645932525e-08,5.61779387161084e-08,1.9003238153638e-08,-4.54501151836417e-08,-2.64468770301574e-08,-5.80191555350212e-07,1.97610512974254e-07,1.97610512973844e-07,-4.38844807262157e-08,,-1.36309149522769e-07,8.1727289469563e-08,-1.06852215849383e-07,-2.51249263794759e-08,3.58635772416482e-08,1.04657434551836e-07,1.04657434552178e-07,2.35854140852477e-07,-2.35854140852413e-07,-2.76353916839364e-08,0,0,0,4.19839999999999,102,957.560294117647,590.932843137255,1613.11764705882,969.044117647059,946.076470588235,581.911764705882,599.953921568628,1925.12745098039,1301.10784313726,0
1869.6192,-1.09781216179068e-08,-6.5947821405305e-08,-7.6925943022949e-08,1.3540724317547e-07,6.76480923110862e-08,6.7648092311106e-08,-5.87915247930926e-08,-7.79026100164851e-08,-1.36694134809309e-07,-7.44215286662361e-08,4.68198270138473e-08,-7.44215286661768e-08,1.94749964486034e-07,-3.32214955240856e-08,1.61528468962005e-07,1.9100513222942e-07,-1.15279565435344e-07,7.57255667939509e-08,-6.23228030177047e-08,2.17023970989203e-08,-6.23228030176278e-08,1.23771630493964e-07,2.03686435433072e-08,1.44140274036562e-07,5.64311297637521e-09,-4.27886933101725e-08,-4.27886933103284e-08,9.47290231489453e-08,-9.47290231489711e-08,-1.89552720326761e-08,8.34500437089674e-08,-2.96958695111987e-08,5.37541741973513e-08,1.18538237125037e-08,-4.77286671056561e-08,-3.58748433933076e-08,-6.09660104483324e-07,1.88820584203546e-07,1.8882058420315e-07,-4.46269777655273e-08,,-1.43052521942603e-07,8.18302548926789e-08,-1.06005801051909e-07,-2.41755461588961e-08,5.5030538398015e-08,1.00973368143256e-07,1.00973368143593e-07,2.35959752579081e-07,-2.35959752579015e-07,-1.46064806606192e-08,0,0,0,4.30079999999998,103,956.810194174757,584.245145631068,1585.47087378641,969.244660194175,944.37572815534,578.966019417476,589.52427184466,1891.67961165049,1279.26213592233,0
1869.7216,-2.51435521194414e-08,-6.81328879784254e-08,-9.32764400976171e-08,1.28398219624618e-07,6.80026825221695e-08,6.80026825221871e-08,-9.53384027886975e-08,-8.82863503905528e-08,-1.83624753178979e-07,-8.26241594228438e-08,4.44861057592095e-08,-8.2624159422786e-08,1.83216102376269e-07,-3.23873361611885e-08,1.50828766215134e-07,1.89602535621429e-07,-1.11764562851348e-07,7.78379727699613e-08,-6.14421238200117e-08,2.16359254785373e-08,-6.14421238199381e-08,1.21913779527283e-07,1.68058516658073e-08,1.38719631192392e-07,1.19053720695529e-08,-4.30135321277651e-08,-4.3013532127918e-08,9.66129725333239e-08,-9.66129725333401e-08,-1.73747423327775e-08,8.19336288622333e-08,-2.98181712601884e-08,5.21154576016323e-08,6.44963106580926e-09,-4.99720252138928e-08,-4.35223941482406e-08,-6.4105738325883e-07,1.80447359266336e-07,1.80447359265959e-07,-4.63391983447212e-08,,-1.4958635716247e-07,8.21138348080654e-08,-1.04617413551567e-07,-2.25035787431779e-08,7.17754435699888e-08,9.65339414800889e-08,9.65339414804215e-08,2.37487713386645e-07,-2.37487713386578e-07,-2.81718351178663e-09,0,0,0,4.40319999999997,102,952.300016339869,581.928810457516,1574.97225490196,963.17160130719,941.428431372549,575.649189542484,588.208431372549,1895.03862745098,1254.90588235294,0.107843137254902
1869.824,-3.77544966915703e-08,-6.99464487418794e-08,-1.07700945433214e-07,1.20447339137022e-07,6.85366856670247e-08,6.85366856670398e-08,-1.30411573790863e-07,-9.71957276892244e-08,-2.27607301479814e-07,-9.07181347997855e-08,4.23940589152214e-08,-9.07181347997295e-08,1.71130507357466e-07,-3.20603547164482e-08,1.39070152641069e-07,1.90020950515577e-07,-1.06805366733316e-07,8.32155837821484e-08,-6.02558901107863e-08,2.224167357828e-08,-6.02558901107162e-08,1.23290870021145e-07,1.24798682692337e-08,1.35770738289694e-07,1.83864677038523e-08,-4.35963937940631e-08,-4.35963937942127e-08,9.87403148576601e-08,-9.87403148576661e-08,-1.63364875986296e-08,8.15589515970806e-08,-3.0358889001588e-08,5.12000625950855e-08,3.05686217459454e-09,-5.21688648570466e-08,-4.91120026826111e-08,-6.73763951231464e-07,1.71909623067725e-07,1.71909623067369e-07,-4.87988679890057e-08,,-1.55853006740268e-07,8.24829408024866e-08,-1.03034059488683e-07,-2.0551118685885e-08,8.63813465170304e-08,9.16467879239741e-08,9.16467879243037e-08,2.40215134744849e-07,-2.4021513474478e-07,7.68994381838332e-09,0,0,0,4.50559999999996,102,947.555130718954,563.655503267974,1553.81941176471,961.160261437909,933.95,550.242967320261,577.068039215686,1867.67215686275,1239.96666666667,0.372549019607843
1869.9264,-4.81011766764854e-08,-7.11740065954025e-08,-1.19275183271667e-07,1.11862968266585e-07,6.91646225304339e-08,6.91646225304466e-08,-1.62913526183886e-07,-1.04300918636806e-07,-2.67214444820417e-07,-9.80050068038818e-08,4.07184933677878e-08,-9.80050068038277e-08,1.59133020512966e-07,-3.2230460651984e-08,1.2690255986103e-07,1.91894704284437e-07,-1.00922675871348e-07,9.0972028412982e-08,-5.84551598560335e-08,2.33768855135238e-08,-5.8455159855967e-08,1.285711713005e-07,7.91840999681318e-09,1.36489581296643e-07,2.50247173804987e-08,-4.45754845921755e-08,-4.45754845923219e-08,1.01063982397284e-07,-1.0106398239728e-07,-1.56234578162877e-08,8.22802265146769e-08,-3.1349650136232e-08,5.0930576378044e-08,1.7985575772366e-09,-5.43187330530423e-08,-5.25201754759667e-08,-7.07087424500587e-07,1.62621711868261e-07,1.62621711867931e-07,-5.17620591797133e-08,,-1.61786546179901e-07,8.27916333495896e-08,-1.01573748191891e-07,-1.87821148420015e-08,9.92288419848228e-08,8.6646738890312e-08,8.66467388906393e-08,2.43781828431429e-07,-2.43781828431361e-07,1.69906971088034e-08,0,0,0,4.60799999999995,103,948.014563106796,566.969902912621,1532.1213592233,963.188349514563,932.840776699029,560.420388349515,573.519417475728,1807.66990291262,1256.57281553398,0
1870.0288,-5.575461954332e-08,-7.16490605330398e-08,-1.27403680076153e-07,1.02885051886775e-07,6.97823561262855e-08,6.97823561262961e-08,-1.92025030051469e-07,-1.09444678310599e-07,-3.01469708361792e-07,-1.04007653381669e-07,3.9542471332256e-08,-1.04007653381617e-07,1.47703104099798e-07,-3.28390907922649e-08,1.14864013307578e-07,1.94807819214423e-07,-9.45579462833553e-08,1.00249872930967e-07,-5.58194304157155e-08,2.49067559956904e-08,-5.58194304156525e-08,1.37880159708078e-07,3.52878910728767e-09,1.41408948814709e-07,3.17710887126338e-08,-4.59641544880246e-08,-4.59641544881675e-08,1.0357549497173e-07,-1.03575494971716e-07,-1.50341801523683e-08,8.40648785382639e-08,-3.28279196198842e-08,5.12369589179852e-08,2.64772372096741e-09,-5.64081546824099e-08,-5.37604309616058e-08,-7.40198603763673e-07,1.52095206994972e-07,1.52095206994665e-07,-5.49543816719839e-08,,-1.67260122484419e-07,8.2879429467377e-08,-1.00477811448536e-07,-1.75983819808711e-08,1.10649984959683e-07,8.18539713647187e-08,8.18539713650446e-08,2.47745080468042e-07,-2.47745080467973e-07,2.52326895771156e-08,0,0,0,4.71039999999994,102,949.277941176471,561.602450980392,1554.68137254902,965.204901960784,933.350980392157,549.294117647059,573.910784313726,1824.94117647059,1284.42156862745,0
1870.1312,-6.06083909961526e-08,-7.12820538683874e-08,-1.31890444864347e-07,9.36512968663746e-08,7.02931185329239e-08,7.02931185329327e-08,-2.17239393210173e-07,-1.12667874799129e-07,-3.29907268009025e-07,-1.08447654230688e-07,3.88789062654098e-08,-1.08447654230638e-07,1.37143574330311e-07,-3.37949977476738e-08,1.03348576582678e-07,1.9841861781182e-07,-8.80423359538932e-08,1.10376281857831e-07,-5.2208460142219e-08,2.67162111122621e-08,-5.22084601421596e-08,1.50902022436422e-07,-4.45625536621371e-10,1.50456396899159e-07,3.85863802964257e-08,-4.77465280044949e-08,-4.77465280046344e-08,1.06284581578111e-07,-1.06284581578087e-07,-1.43997070416984e-08,8.69017590471479e-08,-3.4815934216208e-08,5.20858248305515e-08,5.45373290102838e-09,-5.83957839361431e-08,-5.29420510352802e-08,-7.72043156474896e-07,1.4002366804168e-07,1.40023668041399e-07,-5.80900602658831e-08,,-1.7207253805318e-07,8.26046655373507e-08,-9.98814018369238e-08,-1.72767362992961e-08,1.2082137342952e-07,7.75131533319912e-08,7.75131533323168e-08,2.51648682990153e-07,-2.51648682990084e-07,3.25755743249978e-08,0,0,0,4.81279999999993,103,949.818446601942,560.854854368932,1573.23300970874,966.638834951456,932.998058252427,550.277669902913,571.432038834951,1842.53398058252,1303.93203883495,0
1870.2336,-6.28839544811192e-08,-7.007153082855e-08,-1.3295548530949e-07,8.41987381933461e-08,7.06277306085216e-08,7.06277306085284e-08,-2.38355961467423e-07,-1.14219227187076e-07,-3.52575188654221e-07,-1.11200798585888e-07,3.86982830908058e-08,-1.11200798585839e-07,1.27597480311637e-07,-3.49922709639223e-08,9.26052093477512e-08,2.02543218638955e-07,-8.15913248278533e-08,1.20951893811011e-07,-4.75500062416074e-08,2.87140793220839e-08,-4.75500062415515e-08,1.67027443306439e-07,-3.94919382274312e-09,1.6307824948307e-07,4.54293496433102e-08,-4.98753870368272e-08,-4.98753870369632e-08,1.09200287512282e-07,-1.0920028751225e-07,-1.35907668265717e-08,9.08061239469176e-08,-3.73009748918691e-08,5.35051490546666e-08,9.98401018325197e-09,-6.02089618801332e-08,-5.02249516970486e-08,-8.01297085720226e-07,1.26325359340246e-07,1.2632535933999e-07,-6.09064929716938e-08,,-1.75969710147924e-07,8.18694883582076e-08,-9.98050722496539e-08,-1.79355838911805e-08,1.2971118193775e-07,7.37389703818557e-08,7.37389703821813e-08,2.55086548750666e-07,-2.55086548750597e-07,3.91410292508867e-08,0,1,0,4.91519999999991,102,949.981862745098,548.819117647059,1586.32352941176,965.849019607843,934.114705882353,528.301960784314,569.336274509804,1857.20588235294,1315.44117647059,0
1870.336,-6.30944963788492e-08,-6.8098227161964e-08,-1.31192723540647e-07,7.44971831522548e-08,7.07529153507784e-08,7.07529153507835e-08,-2.55452897034131e-07,-1.14540649763039e-07,-3.69993546796891e-07,-1.12251869350789e-07,3.89523774891988e-08,-1.12251869350743e-07,1.19071257595177e-07,-3.63212912744985e-08,8.2749966320711e-08,2.07180339841355e-07,-7.53213639862065e-08,1.31858975855063e-07,-4.18333484525134e-08,3.08310497658845e-08,-4.18333484524608e-08,1.85526632296959e-07,-7.10569986180576e-09,1.78420932434542e-07,5.22449592138168e-08,-5.22709848150094e-08,-5.22709848151418e-08,1.1230965589831e-07,-1.12309655898268e-07,-1.25252293646209e-08,9.58054992704163e-08,-4.02138689562801e-08,5.55916303137606e-08,1.59592677765443e-08,-6.17494410464905e-08,-4.57901732701152e-08,-8.26425073070939e-07,1.11140673415031e-07,1.11140673414802e-07,-6.31911562376682e-08,,-1.78682681421918e-07,8.0638260363565e-08,-1.00167261506901e-07,-1.95290011430808e-08,1.37084886102089e-07,7.04977112388892e-08,7.04977112392153e-08,2.57746517073311e-07,-2.57746517073242e-07,4.49881967443537e-08,0,1,0,5.0175999999999,102,950.439705882353,545.859803921569,1581.13725490196,969.158823529412,931.720588235294,528.089215686275,563.630392156863,1863.44117647059,1298.83333333333,0
1870.4384,-6.19657186544677e-08,-6.55073301739276e-08,-1.27473048828243e-07,6.44893428853315e-08,7.0671449784054e-08,7.06714497840573e-08,-2.68864677085056e-07,-1.14218089880874e-07,-3.83082766965648e-07,-1.11661949732006e-07,3.95893603730029e-08,-1.11661949731962e-07,1.11450744782531e-07,-3.76712415198765e-08,7.37795032626833e-08,2.12477373452756e-07,-6.92804342116042e-08,1.4319693924107e-07,-3.51077686542155e-08,3.30150564350167e-08,-3.5107768654166e-08,2.05713759627955e-07,-1.0167167373591e-08,1.9554659225377e-07,5.89586300366322e-08,-5.48229535822734e-08,-5.48229535824022e-08,1.15547326209034e-07,-1.15547326208984e-07,-1.11795018919186e-08,1.01900402884782e-07,-4.34068400013875e-08,5.84935628830256e-08,2.30731371561837e-08,-6.29077491668899e-08,-3.9834612010877e-08,-8.45872637270282e-07,9.48008244234295e-08,9.48008244232276e-08,-6.47877755049662e-08,,-1.79970425641431e-07,7.89507177938017e-08,-1.00816212467902e-07,-2.18654946738565e-08,1.42584401952416e-07,6.76384332716834e-08,6.76384332720103e-08,2.59431505917809e-07,-2.5943150591774e-07,5.01196773787379e-08,0,1,0,5.11999999999989,103,949.302912621359,545.373786407767,1559.21359223301,968.626213592233,929.979611650485,525.2,565.547572815534,1851.46601941748,1266.96116504854,0
1870.5408,-6.0318875450022e-08,-6.24843045827902e-08,-1.22803180032675e-07,5.41127553196208e-08,7.04229395271758e-08,7.04229395271767e-08,-2.79173989930882e-07,-1.13894995091695e-07,-3.93068985022293e-07,-1.09552167358326e-07,4.0560224579959e-08,-1.09552167358285e-07,1.04514430917532e-07,-3.89310800074663e-08,6.55833509100902e-08,2.18650757572609e-07,-6.34817675315552e-08,1.55168990040976e-07,-2.74817348795982e-08,3.52265727538375e-08,-2.74817348795519e-08,2.2705972619816e-07,-1.34235574334929e-08,2.13636168764092e-07,6.54751980867393e-08,-5.73996973221064e-08,-5.73996973222313e-08,1.18761095542342e-07,-1.18761095542282e-07,-9.59942802875491e-09,1.09013666608146e-07,-4.66424950138391e-08,6.23711715939443e-08,3.10057962468396e-08,-6.3587711814217e-08,-3.25819155675501e-08,-8.58378385759085e-07,7.7787858454298e-08,7.77878584541212e-08,-6.55917065837156e-08,,-1.79671498117219e-07,7.69267227367889e-08,-1.01576990761088e-07,-2.46502680240666e-08,1.45885445009692e-07,6.49606298021697e-08,6.49606298024981e-08,2.60064494229713e-07,-2.60064494229645e-07,5.45146378073347e-08,0,0,0,5.22239999999988,102,948.622549019608,544.572549019608,1542.05392156863,969.305882352941,927.939215686275,526.809803921569,562.335294117647,1836.48039215686,1247.62745098039,0
1870.6432,-5.89329758952714e-08,-5.92279550556154e-08,-1.18160930950764e-07,4.33021112126542e-08,7.00886929733129e-08,7.00886929733107e-08,-2.87198821783884e-07,-1.14165173868412e-07,-4.01363995652011e-07,-1.06098490433524e-07,4.18192878513169e-08,-1.06098490433485e-07,9.79562161576662e-08,-3.99960640522709e-08,5.79601521054151e-08,2.25884085935736e-07,-5.79308456404104e-08,1.67953240295251e-07,-1.91217462622574e-08,3.74339533317008e-08,-1.91217462622142e-08,2.49226945103969e-07,-1.71043649920511e-08,2.32122580111361e-07,7.16776179615753e-08,-5.98663520619341e-08,-5.98663520620549e-08,1.21690429261321e-07,-1.21690429261253e-07,-7.90327073719502e-09,1.16953215774648e-07,-4.9606875100907e-08,6.73463406733855e-08,3.94463459834011e-08,-6.37390303103084e-08,-2.42926843270819e-08,-8.63321836908523e-07,6.06921571609563e-08,6.06921571608041e-08,-6.55518051010764e-08,,-1.7776070013069e-07,7.47589094645419e-08,-1.02305040541818e-07,-2.75461310770554e-08,1.46893670300732e-07,6.2287237543661e-08,6.22872375439907e-08,2.59681017944407e-07,-2.5968101794434e-07,5.81740303772752e-08,0,0,0,5.32479999999987,103,948.335436893204,550.616990291262,1543.27184466019,967.358252427185,929.312621359223,542.515533980583,558.718446601942,1836.17475728155,1250.36893203884,0
1870.7456,-5.84161321695623e-08,-5.59245138651794e-08,-1.14340646034634e-07,3.19926464666011e-08,6.97939354259743e-08,6.97939354259689e-08,-2.93938796905325e-07,-1.15481274689827e-07,-4.09420071594865e-07,-1.01525354843931e-07,4.33223791466775e-08,-1.01525354843895e-07,9.14251699391981e-08,-4.07784683003467e-08,5.06467016388662e-08,2.34239249445295e-07,-5.26397809172995e-08,1.81599468527924e-07,-1.02465951221004e-08,3.96082174893951e-08,-1.02465951220603e-08,2.72037953568781e-07,-2.13168948234058e-08,2.50721058744839e-07,7.74260968350423e-08,-6.21049662780876e-08,-6.21049662782042e-08,1.23971015879753e-07,-1.23971015879675e-07,-6.27063789044234e-09,1.25406384169743e-07,-5.19457915356298e-08,7.34605926337646e-08,4.81241241558977e-08,-6.33875462762166e-08,-1.52634221204955e-08,-8.60954635844583e-07,4.4161820404201e-08,4.41618204040747e-08,-6.46787270264309e-08,,-1.74379775902168e-07,7.26930855967544e-08,-1.02932019295617e-07,-3.02389336986536e-08,1.45891045866166e-07,5.95138007503715e-08,5.9513800750703e-08,2.58407924460726e-07,-2.5840792446066e-07,6.11510424593127e-08,0,0,0,5.42719999999986,102,948.918468232254,545.902183715864,1544.92830597355,966.765139078887,931.071797385621,540.232580939353,551.571786492375,1837.52621979024,1252.33039215686,0.313725490196078
1870.848,-5.91210524960041e-08,-5.27274779163616e-08,-1.11848530412274e-07,2.01417944501247e-08,6.96976931120545e-08,6.96976931120458e-08,-3.0046516859358e-07,-1.18110019226754e-07,-4.18575187820045e-07,-9.6088271253644e-08,4.50256112448194e-08,-9.60882712536118e-08,8.45768963093294e-08,-4.12145842753002e-08,4.33623120340391e-08,2.43613920103725e-07,-4.76284230016542e-08,1.95985497102003e-07,-1.10890822164377e-09,4.171870830069e-08,-1.1089082216064e-09,2.95413780146259e-07,-2.60450909399708e-08,2.69368689205772e-07,8.25644347360204e-08,-6.40276430696182e-08,-6.40276430697307e-08,1.25161531073334e-07,-1.25161531073247e-07,-4.91513819182558e-09,1.33964676861154e-07,-5.33076858079654e-08,8.06569910528471e-08,5.6833090119716e-08,-6.26496839792568e-08,-5.81659385971916e-09,-8.52388452343256e-07,2.88424952894435e-08,2.88424952893415e-08,-6.30474427077893e-08,,-1.69814856879133e-07,7.09989156457369e-08,-1.03487127511045e-07,-3.248821186511e-08,1.43554626652561e-07,5.6621736475018e-08,5.66217364753519e-08,2.56432164449414e-07,-2.5643216444935e-07,6.3546887148562e-08,0,0,0,5.52959999999985,102,954.356531767746,539.722816284137,1542.21875284998,971.775056999544,936.938006535948,535.661536707706,543.784095860567,1841.87574099407,1242.56176470588,0.46078431372549
1870.9504,-6.11263195149712e-08,-4.97468083242713e-08,-1.10873127839165e-07,7.76275264743219e-09,6.99693513942828e-08,6.99693513942709e-08,-3.07782245063915e-07,-1.22135344481592e-07,-4.29917589545217e-07,-9.00473474979363e-08,4.68858715731217e-08,-9.00473474979074e-08,7.71209110759636e-08,-4.1263052734228e-08,3.58578583417405e-08,2.53751513628644e-07,-4.29173259727879e-08,2.10834187655791e-07,8.03619766197275e-09,4.37325432451368e-08,8.03619766200769e-09,3.19315091889892e-07,-3.11902065816011e-08,2.88124885307793e-07,8.69366018963058e-08,-6.55790754865768e-08,-6.55790754866855e-08,1.24782083320175e-07,-1.2478208332008e-07,-4.04689034331138e-09,1.42164298958568e-07,-5.33763442554294e-08,8.8787954702804e-08,6.54346155858928e-08,-6.17246147864022e-08,3.7100007993105e-09,-8.39351826764663e-07,1.53157118455044e-08,1.53157118454259e-08,-6.07842647365792e-08,,-1.64426392205419e-07,6.99356020389399e-08,-1.04086206205224e-07,-3.41506041660968e-08,1.40854521009081e-07,5.36626562591177e-08,5.36626562594541e-08,2.53968029344556e-07,-2.53968029344493e-07,6.54784874772431e-08,0,0,0,5.63199999999983,103,958.806310679612,548.61213592233,1544.84466019417,976.394174757282,941.218446601942,552.047572815534,545.176699029126,1847.79611650485,1241.8932038835,0
1871.0528,-6.42762334716131e-08,-4.70490751615348e-08,-1.11325308633084e-07,-5.05669770408142e-09,7.0761711560813e-08,7.07617115607981e-08,-3.16707130613065e-07,-1.274837844425e-07,-4.44190915055274e-07,-8.36424088958109e-08,4.88623314260929e-08,-8.36424088957853e-08,6.88513461222063e-08,-4.08972943822911e-08,2.79540517399154e-08,2.64285275321815e-07,-3.85207995381326e-08,2.25764475783619e-07,1.69651385409654e-08,4.56181644775839e-08,1.69651385409984e-08,3.43707700150678e-07,-3.66079467320222e-08,3.07099753418176e-07,9.04079826373003e-08,-6.67328098644404e-08,-6.67328098645459e-08,1.2236292164615e-07,-1.22362921646048e-07,-3.83950257406999e-09,1.4953079061007e-07,-5.1892690235203e-08,9.76381003745384e-08,7.3841406676376e-08,-6.08674408707115e-08,1.2973965805483e-08,-8.2384774997644e-07,4.04348862915837e-09,4.04348862910162e-09,-5.80325572899428e-08,,-1.58556438695858e-07,6.9721115146344e-08,-1.04898185575666e-07,-3.51770704291447e-08,1.38907693407838e-07,5.07301389673251e-08,5.07301389676644e-08,2.51227515187658e-07,-2.51227515187597e-07,6.70422217841591e-08,0,0,0,5.73439999999982,102,956.786274509804,541.298039215686,1569.97058823529,974.485294117647,939.087254901961,542.590196078431,540.005882352941,1881.62745098039,1258.3137254902,0
1871.1552,-6.8250576608353e-08,-4.46675239250265e-08,-1.12918100533326e-07,-1.81720253036076e-08,7.21906176160801e-08,7.21906176160631e-08,-3.27792706598768e-07,-1.33947184641875e-07,-4.61739891240351e-07,-7.707692203009e-08,5.09182171942885e-08,-7.70769220300672e-08,5.96613491363164e-08,-4.00990589023416e-08,1.95622902339707e-08,2.74798687996422e-07,-3.44447605505365e-08,2.40353927445823e-07,2.55124361005718e-08,4.73502367868252e-08,2.55124361006032e-08,3.68561699998117e-07,-4.21120917645115e-08,3.26449608233141e-07,9.28816166432187e-08,-6.74881612929685e-08,-6.74881612930716e-08,1.17504471538073e-07,-1.17504471537966e-07,-4.41436666556532e-09,1.55624117880801e-07,-4.86742354479644e-08,1.06949882432512e-07,8.20014067853581e-08,-6.03517499925334e-08,2.16496567926423e-08,-8.07837345463522e-07,-4.67578133678772e-09,-4.67578133682631e-09,-5.49045583811707e-08,,-1.52444669287666e-07,7.0514555519137e-08,-1.0610847220534e-07,-3.55939166860338e-08,1.38849782890714e-07,4.79315499879983e-08,4.79315499883412e-08,2.48396364875981e-07,-2.48396364875921e-07,6.82916284272449e-08,0,0,0,5.83679999999981,103,935.741747572816,539.509708737864,1595.03398058252,955.452427184466,916.031067961165,540.800970873786,538.218446601942,1910.33009708738,1279.73786407767,0
1871.2576,-7.26376106676245e-08,-4.26160667332878e-08,-1.15253677400866e-07,-3.14252325240994e-08,7.43211095367768e-08,7.43211095367584e-08,-3.41288164808719e-07,-1.41201900553085e-07,-4.82490065361512e-07,-7.05093275818825e-08,5.30225386822755e-08,-7.05093275818621e-08,4.95502772775779e-08,-3.88574936175885e-08,1.06927836599815e-08,2.84890074371724e-07,-3.06880510424718e-08,2.5420202332919e-07,3.35856758038612e-08,4.89133078536178e-08,3.35856758038919e-08,3.9387631768176e-07,-4.74545917179597e-08,3.46421725963349e-07,9.43027430308016e-08,-6.7870751356811e-08,-6.78707513569129e-08,1.09939778802666e-07,-1.09939778802555e-07,-5.84211167012776e-09,1.60081686721155e-07,-4.36342032475821e-08,1.16447483473253e-07,8.98962772030599e-08,-6.04298942292789e-08,2.94663829735981e-08,-7.93002887970104e-07,-1.0731776984118e-08,-1.07317769841433e-08,-5.14458327230669e-08,,-1.4618749561832e-07,7.24142163449541e-08,-1.07893086853563e-07,-3.54788705084461e-08,1.41730187319195e-07,4.53637962062804e-08,4.5363796206627e-08,2.45622689130063e-07,-2.45622689130005e-07,6.92323794561244e-08,0,0,0,5.9391999999998,102,930.707843137255,543.93137254902,1606.60294117647,951.902941176471,909.512745098039,545.773529411765,542.089215686275,1922.21568627451,1290.99019607843,0
1871.36,-7.69978671257776e-08,-4.08975368636339e-08,-1.17895403989369e-07,-4.4674895679127e-08,7.71539999046178e-08,7.71539999045985e-08,-3.57123780855368e-07,-1.48840714305617e-07,-5.05964495160694e-07,-6.40482813308405e-08,5.51500657429803e-08,-6.40482813308217e-08,3.86288737067543e-08,-3.71719240664606e-08,1.45694964028257e-09,2.94224769705899e-07,-2.72445635431309e-08,2.66980206162704e-07,4.11677036094249e-08,5.03025545693819e-08,4.11677036094556e-08,4.19706240859836e-07,-5.23132484251092e-08,3.67392992434286e-07,9.46521390424145e-08,-6.79335926548714e-08,-6.79335926549738e-08,9.9586248671409e-08,-9.95862486712983e-08,-8.14918234615562e-09,1.6265695745825e-07,-3.67966359099303e-08,1.25860321548003e-07,9.7547955796824e-08,-6.12968375883668e-08,3.62511182082748e-08,-7.80601182610948e-07,-1.42020650933444e-08,-1.4202065093358e-08,-4.76352656958172e-08,,-1.39757505493569e-07,7.54635273707128e-08,-1.1040331614919e-07,-3.49397887783191e-08,1.48405493620469e-07,4.30949788349719e-08,4.30949788353229e-08,2.43025924873014e-07,-2.43025924872956e-07,6.98320082506774e-08,0,0,0,6.04159999999979,102,930.106862745098,537.933823529412,1578.43137254902,951.616666666667,908.597058823529,542.592156862745,533.275490196078,1893.39215686275,1263.47058823529,0
1871.4624,-8.09152286134354e-08,-3.95004772250518e-08,-1.20415705838443e-07,-5.77879522728699e-08,8.06131549215365e-08,8.0613154921518e-08,-3.7491891864139e-07,-1.56425295499916e-07,-5.31344214141018e-07,-5.77524903085809e-08,5.72770007146634e-08,-5.77524903085632e-08,2.71170523545844e-08,-3.50534025851122e-08,-7.9363502305413e-09,3.02557441159643e-07,-2.41063857081643e-08,2.78451055451411e-07,4.83041756130862e-08,5.1520538157722e-08,4.83041756131175e-08,4.46164394964139e-07,-5.63049155592048e-08,3.89859479404499e-07,9.39344250143239e-08,-6.77532760577482e-08,-6.77532760578525e-08,8.65777422529417e-08,-8.65777422528336e-08,-1.13177871375573e-08,1.63252354673012e-07,-2.83059342614409e-08,1.34946420411256e-07,1.05013803224856e-07,-6.30614815551563e-08,4.19523216695188e-08,-7.71412509830239e-07,-1.53362965060131e-08,-1.53362965060203e-08,-4.3417185512481e-08,,-1.33068671746304e-07,7.96541860177964e-08,-1.13752261034456e-07,-3.40980750165046e-08,1.59421244815794e-07,4.11590084671423e-08,4.11590084674984e-08,2.40721850248077e-07,-2.4072185024802e-07,7.0042672615089e-08,0,1,0,6.14399999999978,103,934.351941747573,532.934951456311,1535.32524271845,956.63786407767,912.066019417476,543.579611650485,522.290291262136,1849.59223300971,1221.05825242718,0
1871.5648,-8.40314651408869e-08,-3.83881782791148e-08,-1.22419643419952e-07,-7.06070775295887e-08,8.45431295043388e-08,8.45431295043212e-08,-3.94022261838642e-07,-1.63549784012536e-07,-5.57572045850894e-07,-5.16380817076996e-08,5.93721932975849e-08,-5.16380817076821e-08,1.53231363263896e-08,-3.25216307919333e-08,-1.71984944655587e-08,3.09719278795146e-07,-2.12693440746263e-08,2.88449934720448e-07,5.50755281037592e-08,5.25708773400905e-08,5.50755281037917e-08,4.73395509451275e-07,-5.90201616346731e-08,4.14375347816169e-07,9.21681630394969e-08,-6.74186331807331e-08,-6.7418633180841e-08,7.12694659251167e-08,-7.12694659250143e-08,-1.52782753970637e-08,1.61939566605239e-07,-1.84277481908038e-08,1.4351181841412e-07,1.12357679326738e-07,-6.57284551483938e-08,4.66292241781653e-08,-7.65784679034003e-07,-1.45390706536264e-08,-1.45390706536302e-08,-3.87396207198907e-08,,-1.26049804071792e-07,8.49229543623358e-08,-1.179975953556e-07,-3.30746409931097e-08,1.7490670050439e-07,3.95713580547174e-08,3.95713580550795e-08,2.38842957752597e-07,-2.3884295775254e-07,6.983258906849e-08,0,1,0,6.24639999999999,102,937.04068627451,532.220098039216,1508.21078431373,963.709803921569,910.371568627451,547.091176470588,517.349019607843,1815.86274509804,1200.55882352941,0
1871.6672,-8.60582858283609e-08,-3.74898283729906e-08,-1.23548114201292e-07,-8.29305807434505e-08,8.87266664663153e-08,8.87266664663e-08,-4.13589967892691e-07,-1.69898401165355e-07,-5.83488369057766e-07,-4.56938514896219e-08,6.13871621043929e-08,-4.56938514896038e-08,3.59899423722944e-09,-2.95980067619216e-08,-2.59990125247078e-08,3.15582904722413e-07,-1.87388477510773e-08,2.96844056971258e-07,6.15581027541781e-08,5.34518163608417e-08,6.15581027542125e-08,5.01533560065537e-07,-6.00668971389195e-08,4.41466662926182e-07,8.93813785071401e-08,-6.70147797267339e-08,-6.7014779726847e-08,5.42107365108394e-08,-5.42107365107456e-08,-1.99037161062801e-08,1.5895601931912e-07,-7.53530452646097e-09,1.51420714792342e-07,1.19603985066339e-07,-6.91925338901333e-08,5.041145117603e-08,-7.63751599784846e-07,-1.23528424053405e-08,-1.23528424053456e-08,-3.35716215448409e-08,,-1.18688688255578e-07,9.11480322708968e-08,-1.23122939119489e-07,-3.19749068484363e-08,1.94521685122634e-07,3.83630992092583e-08,3.8363099209627e-08,2.37533804981937e-07,-2.3753380498188e-07,6.92157271798014e-08,0,1,0,6.34879999999998,103,938.583009708738,531.397087378641,1503.65533980583,966.731067961165,910.434951456311,542.568932038835,520.225242718447,1804.45631067961,1202.85436893204,0
1871.7696,-8.67675564207245e-08,-3.67020260670334e-08,-1.23469582487685e-07,-9.45333876718214e-08,9.29222131385301e-08,9.29222131385178e-08,-4.3269670272789e-07,-1.75280269184864e-07,-6.0797697191248e-07,-3.9900348060263e-08,6.32497647655844e-08,-3.99003480602436e-08,-7.71978490815699e-09,-2.63009975699352e-08,-3.40207824781079e-08,3.20029981927114e-07,-1.65297750974109e-08,3.03500206829618e-07,6.7784028822536e-08,5.41526492249409e-08,6.77840288225727e-08,5.30652470478429e-07,-5.91104634614635e-08,4.71542007016521e-07,8.56116359471232e-08,-6.6609816452745e-08,-6.66098164528648e-08,3.60905494404956e-08,-3.60905494404129e-08,-2.50174721792288e-08,1.54676209967988e-07,3.91788490152449e-09,1.58594094869192e-07,1.26701832865857e-07,-7.32484618010715e-08,5.3453371064613e-08,-7.65181697263526e-07,-9.42584147142418e-09,-9.42584147143535e-09,-2.78963599051612e-08,,-1.11037678928457e-07,9.81547350506016e-08,-1.2902624125336e-07,-3.08715062025989e-08,2.17479387936676e-07,3.76136557531011e-08,3.76136557534767e-08,2.36920658326056e-07,-2.36920658325999e-07,6.82684600282332e-08,0,0,0,6.45119999999997,102,936.641666666667,538.760294117647,1512.1862745098,964.112745098039,909.170588235294,549.593137254902,527.927450980392,1809.96078431373,1214.41176470588,0
1871.872,-8.59748074965992e-08,-3.59023004590455e-08,-1.21877107955556e-07,-1.05226387111394e-07,9.69112565643597e-08,9.6911256564351e-08,-4.50463861295707e-07,-1.79632715266631e-07,-6.30096576562071e-07,-3.42457070062568e-08,6.48655137167174e-08,-3.42457070062357e-08,-1.83679100332624e-08,-2.26511995569981e-08,-4.10191095902758e-08,3.22940348162321e-07,-1.46564126092968e-08,3.0828393555293e-07,7.37084414620827e-08,5.46543185481033e-08,7.37084414621223e-08,5.60706529548165e-07,-5.59007304946598e-08,5.04805799053052e-07,8.09069708368065e-08,-6.62498018229167e-08,-6.6249801823044e-08,1.76678949065067e-08,-1.76678949064367e-08,-3.04147787701945e-08,1.49570207117492e-07,1.54298451503256e-08,1.65000052267495e-07,1.3352615613281e-07,-7.76189045900855e-08,5.59072515425569e-08,-7.69903150398394e-07,-6.45043593692898e-09,-6.45043593694946e-09,-2.17036063785824e-08,,-1.03203663455843e-07,1.05735573846419e-07,-1.35524174496566e-07,-2.9788600649983e-08,2.42648706518683e-07,3.74572372420895e-08,3.74572372424718e-08,2.37072604581812e-07,-2.37072604581754e-07,6.71283026378979e-08,0,0,0,6.55359999999996,102,936.290196078431,534.752450980392,1530.62254901961,961.829411764706,910.750980392157,545.385294117647,524.119607843137,1836.14705882353,1225.09803921569,0
1871.9744,-8.35367590844885e-08,-3.49694358104122e-08,-1.18506194894794e-07,-1.1491930781082e-07,1.00538881111668e-07,1.00538881111663e-07,-4.66182037907056e-07,-1.83000081594137e-07,-6.49182119500932e-07,-2.87325902019856e-08,6.61274810329216e-08,-2.87325902019622e-08,-2.81817252286845e-08,-1.86852531509739e-08,-4.6866978379673e-08,3.24200274413396e-07,-1.311642815935e-08,3.11083846253943e-07,7.9189235889527e-08,5.49334729466147e-08,7.91892358895697e-08,5.91461097105863e-07,-5.02868958051244e-08,5.41174201300273e-07,7.53253456951093e-08,-6.59603247441976e-08,-6.59603247443328e-08,-3.02596898601163e-10,3.02596898657729e-10,-3.58880573295612e-08,1.44160877828387e-07,2.64811156961699e-08,1.70641993524229e-07,1.39914837695388e-07,-8.19971222703219e-08,5.79177154249037e-08,-7.77771929611035e-07,-4.07687136258066e-09,-4.07687136261433e-09,-1.50031291810357e-08,,-9.53451861707383e-08,1.13680825892344e-07,-1.42375246234608e-07,-2.86944203420954e-08,2.68719994360403e-07,3.80528497167271e-08,3.80528497171155e-08,2.3797550377765e-07,-2.37975503777591e-07,6.59774394417073e-08,0,0,0,6.65599999999995,103,937.154368932039,533.565533980582,1545.91262135922,963.885436893204,910.423300970874,544.842718446602,522.288349514563,1858.61165048544,1233.21359223301,0
1872.0768,-7.93706946339268e-08,-3.38023819081085e-08,-1.13173076541911e-07,-1.23646207532e-07,1.03731358181632e-07,1.03731358181631e-07,-4.79403296787802e-07,-1.85504064975281e-07,-6.64907361762828e-07,-2.33771599133588e-08,6.69316163484993e-08,-2.3377159913333e-08,-3.71068462691601e-08,-1.44678621787199e-08,-5.15747084478933e-08,3.23713421132555e-07,-1.18775116374938e-08,3.11835909494951e-07,8.39831366724954e-08,5.4968034546054e-08,8.39831366725413e-08,6.2243365062076e-07,-4.22291426208946e-08,5.80204507999386e-07,6.89341443677621e-08,-6.57483327985387e-08,-6.57483327986817e-08,-1.71419843998069e-08,1.71419843998501e-08,-4.12446149889059e-08,1.38979977385459e-07,3.65694644130133e-08,1.7554944179814e-07,1.45714421190183e-07,-8.60920643762245e-08,5.96223568138004e-08,-7.88684957210677e-07,-2.82619370483119e-09,-2.82619370488032e-09,-7.85415295488892e-09,,-8.76753030218134e-08,1.21810992369943e-07,-1.49314957881861e-07,-2.75039655117435e-08,2.94393170623058e-07,3.95327768940721e-08,3.95327768944656e-08,2.39534459662896e-07,-2.39534459662835e-07,6.50183131738916e-08,0,0,0,6.75839999999994,102,947.269117647059,529.355392156863,1550.02450980392,971.926470588235,922.611764705882,541.276470588235,517.43431372549,1870.36274509804,1229.6862745098,0
1872.1792,-7.34846281808716e-08,-3.2332550437889e-08,-1.0581717861862e-07,-1.31539825533496e-07,1.0648520085033e-07,1.06485200850331e-07,-4.89984882789605e-07,-1.87314927702318e-07,-6.77299810491673e-07,-1.82066046895954e-08,6.71917318676453e-08,-1.82066046895672e-08,-4.51919182342452e-08,-1.00915818248166e-08,-5.52835000590738e-08,3.21403595373036e-07,-1.08725872029007e-08,3.10531008170017e-07,8.77618427131911e-08,5.47427680717704e-08,8.776184271324e-08,6.52877771147862e-07,-3.18104375863918e-08,6.21067333560977e-07,6.18122102802579e-08,-6.56008268717377e-08,-6.56008268718878e-08,-3.23083021481737e-08,3.23083021482049e-08,-4.63150778542641e-08,1.34519176551579e-07,4.52539882142523e-08,1.79773164765496e-07,1.50808699688383e-07,-8.96622350030165e-08,6.11464646852125e-08,-8.02566587127003e-07,-3.02776325662227e-09,-3.02776325668574e-09,-3.88019505444206e-10,,-8.04548987884418e-08,1.30004726308502e-07,-1.56091662621307e-07,-2.60869363126259e-08,3.18540841289647e-07,4.19582018891306e-08,4.19582018895273e-08,2.41604974253401e-07,-2.41604974253339e-07,6.44489442301755e-08,0,0,0,6.86079999999993,103,947.672330097087,534.406796116505,1550.03398058252,973.15145631068,922.193203883495,544.941747572816,523.871844660194,1877.92233009709,1222.14563106796,0
1872.2816,-6.59994536389515e-08,-3.05300375646663e-08,-9.65294912034634e-08,-1.38778229352326e-07,1.08838562918117e-07,1.08838562918122e-07,-4.98079385116799e-07,-1.88621096423028e-07,-6.86700481539583e-07,-1.32594644690079e-08,6.68495951928964e-08,-1.32594644689774e-08,-5.25747703895914e-08,-5.66450061863826e-09,-5.82392710082402e-08,3.17213501866702e-07,-1.00041647100887e-08,3.0720933715649e-07,9.01508074674322e-08,5.42543737039868e-08,9.0150807467484e-08,6.81832492550547e-07,-1.92405087953926e-08,6.6259198375465e-07,5.40526640757907e-08,-6.5483174043476e-08,-6.54831740436322e-08,-4.54398071387804e-08,4.54398071388015e-08,-5.09589659227178e-08,1.31181530052104e-07,5.22021702844139e-08,1.83383700336179e-07,1.55126284294781e-07,-9.2532672320567e-08,6.25936119740644e-08,-8.19350591815764e-07,-4.7942741947131e-09,-4.79427419478997e-09,7.19217186823613e-09,,-7.39699245472222e-08,1.38218042625655e-07,-1.62494056442675e-07,-2.42760138168371e-08,3.40322760576492e-07,4.53007980818465e-08,4.53007980822447e-08,2.44035426311253e-07,-2.4403542631119e-07,6.44413611734229e-08,0,0,0,6.96319999999992,102,940.601960784314,537.191176470588,1557.22549019608,963.322549019608,917.88137254902,551.325490196079,523.056862745098,1889.38235294118,1225.06862745098,0
1872.384,-5.71515847010046e-08,-2.84066106717292e-08,-8.55581953725686e-08,-1.45540550579841e-07,1.10844871148781e-07,1.10844871148789e-07,-5.04079343319897e-07,-1.89593084409776e-07,-6.93672427729433e-07,-8.58572029530345e-09,6.58792282558128e-08,-8.58572029527109e-09,-5.94585242995178e-08,-1.29502926092576e-09,-6.07535535604529e-08,3.11112950177352e-07,-9.15518460668991e-09,3.01957765570534e-07,9.07871774837278e-08,5.35157220360673e-08,9.0787177483782e-08,7.08233502253686e-07,-4.84493876527401e-09,7.033885634879e-07,4.57607315658691e-08,-6.53422024297148e-08,-6.53422024298758e-08,-5.6372682570624e-08,5.63726825706375e-08,-5.50710145177817e-08,1.29246563870555e-07,5.72236106335958e-08,1.86470174503809e-07,1.58640125554903e-07,-9.45988288859544e-08,6.40412966688011e-08,-8.38951740993582e-07,-8.03294285719086e-09,-8.03294285728017e-09,1.46291535571421e-08,,-6.85054332682916e-08,1.46488145391202e-07,-1.68366345181899e-07,-2.18781997905119e-08,3.59248980452271e-07,4.94460321212047e-08,4.94460321216028e-08,2.46701778058401e-07,-2.46701778058336e-07,6.51222550427541e-08,0,0,0,7.0655999999999,102,936.012254901961,531.301960784314,1570.44117647059,958.36862745098,913.655882352941,546.167647058824,516.436274509804,1903.72549019608,1237.1568627451,0
1872.4864,-4.7278130252496e-08,-2.60161872823404e-08,-7.3294317534664e-08,-1.51987806519313e-07,1.12562220645745e-07,1.12562220645754e-07,-5.08528052662202e-07,-1.9034914639094e-07,-6.98877199052905e-07,-4.24101858308068e-09,6.42867448135371e-08,-4.24101858304673e-09,-6.60758618616175e-08,2.9177865741056e-09,-6.31580752875209e-08,3.03124962240394e-07,-8.20301193187225e-09,2.94921950308392e-07,8.93831986187721e-08,5.25584187882084e-08,8.93831986188281e-08,7.31063013311917e-07,1.09565430809454e-08,7.42019556392343e-07,3.70446609853596e-08,-6.51160760055385e-08,-6.51160760057029e-08,-6.51313202300441e-08,6.51313202300527e-08,-5.85847595602306e-08,1.28854907681083e-07,6.02807250484363e-08,1.89135632729176e-07,1.61369346778312e-07,-9.5824653096562e-08,6.55446936816049e-08,-8.61205276314918e-07,-1.24842322686724e-08,-1.2484232268771e-08,2.16266513238827e-08,,-6.4335914870345e-08,1.5491365254008e-07,-1.73610932825378e-07,-1.86972802851125e-08,3.75188870936861e-07,5.42024537478716e-08,5.4202453748268e-08,2.4952537912875e-07,-2.49525379128684e-07,6.65563324164682e-08,0,0,0,7.16799999999989,103,937.91213592233,537.453398058253,1586.54854368932,960.547572815534,915.276699029126,554.946601941748,519.960194174757,1920.69902912621,1252.39805825243,0
1872.5888,-3.67938172814205e-08,-2.34507762704616e-08,-6.0244593551706e-08,-1.58255885772334e-07,1.14056520190955e-07,1.14056520190964e-07,-5.12008825799092e-07,-1.90938294377751e-07,-7.02947120176608e-07,-2.74289273323089e-10,6.21068218464805e-08,-2.74289273288029e-10,-7.26494159018901e-08,6.88768343661141e-09,-6.57617324652874e-08,2.93362571076569e-07,-7.03389338777347e-09,2.86328677688665e-07,8.57764500736954e-08,5.14328201342535e-08,8.57764500737526e-08,7.49504133544342e-07,2.76726038809253e-08,7.77176737424744e-07,2.8005836882249e-08,-6.47480326480778e-08,-6.47480326482445e-08,-7.18959339471028e-08,7.18959339471096e-08,-6.14688951366819e-08,1.30007012697334e-07,6.1479263683679e-08,1.9148627638067e-07,1.63379154589706e-07,-9.62388744766027e-08,6.71402801129602e-08,-8.85770807363432e-07,-1.77796755329572e-08,-1.77796755330625e-08,2.7853136190531e-08,,-6.17333313133146e-08,1.63610341068387e-07,-1.78180666907606e-07,-1.45703258390356e-08,3.883204922534e-07,5.93109736920316e-08,5.93109736924244e-08,2.52468949687396e-07,-2.52468949687329e-07,6.87369957724459e-08,0,0,0,7.27039999999988,102,937.119607843137,533.112745098039,1590.90196078431,958.045098039216,916.194117647059,550.390196078431,515.835294117647,1924.51960784314,1257.28431372549,0
1872.6912,-2.61648523956112e-08,-2.0829396673333e-08,-4.69942490687676e-08,-1.64443099444617e-07,1.15406364311069e-07,1.15406364311077e-07,-5.15031517891317e-07,-1.9134674517423e-07,-7.06378263065314e-07,3.28713799464912e-09,5.93968807421459e-08,3.28713799468481e-09,-7.93614217955809e-08,1.05430180244777e-08,-6.88184037711125e-08,2.8205787925442e-07,-5.55624665526676e-09,2.76501632599024e-07,7.99549618306987e-08,5.02050773088131e-08,7.99549618307565e-08,7.63057539547472e-07,4.47587279482564e-08,8.07816267495204e-07,1.87347986405832e-08,-6.41987059146459e-08,-6.41987059148137e-08,-7.69558008845101e-08,7.69558008845171e-08,-6.37169747303882e-08,1.325687610342e-07,6.10466978937666e-08,1.93615458927623e-07,1.64768796110182e-07,-9.59289681592258e-08,6.88398279508142e-08,-9.12034015520683e-07,-2.35110802249806e-08,-2.35110802250887e-08,3.29472347841235e-08,,-6.09709134588906e-08,1.72654472348392e-07,-1.82064877349241e-07,-9.41040500066977e-09,3.9902725726195e-07,6.44603167733357e-08,6.44603167737235e-08,2.55509073164129e-07,-2.55509073164059e-07,7.15886275313441e-08,0,1,0,7.37279999999987,103,936.126213592233,534.46359223301,1589.41262135922,955.776699029126,916.47572815534,547.292233009709,521.634951456311,1921.02912621359,1257.79611650485,0
1872.7936,-1.58768339869077e-08,-1.82802602459502e-08,-3.41570942326837e-08,-1.70594328817263e-07,1.16701813501063e-07,1.16701813501071e-07,-5.17939611801078e-07,-1.91518210020759e-07,-7.09457821821603e-07,6.45164232811277e-09,5.62309307752185e-08,6.45164232814876e-09,-8.6338734986142e-08,1.3830593201866e-08,-7.25081417842863e-08,2.69569651447697e-07,-3.71115253441108e-09,2.65858498913158e-07,7.20567204399828e-08,4.89519513649098e-08,7.20567204400408e-08,7.71595241291563e-07,6.16371811956331e-08,8.33232422486675e-07,9.31309234454428e-09,-6.34529568285818e-08,-6.34529568287498e-08,-8.06587388781551e-08,8.06587388781644e-08,-6.53369516856557e-08,1.36281898559061e-07,5.93066984279895e-08,1.95588596986709e-07,1.65647494527517e-07,-9.50311722733882e-08,7.06163222539877e-08,-9.39059048089418e-07,-2.92987354963876e-08,-2.92987354964954e-08,3.65445179478415e-08,,-6.22990587871023e-08,1.82033272469308e-07,-1.85275603150059e-07,-3.24233068057568e-09,4.07775717861157e-07,6.9311734029059e-08,6.9311734029441e-08,2.58596641615827e-07,-2.58596641615755e-07,7.49789607281217e-08,0,1,0,7.47519999999986,102,935.595098039216,534.763725490196,1579.47549019608,953.98431372549,917.205882352941,541.362745098039,528.164705882353,1906.25490196078,1252.69607843137,0
1872.896,-6.39043092195941e-09,-1.59204355211511e-08,-2.23108664429408e-08,-1.76697207998314e-07,1.18039420931336e-07,1.18039420931343e-07,-5.20854117361077e-07,-1.91374962790162e-07,-7.12229080151007e-07,9.27538158204842e-09,5.26939903451012e-08,9.27538158208441e-09,-9.36481186659826e-08,1.67205388231464e-08,-7.6927579842848e-08,2.56369018409841e-07,-1.47732198002921e-09,2.54891696429686e-07,6.23491117096924e-08,4.77547619570884e-08,6.23491117097501e-08,7.75363911095068e-07,7.77323144598353e-08,8.53096225554386e-07,-1.82636686946637e-10,-6.25206565640646e-08,-6.25206565642321e-08,-8.3367047615799e-08,8.33670476158118e-08,-6.63481199676703e-08,1.4078314501051e-07,5.66532153287825e-08,1.97436360338952e-07,1.66109889467403e-07,-9.3716360128243e-08,7.23935293390194e-08,-9.65628048861991e-07,-3.48415246856309e-08,-3.48415246857354e-08,3.83284009020718e-08,,-6.58938179829586e-08,1.91619574719344e-07,-1.87841097514463e-07,3.77847720504962e-09,4.15021857205323e-07,7.35273154722788e-08,7.35273154726541e-08,2.61627905272576e-07,-2.61627905272502e-07,7.87355875844445e-08,0,1,0,7.57759999999985,102,934.321568627451,538.402941176471,1566.82352941176,949.547058823529,919.096078431373,541.812745098039,534.993137254902,1890.00980392157,1243.63725490196,0
1872.9984,1.91766857011725e-09,-1.38380801066477e-08,-1.19204115363664e-08,-1.82693941620671e-07,1.19517694928663e-07,1.19517694928668e-07,-5.23659158103997e-07,-1.9083376834226e-07,-7.14492926446025e-07,1.18684703422196e-08,4.88748990676568e-08,1.18684703422552e-08,-1.01293570174678e-07,1.92087781838849e-08,-8.20847919908065e-08,2.43006480212778e-07,1.13097001162088e-09,2.44137450224276e-07,5.11937389483705e-08,4.66921839328444e-08,5.1193738948428e-08,7.74956350203396e-07,9.25297415822212e-08,8.67486091785106e-07,-9.676176940874e-09,-6.1433952982292e-08,-6.14339529824588e-08,-8.54236941437979e-08,8.54236941438151e-08,-6.67854489739563e-08,1.45639026300731e-07,5.35178528578382e-08,1.99156879158232e-07,1.66222779103782e-07,-9.21744172263713e-08,7.40483618772705e-08,-9.90367909964428e-07,-3.99389888372185e-08,-3.99389888373173e-08,3.80848028599843e-08,,-7.18052325867019e-08,2.01176542659099e-07,-1.89810558173909e-07,1.13659844853505e-08,4.21167835261344e-07,7.67975437573286e-08,7.6797543757697e-08,2.64442943974395e-07,-2.64442943974319e-07,8.26616802513438e-08,0,0,0,7.67999999999984,103,935.316019417476,540.633980582524,1552.69902912621,949.6,921.032038834951,542.482524271845,538.785436893204,1874.59223300971,1230.80582524272,0
1873.1008,8.81990298499741e-09,-1.20798514207124e-08,-3.25994843555721e-09,-1.88493446092577e-07,1.21230872106384e-07,1.21230872106387e-07,-5.26025196070121e-07,-1.89817776309599e-07,-7.15842972379489e-07,1.4388822337656e-08,4.48547692999124e-08,1.43888223376912e-08,-1.09213019684581e-07,2.13150390297575e-08,-8.78979806548395e-08,2.30057862049036e-07,4.07017824033169e-09,2.34128040289248e-07,3.90019940086774e-08,4.58303807509711e-08,3.90019940087345e-08,7.71247241911346e-07,1.05647973454405e-07,8.76895215365248e-07,-1.90869937723922e-08,-6.02433262994315e-08,-6.02433262995973e-08,-8.71245387785956e-08,8.71245387786173e-08,-6.67023671459174e-08,1.50398506590004e-07,5.03218095673521e-08,2.00720316157022e-07,1.6602560170388e-07,-9.0602229286582e-08,7.54233724171577e-08,-1.01193047524579e-06,-4.4492452570871e-08,-4.44924525709636e-08,3.57360457069257e-08,,-7.99318460343007e-08,2.10383748755482e-07,-1.91265570053072e-07,1.91181787025625e-08,4.26553381167733e-07,7.88696195113783e-08,7.88696195117396e-08,2.66851201908872e-07,-2.66851201908794e-07,8.65485777002427e-08,0,0,0,7.78239999999983,102,937.450980392157,539.387745098039,1544.04901960784,949.258823529412,925.643137254902,545.237254901961,533.538235294118,1865.03921568627,1223.05882352941,0
1873.2032,1.4287784347394e-08,-1.0644502971096e-08,3.64328137644974e-09,-1.93968136506244e-07,1.2325602063954e-07,1.2325602063954e-07,-5.27458596463035e-07,-1.88268342437511e-07,-7.15726938900315e-07,1.70225137141407e-08,4.06925307395699e-08,1.70225137141754e-08,-1.17277936854685e-07,2.30778339240399e-08,-9.42001029306636e-08,2.18052060319613e-07,7.27305981543743e-09,2.25325120134934e-07,2.61897567439963e-08,4.5211527562467e-08,2.61897567440531e-08,7.65291427752838e-07,1.16894137498331e-07,8.82185565250675e-07,-2.83242192361235e-08,-5.90117244707816e-08,-5.90117244709468e-08,-8.86935589676383e-08,8.86935589676642e-08,-6.6163362639987e-08,1.54651804803244e-07,4.74175451067551e-08,2.02069349909667e-07,1.65536511706863e-07,-8.91977482896885e-08,7.63387634170353e-08,-1.02916854769796e-06,-4.85013272083913e-08,-4.85013272084769e-08,3.13479325254312e-08,,-9.00211031168813e-08,2.18869126014339e-07,-1.92325598549831e-07,2.65435274646531e-08,4.3145287830692e-07,7.95770060189146e-08,7.9577006019269e-08,2.68669597002365e-07,-2.68669597002284e-07,9.0184068453413e-08,0,0,0,7.88479999999981,103,939.238399509568,538.221192604697,1540.31933096222,949.387383447083,929.089415572054,536.792223397097,539.650161812298,1867.03672017687,1213.60194174757,0.281553398058252
1873.3056,1.85056966368009e-08,-9.48443816938451e-09,9.02125846756263e-09,-1.98938622539465e-07,1.25633871024776e-07,1.25633871024774e-07,-5.27365494979115e-07,-1.86158824985443e-07,-7.13524319964328e-07,1.99583124143321e-08,3.64135900626473e-08,1.99583124143662e-08,-1.25300931255183e-07,2.45498682383924e-08,-1.00751063016811e-07,2.07399087834978e-07,1.06509853051248e-08,2.18050073139988e-07,1.31415818150613e-08,4.48449037357162e-08,1.31415818151178e-08,7.5820332543414e-07,1.26281103512136e-07,8.84484428945789e-07,-3.72790711618925e-08,-5.78046648275956e-08,-5.78046648277605e-08,-9.02678665698443e-08,9.02678665698739e-08,-6.52260680610299e-08,1.58073442021982e-07,4.50424050911018e-08,2.03115847112755e-07,1.64752472330757e-07,-8.81560451946892e-08,7.65964271359293e-08,-1.04125181424375e-06,-5.20614191456575e-08,-5.20614191457369e-08,2.51248119295107e-08,,-1.01674786527506e-07,2.26239238541755e-07,-1.93136885706509e-07,3.31023528353825e-08,4.36061249424009e-07,7.88649734069542e-08,7.88649734073021e-08,2.69754167898924e-07,-2.69754167898841e-07,9.33563680200783e-08,0,0,0,7.9871999999998,102,947.271793098427,531.622957920792,1552.67574257426,958.695792079208,935.847794117647,528.258415841584,534.9875,1892.35148514852,1213,0.725490196078431
1873.408,2.18440621750393e-08,-8.51754242614246e-09,1.33265197490384e-08,-2.03171420017216e-07,1.28351676825269e-07,1.28351676825264e-07,-5.2512335188215e-07,-1.83504639506175e-07,-7.08627991388095e-07,2.33663726996833e-08,3.2007712665762e-08,2.33663726997167e-08,-1.33051704083173e-07,2.5794914312536e-08,-1.0725678977066e-07,1.98343101985592e-07,1.4094093926831e-08,2.1243719591231e-07,1.90381993274072e-10,4.47044563928937e-08,1.90381993330634e-10,7.51043582836158e-07,1.34010290012909e-07,8.85053872848588e-07,-4.58200174237686e-08,-5.667719205158e-08,-5.66771920517453e-08,-9.19018753304203e-08,9.19018753304525e-08,-6.39212663718383e-08,1.60435945381897e-07,4.33038688750606e-08,2.03739814256632e-07,1.63642160392944e-07,-8.76609346825677e-08,7.59812257102394e-08,-1.04770414610057e-06,-5.53546598649023e-08,-5.53546598649757e-08,1.74106140552013e-08,,-1.14343974865103e-07,2.32112062135752e-07,-1.93846253456508e-07,3.82658086793728e-08,4.40479748622579e-07,7.68024165396847e-08,7.68024165400266e-08,2.7001405854126e-07,-2.70014058541175e-07,9.58543633948319e-08,0,0,0,8.08959999999979,102,949.644332887008,563.002945625445,1533.99199184624,964.079203067366,935.209462706651,563.976887982916,562.029003267974,1871.53300330033,1196.45098039216,0
1873.5104,2.48023861672876e-08,-7.64974113277249e-09,1.71526450346533e-08,-2.06417006540129e-07,1.31338809611338e-07,1.3133880961133e-07,-5.20152985032215e-07,-1.80357848280132e-07,-7.00510833312121e-07,2.73872048271125e-08,2.74382397221916e-08,2.73872048271452e-08,-1.40274128400509e-07,2.68823308492065e-08,-1.13391797551329e-07,1.90956592775196e-07,1.7472691202333e-08,2.08429283977417e-07,-1.23895726826603e-08,4.4734227816516e-08,-1.23895726826036e-08,7.44736566687852e-07,1.40444098979895e-07,8.85180665667275e-07,-5.37982711155381e-08,-5.56628505829084e-08,-5.56628505830746e-08,-9.35888897257593e-08,9.35888897257931e-08,-6.22418610992362e-08,1.61602343402053e-07,4.21940110824702e-08,2.03796354484199e-07,1.62146251992945e-07,-8.78704701920643e-08,7.42757818007461e-08,-1.04838019356075e-06,-5.86145278181751e-08,-5.86145278182434e-08,8.69475667973661e-09,,-1.27323934720208e-07,2.36156031870089e-07,-1.94571149434796e-07,4.15848824354147e-08,4.44732890479186e-07,7.35683283506066e-08,7.35683283509425e-08,2.69413789187317e-07,-2.69413789187231e-07,9.74647183534618e-08,0,0,0,8.19199999999978,103,948.331067961165,575.716504854369,1507.50970873786,960.73786407767,935.92427184466,578.523300970874,572.909708737864,1829.18446601942,1185.83495145631,0
1873.6128,2.79332818106918e-08,-6.80393652297355e-09,2.11293452878539e-08,-2.0848527336051e-07,1.34478599135446e-07,1.34478599135434e-07,-5.11977688282975e-07,-1.76783340937333e-07,-6.88761029220084e-07,3.21312799932318e-08,2.26596593771205e-08,3.21312799932637e-08,-1.46696212157159e-07,2.78754185669823e-08,-1.18820793590205e-07,1.85174728690697e-07,2.06427482898473e-08,2.05817476980433e-07,-2.43821568103713e-08,4.48598280611519e-08,-2.43821568103142e-08,7.40026321740016e-07,1.46079000454063e-07,8.86105322193614e-07,-6.10658439200903e-08,-5.47702432975084e-08,-5.47702432976763e-08,-9.52870559487988e-08,9.52870559488332e-08,-6.0144822428427e-08,1.61516215734276e-07,4.16153937538798e-08,2.03131609487834e-07,1.60198240659487e-07,-8.89002009415379e-08,7.12980397178175e-08,-1.04340121694047e-06,-6.20677537734244e-08,-6.20677537734874e-08,-4.0127170514558e-10,,-1.39780697222284e-07,2.38127724593086e-07,-1.9537643415637e-07,4.27512904368319e-08,4.48827617462627e-07,6.94071056208448e-08,6.94071056211753e-08,2.67978350679088e-07,-2.67978350679e-07,9.79701626965547e-08,0,0,0,8.2944,102,939.657843137255,537.862254901961,1498.97058823529,948.43431372549,930.88137254902,537.797058823529,537.927450980392,1814.00980392157,1183.93137254902,0
1873.7152,3.17531476644197e-08,-5.94565726700069e-09,2.58074903975534e-08,-2.09317928303863e-07,1.3762817386731e-07,1.37628173867295e-07,-5.00257140305615e-07,-1.72831058606036e-07,-6.73088198911431e-07,3.76834491644823e-08,1.76370555543715e-08,3.76834491645132e-08,-1.52033359717179e-07,2.88159880418467e-08,-1.23217371675363e-07,1.80850414107754e-07,2.34551654104489e-08,2.04305579518092e-07,-3.56252973063672e-08,4.50015803533775e-08,-3.56252973063094e-08,7.37451288002625e-07,1.51503779716136e-07,8.88955067718298e-07,-6.7498835974284e-08,-5.39882529160145e-08,-5.39882529161845e-08,-9.69373219649702e-08,9.69373219650044e-08,-5.75603192661575e-08,1.60198646766052e-07,4.14060775672643e-08,2.01604724332997e-07,1.57758462583789e-07,-9.08087146654836e-08,6.69497479181765e-08,-1.03305988323638e-06,-6.58751743513593e-08,-6.58751743514192e-08,-9.18082816839303e-09,,-1.50832425455237e-07,2.37894870086322e-07,-1.96262350634271e-07,4.16325194521599e-08,4.52821736722837e-07,6.4562492795917e-08,6.45624927962424e-08,2.65804071559467e-07,-2.65804071559377e-07,9.71589075528351e-08,0,0,0,8.39679999999999,103,940.48786407767,537.765048543689,1509.17961165049,949.839805825243,931.135922330097,540.111650485437,535.418446601942,1820.66019417476,1197.69902912621,0
1873.8176,3.66481582099496e-08,-5.09524255354421e-09,3.15529156565392e-08,-2.09013716762478e-07,1.40633550302751e-07,1.40633550302733e-07,-4.84794798574707e-07,-1.68524190783247e-07,-6.5331898935774e-07,4.41038451158521e-08,1.23610836821088e-08,4.41038451158819e-08,-1.55994825350467e-07,2.97122357197607e-08,-1.2628258963074e-07,1.77804847563064e-07,2.57666244271289e-08,2.0357147199008e-07,-4.60061781258818e-08,4.50856743187107e-08,-4.60061781258231e-08,7.37312325922122e-07,1.57324454532449e-07,8.94636780454113e-07,-7.30150467470078e-08,-5.32949446648318e-08,-5.32949446650047e-08,-9.8470873318967e-08,9.84708733190002e-08,-5.43995793541408e-08,1.57747842432714e-07,4.13632525485257e-08,1.99111094980922e-07,1.5483952029961e-07,-9.35869009111482e-08,6.12526193883358e-08,-1.01770701420914e-06,-7.0098515887188e-08,-7.00985158872454e-08,-1.6972232803873e-08,,-1.59676210403631e-07,2.35438737148528e-07,-1.97163549265764e-07,3.8275187882867e-08,4.56846088792836e-07,5.92146776749331e-08,5.92146776752533e-08,2.63062810989257e-07,-2.63062810989166e-07,9.48516475638157e-08,0,0,0,8.49919999999997,102,944.017647058824,538.10637254902,1494,953.2,934.835294117647,541.837254901961,534.375490196079,1802.06862745098,1185.93137254902,0
1873.92,4.27950823526058e-08,-4.32250979931819e-09,3.84725725534216e-08,-2.07794936013466e-07,1.43334711674142e-07,1.43334711674122e-07,-4.65532261917117e-07,-1.63872930166056e-07,-6.29405192082965e-07,5.1420843465852e-08,6.85553144080026e-09,5.14208434658804e-08,-1.58304867824834e-07,3.0536011719357e-08,-1.27768856105512e-07,1.75858215658209e-07,2.74506729786927e-08,2.03308888636788e-07,-5.54594783423702e-08,4.50525465706775e-08,-5.54594783423106e-08,7.39631050715107e-07,1.64056345346908e-07,9.03687396061562e-07,-7.75792987411738e-08,-5.2662659844052e-08,-5.2662659844228e-08,-9.98116866286942e-08,9.98116866287258e-08,-5.05573340999223e-08,1.54332839904737e-07,4.12685968485796e-08,1.95601436753001e-07,1.51506536205498e-07,-9.71509470354886e-08,5.4355589169886e-08,-9.97644025142627e-07,-7.47019964244526e-08,-7.47019964245089e-08,-2.32445297707603e-08,,-1.657209160878e-07,2.30839740868066e-07,-1.97955395666453e-07,3.28843452017113e-08,4.61042543119018e-07,5.34448011815103e-08,5.34448011818252e-08,2.59987477407853e-07,-2.59987477407761e-07,9.09381752380495e-08,0,1,0,8.60159999999996,102,945.807352941176,533.272549019608,1466.56862745098,954.46568627451,937.149019607843,544.104901960784,522.440196078432,1766.73529411765,1166.40196078431,0
1874.0224,5.01192381285068e-08,-3.72778515652742e-09,4.63914529721135e-08,-2.059412318944e-07,1.45566024022986e-07,1.45566024022963e-07,-4.42553395220773e-07,-1.58908245517976e-07,-6.01461640738549e-07,5.96173277614296e-08,1.17871927741396e-09,5.96173277614564e-08,-1.58742244550696e-07,3.123116938529e-08,-1.27511075165443e-07,1.74836018041371e-07,2.84073560983429e-08,2.03243374139599e-07,-6.39708663951285e-08,4.4862961319132e-08,-6.39708663950675e-08,7.44114083729498e-07,1.72004302731282e-07,9.16118386460333e-07,-8.11978014429616e-08,-5.20555643668148e-08,-5.20555643669946e-08,-1.0088111332118e-07,1.00881113321209e-07,-4.59113587108809e-08,1.50175481969938e-07,4.09174326895536e-08,1.91092914659178e-07,1.47851699488186e-07,-1.01341258396206e-07,4.65104410918606e-08,-9.73055498656666e-07,-7.95776047150578e-08,-7.95776047151121e-08,-2.76964178454691e-08,,-1.68674602568616e-07,2.24254418589124e-07,-1.98463250208147e-07,2.57911683810697e-08,4.6543962214293e-07,4.72345394038311e-08,4.72345394041409e-08,2.56837984626512e-07,-2.56837984626419e-07,8.54056655476217e-08,0,1,0,8.70399999999995,103,944.528640776699,530.503883495146,1453.5,952.669902912622,936.387378640777,542.968932038835,518.038834951456,1745.52427184466,1161.47572815534,0
1874.1248,5.82998082232904e-08,-3.41759721214645e-09,5.48822110112781e-08,-2.03731382924375e-07,1.47159932761249e-07,1.47159932761222e-07,-4.16112982718734e-07,-1.53718268816369e-07,-5.69831251534912e-07,6.86153871658564e-08,-4.57809111600046e-09,6.86153871658813e-08,-1.57187423285407e-07,3.17297088026409e-08,-1.25457714482805e-07,1.74553736966806e-07,2.85687114460471e-08,2.03122448412736e-07,-7.15824345918767e-08,4.45014540485522e-08,-7.15824345918145e-08,7.50141511926824e-07,1.81171378040569e-07,9.31312889966953e-07,-8.39094268022777e-08,-5.14229075795688e-08,-5.14229075797524e-08,-1.01607991395288e-07,1.01607991395315e-07,-4.03275732738887e-08,1.45520116817235e-07,4.01519273074622e-08,1.85672044124387e-07,1.43957154989299e-07,-1.05930966726923e-07,3.80261882622604e-08,-9.44015912838599e-07,-8.45757128921758e-08,-8.45757128922279e-08,-3.02806908457542e-08,,-1.68549581994511e-07,2.1589372772304e-07,-1.98476597554992e-07,1.74171301681355e-08,4.6985559343388e-07,4.0490946690821e-08,4.04909466911259e-08,2.53853352374135e-07,-2.53853352374041e-07,7.8347272406778e-08,0,1,0,8.80639999999994,102,944.601470588235,530.740196078431,1456.23529411765,951.790196078431,937.412745098039,546.322549019608,515.157843137255,1744.95098039216,1167.51960784314,0
1874.2272,6.68190786156857e-08,-3.48276088708794e-09,6.33363177287312e-08,-2.01417476031074e-07,1.47956223570226e-07,1.47956223570197e-07,-3.86679989154868e-07,-1.4846633683122e-07,-5.35146325985907e-07,7.82669108132917e-08,-1.02943287568645e-08,7.82669108133144e-08,-1.53656885719514e-07,3.19690986404106e-08,-1.21687787079145e-07,1.7479226046583e-07,2.79000848898553e-08,2.02692345355566e-07,-7.83913929315211e-08,4.39761100832332e-08,-7.83913929314575e-08,7.56792674018924e-07,1.91240886925373e-07,9.48033560943866e-07,-8.57823796717923e-08,-5.06959415746124e-08,-5.06959415747998e-08,-1.01941843841801e-07,1.01941843841827e-07,-3.36790082194942e-08,1.40598414099343e-07,3.88909818542328e-08,1.79489395953267e-07,1.39865804984073e-07,-1.10645286531011e-07,2.92205184529514e-08,-9.10574554392527e-07,-8.95277583681093e-08,-8.95277583681578e-08,-3.11572325239416e-08,,-1.65592945283617e-07,2.06011165914563e-07,-1.97775072657644e-07,8.23609325700135e-09,4.7391532719311e-07,3.30830463812452e-08,3.30830463815452e-08,2.51197818981428e-07,-2.51197818981334e-07,6.99550959900214e-08,0,0,0,8.90879999999993,103,945.084951456311,534.263106796117,1459.22815533981,951.739805825243,938.430097087379,547.144660194175,521.381553398058,1744.81553398058,1173.64077669903,0
1874.3296,7.50468845125735e-08,-3.98229079960186e-09,7.10645937131032e-08,-1.99224160765918e-07,1.47813813427029e-07,1.47813813426996e-07,-3.54964618782603e-07,-1.43377728173093e-07,-4.98342346955524e-07,8.83548895044149e-08,-1.58288004434878e-08,8.83548895044351e-08,-1.48310402474981e-07,3.19041571437365e-08,-1.16406245331289e-07,1.75279554394954e-07,2.64009243830083e-08,2.0168047877784e-07,-8.45367594887029e-08,4.33142619717729e-08,-8.45367594886378e-08,7.62907428736122e-07,2.01644478755652e-07,9.64551907491354e-07,-8.69198281698478e-08,-4.97954704736513e-08,-4.9795470473842e-08,-1.01860936130556e-07,1.0186093613058e-07,-2.58780063531794e-08,1.35603296825111e-07,3.71400296425978e-08,1.72743326467404e-07,1.35573324211392e-07,-1.15190085444534e-07,2.03832387667523e-08,-8.72881792097158e-07,-9.42607118081697e-08,-9.42607118082128e-08,-3.06101786297131e-08,,-1.60197876131334e-07,1.94900272053266e-07,-1.9616815903641e-07,-1.26788698306791e-09,4.77180593525389e-07,2.48831690201561e-08,2.4883169020451e-08,2.48914615103625e-07,-2.48914615103531e-07,6.05089279485191e-08,0,0,0,9.01119999999992,102,941.675,534.403431372549,1457.6568627451,947.016666666667,936.333333333333,547.177450980392,521.629411764706,1744.83333333333,1170.48039215686,0
1874.432,8.23487297647313e-08,-4.93250116133964e-09,7.74162286035204e-08,-1.97344400708367e-07,1.46621087692193e-07,1.46621087692155e-07,-3.21900908919974e-07,-1.38699096085776e-07,-4.60600005005588e-07,9.86023542665893e-08,-2.10371228285388e-08,9.86023542666067e-08,-1.41434969966746e-07,3.15107558773139e-08,-1.09924214089479e-07,1.75682155165411e-07,2.41074276473164e-08,1.99789582812604e-07,-9.01795681340444e-08,4.25549104297724e-08,-9.01795681339779e-08,7.67167740687792e-07,2.11681892702769e-07,9.78849633390153e-07,-8.74708051834549e-08,-4.86501094414813e-08,-4.8650109441675e-08,-1.01369517978661e-07,1.01369517978686e-07,-1.69105982331304e-08,1.30680842468956e-07,3.4970092140446e-08,1.65650934609101e-07,1.31040323455191e-07,-1.19286837186633e-07,1.17534862684559e-08,-8.31310239296772e-07,-9.86133975378158e-08,-9.861339753785e-08,-2.89796517042264e-08,,-1.52850715300207e-07,1.82891081063798e-07,-1.93539328616527e-07,-1.06482475526596e-08,4.79316772853373e-07,1.58118154934104e-08,1.58118154936999e-08,2.46905217373333e-07,-2.4690521737324e-07,5.03645146626999e-08,0,0,0,9.11359999999991,102,943.437745098039,532.553921568627,1453.36274509804,946.403921568627,940.471568627451,548.655882352941,516.451960784314,1743.95098039216,1162.77450980392,0
1874.5344,8.81978058595324e-08,-6.3007429904376e-09,8.18970628692194e-08,-1.95906920736999e-07,1.44300854136605e-07,1.44300854136564e-07,-2.88577694048239e-07,-1.34650210973749e-07,-4.23227905021835e-07,1.08683591717006e-07,-2.57966745186285e-08,1.08683591717021e-07,-1.3341913121556e-07,3.07845914077071e-08,-1.02634539807904e-07,1.75602132931177e-07,2.1094556065477e-08,1.96696688996529e-07,-9.54855607498105e-08,4.17392120097684e-08,-9.54855607497428e-08,7.6819085918823e-07,2.2064129748892e-07,9.88832156676758e-07,-8.76353267342735e-08,-4.72168765846672e-08,-4.72168765848632e-08,-1.00490197839707e-07,1.00490197839732e-07,-6.8577499797158e-09,1.25932284725633e-07,3.24795891516254e-08,1.58411873876963e-07,1.26210793616103e-07,-1.22708365334777e-07,3.50242828122784e-09,-7.86533798336223e-07,-1.02460128946432e-07,-1.02460128946456e-07,-2.66300061501202e-08,,-1.44117664370973e-07,1.70335058045905e-07,-1.89878706374253e-07,-1.95436483282853e-08,4.80207887148272e-07,5.88398332343105e-09,5.88398332371552e-09,2.44943143786324e-07,-2.44943143786232e-07,3.9932504856769e-08,0,0,0,9.21599999999989,103,945.17572815534,539.211650485437,1446.56310679612,947.46213592233,942.88932038835,555.590291262136,522.833009708738,1739.4854368932,1153.64077669903,0
1874.6368,9.22588235448429e-08,-8.00599157236664e-09,8.42528319725958e-08,-1.94918466302596e-07,1.40807522930531e-07,1.40807522930485e-07,-2.56131750812629e-07,-1.31390077161331e-07,-3.87521827973817e-07,1.18239397483854e-07,-3.00305225478819e-08,1.18239397483865e-07,-1.24726702054969e-07,2.97405945465285e-08,-9.49861075084952e-08,1.74583857383052e-07,1.7472522256672e-08,1.92056379639598e-07,-1.00611996865199e-07,4.09007404875386e-08,-1.00611996865131e-07,7.64634460854245e-07,2.27883964755474e-07,9.92518425609343e-07,-8.765130935975e-08,-4.54929963534713e-08,-4.54929963536689e-08,-9.9262114553889e-08,9.92621145539148e-08,4.10878501288323e-09,1.21410753512692e-07,2.97667485479416e-08,1.51177502060344e-07,1.21021585447588e-07,-1.25305644316551e-07,-4.28405886905759e-09,-7.39523207626496e-07,-1.05733273557922e-07,-1.05733273557934e-07,-2.3942921713034e-08,,-1.34636032297241e-07,1.57576407827424e-07,-1.8528950502437e-07,-2.77130971968905e-08,4.79966024201822e-07,-4.75318891758159e-09,-4.75318891730218e-09,2.42712767245698e-07,-2.42712767245606e-07,2.96387337924178e-08,0,0,0,9.31839999999988,102,947.441951389967,540.537307938654,1437.72069710009,945.519712140175,949.36419063976,556.03411208455,525.040503792758,1733.78911138924,1141.65228281093,0.245098039215686
1874.7392,9.44100731545672e-08,-9.92825663761549e-09,8.44818165170659e-08,-1.94215038822049e-07,1.36119196152453e-07,1.36119196152402e-07,-2.25631449282124e-07,-1.29008631371739e-07,-3.54640080653729e-07,1.26901010601132e-07,-3.37191751620621e-08,1.2690101060114e-07,-1.1586889274593e-07,2.84144794956009e-08,-8.74544132503886e-08,1.72138027914106e-07,1.33750093152226e-08,1.85513037229201e-07,-1.05694182831112e-07,4.00582509370546e-08,-1.05694182831043e-07,7.55305686515536e-07,2.32879126258922e-07,9.881848127741e-07,-8.77612344824293e-08,-4.35132779282231e-08,-4.35132779284221e-08,-9.7745933557354e-08,9.7745933557381e-08,1.57574452473746e-08,1.17110926977493e-07,2.69257432485272e-08,1.44036670225736e-07,1.15397572596583e-07,-1.27016750613444e-07,-1.16191780169499e-08,-6.91432730585413e-07,-1.08430576015579e-07,-1.08430576015578e-07,-2.1316013070998e-08,,-1.25083307186065e-07,1.44915536988356e-07,-1.79962968954377e-07,-3.50474319659731e-08,4.78847380694978e-07,-1.58075826193756e-08,-1.58075826191014e-08,2.39850785473808e-07,-2.39850785473717e-07,1.98706667050408e-08,0,0,0,9.42079999999987,103,945.726902507023,525.067423206381,1438.0532902504,941.382420987399,950.071384026646,536.379811333747,513.755035079016,1749.49039454658,1126.61618595422,0.16504854368932
1874.8416,9.46958248111416e-08,-1.19242688353958e-08,8.27715559758546e-08,-1.93460855402079e-07,1.30229340694304e-07,1.30229340694248e-07,-1.97984297518758e-07,-1.27540577753607e-07,-3.25524875272237e-07,1.34319746974164e-07,-3.68947716330347e-08,1.34319746974169e-07,-1.0736766535282e-07,2.68633763950363e-08,-8.05042889578467e-08,1.67776396252303e-07,8.94033946261748e-09,1.76716735714792e-07,-1.10826678117518e-07,3.92133807793944e-08,-1.10826678117448e-07,7.39254153997004e-07,2.35196615761174e-07,9.74450769757835e-07,-8.81718686174303e-08,-4.1335817470161e-08,-4.13358174703611e-08,-9.60265474591313e-08,9.60265474591593e-08,2.78403515285493e-08,1.12964674354495e-07,2.40563921287014e-08,1.37021066482917e-07,1.09239095843803e-07,-1.2785657510095e-07,-1.86174792572334e-08,-6.43416091404142e-07,-1.10601743542339e-07,-1.10601743542327e-07,-1.91497419827552e-08,,-1.1611817617196e-07,1.32575474923212e-07,-1.74131058697862e-07,-4.15555837746099e-08,4.77153241434121e-07,-2.68629707308534e-08,-2.68629707305841e-08,2.35972352000024e-07,-2.35972351999933e-07,1.09257430861745e-08,0,0,0,9.52319999999986,102,939.136274509804,547.350490196078,1428.5931372549,935.864705882353,942.407843137255,562.307843137255,532.393137254902,1721.74509803922,1135.44117647059,0
